slno,emg1,emg2,emg3,emg4,emg5,emg6,emg7,emg8,Time
0,-1,-1,-1,0,-1,-1,-1,-1,0.0
1,0,0,0,-2,0,-1,-3,-2,0.005
2,-1,0,0,1,0,-1,-2,-2,0.01
3,0,0,-1,-2,0,0,-1,-1,0.015
4,-1,-2,-3,-2,-3,0,1,0,0.02
5,0,-1,-1,0,-3,-1,-2,-1,0.025
6,0,0,0,-1,-1,-1,-1,0,0.03
7,-2,-1,0,0,-2,-2,-2,-1,0.035
8,-1,2,1,-1,-3,-1,-1,1,0.04
9,-1,-3,-4,-3,0,-1,0,0,0.045
10,0,-1,-2,-1,-1,-1,-1,0,0.05
11,1,-3,-2,1,1,0,-1,0,0.055
12,-2,-1,-2,-1,2,0,1,0,0.06
13,-2,-1,0,1,0,0,0,0,0.065
14,-1,-1,0,-1,-1,-1,-2,-1,0.07
15,-1,-1,-1,-1,-1,-1,0,0,0.075
16,0,0,0,-2,0,-1,-2,-1,0.08
17,0,2,2,0,-1,-1,1,0,0.085
18,-1,-2,1,0,-1,0,0,-1,0.09
19,0,-1,-2,-2,-2,-2,-1,-1,0.095
20,-2,0,-1,-1,2,1,-1,-2,0.1
21,-1,0,-1,0,-1,-1,0,-1,0.105
22,1,2,1,-1,1,-2,-1,0,0.11
23,-2,-5,-3,-3,0,0,-1,-2,0.115
24,-1,0,0,-1,-1,-2,0,0,0.12
25,-1,0,0,-2,-1,-2,-2,0,0.125
26,0,-2,-1,-1,-1,-2,-1,-2,0.13
27,1,0,0,0,-1,0,-2,-1,0.135
28,1,-1,0,0,-1,0,0,-1,0.14
29,-1,-2,-1,-1,-1,0,-1,-2,0.145
30,-1,0,-1,0,0,-1,-2,0,0.15
31,-2,0,-1,-2,0,-1,-2,-1,0.155
32,0,-1,1,-1,0,1,0,-1,0.16
33,-1,-3,-3,-1,0,0,-2,-1,0.165
34,0,-1,-1,0,-2,0,0,-2,0.17
35,-1,2,0,1,-1,-2,0,0,0.17500000000000002
36,-2,1,0,1,-3,-2,-1,-1,0.18
37,-2,-2,0,0,-1,0,0,-1,0.185
38,0,-3,-1,-2,-1,0,-1,0,0.19
39,-1,-1,-1,-1,0,-1,0,-2,0.195
40,-2,-2,-3,-3,-1,-1,-2,-1,0.2
41,0,-1,2,0,-1,-1,-1,-2,0.20500000000000002
42,-2,-2,-3,0,0,2,1,0,0.21
43,0,-2,-1,0,0,0,1,1,0.215
44,0,-1,-2,-3,0,-1,-1,-2,0.22
45,0,-1,-3,0,-1,-1,0,0,0.225
46,-2,0,0,0,-3,0,0,0,0.23
47,-1,-3,-1,-2,-1,0,0,-1,0.23500000000000001
48,-1,-1,-1,0,0,-1,1,-3,0.24
49,0,0,-2,-1,-1,-2,-2,-1,0.245
50,-2,2,1,0,0,-1,0,-1,0.25
51,-1,0,0,1,-1,-1,-1,0,0.255
52,0,-2,-1,-1,0,-1,-1,-1,0.26
53,-1,-1,1,-2,-1,-1,0,-2,0.265
54,0,-2,0,-1,0,0,1,0,0.27
55,1,-2,-2,0,-1,-2,-1,-1,0.275
56,0,1,-1,1,1,0,-2,1,0.28
57,-2,0,-3,-1,0,-2,-2,-1,0.28500000000000003
58,0,-1,-2,0,0,-2,-2,-2,0.29
59,-1,0,0,0,0,-2,0,0,0.295
60,0,-2,0,0,0,1,1,2,0.3
61,0,0,1,-1,1,0,1,-1,0.305
62,-2,0,-1,0,1,0,-1,-1,0.31
63,0,-1,0,-2,-1,1,1,-1,0.315
64,0,0,-3,0,-1,-1,-1,-1,0.32
65,-1,-1,0,-1,-3,-1,0,0,0.325
66,0,-1,-2,0,-2,-1,0,-1,0.33
67,0,1,0,0,-2,-1,-1,-1,0.335
68,0,0,1,-1,-2,0,-1,0,0.34
69,0,-2,-3,0,0,0,0,-2,0.34500000000000003
70,0,-2,1,-1,-1,0,-1,-1,0.35000000000000003
71,-1,0,-2,-1,-1,-1,-1,-1,0.355
72,-1,-3,-1,1,1,0,-2,-3,0.36
73,-1,0,0,0,-1,0,1,1,0.365
74,0,0,-1,0,-1,0,-1,0,0.37
75,1,1,1,-3,-1,0,-1,-1,0.375
76,-1,-1,-1,-1,1,0,-1,-1,0.38
77,0,-1,1,0,0,-1,0,-1,0.385
78,1,-1,0,-2,1,1,-1,0,0.39
79,-1,0,-1,0,-1,-1,-2,-1,0.395
80,-2,0,-1,0,-2,-2,0,0,0.4
81,1,-1,-1,-1,-3,1,-1,1,0.405
82,-1,-1,0,-1,-1,0,-1,-3,0.41000000000000003
83,0,-2,1,2,0,0,0,-1,0.41500000000000004
84,-1,-2,-2,-3,0,1,-2,-1,0.42
85,-1,0,0,1,-1,-3,-3,0,0.425
86,-1,-2,-1,-2,0,-1,1,0,0.43
87,0,-1,-2,-2,-1,-1,-1,1,0.435
88,-1,0,-2,-1,-1,-1,0,0,0.44
89,1,0,0,0,0,0,1,0,0.445
90,-2,-3,-3,-2,-2,-1,-1,0,0.45
91,-1,-1,-1,0,-1,-1,-1,-1,0.455
92,1,1,0,-1,-1,-1,0,-1,0.46
93,-1,2,-1,-2,0,-1,-1,-2,0.465
94,-2,0,-2,-1,0,-1,-2,0,0.47000000000000003
95,-2,-2,1,1,1,0,1,-1,0.47500000000000003
96,-2,-1,-1,-2,-1,-2,0,-1,0.48
97,0,-1,-4,-2,1,-1,-3,-2,0.485
98,0,0,1,-1,-1,-1,-2,0,0.49
99,0,-1,0,-3,0,0,-2,-1,0.495
100,-1,-1,0,0,-2,-1,0,-1,0.5
101,0,-2,-3,-2,-2,-1,0,-2,0.505
102,0,0,1,1,0,-1,0,-1,0.51
103,-1,-2,-2,1,1,1,0,-2,0.515
104,-1,1,0,0,-2,-1,1,0,0.52
105,-2,0,0,3,-2,-1,-2,-1,0.525
106,0,0,1,2,-2,-1,-1,0,0.53
107,-1,0,-2,-2,0,0,0,0,0.535
108,0,-3,0,-2,0,1,0,0,0.54
109,-1,-1,-1,-2,1,1,0,-1,0.545
110,1,-2,0,-2,-1,-1,-1,-2,0.55
111,0,-1,0,0,-2,-1,0,1,0.555
112,-1,0,-3,-3,-2,-1,-3,-2,0.56
113,-1,0,0,2,-1,-1,2,-1,0.5650000000000001
114,-1,-2,-1,1,-2,0,-1,-1,0.5700000000000001
115,0,-1,-2,-1,-1,-2,-1,1,0.5750000000000001
116,-2,-3,-2,-2,1,0,-2,0,0.58
117,-3,0,-2,-2,0,-1,-2,0,0.585
118,0,0,2,1,1,-1,-1,0,0.59
119,-1,-1,0,-2,-2,0,-1,-2,0.595
120,-1,-1,0,1,0,-1,-1,-1,0.6
121,0,1,-3,-1,1,1,0,1,0.605
122,0,1,-3,0,1,0,0,-1,0.61
123,-2,-1,0,0,-3,-2,0,-1,0.615
124,-1,1,0,0,-3,-1,-2,-1,0.62
125,1,-1,-1,-3,0,-2,0,-1,0.625
126,1,-2,-6,-3,-2,-1,0,0,0.63
127,0,0,2,2,0,0,0,0,0.635
128,-3,-2,3,6,-2,-1,-1,-2,0.64
129,-1,2,2,0,1,0,0,0,0.645
130,0,0,-2,-4,-1,-1,-1,-2,0.65
131,-2,-5,-7,-7,-2,-3,0,-3,0.655
132,-1,-2,3,1,-1,1,0,-1,0.66
133,0,0,0,1,-1,2,-3,-1,0.665
134,-4,1,-2,-4,-1,0,-4,-4,0.67
135,5,-1,-1,-3,-1,-1,1,5,0.675
136,0,-1,2,0,-1,-2,-1,-1,0.68
137,0,-3,1,-3,-3,-1,0,-1,0.685
138,0,-2,-2,-2,-1,0,1,0,0.6900000000000001
139,-1,1,-2,0,-1,0,-1,-3,0.6950000000000001
140,0,0,-2,-2,-1,0,-1,1,0.7000000000000001
141,-1,-1,-2,1,0,-1,-2,0,0.705
142,0,-2,-3,-2,0,-1,-1,0,0.71
143,-4,-1,-1,-2,0,-2,-1,-2,0.715
144,1,-1,2,1,1,-1,0,0,0.72
145,-1,-1,4,3,0,-1,-1,-2,0.725
146,-2,0,-9,-1,-2,-1,-1,1,0.73
147,-1,-1,-2,-5,-1,1,-1,-1,0.735
148,0,-1,-6,-5,-1,-2,1,2,0.74
149,0,-1,1,-3,-3,-1,-1,-3,0.745
150,0,-1,6,5,-1,-4,-1,-2,0.75
151,0,2,-1,-1,0,0,2,0,0.755
152,-1,-4,-5,-4,-2,-2,-6,-1,0.76
153,0,-1,-2,0,1,2,3,2,0.765
154,1,-2,4,2,-1,0,1,1,0.77
155,-1,-1,-2,0,1,-2,-1,-1,0.775
156,0,2,-1,-4,-1,-2,-1,0,0.78
157,-1,1,0,2,1,-1,-1,0,0.785
158,0,-1,-2,-6,0,-1,1,-1,0.79
159,-3,1,7,10,-1,0,0,-4,0.795
160,1,0,-2,3,-1,0,1,1,0.8
161,-1,-2,-2,-2,0,-2,0,-1,0.805
162,2,6,7,4,4,-2,-2,2,0.81
163,-2,-10,-15,-11,-3,2,4,-1,0.8150000000000001
164,-4,-3,-1,-3,-1,1,0,-2,0.8200000000000001
165,-2,-4,0,-2,-3,-1,-1,-1,0.8250000000000001
166,-1,-1,6,-1,-1,1,-2,1,0.8300000000000001
167,5,6,3,3,1,-1,-4,2,0.835
168,-2,-2,-4,-2,3,5,3,2,0.84
169,2,0,4,-1,-4,-7,-4,0,0.845
170,-2,-6,-6,-2,-3,-3,-1,-1,0.85
171,2,1,4,2,0,-1,-3,-1,0.855
172,2,0,-3,0,0,1,8,1,0.86
173,-7,-1,1,-1,-2,-1,-6,-9,0.865
174,16,3,1,1,0,-3,0,10,0.87
175,-5,-3,-5,-6,-4,3,-1,-4,0.875
176,2,1,3,0,1,-2,-2,-1,0.88
177,-2,0,-4,-1,0,1,1,-2,0.885
178,-3,-2,-1,2,-2,0,0,-5,0.89
179,0,-1,0,-3,0,0,-1,-1,0.895
180,-1,1,6,6,-2,-2,0,-2,0.9
181,0,-1,-6,-3,-3,1,0,1,0.905
182,-4,-2,-2,-7,-1,-3,-3,-3,0.91
183,0,-2,7,9,2,-1,-1,-2,0.915
184,-5,-2,-1,0,-1,-2,-3,-5,0.92
185,-1,-6,-9,-6,-3,0,-1,1,0.925
186,-2,-1,-1,3,0,1,1,0,0.93
187,-4,1,0,-9,0,-5,-5,-1,0.935
188,3,2,-9,-9,-1,1,0,0,0.9400000000000001
189,-1,1,5,11,1,0,5,1,0.9450000000000001
190,-3,-1,-2,-3,-2,-3,-4,-2,0.9500000000000001
191,3,-2,-18,-15,-2,1,3,1,0.9550000000000001
192,1,1,9,10,1,1,-7,-2,0.96
193,4,3,6,2,2,-3,1,2,0.965
194,-12,-5,-3,1,1,4,0,-7,0.97
195,1,3,2,2,0,-5,2,1,0.975
196,10,-2,-9,-6,-2,0,-6,4,0.98
197,-4,-1,1,0,-1,-1,-1,-2,0.985
198,0,2,8,4,-1,-3,1,2,0.99
199,-5,-4,-10,0,0,-1,-4,-5,0.995
200,0,1,4,2,1,4,9,2,1.0
201,0,-2,-5,-19,-2,1,-2,0,1.0050000000000001
202,1,2,-4,2,0,2,-1,-3,1.01
203,-4,-5,-8,-9,-3,-3,-4,-2,1.0150000000000001
204,-3,-1,5,5,0,-3,-2,-2,1.02
205,2,2,2,3,2,0,-3,-2,1.025
206,-2,-1,-13,-16,-4,-2,1,-1,1.03
207,3,3,11,13,0,1,1,1,1.035
208,-6,-2,3,-4,-3,-3,-2,-4,1.04
209,1,-5,-13,-8,-2,2,1,0,1.045
210,-4,-6,-10,0,0,-2,-3,-5,1.05
211,0,1,8,6,1,-1,0,6,1.055
212,-1,6,16,13,0,0,-3,-7,1.06
213,10,1,-18,-14,-3,-6,-3,6,1.065
214,4,0,17,11,-1,7,9,3,1.07
215,-5,-6,-17,-16,-4,1,-2,-3,1.075
216,-2,-2,-8,-13,-2,-2,-1,-1,1.08
217,-1,-1,8,13,1,-1,1,0,1.085
218,4,3,9,8,0,-3,-5,-2,1.09
219,4,4,14,2,3,0,0,8,1.095
220,-1,-4,-13,-2,1,0,1,1,1.1
221,-9,-4,-10,-3,0,-2,1,-1,1.105
222,-7,-7,-13,-9,-2,-3,-3,-5,1.11
223,5,4,15,11,1,2,3,1,1.115
224,1,2,3,2,0,-6,-7,0,1.12
225,18,-2,4,6,1,7,10,1,1.125
226,-6,-1,-7,-9,0,0,1,-3,1.1300000000000001
227,-6,-2,-1,-1,0,-1,-3,-5,1.135
228,-4,3,24,18,3,2,3,-4,1.1400000000000001
229,1,-8,-38,-22,-1,0,1,4,1.145
230,-1,-3,-4,-18,-6,-5,-4,0,1.1500000000000001
231,2,2,7,9,-2,0,-2,-2,1.155
232,-4,-3,-10,-8,1,1,2,-1,1.16
233,-4,5,22,7,-2,-3,-5,-1,1.165
234,1,-6,-7,-6,0,0,3,3,1.17
235,-3,0,11,12,1,0,-1,0,1.175
236,-5,-5,9,5,-5,-1,-2,-5,1.18
237,-2,-3,-15,-4,-2,1,-3,-2,1.185
238,8,1,4,13,1,-2,-1,2,1.19
239,0,1,-2,-13,-3,-2,3,4,1.195
240,0,1,2,1,-1,-1,-3,-3,1.2
241,-4,-2,-5,-7,1,-2,-6,-7,1.205
242,10,3,2,-4,0,4,6,0,1.21
243,7,0,-12,-3,0,1,0,6,1.215
244,-5,-1,-12,-4,-2,-1,6,0,1.22
245,1,2,6,-7,-1,-1,-6,0,1.225
246,-6,3,13,20,0,-3,-3,-3,1.23
247,-4,-7,-12,-15,-3,0,0,-4,1.235
248,-3,-2,-26,-25,-1,0,1,0,1.24
249,0,2,39,41,4,-3,1,0,1.245
250,1,3,1,4,2,0,0,0,1.25
251,-7,-2,1,3,-3,-2,-3,0,1.2550000000000001
252,3,-6,-14,-8,-4,-3,-5,0,1.26
253,-7,1,12,2,2,2,3,-3,1.2650000000000001
254,-3,-6,-24,-21,-6,-2,-3,-2,1.27
255,-10,-3,-5,2,0,-2,-1,-7,1.2750000000000001
256,3,5,28,17,1,2,-2,0,1.28
257,-7,-11,-37,-37,-10,-4,-1,-3,1.285
258,-4,0,16,30,4,-2,0,2,1.29
259,5,-1,6,2,-2,-4,-5,-3,1.295
260,-11,-4,-4,-7,-5,0,0,-7,1.3
261,15,8,26,41,5,1,1,6,1.305
262,-5,-7,-45,-53,-5,0,1,-1,1.31
263,-21,-1,-1,-1,-2,-1,-3,-14,1.315
264,15,-1,2,1,3,-3,-2,9,1.32
265,-22,-6,-10,-18,-4,-1,-1,-5,1.325
266,6,2,2,5,3,2,3,3,1.33
267,5,7,-1,-11,1,1,1,-1,1.335
268,-12,-13,-8,16,-3,-4,-4,-11,1.34
269,7,4,17,32,6,3,3,-1,1.345
270,-9,-7,10,-1,-6,-5,-7,-6,1.35
271,4,-4,-14,-32,-6,1,0,2,1.355
272,7,5,-23,-35,0,3,4,9,1.36
273,8,-4,10,13,-5,-7,-5,1,1.365
274,-9,3,14,21,4,2,1,-2,1.37
275,2,1,-12,-11,1,0,1,-3,1.375
276,3,2,-9,-12,1,2,3,2,1.3800000000000001
277,12,4,-12,2,1,1,-1,4,1.385
278,-24,31,19,-9,-3,-1,-3,-11,1.3900000000000001
279,11,-28,21,25,-2,-4,-2,9,1.395
280,8,8,-15,5,1,-2,2,7,1.4000000000000001
281,11,-4,-14,-35,-5,0,0,-1,1.405
282,-15,12,19,52,2,-2,-2,-4,1.41
283,-8,-12,-17,-18,-3,-1,-2,-4,1.415
284,-8,1,19,16,-2,-5,-4,-7,1.42
285,2,-11,-12,-11,3,2,0,3,1.425
286,12,-22,8,6,-3,3,5,5,1.43
287,-13,12,2,-2,1,0,-1,-7,1.435
288,-2,-14,-9,-11,-2,-3,-3,3,1.44
289,-16,-1,13,27,-1,-3,-2,-10,1.445
290,16,2,-10,-19,0,-3,0,4,1.45
291,-1,4,10,17,3,0,1,-1,1.455
292,15,2,-1,-12,-1,3,3,8,1.46
293,-17,2,-9,-14,1,0,-3,-5,1.465
294,-8,-14,1,0,-6,-4,-6,-7,1.47
295,5,2,-7,-5,-1,-1,-1,0,1.475
296,8,11,10,5,-2,-2,-5,0,1.48
297,2,6,4,5,-2,2,4,3,1.485
298,6,-5,-21,-26,-1,-1,0,1,1.49
299,-12,4,17,33,3,-1,0,-6,1.495
300,2,3,-1,-16,-3,0,2,4,1.5
301,-1,-9,0,0,-2,-2,-3,0,1.5050000000000001
302,-1,1,-2,3,3,2,3,-4,1.51
303,7,9,-1,-5,-4,-2,-3,5,1.5150000000000001
304,-6,-11,4,6,0,-2,1,-5,1.52
305,0,0,-1,-11,-3,0,-2,-4,1.5250000000000001
306,-3,-3,-7,0,3,0,0,4,1.53
307,13,4,5,6,2,-1,3,4,1.5350000000000001
308,-7,-4,-3,-1,-3,-1,1,-3,1.54
309,5,5,2,-1,1,-1,-1,0,1.545
310,6,4,0,-2,-1,2,-1,2,1.55
311,7,-1,-4,-4,1,0,0,0,1.555
312,-9,4,-3,-3,-2,-1,-2,-6,1.56
313,-11,-6,0,6,2,-4,-2,-4,1.565
314,2,-10,-3,-1,-3,-2,-1,-2,1.57
315,2,-17,-11,-9,-3,1,0,0,1.575
316,6,0,7,9,3,2,1,2,1.58
317,-8,3,3,6,1,0,0,-1,1.585
318,4,3,-5,-21,-5,-1,-1,1,1.59
319,-4,0,-3,3,-2,-1,-1,-4,1.595
320,3,-3,-1,8,0,-1,-1,-3,1.6
321,-8,7,-2,-5,-3,-2,0,-2,1.605
322,-5,-8,-3,-12,2,-1,0,2,1.61
323,0,-9,-2,2,-4,-3,-4,-3,1.615
324,-6,1,-1,8,2,-2,-3,-2,1.62
325,-1,-2,-1,-10,-2,0,-1,-2,1.625
326,7,3,1,14,2,1,0,1,1.6300000000000001
327,3,15,3,-1,2,1,2,1,1.635
328,-4,0,0,-5,-4,-3,-2,-3,1.6400000000000001
329,-4,-5,-3,-1,1,2,3,1,1.645
330,-2,-3,-6,-7,-2,-2,-2,-2,1.6500000000000001
331,6,-4,-1,0,2,1,-1,-3,1.655
332,-2,-6,-2,2,0,-1,-4,-5,1.6600000000000001
333,1,-5,-4,-6,-3,-2,0,0,1.665
334,0,3,0,-3,-2,-3,1,1,1.67
335,-2,1,2,2,-2,-2,-2,-1,1.675
336,-1,-10,0,-1,1,0,0,2,1.68
337,0,3,0,-2,-1,-1,-3,-2,1.685
338,1,-1,5,6,-2,-3,-3,-2,1.69
339,-2,1,-4,-3,0,-1,1,1,1.695
340,-4,-8,5,3,0,0,-1,-1,1.7
341,-1,-4,-4,-4,-1,-4,-1,0,1.705
342,1,-4,2,0,-2,1,-1,-1,1.71
343,-6,0,-6,-2,0,-1,0,0,1.715
344,-2,3,2,1,-1,0,1,-1,1.72
345,-2,-3,0,-3,-3,-1,0,-2,1.725
346,2,-1,-4,-2,-2,-1,-3,-1,1.73
347,-7,-2,-6,-6,-4,-1,-4,-2,1.735
348,-2,2,3,4,-1,0,1,2,1.74
349,2,0,3,4,2,0,0,1,1.745
350,-1,-2,-7,-5,-1,-2,-1,-1,1.75
351,-2,0,1,0,0,0,0,-5,1.7550000000000001
352,1,6,3,2,2,2,5,3,1.76
353,5,7,0,-4,-4,-5,-4,-1,1.7650000000000001
354,-1,7,-1,1,-1,2,5,-2,1.77
355,0,-3,-1,0,-1,-6,-11,1,1.7750000000000001
356,-2,-3,-6,-4,-1,4,2,-8,1.78
357,-1,0,-1,-2,-1,0,1,0,1.7850000000000001
358,0,2,-1,1,-2,-2,2,-1,1.79
359,-1,-2,1,2,-1,0,3,2,1.795
360,1,-2,-4,-5,-1,-2,-1,1,1.8
361,-3,-2,-3,-2,-1,-4,-2,-2,1.805
362,-2,-4,1,-1,1,1,0,-2,1.81
363,-1,-2,-1,0,-1,2,4,1,1.815
364,-1,0,-1,-1,-2,-2,-5,-1,1.82
365,0,4,-1,-1,-1,1,-2,-1,1.825
366,-2,-4,1,4,0,-1,0,1,1.83
367,1,-1,0,0,0,3,5,0,1.835
368,3,0,-1,-2,-3,-3,-2,-3,1.84
369,-5,-7,-5,-1,-3,-1,-2,-1,1.845
370,0,-1,-2,0,0,1,-4,-1,1.85
371,-2,0,1,-3,-1,-2,-1,-3,1.855
372,0,1,-3,-1,-2,-1,1,1,1.86
373,-4,-4,0,0,2,1,0,-2,1.865
374,-2,-3,0,0,0,-3,-2,1,1.87
375,1,2,-1,1,-3,0,4,2,1.875
376,0,-1,-4,-3,-2,-2,-2,1,1.8800000000000001
377,-1,0,2,4,2,3,1,2,1.885
378,0,0,-1,-3,0,0,5,7,1.8900000000000001
379,2,4,-1,2,2,3,5,4,1.895
380,-21,-6,-4,-8,-4,-6,-15,-25,1.9000000000000001
381,-7,-8,-2,-4,-4,-8,-13,-18,1.905
382,-2,-3,0,3,1,-2,-4,-5,1.9100000000000001
383,0,-8,4,2,5,-1,2,2,1.915
384,6,6,-2,-2,2,2,5,11,1.92
385,4,3,-4,-1,-2,2,6,7,1.925
386,-6,0,-1,-2,-3,-1,-3,-3,1.93
387,-4,-2,-1,-1,-4,-2,0,-1,1.935
388,1,-2,0,-1,-2,-2,1,3,1.94
389,4,1,2,1,0,-1,-2,0,1.945
390,2,-4,0,-1,-1,0,0,2,1.95
391,1,-1,-3,-1,-1,-2,-3,-2,1.955
392,-1,-1,0,1,0,-1,-1,-1,1.96
393,1,0,0,0,-1,0,2,4,1.965
394,-2,0,-3,-2,-2,-1,-4,-3,1.97
395,-4,-3,-2,0,-1,0,-4,-5,1.975
396,0,-1,3,2,-1,-6,-3,1,1.98
397,0,0,-2,-1,-2,8,12,4,1.985
398,-1,0,2,-3,0,-2,-2,0,1.99
399,-2,-3,-2,-4,-2,-2,-4,-2,1.995
400,2,1,-1,0,0,0,3,4,2.0
401,0,-1,-1,5,2,1,-2,1,2.005
402,0,2,11,4,1,0,0,-3,2.0100000000000002
403,1,7,12,8,-1,1,2,0,2.015
404,0,-8,-21,-8,-2,-3,7,2,2.02
405,-4,-7,-24,-19,-3,-2,-7,-5,2.025
406,2,6,17,16,1,-4,2,2,2.0300000000000002
407,-9,-23,-41,-24,-11,-6,-12,-9,2.035
408,0,6,23,7,0,0,0,0,2.04
409,0,-7,-2,5,2,3,4,2,2.045
410,-1,0,7,-4,-1,1,1,-2,2.05
411,5,11,22,14,5,1,4,1,2.055
412,2,-2,-2,11,2,6,-1,0,2.06
413,0,8,26,15,-3,-14,-18,-3,2.065
414,-4,-10,-33,-28,-7,9,7,-2,2.07
415,-1,-3,-12,-13,-1,5,8,1,2.075
416,-3,0,3,1,-2,-2,-15,-1,2.08
417,4,5,-1,-4,2,5,10,3,2.085
418,1,0,5,13,0,-3,-9,-1,2.09
419,-3,-1,-7,-5,-5,-4,-2,-2,2.095
420,-1,-4,-10,-12,-2,1,4,-1,2.1
421,-2,-2,-13,-9,-3,-5,-3,-1,2.105
422,-1,-2,1,3,0,-4,-2,0,2.11
423,1,0,10,9,0,2,1,0,2.115
424,2,5,13,15,3,1,1,0,2.12
425,0,1,12,3,0,0,-1,-1,2.125
426,-4,-10,-23,-17,-2,-1,0,-2,2.13
427,1,3,13,9,2,0,-1,2,2.1350000000000002
428,2,2,5,13,7,0,0,1,2.14
429,-4,-9,-24,-19,-8,-2,0,1,2.145
430,0,-2,-3,-3,-1,0,0,1,2.15
431,0,1,2,6,2,-1,-3,1,2.1550000000000002
432,-1,2,4,-3,-6,0,2,2,2.16
433,0,-2,-3,-1,3,-1,2,-1,2.165
434,1,3,4,4,1,-2,-2,-1,2.17
435,-2,-3,-1,0,0,-2,-2,-1,2.1750000000000003
436,-1,-2,-10,-9,-2,2,-1,-4,2.18
437,-2,1,9,3,-3,-2,-1,-1,2.185
438,1,0,2,-1,-1,-4,-3,-1,2.19
439,-1,0,-1,-4,-2,-2,-1,-1,2.195
440,-3,-5,-4,-4,0,-2,0,-2,2.2
441,-4,1,1,2,0,0,-3,-3,2.205
442,-2,2,3,0,-2,0,1,0,2.21
443,-1,1,-3,0,-3,2,3,2,2.215
444,-3,-5,-7,-5,-1,-1,-5,-4,2.22
445,-3,-1,2,1,-1,-2,-1,-3,2.225
446,-5,-6,-3,0,0,-2,-3,-2,2.23
447,1,0,-3,-4,-2,-2,-2,1,2.235
448,1,-1,-4,-4,-4,-2,2,0,2.24
449,8,1,3,2,2,1,3,1,2.245
450,-1,0,1,0,-3,-1,1,-1,2.25
451,-8,6,2,0,1,-1,-3,-3,2.255
452,-3,-17,-3,-3,-4,0,-2,-1,2.2600000000000002
453,-7,-4,-3,-2,-2,-2,-1,-1,2.265
454,4,3,2,5,1,-1,-2,1,2.27
455,7,-3,-2,-3,-2,-2,0,0,2.275
456,-6,6,-3,-3,0,-1,-1,0,2.2800000000000002
457,0,-8,1,2,-1,0,0,0,2.285
458,3,-2,-2,2,2,1,0,2,2.29
459,-2,-1,-2,-1,-1,-2,-2,-1,2.295
460,2,2,1,-5,-2,-1,-1,-2,2.3000000000000003
461,2,-1,1,1,-1,2,-1,0,2.305
462,-2,4,-2,2,3,2,0,-1,2.31
463,0,-4,-3,-2,-1,-2,-4,-3,2.315
464,0,-1,-2,-3,-7,-2,-2,-1,2.32
465,-2,-2,-3,2,8,0,1,-1,2.325
466,0,0,0,-1,-1,-2,-1,-2,2.33
467,-1,1,-1,-1,-1,-1,2,0,2.335
468,0,-2,-2,-1,-1,0,3,-1,2.34
469,-2,1,-1,-2,-4,-1,-4,-2,2.345
470,-1,0,-2,1,1,0,-1,-2,2.35
471,-1,-2,0,0,-1,-1,-2,-3,2.355
472,-4,-2,-3,1,0,0,-3,-1,2.36
473,0,2,0,2,5,1,3,1,2.365
474,1,0,0,-1,-2,2,4,1,2.37
475,-2,-1,-1,-1,-3,1,-1,0,2.375
476,-1,-2,-2,-2,-1,0,-1,0,2.38
477,0,-2,-1,-4,-3,-4,-2,-2,2.3850000000000002
478,0,-3,0,-1,1,-2,0,-2,2.39
479,-2,-2,-1,0,1,1,0,0,2.395
480,0,3,1,-1,0,-3,-2,0,2.4
481,0,-1,1,2,-1,2,4,1,2.4050000000000002
482,1,0,1,-5,-3,-1,-3,-2,2.41
483,-7,-6,-2,-1,-1,-1,3,-3,2.415
484,-1,-1,-2,-2,1,2,2,-1,2.42
485,2,0,-1,-2,-3,-3,-3,-1,2.4250000000000003
486,-1,-1,0,-1,-1,-1,-1,0,2.43
487,1,-4,0,0,-1,-2,-4,-1,2.435
488,2,0,2,1,-2,0,-1,-1,2.44
489,1,1,0,-1,-1,-1,1,-1,2.445
490,-4,-3,-4,-2,-4,-1,-1,-2,2.45
491,3,0,0,-1,-2,0,2,0,2.455
492,0,-1,1,-1,0,-2,-1,0,2.46
493,0,1,-3,-1,-2,-2,-5,1,2.465
494,-2,0,1,0,-1,-2,-2,0,2.47
495,-1,1,-4,-2,-2,-2,-1,0,2.475
496,-1,0,0,0,1,-4,-5,-1,2.48
497,-1,1,0,-1,0,5,10,1,2.485
498,-3,-3,-3,1,-4,-2,-6,-4,2.49
499,-1,-2,-7,-5,1,0,-4,-2,2.495
500,-2,-2,-3,-2,-1,-1,-1,-1,2.5
501,-1,-2,7,1,-3,-3,-4,-3,2.505
502,-3,-2,3,3,-3,-2,-4,-1,2.5100000000000002
503,0,-1,1,-2,-1,1,1,0,2.515
504,1,1,-1,1,0,1,-1,0,2.52
505,-3,-3,-11,-4,-2,-4,-2,-2,2.525
506,0,-2,-1,-1,1,1,4,0,2.5300000000000002
507,2,4,7,7,1,1,-2,0,2.535
508,-1,-6,-11,-10,0,3,6,-2,2.54
509,0,0,1,0,-2,0,-1,0,2.545
510,-1,1,-2,-2,-1,-7,-12,0,2.5500000000000003
511,-2,-4,-3,-1,-3,4,8,1,2.555
512,0,2,10,11,-2,-1,3,1,2.56
513,-2,0,3,2,-1,1,-1,0,2.565
514,-1,-2,-4,-3,0,-2,-3,-1,2.57
515,0,3,5,3,1,-2,-3,0,2.575
516,1,2,6,3,-1,0,2,1,2.58
517,0,0,-8,-9,-2,-3,-4,1,2.585
518,-1,-5,-21,-14,-1,-1,-2,-1,2.59
519,1,1,3,2,-1,-2,-5,-1,2.595
520,1,-1,-3,-2,1,3,6,3,2.6
521,1,1,8,6,1,-3,-5,0,2.605
522,-1,-1,3,-1,1,9,14,1,2.61
523,0,-4,-14,-7,-1,-6,-3,-1,2.615
524,1,3,3,1,3,-2,-2,-3,2.62
525,1,1,1,-1,-3,-1,1,-1,2.625
526,1,1,4,2,-3,0,-1,1,2.63
527,-1,0,2,3,2,2,0,-1,2.6350000000000002
528,-4,0,0,-2,-1,-2,-5,-2,2.64
529,1,-2,-6,-3,1,-2,1,-3,2.645
530,-1,0,4,5,0,-1,-3,-2,2.65
531,-1,-1,5,0,-2,0,2,-1,2.6550000000000002
532,-1,-2,-1,3,-2,-2,-4,-1,2.66
533,0,-1,-5,-5,1,-4,-6,0,2.665
534,-2,0,-1,-1,1,5,11,0,2.67
535,1,-3,-1,-3,-1,0,2,0,2.6750000000000003
536,-1,1,3,1,-1,1,-6,-2,2.68
537,-2,-2,-6,-3,-4,2,1,0,2.685
538,-1,0,6,2,-1,-5,-4,0,2.69
539,-1,-1,-2,-1,0,-2,0,1,2.695
540,-1,-4,-5,-1,-1,-2,-2,-1,2.7
541,1,-1,2,-1,-1,2,-1,0,2.705
542,-2,-1,0,-1,-1,1,-2,-1,2.71
543,-2,-2,-3,-3,0,1,-1,0,2.715
544,-1,-2,-4,-3,-3,-1,0,0,2.72
545,-2,0,1,3,1,0,2,0,2.725
546,2,-3,-1,2,0,0,-1,0,2.73
547,-2,-1,-5,-4,-3,-2,-2,-2,2.735
548,0,-1,0,-1,-1,-2,0,-1,2.74
549,-3,-1,0,0,-1,1,1,-2,2.745
550,1,0,-2,-1,0,0,-2,-2,2.75
551,-1,0,2,0,-2,-3,-2,-2,2.755
552,-1,0,-1,-2,-2,-1,-1,-1,2.7600000000000002
553,-4,-4,-4,0,1,-2,0,0,2.765
554,-2,-1,1,-2,-1,-2,-3,-1,2.77
555,1,0,0,2,1,0,-2,1,2.775
556,-1,-2,-3,-3,0,0,0,1,2.7800000000000002
557,0,0,2,2,-2,0,0,-1,2.785
558,-1,1,0,2,-3,-2,-3,-1,2.79
559,0,-2,-3,-5,1,-2,3,2,2.795
560,-1,-1,-2,2,0,0,-2,0,2.8000000000000003
561,-2,0,2,2,4,0,-3,-1,2.805
562,-1,-4,0,-2,-1,-2,2,-1,2.81
563,4,0,0,-2,-4,-2,-3,-3,2.815
564,-4,-2,-1,-1,0,2,1,1,2.82
565,-3,-2,-1,-3,-1,-1,-1,0,2.825
566,-3,-4,-1,0,-3,-4,-8,-7,2.83
567,-3,1,-2,-2,-5,-2,-3,-4,2.835
568,4,-3,-3,-4,0,-3,-1,-1,2.84
569,1,0,1,1,1,0,1,0,2.845
570,8,4,-2,2,5,3,3,5,2.85
571,-7,1,0,0,-2,2,-3,-2,2.855
572,-5,-2,-1,-2,-7,-2,-2,-3,2.86
573,1,-1,-3,5,7,2,0,-4,2.865
574,-5,-6,-2,-1,-3,-2,2,1,2.87
575,6,0,0,-2,-2,2,10,9,2.875
576,0,2,-2,4,3,-2,-4,-5,2.88
577,0,1,-2,-6,-7,-5,-10,-5,2.8850000000000002
578,-3,-1,1,1,5,0,-1,-1,2.89
579,1,-3,0,5,1,4,3,1,2.895
580,-1,-6,-1,-8,-3,-5,-3,1,2.9
581,5,4,1,-1,-4,-4,-3,1,2.9050000000000002
582,-3,5,-2,-5,-3,-4,-3,-8,2.91
583,-7,-10,-4,-2,-2,-1,3,1,2.915
584,-1,0,-2,-2,-2,0,0,-3,2.92
585,-1,-3,-1,3,3,1,-1,0,2.9250000000000003
586,6,5,0,4,0,-1,0,2,2.93
587,-4,-3,-1,-4,0,-4,-3,-2,2.935
588,3,0,2,0,0,1,3,3,2.94
589,-5,-6,-1,-4,-3,0,1,-1,2.945
590,0,0,-3,-2,-2,3,8,3,2.95
591,0,-2,-3,3,4,-1,-5,1,2.955
592,-2,4,0,2,-1,1,-5,-10,2.96
593,-3,-2,-3,-4,-4,-3,-3,1,2.965
594,-2,0,0,0,0,0,-5,-6,2.97
595,-5,-2,-2,-2,0,-3,-1,-4,2.975
596,-1,1,-1,-5,-2,0,5,5,2.98
597,-1,0,0,0,-2,-1,0,-1,2.985
598,0,-5,0,0,2,2,1,3,2.99
599,3,3,-1,6,6,1,-2,-3,2.995
600,-5,0,-1,-5,-1,-2,-5,-1,3.0
601,5,3,-1,3,4,3,8,2,3.005
602,-5,-8,-3,-5,-2,-2,-4,-1,3.0100000000000002
603,4,5,3,-2,-3,-1,-2,0,3.015
604,-3,-4,-3,4,0,0,0,0,3.02
605,-2,-7,-5,-3,-3,-4,-8,-7,3.025
606,0,4,-1,-2,-3,1,2,1,3.0300000000000002
607,-5,-1,-1,3,0,-2,-2,1,3.035
608,6,1,1,-5,-2,1,7,6,3.04
609,-4,-3,-2,2,4,0,-1,-1,3.045
610,1,-1,-1,1,0,-1,-2,-2,3.0500000000000003
611,0,0,-1,-2,-1,-1,1,-1,3.055
612,-4,-1,-4,0,-1,0,0,-1,3.06
613,9,3,0,2,2,2,4,1,3.065
614,-6,-4,-5,-3,-4,-3,-1,1,3.0700000000000003
615,9,11,-1,-3,-3,-2,-3,-4,3.075
616,-9,-11,-1,-2,2,-2,-3,-3,3.08
617,-6,-3,0,-4,-3,-1,1,1,3.085
618,0,-3,1,-1,-1,-1,0,2,3.09
619,0,0,4,2,-1,0,3,2,3.095
620,-2,2,0,-1,2,-1,-2,-1,3.1
621,2,-1,0,-6,-5,-2,-2,-1,3.105
622,2,3,-1,0,0,0,-1,1,3.11
623,-4,1,-1,-1,-1,0,-4,-3,3.115
624,-1,-3,0,1,-1,1,-2,-1,3.12
625,-5,-1,0,-1,-2,-2,4,0,3.125
626,-3,0,1,1,0,-4,-1,-4,3.13
627,-2,-4,-2,-3,1,0,-2,-3,3.1350000000000002
628,2,1,0,0,0,-2,2,1,3.14
629,-2,-5,-3,-5,-3,-3,-4,-3,3.145
630,0,0,-2,-5,-2,0,2,2,3.15
631,-1,0,2,1,3,1,-4,-2,3.1550000000000002
632,0,1,-1,-1,-3,-4,-3,-2,3.16
633,6,4,0,0,-2,-5,-9,-2,3.165
634,-5,0,-1,-3,-1,7,8,1,3.17
635,-4,-9,-6,-3,-1,-3,-3,-2,3.1750000000000003
636,0,0,1,0,2,0,-1,-1,3.18
637,-2,1,-3,1,0,-1,2,1,3.185
638,-1,-2,-2,0,-1,-2,-6,-2,3.19
639,2,2,-1,-3,-4,-1,3,2,3.1950000000000003
640,-1,2,3,2,-1,-1,-3,-5,3.2
641,-4,3,5,3,2,1,1,-2,3.205
642,3,1,2,-2,-1,0,3,3,3.21
643,-9,-8,-15,-11,-5,-5,-4,-3,3.215
644,5,4,13,9,3,1,2,1,3.22
645,0,-1,7,10,2,2,5,3,3.225
646,-3,-5,-13,-8,-6,-5,-8,-4,3.23
647,0,-4,-20,-24,-1,0,2,1,3.235
648,-2,-1,2,0,-4,-4,-3,-1,3.24
649,0,3,3,8,1,5,1,-1,3.245
650,1,-2,5,-2,-2,-4,-2,0,3.25
651,0,4,16,13,1,-1,-1,-2,3.255
652,1,2,8,7,3,0,-5,-3,3.2600000000000002
653,0,5,9,7,1,5,8,1,3.265
654,-2,-13,-37,-25,-4,-2,-4,-5,3.27
655,-2,-2,-2,-4,-3,-5,-7,-3,3.275
656,1,6,11,8,1,-5,-4,2,3.2800000000000002
657,-7,-14,-22,-21,-9,-14,-16,-6,3.285
658,1,4,12,8,3,21,21,2,3.29
659,4,11,22,18,3,2,4,-1,3.295
660,-3,-15,-38,-18,-4,2,11,0,3.3000000000000003
661,-1,0,-1,-3,-2,-6,-14,-2,3.305
662,-1,6,4,0,0,-10,-11,-2,3.31
663,1,4,17,12,2,8,5,-1,3.315
664,1,-5,-22,-8,-6,-8,-8,0,3.3200000000000003
665,-1,0,15,12,2,0,3,1,3.325
666,2,-5,-17,-8,1,-1,7,3,3.33
667,-2,6,39,22,0,-4,-10,-6,3.335
668,-3,-6,-13,5,0,1,1,-1,3.34
669,-8,-23,-59,-65,-16,-2,-2,-7,3.345
670,2,6,23,24,4,-3,-3,1,3.35
671,3,7,10,12,4,-1,1,2,3.355
672,1,7,27,15,0,2,2,0,3.36
673,3,9,24,18,3,4,1,2,3.365
674,0,0,-11,-1,1,-5,-4,-1,3.37
675,-6,-15,-47,-46,-10,4,6,-6,3.375
676,-1,3,5,-5,-1,-1,0,-1,3.38
677,-3,1,11,12,1,6,5,-2,3.3850000000000002
678,10,4,15,8,1,-2,1,6,3.39
679,0,-5,-18,0,2,2,0,2,3.395
680,3,3,0,-3,-2,2,3,1,3.4
681,1,6,13,8,2,-1,1,-1,3.4050000000000002
682,-2,-6,-15,-8,-2,2,-3,-2,3.41
683,-3,-4,4,3,-2,-4,-5,-1,3.415
684,0,1,-3,-10,-4,-5,-9,0,3.42
685,2,0,1,6,4,6,6,4,3.4250000000000003
686,-3,5,7,9,2,0,0,-1,3.43
687,-4,-5,-13,-12,-7,-6,-5,-2,3.435
688,-4,-2,0,-5,0,-1,-4,0,3.44
689,4,3,-2,-3,2,1,-1,5,3.4450000000000003
690,1,-1,7,13,1,2,-1,0,3.45
691,-4,-10,-16,-15,-1,-3,-2,-1,3.455
692,-2,-3,4,9,3,1,1,2,3.46
693,-1,-1,-4,12,2,0,1,1,3.465
694,-4,-3,12,0,-4,-3,-2,-1,3.47
695,1,0,-2,-8,-1,-1,-1,4,3.475
696,-3,-2,-1,-13,-4,0,1,-1,3.48
697,2,3,-8,10,4,3,4,3,3.485
698,-4,-2,16,17,-1,-5,-14,-4,3.49
699,0,-1,-4,-6,-5,4,10,4,3.495
700,-3,-2,-4,1,-3,1,-3,-1,3.5
701,-2,-1,4,-15,-4,-4,-4,-2,3.505
702,-3,-3,-1,5,-1,-5,-4,-3,3.5100000000000002
703,1,1,7,4,3,-1,-3,0,3.515
704,2,0,-8,-11,0,1,2,-2,3.52
705,0,-1,0,7,2,-2,0,-1,3.525
706,-1,-3,-5,-12,-3,-3,-1,-3,3.5300000000000002
707,-1,1,-3,-2,2,0,-1,-1,3.535
708,-3,1,9,14,-1,1,0,-1,3.54
709,-2,-4,-1,-2,-2,-3,-5,-3,3.545
710,-1,2,0,-8,-3,3,0,0,3.5500000000000003
711,1,4,1,4,2,-1,-1,1,3.555
712,0,-2,-4,-2,-3,-2,3,-1,3.56
713,-2,0,0,-2,-2,-2,0,1,3.565
714,-1,-1,-10,-18,-3,0,0,0,3.5700000000000003
715,0,0,2,2,2,-1,-3,0,3.575
716,-2,-1,3,5,-2,-2,-3,-3,3.58
717,-1,-1,1,-3,-2,-3,0,-1,3.585
718,0,0,3,8,1,1,3,0,3.59
719,-3,-5,-7,-10,-6,-4,-6,-3,3.595
720,1,1,-1,-4,2,0,0,1,3.6
721,-1,-4,-8,-9,-3,0,-2,-1,3.605
722,0,1,-4,1,0,0,1,-1,3.61
723,0,0,5,13,1,0,1,-3,3.615
724,-2,-1,6,-1,-4,-2,0,-3,3.62
725,-3,-3,-2,0,-2,-3,-1,-3,3.625
726,-2,-1,-2,-3,1,-1,-1,-2,3.63
727,1,0,3,8,2,-1,-2,-1,3.6350000000000002
728,1,-2,-3,-6,-2,1,-3,0,3.64
729,0,1,9,10,3,-1,-1,-2,3.645
730,-3,-1,-2,-2,0,-2,-1,-2,3.65
731,0,1,3,2,-1,-2,1,-2,3.6550000000000002
732,0,-3,-4,-2,1,-2,0,-2,3.66
733,0,1,1,-7,-3,-1,-1,0,3.665
734,-1,-1,-4,-2,-1,-1,-2,-2,3.67
735,-1,-3,-8,-5,-2,-1,1,-3,3.6750000000000003
736,-1,0,1,-3,1,0,1,0,3.68
737,0,1,-4,-3,0,2,0,-1,3.685
738,-3,-2,9,11,-1,-1,-1,-2,3.69
739,-1,0,3,5,-1,-1,-1,1,3.6950000000000003
740,1,2,3,4,-2,-1,-2,-1,3.7
741,-1,-2,-12,-12,-3,0,0,-2,3.705
742,2,-3,-13,-18,-4,0,0,2,3.71
743,0,-3,-3,-1,-2,0,-3,0,3.715
744,-1,-2,-2,-1,0,-1,-2,-2,3.72
745,-2,0,1,-2,-1,0,-2,-1,3.725
746,-1,-1,-1,-1,0,1,-1,-1,3.73
747,-1,-3,4,4,-2,-1,-1,0,3.735
748,0,0,-4,-4,-2,0,0,0,3.74
749,0,-1,-2,-3,0,-3,-2,-1,3.745
750,0,0,1,0,1,-2,1,-2,3.75
751,-2,2,2,2,0,-1,-1,1,3.755
752,-2,-1,-1,2,0,-2,-1,0,3.7600000000000002
753,-2,-1,-2,-2,-3,-1,-1,-1,3.765
754,0,4,11,7,-1,1,-1,1,3.77
755,-2,-5,-28,-27,-3,-4,-2,-2,3.775
756,-2,-3,-2,-1,0,-1,1,-1,3.7800000000000002
757,2,-1,-3,0,1,1,1,1,3.785
758,-1,-1,1,-1,-4,-2,-2,-2,3.79
759,0,0,7,7,0,0,-2,-1,3.795
760,-2,-1,-7,-6,0,-1,-1,0,3.8000000000000003
761,-2,-2,3,1,-1,-1,-4,-3,3.805
762,-1,-1,-2,-2,0,0,0,-2,3.81
763,-1,-1,-1,0,-1,0,1,-2,3.815
764,0,-1,-1,-1,-3,0,0,-1,3.8200000000000003
765,-2,1,2,5,1,0,1,-2,3.825
766,0,-1,-7,-4,-1,-2,0,0,3.83
767,-2,-2,1,0,0,-1,-1,-2,3.835
768,-1,0,2,2,1,0,1,-1,3.84
769,-1,-3,-3,-3,-2,-1,0,0,3.845
770,-2,0,-3,-5,-2,0,1,-1,3.85
771,0,1,7,5,1,-2,0,0,3.855
772,-2,-1,-3,-1,-2,-1,-1,-1,3.86
773,0,-2,-3,0,-2,-2,-2,0,3.865
774,-1,-3,-6,-3,-1,-1,-1,-2,3.87
775,-1,-2,6,7,0,0,-1,-1,3.875
776,0,0,-4,-2,-1,0,-1,0,3.88
777,0,2,0,2,1,-2,0,0,3.8850000000000002
778,-1,-5,-12,-11,-1,-2,-2,0,3.89
779,-1,0,0,0,-2,0,-2,-1,3.895
780,-1,-2,0,-1,-1,1,-1,-2,3.9
781,1,-1,-3,-2,1,-1,0,0,3.9050000000000002
782,-3,-3,5,3,-3,-3,-2,-2,3.91
783,-1,0,-2,-3,-2,-1,-1,0,3.915
784,0,-1,1,-1,0,-1,-2,0,3.92
785,0,0,0,-2,-1,1,0,-2,3.9250000000000003
786,0,-1,2,4,0,1,-2,0,3.93
787,-1,-2,-1,1,-2,-1,0,-2,3.935
788,-1,-2,3,1,-2,-2,0,-1,3.94
789,0,-1,-5,-3,0,-1,1,-1,3.9450000000000003
790,0,-1,-3,-2,-2,-2,0,-1,3.95
791,-1,2,1,-2,0,-2,-1,-1,3.955
792,0,-1,-2,-2,1,0,0,-1,3.96
793,-2,-2,1,2,-2,-1,-1,-1,3.9650000000000003
794,0,0,0,1,0,0,2,-1,3.97
795,-1,1,1,0,-2,-1,-1,-1,3.975
796,0,-1,-2,-2,-2,-1,0,-1,3.98
797,-2,2,0,-1,-2,-1,-2,-1,3.985
798,-1,-1,1,0,0,0,-1,2,3.99
799,0,-2,-1,0,0,-1,1,-2,3.995
800,0,-2,-2,-2,0,0,0,-1,4.0
801,-1,0,2,0,-1,-1,-1,0,4.005
802,0,1,-1,2,2,0,-1,0,4.01
803,-1,0,-2,-2,0,-1,1,-1,4.015
804,1,2,-3,-1,-2,0,-1,0,4.0200000000000005
805,-2,-4,-4,-2,-2,-1,0,-2,4.025
806,-2,0,-2,-3,-1,-3,1,-1,4.03
807,0,-2,-3,0,-2,-2,-1,-1,4.035
808,-2,-3,-2,1,-1,-3,1,-1,4.04
809,-2,-2,-2,-1,-1,-2,0,-1,4.045
810,0,1,0,-1,-1,0,-2,-2,4.05
811,0,-1,1,0,2,0,0,0,4.055
812,-1,1,0,-2,-2,-1,-1,-2,4.0600000000000005
813,2,-1,-1,0,-1,1,-2,0,4.065
814,0,-1,-1,-3,0,-1,-1,-2,4.07
815,-2,0,0,-1,0,0,-2,-1,4.075
816,-1,-1,0,-2,-1,0,-2,-1,4.08
817,0,-2,0,0,-1,1,-1,-1,4.085
818,0,2,-1,0,0,-2,1,-1,4.09
819,0,1,-2,0,-2,1,-1,-1,4.095
820,0,-1,-3,-2,-1,-1,1,0,4.1
821,0,-1,0,0,0,-2,-1,-1,4.105
822,0,-1,-1,-1,-1,0,-1,0,4.11
823,-3,-1,-2,0,-1,-1,-2,-1,4.115
824,-1,-2,0,-1,1,0,-1,-1,4.12
825,-1,-1,0,1,1,0,-1,0,4.125
826,0,-1,-1,-1,-1,-1,-2,-1,4.13
827,0,-1,-2,0,-2,1,1,1,4.135
828,-3,-2,-1,0,1,-2,-2,-2,4.14
829,0,1,0,-1,-1,0,-1,-1,4.1450000000000005
830,0,-1,-3,-2,-1,-1,0,0,4.15
831,2,0,0,-1,3,-1,-2,-1,4.155
832,0,-1,-3,-1,0,0,-1,-2,4.16
833,0,0,1,0,-2,-1,-1,-1,4.165
834,0,-2,0,0,-2,-1,-3,-1,4.17
835,-2,0,1,0,1,-2,-1,-2,4.175
836,0,0,-2,-1,1,-1,-1,0,4.18
837,-2,-1,-1,-2,0,-2,-1,-2,4.1850000000000005
838,0,0,-2,-2,0,0,0,0,4.19
839,-1,-2,-2,-2,-1,-1,-2,-1,4.195
840,0,1,-1,0,0,-2,-2,-1,4.2
841,-4,-3,-3,-2,-1,-1,1,-1,4.205
842,0,-2,-1,3,-1,-1,0,-1,4.21
843,-2,-2,-1,-1,-2,-1,-1,-1,4.215
844,1,-1,0,0,-1,-1,-1,0,4.22
845,-2,2,0,-2,0,0,-1,-1,4.225
846,-1,-1,-1,-3,-2,-3,0,-1,4.23
847,-1,0,-1,-2,-2,1,0,0,4.235
848,-1,0,-2,-1,-1,0,1,0,4.24
849,1,0,-1,1,1,1,-1,0,4.245
850,0,2,0,-1,-1,0,0,0,4.25
851,-1,-1,2,0,-1,-3,0,0,4.255
852,-1,1,-2,0,0,-1,0,-1,4.26
853,-1,-1,-2,-2,-1,-1,-1,0,4.265
854,-2,-1,-1,-3,-2,0,-3,0,4.2700000000000005
855,1,0,-1,0,-1,-1,-3,-2,4.275
856,0,-1,1,0,-2,1,1,-1,4.28
857,-1,-1,1,0,-1,-1,0,-1,4.285
858,0,-2,0,2,-1,-1,0,0,4.29
859,0,-2,-3,-3,-1,-1,-1,0,4.295
860,-2,1,0,0,0,1,-1,1,4.3
861,-1,-1,-3,-1,0,0,1,-1,4.305
862,-3,-2,0,-1,1,0,-2,-1,4.3100000000000005
863,0,0,-1,0,0,1,0,-1,4.315
864,-1,0,2,0,-2,-1,-2,0,4.32
865,0,-1,-3,-2,-1,-3,-3,-1,4.325
866,-1,-1,-3,-2,-2,-2,-1,-2,4.33
867,-1,-1,-3,-1,-1,-1,-1,0,4.335
868,0,-2,-3,-2,-2,-3,-1,-1,4.34
869,-1,-1,1,0,0,0,-1,-1,4.345
870,0,0,-2,-3,0,-1,1,-1,4.3500000000000005
871,-1,-1,0,-1,-1,-2,0,-1,4.355
872,-1,-1,-2,-1,-1,-1,-3,-1,4.36
873,0,0,1,1,-1,-1,-3,-1,4.365
874,-1,0,0,1,1,2,0,-1,4.37
875,-1,-3,-2,-2,-3,0,1,-1,4.375
876,0,3,0,0,1,0,-1,1,4.38
877,-1,0,0,-4,-2,-2,-2,-2,4.385
878,0,0,1,1,1,0,-2,-1,4.39
879,-1,0,-1,0,-1,-2,0,-1,4.3950000000000005
880,-1,-2,0,0,1,-2,-1,-1,4.4
881,-2,1,0,0,-1,0,0,0,4.405
882,1,2,-3,-2,0,0,0,0,4.41
883,0,2,-2,-2,0,0,-1,-2,4.415
884,-1,-3,0,-1,-2,-1,-1,-2,4.42
885,-2,-3,-2,-1,-3,-1,0,-1,4.425
886,-3,-1,-2,1,-1,0,-1,-2,4.43
887,-1,-2,-1,0,0,0,-1,0,4.4350000000000005
888,0,-1,5,3,0,-1,-1,-1,4.44
889,1,0,-1,-2,1,-2,0,0,4.445
890,-1,-2,-3,-5,-3,0,0,-1,4.45
891,-2,0,-3,0,0,0,-1,0,4.455
892,-1,0,1,2,1,0,1,-1,4.46
893,-1,-2,-1,0,-3,0,-2,0,4.465
894,-1,0,2,1,-1,-1,-2,1,4.47
895,-1,-3,0,-2,0,-1,-2,0,4.4750000000000005
896,0,-2,-3,-3,-2,-1,-1,-2,4.48
897,0,0,1,2,-1,0,1,-1,4.485
898,-1,1,-1,-1,-1,-2,-3,-1,4.49
899,0,-3,-2,-2,-1,-1,-2,0,4.495
900,-1,0,-3,-3,1,-1,0,0,4.5
901,1,-1,-2,-2,-2,-1,-2,0,4.505
902,-1,-1,0,-2,-2,-1,-2,-1,4.51
903,0,-2,-1,1,-2,0,1,-2,4.515
904,0,1,0,-2,0,1,-1,0,4.5200000000000005
905,-1,-1,-1,-2,-1,-1,-1,0,4.525
906,1,-1,2,2,-1,-1,-1,-1,4.53
907,-2,1,2,1,0,-1,0,-1,4.535
908,0,0,-2,-1,-3,0,-1,0,4.54
909,-2,1,0,1,0,-1,-1,-1,4.545
910,-2,-3,-2,-2,-1,-1,-1,-1,4.55
911,-1,0,-5,-6,-2,-1,-1,-1,4.555
912,-3,0,-2,0,1,-3,-1,0,4.5600000000000005
913,-1,-1,-1,1,2,-2,0,0,4.565
914,-1,-1,-1,1,-1,0,0,-2,4.57
915,-1,1,3,0,0,-2,0,-1,4.575
916,0,-2,-2,-3,-2,-1,0,-1,4.58
917,1,-1,-1,-2,-1,0,0,-1,4.585
918,-1,-3,-2,-4,-1,-1,0,0,4.59
919,1,-1,2,3,0,1,-2,-1,4.595
920,-1,-1,-3,-1,0,0,-1,-2,4.6000000000000005
921,-1,-1,-1,-1,-1,-1,0,-2,4.605
922,1,1,-1,-1,0,-1,0,-1,4.61
923,0,0,-2,-2,-1,1,0,0,4.615
924,-1,-1,0,-2,-1,-2,-1,-2,4.62
925,-2,-1,0,0,1,1,0,0,4.625
926,0,0,-2,-2,1,-1,0,0,4.63
927,0,-3,-1,0,0,-2,-1,0,4.635
928,-1,0,0,0,-2,-1,0,-1,4.64
929,0,-3,-3,-2,0,-1,0,0,4.6450000000000005
930,-1,-2,0,1,-1,-1,0,-1,4.65
931,0,1,3,1,1,-1,-1,-1,4.655
932,-2,-4,-4,-2,-2,0,-2,-1,4.66
933,0,-1,3,2,-2,-1,-2,-1,4.665
934,-1,-1,-3,0,0,0,0,0,4.67
935,-2,0,-3,-3,-2,0,0,1,4.675
936,-1,1,-1,0,0,-1,-1,0,4.68
937,-1,1,-1,0,-2,0,0,-1,4.6850000000000005
938,0,1,2,1,1,-1,0,1,4.69
939,0,-2,-4,-4,-2,-3,0,-1,4.695
940,-1,-2,-2,-2,-2,0,-1,0,4.7
941,0,-1,-2,-2,-1,-1,0,-1,4.705
942,1,0,1,-2,-1,0,-2,0,4.71
943,-1,-1,4,2,-1,0,0,-1,4.715
944,-3,-2,3,1,-1,-1,-1,-1,4.72
945,-1,-2,-5,-4,-1,-1,-1,-1,4.7250000000000005
946,0,-2,-4,-2,-1,0,1,-1,4.73
947,0,-1,-1,1,1,-2,-1,-1,4.735
948,0,2,2,2,-2,0,1,-2,4.74
949,-1,-1,-1,0,0,0,0,0,4.745
950,-1,0,-6,-4,-4,0,0,-2,4.75
951,0,-2,-1,-1,0,-1,-1,-1,4.755
952,-1,-1,2,3,-1,-1,-2,-2,4.76
953,-2,1,-2,-1,-1,-2,-2,0,4.765
954,-1,-1,-2,1,-1,-3,-2,-2,4.7700000000000005
955,-2,-1,-3,-1,1,-1,-1,-1,4.775
956,0,-2,-5,-5,-2,-3,-1,-2,4.78
957,-2,1,2,0,0,-1,-1,0,4.785
958,-1,0,1,-1,-2,-1,0,0,4.79
959,0,-2,-2,-1,-2,1,-1,-2,4.795
960,-1,-1,-1,-1,1,-2,1,0,4.8
961,-3,-2,-3,-1,0,2,-1,-1,4.805
962,0,1,5,2,1,0,1,2,4.8100000000000005
963,-2,-3,-3,1,-2,0,-1,-2,4.815
964,-2,0,-2,-1,0,-1,-2,-1,4.82
965,0,-1,-1,2,-2,-2,-2,-1,4.825
966,-3,-3,0,-1,-1,-1,0,-2,4.83
967,0,0,2,-1,-2,-2,-2,-1,4.835
968,-1,-1,-2,-2,-1,0,0,-1,4.84
969,0,1,0,0,-2,-2,0,0,4.845
970,-1,-1,-4,0,1,-1,-1,-1,4.8500000000000005
971,0,1,-2,-2,-1,-2,1,0,4.855
972,-1,0,-1,-2,2,0,-1,0,4.86
973,0,0,2,1,0,0,2,-1,4.865
974,0,-1,-1,0,-1,0,-1,0,4.87
975,0,-2,1,0,0,-3,-2,-2,4.875
976,0,-1,1,-1,-2,1,1,0,4.88
977,-2,-4,-5,-5,-1,-1,0,-1,4.885
978,-1,-1,-1,-1,-1,1,-1,-1,4.89
979,-2,0,-1,-1,-2,-1,1,0,4.8950000000000005
980,0,-1,-1,2,-1,0,0,0,4.9
981,0,1,5,4,0,0,-1,0,4.905
982,-1,-3,-6,-5,-1,-1,-1,-1,4.91
983,-1,0,-2,-3,-2,-1,-1,-1,4.915
984,0,-1,-4,-1,-1,1,-1,-3,4.92
985,0,-2,-3,-2,-1,-2,1,0,4.925
986,-1,-1,3,3,0,-2,-1,-1,4.93
987,0,-1,-3,-1,0,1,0,1,4.9350000000000005
988,-1,0,-1,-2,-2,0,-1,0,4.94
989,1,-1,-1,-1,2,-1,0,-2,4.945
990,0,0,0,-1,-1,-1,0,-1,4.95
991,1,0,-2,-3,-3,-2,-2,-1,4.955
992,0,-1,-1,-1,0,-1,-1,-1,4.96
993,-1,0,-2,1,0,1,-1,0,4.965
994,-1,-3,0,1,-1,0,0,-1,4.97
995,-1,-1,0,1,1,0,0,1,4.9750000000000005
996,-1,-1,1,-1,-2,0,-1,-2,4.98
997,-2,0,0,1,0,-2,-1,-2,4.985
998,-1,0,0,-1,-1,-1,-1,-2,4.99
999,0,-1,-2,0,1,-1,1,-1,4.995
1000,-1,-2,0,0,0,-1,-2,0,5.0
1001,-1,-1,-1,-2,-1,-1,-1,0,5.005
1002,0,-1,-2,-2,-1,-1,-1,0,5.01
1003,0,-1,-3,-4,-2,1,-3,-2,5.015
1004,-1,-1,2,0,-1,0,1,-1,5.0200000000000005
1005,0,1,4,0,2,-1,-1,-1,5.025
1006,-2,-2,-1,-2,-1,-1,0,0,5.03
1007,-2,-2,-1,-1,-2,-1,0,0,5.035
1008,0,-1,-4,-3,0,-1,1,0,5.04
1009,-1,-1,-2,-2,-1,0,-1,0,5.045
1010,-1,0,0,-1,-2,-2,0,-1,5.05
1011,-1,1,0,2,-1,0,1,0,5.055
1012,-1,0,-2,0,0,-1,-1,-2,5.0600000000000005
1013,-1,-1,-2,-2,-1,-2,0,-1,5.065
1014,-3,-2,-2,-2,1,-1,-2,-1,5.07
1015,-2,-1,1,-1,-1,-2,0,-1,5.075
1016,-1,-2,-2,-3,-1,-1,-3,1,5.08
1017,0,-1,0,1,-1,0,-2,0,5.085
1018,-1,1,1,0,1,-1,-2,-1,5.09
1019,0,-2,-1,-1,0,-1,-2,-1,5.095
1020,-2,0,0,0,-2,-1,-1,-1,5.1000000000000005
1021,-1,0,-3,-4,-1,-1,-1,-1,5.105
1022,-1,-2,-3,0,-1,0,0,0,5.11
1023,1,1,2,1,-1,0,2,1,5.115
1024,-1,-1,-2,1,0,-1,0,-2,5.12
1025,-1,-2,-1,-1,-2,1,-2,0,5.125
1026,0,0,-1,1,-1,-1,-1,-1,5.13
1027,-1,-1,-1,-2,-2,0,1,-1,5.135
1028,1,0,2,-1,0,0,-1,0,5.14
1029,0,0,-2,-4,1,-2,-1,-2,5.1450000000000005
1030,0,0,0,1,-1,-1,0,-1,5.15
1031,0,-1,1,1,0,0,0,-2,5.155
1032,-1,0,0,1,-1,-1,0,0,5.16
1033,0,-1,-1,1,0,-2,-1,-1,5.165
1034,-1,-1,-2,-5,-3,-2,-1,-1,5.17
1035,-1,0,-1,-4,0,-1,-2,-1,5.175
1036,0,-2,1,-1,-1,1,-1,-1,5.18
1037,-2,-2,-1,2,-3,0,1,0,5.1850000000000005
1038,0,0,-1,-1,0,1,2,0,5.19
1039,-1,-1,0,1,0,0,-1,-1,5.195
1040,-1,-1,-3,-3,0,-1,0,0,5.2
1041,-3,-1,-2,-1,-1,0,1,-1,5.205
1042,0,-3,1,1,1,-1,-1,-1,5.21
1043,0,-2,-1,-3,-2,-1,-1,-1,5.215
1044,0,0,1,-2,-1,-2,0,1,5.22
1045,-1,-4,1,-1,2,2,-1,0,5.2250000000000005
1046,-1,0,-3,0,-1,0,-1,-1,5.23
1047,-2,0,-2,-1,1,0,-3,-2,5.235
1048,-1,-1,1,0,-2,-1,-1,-2,5.24
1049,0,0,-1,-3,-2,-2,-2,-1,5.245
1050,0,-1,2,2,0,0,-1,-2,5.25
1051,0,0,1,4,1,0,0,-1,5.255
1052,-3,-2,-3,0,-1,1,-1,-1,5.26
1053,-3,-2,-4,-4,-1,-1,-1,-1,5.265
1054,-1,0,-1,-1,-1,-1,0,1,5.2700000000000005
1055,0,-2,-2,-2,-3,-3,0,-1,5.275
1056,0,0,1,0,-1,-2,-1,-1,5.28
1057,0,-1,-3,0,0,-2,0,-1,5.285
1058,-2,-1,2,-2,-2,-1,-1,-1,5.29
1059,-2,-1,-2,-1,-2,-1,0,-1,5.295
1060,-1,0,-1,-1,-2,0,-1,-1,5.3
1061,-1,0,1,2,0,-1,-2,-1,5.305
1062,-1,0,0,0,-1,-1,0,1,5.3100000000000005
1063,-2,-2,-3,-5,-2,-1,-1,-1,5.315
1064,-1,0,-3,-4,1,-2,-1,-1,5.32
1065,1,-1,4,5,-2,-1,1,-1,5.325
1066,-1,1,-1,-1,-1,0,0,-1,5.33
1067,-1,-5,-4,-5,-1,0,-1,-2,5.335
1068,0,-1,-4,-3,-2,-1,-2,-1,5.34
1069,1,-1,-2,-3,-1,0,-2,0,5.345
1070,-3,-1,-2,0,0,0,-1,0,5.3500000000000005
1071,1,1,2,2,0,-1,1,-1,5.355
1072,0,0,1,3,-2,0,0,-1,5.36
1073,-1,-1,0,-2,-2,1,-2,0,5.365
1074,-2,-1,0,-3,-2,-1,-1,-3,5.37
1075,0,1,0,-1,1,0,-3,0,5.375
1076,0,-2,3,2,2,0,-2,-1,5.38
1077,-1,0,-2,-3,0,-2,0,-2,5.385
1078,0,-4,-4,-1,-1,1,0,-1,5.39
1079,-1,-2,-1,2,-2,-2,1,0,5.3950000000000005
1080,-1,-2,-4,-2,-3,-3,-1,-1,5.4
1081,-1,-1,-2,-3,-2,0,0,-1,5.405
1082,-1,-1,-12,-8,-4,0,1,-1,5.41
1083,0,0,1,0,1,1,0,1,5.415
1084,-2,-1,-1,-1,-1,-1,-1,0,5.42
1085,-1,-1,-2,-2,-1,0,-2,-1,5.425
1086,-1,-1,0,-1,0,-1,0,0,5.43
1087,1,-1,3,6,1,-1,0,-1,5.4350000000000005
1088,-1,1,1,0,1,1,-1,-1,5.44
1089,-1,-1,-1,1,-1,0,-1,0,5.445
1090,-2,-2,0,1,-1,-2,-1,0,5.45
1091,-1,-2,-3,-3,-2,-2,-1,0,5.455
1092,-2,-4,-1,-1,-1,-1,-1,0,5.46
1093,-2,-1,0,1,-1,-2,-1,0,5.465
1094,0,-2,-5,-6,1,0,-1,0,5.47
1095,-4,0,0,-1,-1,-2,0,-3,5.4750000000000005
1096,2,0,-2,-3,-2,1,2,0,5.48
1097,0,1,-1,-1,0,-1,1,0,5.485
1098,-2,-1,2,1,-2,-1,-2,-1,5.49
1099,-1,1,1,1,-1,1,-1,-1,5.495
1100,0,0,1,4,0,-1,1,-2,5.5
1101,-1,-2,-7,-8,-3,-1,0,0,5.505
1102,1,0,1,-1,-1,-1,-1,0,5.51
1103,0,0,-1,-3,1,0,-2,-1,5.515
1104,0,0,3,3,1,1,-2,-2,5.5200000000000005
1105,0,-2,-1,0,-2,-1,1,-2,5.525
1106,-1,-1,-1,-2,-1,-2,-2,-3,5.53
1107,-1,-2,-1,-3,-1,-1,-1,0,5.535
1108,0,1,-2,-1,-2,-2,-1,0,5.54
1109,0,0,-2,2,-2,0,-1,-1,5.545
1110,-1,0,1,-5,-2,-2,-1,-1,5.55
1111,1,-2,-4,-1,0,0,-1,0,5.555
1112,-3,-4,3,1,-1,-2,-2,-2,5.5600000000000005
1113,0,-2,4,2,1,1,-1,-3,5.565
1114,-1,-1,0,0,1,-1,-1,-2,5.57
1115,0,1,-6,-6,0,-1,1,-2,5.575
1116,-1,1,-3,-8,-1,-1,-1,-1,5.58
1117,0,-2,-6,-2,1,-1,-1,-1,5.585
1118,-1,0,4,6,1,0,-1,-1,5.59
1119,0,2,5,3,2,1,-1,-1,5.595
1120,0,0,-4,1,1,1,1,0,5.6000000000000005
1121,-2,-2,-4,-8,-2,-3,-1,-1,5.605
1122,1,2,4,3,-1,-1,0,1,5.61
1123,-2,-3,-2,-1,-2,-3,0,0,5.615
1124,-1,0,2,2,0,-1,-1,0,5.62
1125,-1,0,2,0,0,-1,-1,-1,5.625
1126,-2,-1,-5,-1,0,1,-1,-1,5.63
1127,-2,0,3,-2,-2,0,-2,0,5.635
1128,2,-1,-3,-3,0,0,0,0,5.64
1129,-1,1,1,3,-1,0,0,-1,5.6450000000000005
1130,0,-2,-2,-3,2,0,-1,-2,5.65
1131,-2,-1,-1,-3,1,0,-1,0,5.655
1132,0,1,-3,-1,-1,-1,1,-1,5.66
1133,0,-2,1,0,-2,-2,-2,1,5.665
1134,1,0,2,4,-3,-2,1,0,5.67
1135,0,-1,-4,-3,-1,0,-1,-1,5.675
1136,-3,-3,-4,-6,-2,-1,-1,-1,5.68
1137,-1,0,6,5,1,-1,0,-1,5.6850000000000005
1138,-2,-2,-3,-3,0,-2,0,-1,5.69
1139,0,0,2,0,-2,-1,-2,0,5.695
1140,-1,-1,-2,-2,-1,1,-2,1,5.7
1141,1,1,-1,-1,1,0,-1,-1,5.705
1142,0,0,2,1,0,0,1,0,5.71
1143,0,-4,-8,-4,-1,-2,-2,-1,5.715
1144,-2,1,1,-1,0,-1,0,-1,5.72
1145,-1,-2,0,1,-1,-2,-1,0,5.7250000000000005
1146,0,1,-1,1,0,-1,-2,-2,5.73
1147,-2,-3,-3,-1,1,-1,-2,-2,5.735
1148,-1,0,-1,-2,-3,-3,-2,0,5.74
1149,-2,-2,-2,-1,-1,-1,1,1,5.745
1150,-2,-1,0,1,-2,-2,0,0,5.75
1151,-3,-1,1,0,-3,0,-2,0,5.755
1152,-1,-3,-1,1,0,-2,-2,-2,5.76
1153,0,1,-2,0,-1,0,-2,-2,5.765
1154,-1,-1,-4,-3,0,1,-1,1,5.7700000000000005
1155,-1,0,0,1,0,-2,1,0,5.775
1156,-2,-1,0,0,0,0,0,0,5.78
1157,0,0,0,0,-1,-1,0,2,5.785
1158,0,-2,-2,-2,-2,2,-2,-2,5.79
1159,0,0,1,1,0,0,0,-1,5.795
1160,0,1,0,0,1,-1,1,0,5.8
1161,-1,-1,-1,0,0,0,-2,-1,5.805
1162,-2,-2,-2,-4,-1,-1,0,0,5.8100000000000005
1163,0,-1,-2,-2,-1,0,-2,0,5.815
1164,-2,-1,-2,2,-2,0,-1,-1,5.82
1165,0,-2,-4,-3,0,0,-2,0,5.825
1166,-2,0,1,1,-3,-2,-1,-2,5.83
1167,-1,-1,1,-2,-3,-2,-1,-1,5.835
1168,1,-1,-3,-1,-1,0,0,0,5.84
1169,-2,1,-1,0,-1,0,1,-1,5.845
1170,0,0,0,-1,1,-1,-1,0,5.8500000000000005
1171,-1,0,0,-1,0,-1,1,-1,5.855
1172,-2,0,5,4,-1,1,-1,-1,5.86
1173,-2,-2,-6,-5,-2,-1,-2,-1,5.865
1174,-1,0,0,0,-1,0,1,0,5.87
1175,-2,-2,-3,0,-1,-1,0,0,5.875
1176,-1,0,0,1,1,-1,-2,-1,5.88
1177,0,-2,1,1,0,-1,-1,0,5.885
1178,-1,1,1,-2,0,-3,-2,-2,5.89
1179,2,0,-2,3,0,1,0,-1,5.8950000000000005
1180,-3,-3,-3,-6,-2,-1,-1,-1,5.9
1181,0,0,3,5,0,-2,0,0,5.905
1182,-1,-2,-4,-3,0,1,-4,0,5.91
1183,-1,-2,1,-1,-1,-1,1,-1,5.915
1184,0,-1,-5,-2,-2,-1,-3,-1,5.92
1185,-1,0,-2,-2,-1,0,-1,-2,5.925
1186,1,-2,2,0,-2,1,1,0,5.93
1187,-1,-1,-4,-1,-1,-1,-3,-1,5.9350000000000005
1188,-1,-2,-1,-3,-1,-2,0,-1,5.94
1189,0,0,0,-1,-1,0,1,-1,5.945
1190,0,-2,-1,-1,-2,-1,1,0,5.95
1191,-1,2,0,-1,-3,-1,-2,0,5.955
1192,-1,-2,-1,-1,-1,-1,1,-1,5.96
1193,0,-1,-1,-1,-1,-1,-2,-1,5.965
1194,2,0,-3,-4,-1,-2,-1,-1,5.97
1195,-2,-2,7,10,0,0,-1,-1,5.9750000000000005
1196,-2,0,4,4,-1,-1,-2,-2,5.98
1197,-1,0,-5,-8,1,-2,-1,-2,5.985
1198,0,-1,-2,0,3,0,-3,-1,5.99
1199,-2,-1,-2,-3,2,-1,0,-2,5.995
1200,1,-1,-2,-1,-2,-2,-2,-1,6.0
1201,-1,-2,2,1,-3,1,0,1,6.005
1202,-2,0,2,0,-1,0,0,-1,6.01
1203,0,-2,-4,-4,-3,1,0,0,6.015000000000001
1204,0,0,1,2,2,-2,-2,-3,6.0200000000000005
1205,-1,-2,0,0,-1,0,-1,-3,6.025
1206,-2,-1,0,0,-1,-1,1,-2,6.03
1207,0,0,0,0,0,0,-2,0,6.035
1208,0,-1,2,-1,2,0,1,-1,6.04
1209,0,-3,-3,-1,-1,0,-2,0,6.045
1210,0,-1,2,1,0,2,-2,-1,6.05
1211,-1,-1,0,-2,0,-2,-1,-1,6.055
1212,1,1,0,-2,-2,1,0,0,6.0600000000000005
1213,-2,0,-4,-4,0,0,0,-1,6.065
1214,-1,-2,-1,2,-2,0,-2,-1,6.07
1215,-1,-1,-1,1,1,-1,-1,1,6.075
1216,0,1,-2,-3,-2,0,-1,-1,6.08
1217,-2,0,1,2,-3,-1,-2,-2,6.085
1218,-1,0,-3,-2,-1,1,0,-1,6.09
1219,-1,0,0,-4,-2,1,1,-1,6.095
1220,-1,-1,-3,-3,1,-1,0,0,6.1000000000000005
1221,-1,0,3,3,0,-2,-1,-1,6.105
1222,-2,-1,0,-2,-2,-2,0,-2,6.11
1223,0,-1,0,0,-1,0,0,-1,6.115
1224,-1,-1,-1,-1,-2,0,0,0,6.12
1225,-1,0,-1,-5,-1,0,0,-1,6.125
1226,-2,-2,-3,-2,0,-1,-2,-1,6.13
1227,-1,-1,0,0,1,-1,-1,-2,6.135
1228,-2,1,-2,-2,-1,-1,-1,1,6.140000000000001
1229,-1,-2,1,0,1,-1,0,-1,6.1450000000000005
1230,0,-1,0,1,-2,-1,0,0,6.15
1231,-2,0,-1,-2,-2,0,0,-1,6.155
1232,0,0,0,-1,-1,-1,-3,-3,6.16
1233,1,-1,-5,-1,-1,0,-2,-1,6.165
1234,-1,1,2,2,0,-1,-1,-1,6.17
1235,-1,0,0,0,-3,-2,-2,-1,6.175
1236,-1,0,-1,-1,-1,-1,-1,0,6.18
1237,0,-1,-1,2,2,1,-1,-1,6.1850000000000005
1238,2,0,-5,-4,1,-2,0,2,6.19
1239,2,-1,0,0,0,-2,-1,-2,6.195
1240,-2,0,0,0,-1,-2,-1,-1,6.2
1241,0,0,0,-1,-4,-1,-1,0,6.205
1242,-1,-1,0,-2,0,0,-1,0,6.21
1243,0,-1,-3,-1,-1,-3,-2,0,6.215
1244,-1,-1,-2,-2,-2,-2,-1,-1,6.22
1245,-2,-2,-1,-2,-1,-1,0,-1,6.2250000000000005
1246,0,1,-3,-4,-1,-1,-1,2,6.23
1247,-3,-2,4,6,-1,-1,-2,-1,6.235
1248,-1,-1,2,1,-2,0,-2,-1,6.24
1249,0,1,-2,-2,0,0,-2,0,6.245
1250,-1,-1,-1,-1,0,-1,-3,-2,6.25
1251,-2,1,-5,-6,2,1,-1,-2,6.255
1252,0,-1,1,-1,1,0,-1,0,6.26
1253,0,0,4,3,-1,-1,1,-1,6.265000000000001
1254,0,-2,0,-3,-2,-2,0,-2,6.2700000000000005
1255,1,-1,-3,-1,-2,0,0,1,6.275
1256,0,-1,0,5,-2,0,0,-1,6.28
1257,0,0,-2,-2,-2,-1,-1,-1,6.285
1258,-2,0,4,4,-2,-1,-1,-2,6.29
1259,-1,-3,-3,-5,-2,1,0,-2,6.295
1260,0,-1,-2,-2,-2,0,0,0,6.3
1261,-1,0,-2,-1,0,0,1,0,6.305
1262,-1,-2,-3,-1,-2,0,-1,0,6.3100000000000005
1263,1,0,1,0,2,0,0,-1,6.315
1264,1,-1,-2,-2,0,-1,-1,-1,6.32
1265,0,-1,0,-1,-2,-1,0,0,6.325
1266,-1,0,-2,-1,0,-3,-1,-1,6.33
1267,-1,-1,-1,-2,0,-2,0,-2,6.335
1268,0,-2,-2,0,-1,-1,-1,0,6.34
1269,-2,0,1,3,-1,-1,-2,0,6.345
1270,-1,-3,-2,1,-1,0,-3,-1,6.3500000000000005
1271,-2,0,-2,2,-1,0,-1,-1,6.355
1272,-1,-1,1,0,2,0,0,0,6.36
1273,0,-3,-1,-2,-1,-1,0,-2,6.365
1274,0,0,0,-3,-1,-1,0,-2,6.37
1275,0,0,-1,-1,0,1,-1,-1,6.375
1276,0,-1,-3,-1,-2,1,0,-1,6.38
1277,0,0,-3,-1,-1,-2,0,-2,6.385
1278,-1,-1,0,1,0,-1,0,-1,6.390000000000001
1279,0,-1,-1,-1,-1,-2,-2,1,6.3950000000000005
1280,-3,-2,1,-3,-2,-2,-1,0,6.4
1281,-1,-1,-2,0,0,1,0,0,6.405
1282,-1,1,0,0,-1,-1,0,0,6.41
1283,-1,0,1,1,0,0,0,1,6.415
1284,1,-1,-4,-3,0,-1,-1,-1,6.42
1285,-1,0,-1,-6,0,-2,0,0,6.425
1286,0,0,-1,2,-2,0,-1,-2,6.43
1287,-1,-2,1,0,-3,-3,-2,0,6.4350000000000005
1288,0,-1,-3,0,-1,-1,-1,-2,6.44
1289,2,-1,0,-1,1,-2,0,-1,6.445
1290,0,0,-3,-3,1,-1,1,1,6.45
1291,0,-3,-1,-2,-1,-1,0,-2,6.455
1292,0,0,-1,0,-1,0,0,-1,6.46
1293,-2,-1,-1,-2,-1,-2,0,-1,6.465
1294,-2,-2,1,-1,-2,0,-1,0,6.47
1295,0,1,0,0,0,1,-1,1,6.4750000000000005
1296,-2,-3,1,-3,0,0,-2,-1,6.48
1297,-1,-1,-2,-1,0,0,-1,1,6.485
1298,0,-1,0,0,0,-1,1,-2,6.49
1299,-1,-1,-3,-2,-2,-3,0,-1,6.495
1300,-1,-1,-1,-2,1,0,-1,-2,6.5
1301,-1,-1,0,1,-3,-1,-3,0,6.505
1302,1,-1,-1,0,-2,0,-2,0,6.51
1303,2,1,-1,-1,0,-1,0,1,6.515000000000001
1304,-2,-1,0,0,0,-2,-2,0,6.5200000000000005
1305,-2,-4,0,-1,-1,-2,0,1,6.525
1306,-1,0,-3,-3,-3,-1,0,-1,6.53
1307,-1,0,-1,-1,-2,0,-2,-2,6.535
1308,1,-1,-1,-2,-3,-2,1,0,6.54
1309,0,-1,-1,-1,-1,0,-1,-1,6.545
1310,0,-3,-1,1,1,0,-1,0,6.55
1311,-2,0,1,3,-1,0,-2,0,6.555
1312,-1,1,2,1,-1,0,-1,-1,6.5600000000000005
1313,-1,-1,-2,0,-2,-1,-3,-2,6.565
1314,1,-2,-2,-2,-1,0,-1,-1,6.57
1315,-2,-2,-1,-1,2,-1,0,-1,6.575
1316,-2,-2,1,1,-2,1,0,-1,6.58
1317,-1,1,0,1,-1,0,-1,-2,6.585
1318,-2,1,-1,-1,0,-1,-1,0,6.59
1319,0,-3,-2,-3,-1,0,0,-1,6.595
1320,-2,-1,1,2,-2,-1,-1,-1,6.6000000000000005
1321,-5,-2,-1,0,1,1,1,-1,6.605
1322,-7,-1,0,-1,-1,-2,0,-1,6.61
1323,-4,-1,-2,-2,-1,-1,0,0,6.615
1324,-1,2,-3,-3,0,-1,-2,0,6.62
1325,0,-2,1,1,-1,0,-1,-2,6.625
1326,0,-1,-2,0,-2,-1,0,-1,6.63
1327,2,-3,-2,-2,-2,0,1,-2,6.635
1328,0,1,-2,-1,0,-2,0,0,6.640000000000001
1329,1,-3,-1,-2,-3,-1,0,-1,6.6450000000000005
1330,2,0,-1,-1,-1,-1,-1,0,6.65
1331,1,0,-3,-2,0,0,0,-1,6.655
1332,0,0,-1,0,-1,-1,-1,-1,6.66
1333,0,-1,-2,-2,1,0,-2,0,6.665
1334,0,1,1,-2,-2,-3,-2,-2,6.67
1335,-1,1,1,2,0,0,-2,0,6.675
1336,-1,0,0,0,0,-3,2,-1,6.68
1337,0,-1,-2,-1,0,-2,0,0,6.6850000000000005
1338,0,-2,1,1,0,-1,0,-2,6.69
1339,0,-2,2,2,0,1,0,0,6.695
1340,-2,-2,-1,-2,-3,-1,0,0,6.7
1341,3,1,-2,-2,-1,1,0,2,6.705
1342,-3,-5,2,4,-1,0,-2,-2,6.71
1343,1,0,-3,-7,-1,0,-1,0,6.715
1344,0,-2,-1,0,-1,-1,-1,0,6.72
1345,0,-2,-3,-3,-3,-2,0,-2,6.7250000000000005
1346,0,-1,-1,1,-1,0,1,1,6.73
1347,-1,0,1,1,-1,-1,-1,-2,6.735
1348,0,-2,-4,-3,0,0,-2,-1,6.74
1349,-2,2,1,-1,0,-2,-2,-2,6.745
1350,-1,-2,-3,-2,-1,-1,-2,1,6.75
1351,-1,0,-1,1,0,0,0,0,6.755
1352,0,0,-1,-2,0,1,0,0,6.76
1353,-1,0,2,1,-2,1,1,-1,6.765000000000001
1354,-1,-3,0,-1,-2,-3,-3,-2,6.7700000000000005
1355,-2,-2,-4,-2,-4,-2,0,0,6.775
1356,0,-1,1,-1,1,-1,-1,0,6.78
1357,1,0,-1,1,-1,0,-2,-1,6.785
1358,0,-2,-3,-3,0,0,1,1,6.79
1359,-1,0,0,1,-3,0,0,-2,6.795
1360,-1,-3,1,1,0,-1,-1,-1,6.8
1361,0,-2,2,1,0,0,1,0,6.805
1362,-2,2,0,-1,1,1,0,-1,6.8100000000000005
1363,0,0,-1,2,1,0,-1,0,6.815
1364,-3,-2,-1,-4,-1,0,-1,0,6.82
1365,-2,-2,0,-1,0,-1,-1,0,6.825
1366,-1,0,-1,-3,-1,-1,-3,0,6.83
1367,-2,-1,0,0,-1,-2,-1,1,6.835
1368,-1,0,0,-1,-1,-1,0,0,6.84
1369,-1,-1,-1,-2,0,-1,-2,0,6.845
1370,1,1,-1,-1,-3,0,0,-1,6.8500000000000005
1371,0,1,-1,-3,-1,-2,-1,-1,6.855
1372,-1,0,-1,-1,-1,-1,0,-1,6.86
1373,-1,-1,-2,-2,-1,0,0,-2,6.865
1374,-1,-1,-1,-1,0,-1,-1,0,6.87
1375,-1,-2,-3,-2,2,-2,-1,-1,6.875
1376,-1,1,1,0,-2,0,0,-1,6.88
1377,-1,-1,-1,0,0,-2,1,0,6.885
1378,0,-1,-1,0,0,0,-1,-3,6.890000000000001
1379,0,-2,2,1,-3,-1,-1,-2,6.8950000000000005
1380,0,0,-2,-1,-1,0,0,-1,6.9
1381,0,1,-2,-2,-1,-1,-1,-1,6.905
1382,0,-3,0,0,-3,1,-1,-1,6.91
1383,-2,0,-1,-1,0,-1,-1,-2,6.915
1384,0,-3,-1,0,-1,-2,0,0,6.92
1385,-1,0,-3,-1,-1,-4,-1,-1,6.925
1386,0,1,-2,0,-2,-2,1,1,6.93
1387,-1,-2,0,0,-1,1,-2,-2,6.9350000000000005
1388,1,1,-1,0,-2,0,-2,-1,6.94
1389,0,-2,-1,0,0,1,-2,1,6.945
1390,-3,-3,-4,-1,-1,0,-1,-1,6.95
1391,-1,0,0,1,-2,-1,0,-1,6.955
1392,0,-2,-2,-1,-1,-1,-2,-1,6.96
1393,0,-2,-2,-1,-1,0,-1,-2,6.965
1394,1,2,3,2,2,-1,-2,-1,6.97
1395,-2,0,-1,-2,-2,-1,0,-2,6.9750000000000005
1396,-1,-3,-2,0,0,-2,-1,-2,6.98
1397,-2,-1,-2,1,-1,-1,0,-2,6.985
1398,-1,-1,-3,0,-1,0,0,1,6.99
1399,-1,-1,-4,-4,-1,0,-3,-1,6.995
1400,0,1,3,3,-1,-2,0,0,7.0
1401,-1,-3,1,1,-2,-1,-2,-1,7.005
1402,-1,0,0,-1,0,0,0,-3,7.01
1403,-1,-1,0,-1,0,0,1,2,7.015000000000001
1404,0,0,-1,-2,-1,1,-1,0,7.0200000000000005
1405,0,0,0,0,0,1,0,-2,7.025
1406,-1,-1,-3,-4,-3,-3,-1,-2,7.03
1407,0,-1,-1,-2,-1,-1,0,-2,7.035
1408,-2,-2,-1,-1,-1,-2,-1,-2,7.04
1409,-3,-1,-1,1,-2,-3,0,-1,7.045
1410,1,1,0,-2,-1,0,0,0,7.05
1411,0,-1,1,-1,-1,0,0,-1,7.055
1412,0,2,-1,0,-2,0,-2,-1,7.0600000000000005
1413,-1,1,-2,-3,-2,-1,0,0,7.065
1414,0,-3,2,1,-1,-2,-2,1,7.07
1415,0,-1,0,1,0,-2,0,0,7.075
1416,-1,-3,0,1,1,2,1,0,7.08
1417,0,-1,-1,-1,-3,0,-1,1,7.085
1418,-2,-2,-1,-1,-1,-1,-2,1,7.09
1419,-2,-1,-1,1,1,-1,-1,0,7.095
1420,0,-2,-1,-3,1,-1,1,-2,7.1000000000000005
1421,0,0,-2,-3,-2,-2,-1,-2,7.105
1422,-1,-1,1,0,0,-1,1,0,7.11
1423,-1,0,-2,-1,-1,-2,-1,-2,7.115
1424,0,-2,-2,-2,0,-1,-1,-2,7.12
1425,0,0,-1,1,1,-1,0,0,7.125
1426,-2,0,1,1,0,0,0,-1,7.13
1427,-1,-3,-1,-2,-3,-1,-1,0,7.135
1428,-2,-1,0,-2,-4,1,1,-1,7.140000000000001
1429,-1,-1,-1,-2,2,0,-1,-2,7.1450000000000005
1430,0,2,-1,0,-1,0,1,-2,7.15
1431,-1,2,-1,1,-2,-1,1,1,7.155
1432,0,-1,-1,2,0,-1,-2,1,7.16
1433,-1,-3,1,-1,-4,-1,-2,2,7.165
1434,1,-1,-2,-4,-2,1,-1,0,7.17
1435,0,-2,-1,-2,2,0,-1,0,7.175
1436,4,2,-1,3,0,0,-2,-1,7.18
1437,-8,-4,2,2,0,0,0,-2,7.1850000000000005
1438,-5,-4,0,1,3,-1,-2,1,7.19
1439,1,0,-1,-4,-3,-1,-1,-3,7.195
1440,-4,1,-2,-1,-4,-1,1,2,7.2
1441,3,0,-1,-1,2,0,2,0,7.205
1442,2,1,0,1,-4,0,-2,-2,7.21
1443,8,3,-4,-3,3,4,3,3,7.215
1444,-7,-5,-2,1,-2,0,-2,-3,7.22
1445,-6,-9,5,3,-3,-2,-5,-3,7.2250000000000005
1446,-1,-9,-6,-5,-2,-3,-1,-1,7.23
1447,-3,4,7,2,-3,-3,-2,-2,7.235
1448,0,9,0,2,5,-1,0,1,7.24
1449,11,3,0,-4,-3,-4,0,1,7.245
1450,-4,-7,-1,3,1,-3,-2,-1,7.25
1451,2,0,-5,3,4,3,3,3,7.255
1452,7,-7,-1,-10,-8,-5,-6,-6,7.26
1453,-8,2,1,-5,-4,1,1,-1,7.265000000000001
1454,-10,-1,2,-1,-2,0,-1,-5,7.2700000000000005
1455,5,1,-2,-2,2,1,-2,0,7.275
1456,-8,-3,-7,1,0,-4,-1,-2,7.28
1457,19,12,2,9,2,-1,1,4,7.285
1458,11,10,0,-2,-4,1,1,0,7.29
1459,-9,-14,-17,-7,-1,-1,0,-3,7.295
1460,-23,-23,-9,-9,-6,-6,-8,-8,7.3
1461,-7,-3,0,-2,3,3,2,3,7.305
1462,44,29,8,0,7,7,8,10,7.3100000000000005
1463,13,11,2,3,-5,-6,-1,1,7.315
1464,2,-8,5,8,-1,-4,-3,1,7.32
1465,24,13,-4,-10,-2,-2,-2,-4,7.325
1466,-51,-34,-2,2,-3,-3,-4,-8,7.33
1467,26,14,7,0,6,8,10,12,7.335
1468,-26,-34,-19,-11,-4,-3,-4,-7,7.34
1469,-10,-14,4,9,3,3,7,7,7.345
1470,-17,23,-5,-6,-6,-4,-8,-10,7.3500000000000005
1471,9,4,3,2,1,1,2,3,7.355
1472,18,13,-3,-1,1,-1,-4,1,7.36
1473,10,8,0,1,1,1,0,-1,7.365
1474,1,4,-4,-3,-2,-2,-5,-3,7.37
1475,-36,-4,5,5,-1,2,2,-1,7.375
1476,-16,-24,-9,1,0,-3,-8,-14,7.38
1477,-18,-26,-1,0,-7,-3,-7,-9,7.385
1478,30,9,-2,-19,-6,4,12,15,7.390000000000001
1479,-22,1,-3,0,-6,-16,-27,-31,7.3950000000000005
1480,23,31,10,6,8,11,22,17,7.4
1481,8,-4,-8,7,-6,-6,-6,-5,7.405
1482,3,-9,6,3,-2,3,9,13,7.41
1483,-15,-16,1,-13,-14,-9,-14,-9,7.415
1484,13,21,5,4,9,5,5,8,7.42
1485,-6,1,-2,32,21,0,4,0,7.425
1486,24,-5,-3,-31,-11,0,6,10,7.43
1487,-19,6,-13,-7,3,10,16,8,7.4350000000000005
1488,-19,-29,-1,11,-2,-9,-19,-20,7.44
1489,22,21,-3,-24,-12,-1,-4,-1,7.445
1490,-44,-23,-2,35,15,-2,-8,-5,7.45
1491,14,15,14,-18,-6,7,-1,-5,7.455
1492,57,59,8,23,9,5,7,6,7.46
1493,-50,-25,-13,-1,5,4,5,2,7.465
1494,-19,-13,-3,-23,4,0,-1,-5,7.47
1495,-48,-17,8,5,-9,-8,-11,-17,7.4750000000000005
1496,-7,0,19,0,-4,0,3,7,7.48
1497,-21,-25,-6,-18,-8,-5,-7,-5,7.485
1498,53,63,12,-1,-3,12,23,28,7.49
1499,-4,-33,4,42,17,-8,-17,-16,7.495
1500,-2,-2,-7,-5,-2,-4,-7,-4,7.5
1501,-8,36,8,-22,-1,5,7,12,7.505
1502,-32,-70,-27,26,-15,-17,-19,-29,7.51
1503,-8,5,-3,-16,4,5,-1,-9,7.515000000000001
1504,68,18,17,13,-7,8,21,30,7.5200000000000005
1505,-55,-48,-32,-38,-9,-6,-4,-9,7.525
1506,-24,-15,-28,-8,-2,-8,9,9,7.53
1507,69,31,26,9,-10,0,-2,18,7.535
1508,-68,-5,-25,-29,1,-10,-22,-44,7.54
1509,-7,-19,7,59,8,-9,-16,-14,7.545
1510,-1,17,7,-34,-10,6,16,18,7.55
1511,-4,-41,-43,-2,11,-4,3,19,7.555
1512,9,20,12,-30,6,9,8,8,7.5600000000000005
1513,14,12,0,8,-4,-2,-2,3,7.565
1514,-34,-56,7,24,9,3,-16,-28,7.57
1515,81,86,32,1,10,11,36,54,7.575
1516,-12,-17,-41,-4,-8,-10,-14,-14,7.58
1517,46,24,19,-7,-14,-2,10,5,7.585
1518,-22,-25,-22,32,14,-13,-20,-7,7.59
1519,55,60,47,-6,0,29,31,22,7.595
1520,1,2,22,40,-17,-16,-20,-14,7.6000000000000005
1521,35,5,-22,-66,-8,3,7,3,7.605
1522,-45,-9,11,30,19,15,5,-2,7.61
1523,-25,-51,-65,-39,1,-19,-18,-35,7.615
1524,-10,-36,11,2,-21,4,11,21,7.62
1525,-1,16,31,3,-16,-9,-9,-12,7.625
1526,26,-12,-4,-4,-2,13,-1,-10,7.63
1527,-14,22,14,32,23,-11,-21,-2,7.635
1528,-24,-12,-8,-28,9,-3,-6,-12,7.640000000000001
1529,26,17,1,-18,-23,2,2,1,7.6450000000000005
1530,81,23,35,39,41,5,-3,-11,7.65
1531,-28,9,5,-29,-41,3,9,3,7.655
1532,-27,-65,-11,55,14,-15,-7,-4,7.66
1533,8,27,-1,-35,3,7,2,0,7.665
1534,-2,-40,-20,-53,-10,-16,-1,4,7.67
1535,4,-6,-14,21,-13,-2,1,-2,7.675
1536,15,54,11,-37,-14,3,-4,-5,7.68
1537,-30,-19,-3,66,45,15,10,11,7.6850000000000005
1538,31,14,6,-2,-42,-9,-14,-23,7.69
1539,7,2,-18,36,36,-4,-4,-5,7.695
1540,-19,-22,-5,-64,-18,-2,2,0,7.7
1541,0,-8,6,48,-20,-4,11,15,7.705
1542,0,22,6,-52,4,6,3,10,7.71
1543,38,-3,0,7,2,3,0,3,7.715
1544,0,-4,13,65,6,-4,-8,-12,7.72
1545,-37,-22,-3,13,12,-4,-19,-22,7.7250000000000005
1546,55,25,-5,-25,18,-5,-2,6,7.73
1547,-75,-40,-29,-27,-40,-17,-13,-19,7.735
1548,55,25,-5,-25,18,-5,-2,6,7.74
1549,-75,-40,-29,-27,-40,-17,-13,-19,7.745
1550,-68,-5,-25,-29,1,-10,-22,-44,7.75
1551,-7,-19,7,59,8,-9,-16,-14,7.755
1552,-1,17,7,-34,-10,6,16,18,7.76
1553,-4,-41,-43,-2,11,-4,3,19,7.765000000000001
1554,9,20,12,-30,6,9,8,8,7.7700000000000005
1555,14,12,0,8,-4,-2,-2,3,7.775
1556,18,-2,21,39,-6,-2,17,31,7.78
1557,28,-1,-29,-41,28,19,23,24,7.785
1558,-50,14,19,-21,-30,-11,-10,-15,7.79
1559,-12,-1,7,19,6,-15,-31,-38,7.795
1560,28,16,-32,-88,-11,4,-1,2,7.8
1561,35,-21,11,49,-10,-14,-3,10,7.805000000000001
1562,8,44,9,7,-2,4,-2,1,7.8100000000000005
1563,-85,-69,-47,14,5,15,32,11,7.815
1564,32,26,23,8,-2,-13,-14,21,7.82
1565,14,-14,0,-95,-28,-7,-26,-47,7.825
1566,-54,68,17,9,14,8,5,-2,7.83
1567,-14,-84,-15,17,0,-12,-13,-6,7.835
1568,31,63,23,15,6,11,20,26,7.84
1569,11,-13,-11,24,18,-1,-5,6,7.845
1570,-19,-25,2,-13,-10,-5,-7,7,7.8500000000000005
1571,78,64,42,13,-32,-23,-17,-11,7.855
1572,-63,-22,-41,13,47,21,8,-18,7.86
1573,69,66,50,-21,-9,3,23,48,7.865
1574,-7,-47,-33,20,10,11,27,20,7.87
1575,27,76,14,10,19,17,-1,-19,7.875
1576,43,-55,2,-33,-43,-24,-26,-29,7.88
1577,-63,14,1,30,28,22,0,-35,7.885
1578,63,17,-6,0,-11,-1,-6,0,7.890000000000001
1579,-24,-13,-23,-40,11,-15,-16,-18,7.8950000000000005
1580,28,-21,-12,-23,-24,4,14,16,7.9
1581,-65,-5,19,98,54,2,-11,-12,7.905
1582,38,5,-14,-36,-15,15,29,39,7.91
1583,-21,-52,7,11,-26,-13,-16,-13,7.915
1584,-66,42,-15,26,24,19,27,-9,7.92
1585,5,-53,-57,-98,-20,-26,-40,-36,7.925
1586,48,26,67,116,10,19,48,81,7.930000000000001
1587,-10,8,13,21,26,12,10,30,7.9350000000000005
1588,9,46,-29,-29,-2,-35,-53,-72,7.94
1589,22,0,-68,-25,-46,3,34,55,7.945
1590,-96,-58,-2,-6,-33,-19,-51,-115,7.95
1591,47,-8,-6,-34,25,25,36,56,7.955
1592,-45,-27,19,16,-41,-33,-6,23,7.96
1593,23,24,21,-16,5,1,-1,18,7.965
1594,-43,0,-29,22,-25,-24,-42,-49,7.97
1595,-10,-44,12,-1,23,46,53,17,7.9750000000000005
1596,71,127,68,10,-11,9,13,29,7.98
1597,-77,-102,19,38,32,-13,-23,-42,7.985
1598,8,1,-35,-27,-32,-8,8,14,7.99
1599,-85,-46,-22,-19,8,-1,-35,-43,7.995
1600,56,32,-2,-14,40,36,50,54,8.0
1601,-10,32,47,33,-24,-15,-9,-5,8.005
1602,44,-21,-17,50,38,13,21,35,8.01
1603,-44,47,14,-73,-91,-24,-13,-48,8.015
1604,42,30,-7,-17,70,29,11,11,8.02
1605,-42,5,-4,53,-32,-27,-23,-30,8.025
1606,10,12,41,-40,-35,-19,-12,20,8.03
1607,97,20,-61,10,49,3,0,10,8.035
1608,-30,-92,-22,-36,-27,-10,-21,-26,8.040000000000001
1609,10,42,20,28,-8,18,12,-10,8.045
1610,-17,33,2,-11,26,9,26,28,8.05
1611,61,42,44,49,-5,-13,-26,-1,8.055
1612,32,-2,2,-4,-3,-3,-10,5,8.06
1613,-2,-27,-38,-2,27,13,20,21,8.065
1614,-6,1,13,6,-5,-9,-14,-25,8.07
1615,-19,-1,12,4,7,4,14,13,8.075
1616,-16,-31,-9,35,14,36,26,4,8.08
1617,14,12,4,-44,-34,-34,-39,-10,8.085
1618,-16,5,-7,-3,16,6,12,-10,8.09
1619,-23,-37,2,-9,-11,-1,3,1,8.095
1620,-29,6,-3,13,-4,3,-1,14,8.1
1621,31,-14,3,-20,-5,8,7,-4,8.105
1622,-20,5,-13,-10,6,-13,-14,-23,8.11
1623,21,2,-9,33,34,8,18,23,8.115
1624,-28,-19,12,-16,-32,-13,-6,-14,8.120000000000001
1625,3,5,-12,-6,19,10,2,-8,8.125
1626,32,0,-12,-9,20,-6,-12,-1,8.13
1627,1,13,15,-17,-26,-5,-1,11,8.135
1628,-28,-18,-4,12,15,-4,5,-3,8.14
1629,-6,-10,-11,0,5,8,9,3,8.145
1630,-3,-3,-5,-9,5,0,-1,-4,8.15
1631,-7,8,4,-6,-10,-11,-11,-4,8.155
1632,-13,-8,-1,6,-4,-9,-12,-11,8.16
1633,6,2,8,-4,-4,5,12,9,8.165000000000001
1634,-3,-3,2,7,4,-6,-18,-8,8.17
1635,4,5,4,-2,-6,0,-10,1,8.175
1636,-1,-11,-8,11,-1,9,23,-8,8.18
1637,-1,14,-3,-6,-1,-9,-4,4,8.185
1638,-10,-8,2,2,-4,13,5,-1,8.19
1639,2,5,1,-5,-3,-8,5,0,8.195
1640,-13,-19,-10,4,-2,-9,-11,-6,8.2
1641,4,10,2,-3,1,5,11,9,8.205
1642,5,-6,-5,-2,0,-8,-9,-6,8.21
1643,-9,-7,-6,-3,-5,-7,-11,-2,8.215
1644,-11,-9,-2,7,1,3,0,-1,8.22
1645,5,7,7,-4,-3,0,-1,4,8.225
1646,4,-1,-1,-1,-1,0,-4,1,8.23
1647,-7,1,-5,-4,-5,2,4,0,8.235
1648,-9,-22,2,-1,0,-1,-6,-1,8.24
1649,-2,4,1,0,-3,0,1,3,8.245000000000001
1650,-2,-6,-8,-5,-3,-2,-6,-1,8.25
1651,-1,4,12,12,2,8,4,4,8.255
1652,-4,-7,-4,-4,0,0,-8,-1,8.26
1653,-2,-7,-5,-8,-1,3,-4,2,8.265
1654,2,0,3,9,2,6,-1,1,8.27
1655,1,-4,2,-2,-1,-2,0,0,8.275
1656,0,3,-15,-10,-4,-2,-4,-3,8.28
1657,-3,0,-4,-8,-3,-2,-2,2,8.285
1658,1,3,15,3,-3,1,-2,-1,8.290000000000001
1659,2,8,7,11,4,0,0,2,8.295
1660,-6,-8,-14,-14,-7,-6,-7,-3,8.3
1661,-3,-3,13,2,-4,2,9,-1,8.305
1662,-3,-7,-7,-7,-7,-7,-9,-6,8.31
1663,-2,-5,-7,-3,-2,-3,-6,-4,8.315
1664,0,7,11,9,6,3,4,1,8.32
1665,1,3,-8,2,0,-2,-6,0,8.325
1666,4,8,13,5,6,-1,2,0,8.33
1667,0,4,-19,-15,1,5,8,0,8.335
1668,-8,-5,1,19,-8,-10,-6,-5,8.34
1669,-6,-12,-3,0,-10,-9,-2,-3,8.345
1670,-8,-4,10,-18,-7,-6,-11,-7,8.35
1671,-3,-6,-4,-4,-2,3,4,0,8.355
1672,2,8,-8,-5,2,5,5,-1,8.36
1673,6,10,-14,-2,7,3,4,3,8.365
1674,5,-1,-2,2,-3,-1,3,1,8.370000000000001
1675,-3,-12,4,7,-5,-5,-2,-4,8.375
1676,-4,-10,-9,-17,-6,-5,-7,-4,8.38
1677,2,5,9,6,0,0,-1,1,8.385
1678,3,4,-11,2,2,4,4,3,8.39
1679,-2,-1,-18,-13,-4,-5,-9,-3,8.395
1680,-1,-5,8,16,4,3,8,1,8.4
1681,-1,-3,-3,-6,-4,-2,-4,-3,8.405
1682,3,-1,0,1,6,5,5,3,8.41
1683,0,2,12,24,1,-3,0,1,8.415000000000001
1684,-1,2,2,-21,-7,-4,-8,-3,8.42
1685,-3,-5,-7,-8,-4,-3,0,-2,8.425
1686,0,4,9,14,5,0,3,1,8.43
1687,-3,-4,-7,-6,-2,-1,-1,-2,8.435
1688,0,1,-9,-5,2,-3,-3,0,8.44
1689,1,2,6,-6,-1,2,3,-1,8.445
1690,-4,-9,-12,-2,-7,-3,-2,-2,8.45
1691,0,2,0,-5,-2,-1,-1,-1,8.455
1692,0,3,7,13,0,-3,-1,-1,8.46
1693,2,6,8,3,2,2,-2,1,8.465
1694,-1,-6,-7,1,0,0,0,-1,8.47
1695,-3,-5,-10,-16,-6,-3,-1,-2,8.475
1696,0,1,3,-3,-4,-4,-2,-2,8.48
1697,-2,0,1,7,1,-1,0,-1,8.485
1698,-2,-3,-10,-8,1,-1,2,-1,8.49
1699,-2,3,11,6,-1,1,-1,-1,8.495000000000001
1700,1,2,8,8,2,0,-2,1,8.5
1701,-2,-4,-8,-6,0,0,0,1,8.505
1702,-1,-2,-1,1,-2,-2,-1,0,8.51
1703,0,0,2,-5,-3,-1,0,0,8.515
1704,-1,0,1,4,-2,0,-1,0,8.52
1705,0,0,-1,1,-1,-1,-1,-1,8.525
1706,0,-2,-4,-5,0,0,0,-2,8.53
1707,1,1,5,2,3,-1,2,0,8.535
1708,0,-2,-12,-7,0,0,0,1,8.540000000000001
1709,0,2,4,5,1,0,0,-1,8.545
1710,0,-2,-3,-3,-3,-3,-1,-2,8.55
1711,-1,-3,3,-3,0,-1,0,-2,8.555
1712,1,2,10,9,1,0,-1,-1,8.56
1713,0,-1,-4,-3,0,-1,-1,-3,8.565
1714,-2,-1,-1,-1,-1,-2,-1,-1,8.57
1715,-2,-5,4,1,-3,-1,-1,-3,8.575000000000001
1716,-1,0,1,1,-2,0,-2,0,8.58
1717,-2,-2,-2,0,0,-1,0,1,8.585
1718,0,-1,-2,-5,-1,-1,-1,-2,8.59
1719,1,1,5,5,3,1,0,-1,8.595
1720,-1,-1,-2,-2,0,0,1,-1,8.6
1721,-1,-3,2,-4,-2,-1,0,-2,8.605
1722,-1,2,-4,3,-1,-2,-2,-1,8.61
1723,-1,-2,-5,-5,-1,1,0,-1,8.615
1724,0,0,4,3,1,-2,-1,-2,8.620000000000001
1725,1,-2,0,1,2,1,1,-1,8.625
1726,-1,-1,1,-3,0,0,0,-1,8.63
1727,-1,0,3,-1,-4,-1,0,-1,8.635
1728,-1,-1,-2,2,-4,-2,-2,-2,8.64
1729,-2,-1,-4,-3,-3,-1,0,-2,8.645
1730,-1,-3,-1,0,-2,0,-2,0,8.65
1731,0,1,-4,-3,-1,-1,-2,0,8.655
1732,2,1,1,0,-3,1,0,1,8.66
1733,1,-1,1,-1,0,-1,0,-1,8.665000000000001
1734,-1,-1,-2,-2,-2,0,0,-1,8.67
1735,-2,-3,-4,0,1,-2,-2,-1,8.675
1736,-1,-2,0,-1,0,0,-1,0,8.68
1737,-1,0,-3,-1,-1,-1,-2,0,8.685
1738,-2,0,0,0,-3,1,0,0,8.69
1739,-1,1,-1,-3,-2,0,0,0,8.695
1740,0,-1,0,1,0,-1,1,-1,8.700000000000001
1741,-1,0,-3,-4,-2,-3,-1,-2,8.705
1742,-2,-2,-2,-3,0,0,1,-2,8.71
1743,-2,-2,-2,-2,-1,0,0,0,8.715
1744,0,0,2,1,4,-1,-1,0,8.72
1745,0,-1,0,0,1,0,1,0,8.725
1746,-1,-2,-3,-3,-3,-2,-2,-1,8.73
1747,-1,-1,0,-1,0,-1,-1,0,8.735
1748,-1,0,1,0,0,-1,-2,-1,8.74
1749,-1,0,-2,-2,-4,-1,-1,-1,8.745000000000001
1750,0,-1,0,-2,-1,-1,0,-1,8.75
1751,0,0,-1,-1,-2,-1,-1,-2,8.755
1752,-2,-1,-1,-1,-2,0,-1,0,8.76
1753,-1,-3,-1,0,1,1,2,0,8.765
1754,-1,0,-1,-2,0,-2,2,-1,8.77
1755,-1,0,-1,0,-3,0,-1,-2,8.775
1756,0,1,0,1,0,-1,-1,-1,8.78
1757,-2,-2,-2,-1,-2,0,0,0,8.785
1758,0,0,-2,0,1,0,0,-1,8.790000000000001
1759,-1,-3,0,-1,0,-1,1,0,8.795
1760,-1,0,-1,-3,1,1,0,-1,8.8
1761,-2,-1,-1,0,-2,-2,-3,-3,8.805
1762,-2,0,-1,-2,-3,1,-1,-2,8.81
1763,0,-3,-3,1,-1,-1,0,-1,8.815
1764,0,-2,0,0,-2,-2,-2,0,8.82
1765,-2,1,-2,-3,0,-2,-1,-1,8.825000000000001
1766,0,-1,-1,-1,0,0,0,-2,8.83
1767,1,0,-1,-2,-1,-1,-1,1,8.835
1768,-1,-1,-1,-1,1,0,1,-1,8.84
1769,-1,1,-2,0,1,1,-2,1,8.845
1770,0,-1,0,0,0,-2,-3,0,8.85
1771,-3,0,1,0,-1,-3,-2,0,8.855
1772,0,-1,-4,-1,-3,-3,0,0,8.86
1773,1,0,3,2,-2,-1,-1,1,8.865
1774,-2,-1,-4,-3,-1,-2,-1,0,8.870000000000001
1775,-1,-2,-2,0,-1,0,-1,0,8.875
1776,-1,-3,-1,-2,0,2,-1,-1,8.88
1777,1,-1,-1,0,-1,-1,0,0,8.885
1778,0,1,0,1,1,0,-1,-2,8.89
1779,1,-1,1,-1,0,2,-1,-1,8.895
1780,-1,-2,-1,-2,1,-2,-2,-1,8.9
1781,0,-1,-2,1,0,-1,-2,-2,8.905
1782,0,0,0,-2,0,-1,-2,0,8.91
1783,-1,-2,-4,-2,-2,-1,0,0,8.915000000000001
1784,-2,0,-1,0,-1,-1,-1,-3,8.92
1785,-1,-1,-1,-2,-1,1,0,-1,8.925
1786,-2,0,0,1,-2,-1,1,0,8.93
1787,0,-1,1,-2,-1,0,-1,-2,8.935
1788,0,0,-3,-2,-3,0,-2,-1,8.94
1789,-1,0,-1,-1,0,-1,-2,-1,8.945
1790,0,-2,-1,1,-1,1,0,-1,8.950000000000001
1791,-1,-2,-2,-2,0,-2,0,-1,8.955
1792,0,-1,-1,0,-1,2,0,0,8.96
1793,4,1,-1,1,-1,-1,-1,0,8.965
1794,2,-1,-2,1,-1,1,-1,0,8.97
1795,3,1,0,-1,0,-2,-1,-1,8.975
1796,-2,-2,-2,-1,-2,-1,-1,0,8.98
1797,-3,-3,1,0,-1,-1,2,1,8.985
1798,-2,-2,-1,-2,-1,-1,0,-1,8.99
1799,-3,1,0,0,0,0,-1,-1,8.995000000000001
1800,-1,0,0,0,0,-1,0,-1,9.0
1801,-4,-1,0,-1,0,-1,1,-2,9.005
1802,0,1,-2,-1,-1,-1,0,-1,9.01
1803,-3,-1,-1,0,-1,0,-1,0,9.015
1804,0,0,0,-1,-1,-1,1,0,9.02
1805,-1,1,-3,-1,-2,0,0,-1,9.025
1806,-3,-1,-1,-1,1,1,0,-1,9.03
1807,-1,-2,-2,-1,-1,1,-1,-1,9.035
1808,0,0,0,0,-1,0,-2,-2,9.040000000000001
1809,1,-1,1,0,-1,0,-2,1,9.045
1810,-2,-1,-1,0,-2,-2,-1,-1,9.05
1811,-1,-2,-1,-1,-1,-1,-2,0,9.055
1812,0,-2,0,-2,-1,-2,-1,0,9.06
1813,-1,1,-1,-1,0,0,-1,-1,9.065
1814,-2,-1,1,0,-3,0,-1,-1,9.07
1815,1,-1,-2,2,-2,0,0,0,9.075000000000001
1816,-1,-2,0,-3,-3,-1,-1,0,9.08
1817,-1,-1,-4,-2,1,-2,0,0,9.085
1818,-1,-3,-1,-2,2,0,0,-1,9.09
1819,0,1,-1,0,1,-2,-1,0,9.095
1820,1,0,-1,1,-1,0,-2,-2,9.1
1821,0,-3,-1,0,-2,0,-1,0,9.105
1822,-1,-1,-1,0,-1,-1,0,0,9.11
1823,-1,-2,1,-1,-1,-2,0,-1,9.115
1824,0,1,-2,-3,-3,-1,1,-2,9.120000000000001
1825,0,-2,0,1,0,0,0,-1,9.125
1826,-2,0,-2,0,0,-2,-1,-1,9.13
1827,-2,-2,0,1,-1,-1,-1,-1,9.135
1828,-2,-1,0,-1,0,0,0,0,9.14
1829,0,0,5,3,1,-1,0,-2,9.145
1830,1,0,-3,-5,-1,-1,1,-1,9.15
1831,0,-1,-7,-5,-2,-1,-2,-2,9.155
1832,-1,-2,-5,-2,1,-1,0,-1,9.16
1833,-1,1,-5,-6,-1,0,-1,0,9.165000000000001
1834,0,-3,15,14,0,0,-1,-2,9.17
1835,-1,0,1,1,-1,0,1,-1,9.175
1836,-1,0,-1,-3,1,0,-1,-1,9.18
1837,0,0,-2,-2,-1,0,0,-1,9.185
1838,1,0,1,1,0,-2,-1,-2,9.19
1839,0,-1,-4,-4,-2,0,0,-1,9.195
1840,-1,-1,-1,3,-1,0,-1,-1,9.200000000000001
1841,0,0,-3,0,-1,-2,-1,1,9.205
1842,-1,-1,-8,-9,0,-1,-1,1,9.21
1843,-1,0,3,2,-1,-1,0,-2,9.215
1844,0,-1,1,-2,0,-1,-2,0,9.22
1845,-2,0,0,-3,-2,0,-1,-3,9.225
1846,2,-1,0,0,-2,-1,0,-1,9.23
1847,1,-1,-1,-1,-1,-1,0,-1,9.235
1848,-1,-1,-2,-3,-1,-1,2,2,9.24
1849,-2,-4,0,2,-1,0,-1,0,9.245000000000001
1850,0,0,-4,-2,0,-2,-1,-1,9.25
1851,-1,1,-1,-1,-1,-1,-2,0,9.255
1852,0,-1,0,1,-2,-1,-2,-1,9.26
1853,0,-3,-1,0,0,-3,-1,-2,9.265
1854,-1,-1,-4,-4,-3,0,0,-1,9.27
1855,-1,-3,0,0,0,1,-1,1,9.275
1856,-1,-1,2,1,-2,-1,-1,0,9.28
1857,0,-1,1,0,1,-1,-1,0,9.285
1858,-1,-3,-3,-2,0,0,-1,1,9.290000000000001
1859,-1,-1,0,-1,-2,-1,-1,-1,9.295
1860,2,0,-1,1,1,0,-1,0,9.3
1861,-2,-1,0,-3,-2,0,-2,0,9.305
1862,0,-1,-1,-1,-1,-1,0,-2,9.31
1863,0,1,0,-1,-1,0,-2,-1,9.315
1864,-1,0,-3,-5,-1,-1,1,-1,9.32
1865,-2,-2,-1,0,1,-1,2,-2,9.325000000000001
1866,-2,0,0,-1,0,0,-1,0,9.33
1867,-1,-1,-2,1,0,-1,-2,-2,9.335
1868,0,-1,1,1,-1,-3,0,-3,9.34
1869,0,0,0,2,-2,0,0,0,9.345
1870,-1,0,0,-2,-3,0,-1,-1,9.35
1871,-1,-1,-3,-2,-1,0,0,0,9.355
1872,-1,-1,0,0,2,-1,0,0,9.36
1873,-1,0,-3,-1,-2,-1,-1,-1,9.365
1874,1,0,0,0,0,-2,0,-2,9.370000000000001
1875,1,0,1,0,-1,-1,2,-1,9.375
1876,-2,-3,-1,0,-2,0,-2,-1,9.38
1877,-2,0,-1,-1,0,0,-2,-2,9.385
1878,-2,-2,-1,-1,-2,0,-2,-1,9.39
1879,-1,-1,-1,1,-1,1,-1,-1,9.395
1880,0,0,0,-1,-2,-1,-1,0,9.4
1881,1,0,-3,-2,0,-1,-2,-1,9.405
1882,-2,-1,-1,1,0,-1,0,-1,9.41
1883,-2,-1,0,0,0,-2,-2,-1,9.415000000000001
1884,0,0,-2,-1,0,-2,-3,-1,9.42
1885,0,-2,-1,-2,-2,-1,-2,0,9.425
1886,-1,-1,-1,-1,1,0,0,0,9.43
1887,-2,-3,-1,-2,0,-2,-1,-2,9.435
1888,0,-1,0,-1,-1,1,0,0,9.44
1889,-2,0,0,0,-2,-2,1,-1,9.445
1890,-2,1,0,-1,0,-1,-1,1,9.450000000000001
1891,0,1,0,0,-1,-1,-1,-1,9.455
1892,-1,-2,-1,2,0,0,0,-1,9.46
1893,0,-2,0,0,-1,-2,0,-1,9.465
1894,0,-1,-1,0,-1,0,2,-1,9.47
1895,-1,0,1,-1,-1,-1,0,-1,9.475
1896,-2,1,0,-1,0,-3,-1,-2,9.48
1897,1,0,1,0,-1,0,-1,-1,9.485
1898,0,1,-1,0,0,0,-3,0,9.49
1899,-1,-2,-2,-2,0,-2,-1,1,9.495000000000001
1900,-3,0,-3,-3,-1,0,0,-1,9.5
1901,2,-2,0,0,-1,-1,0,-1,9.505
1902,1,0,3,7,-1,-2,0,0,9.51
1903,-2,-3,-4,-4,-2,-2,0,0,9.515
1904,-1,-1,-4,-4,0,0,0,-1,9.52
1905,-2,-1,-2,-2,1,-1,-2,1,9.525
1906,1,-4,-1,-1,-1,-1,-1,0,9.53
1907,0,1,2,3,1,-1,-2,0,9.535
1908,0,-1,-2,0,0,0,0,0,9.540000000000001
1909,0,0,0,-2,0,1,-1,-2,9.545
1910,-1,-1,-1,-1,-2,1,-1,-2,9.55
1911,-1,0,0,-1,0,-1,-1,0,9.555
1912,-1,-2,-2,-2,-3,0,0,-1,9.56
1913,-1,0,-2,-2,0,-1,1,0,9.565
1914,-3,0,0,-1,-2,-1,1,-1,9.57
1915,-1,-1,1,2,-2,0,-2,-2,9.575000000000001
1916,0,1,1,2,0,-1,-1,1,9.58
1917,-1,-3,-1,0,-3,-1,0,0,9.585
1918,0,0,-4,-3,0,-1,0,0,9.59
1919,0,1,-4,-4,0,1,0,0,9.595
1920,-2,-4,2,-1,-3,-2,-2,-3,9.6
1921,-1,-3,-8,-6,-1,-2,-1,-1,9.605
1922,-1,-2,8,8,0,-2,-1,-1,9.61
1923,1,-2,1,1,-1,-2,-1,-1,9.615
1924,-1,1,2,3,0,0,-1,-2,9.620000000000001
1925,-2,-1,-2,-3,0,0,0,0,9.625
1926,-2,-2,-9,-9,-2,0,-2,0,9.63
1927,-1,-2,-5,0,-1,-1,-1,0,9.635
1928,1,1,4,6,-1,-1,-2,-1,9.64
1929,1,1,-2,-1,-1,-2,-1,-2,9.645
1930,-2,-2,1,-1,-2,-1,0,-1,9.65
1931,-2,-2,4,-1,-2,-2,0,0,9.655
1932,-2,1,-4,-6,0,0,0,0,9.66
1933,-2,1,2,4,0,-2,-1,-2,9.665000000000001
1934,1,-1,-4,-3,0,1,1,-1,9.67
1935,-2,0,-1,1,0,2,0,-1,9.675
1936,-1,-1,-3,-1,-2,1,1,0,9.68
1937,-3,-3,-2,-1,-3,-1,-2,-1,9.685
1938,-2,-1,-3,0,0,-1,-1,-1,9.69
1939,1,-1,-2,0,-1,-1,0,-1,9.695
1940,0,-1,-1,1,-1,-1,0,0,9.700000000000001
1941,-1,0,3,3,2,-1,0,-1,9.705
1942,1,-2,0,1,-1,1,0,-1,9.71
1943,-1,0,0,0,1,-2,-1,-1,9.715
1944,-1,1,-3,-3,-1,-1,-2,-1,9.72
1945,-2,0,-1,-4,0,0,0,1,9.725
1946,-1,1,0,1,0,-1,-2,0,9.73
1947,1,0,-3,0,-1,1,-2,-3,9.735
1948,2,-2,0,0,-1,0,-1,-1,9.74
1949,0,-2,1,1,-2,0,0,-1,9.745000000000001
1950,-2,0,-1,-1,-1,1,1,0,9.75
1951,-2,0,-1,-1,-1,0,-1,-1,9.755
1952,0,-1,-2,-3,-1,-1,-1,-1,9.76
1953,0,-2,0,1,-2,-1,-2,-2,9.765
1954,0,-1,-5,-4,-3,-3,-1,-2,9.77
1955,1,-3,-3,-1,-2,-1,0,0,9.775
1956,-1,-2,-1,-1,-1,0,-1,-1,9.78
1957,-2,1,-1,0,1,0,0,-1,9.785
1958,0,-2,-2,0,-1,-2,-2,-1,9.790000000000001
1959,-1,0,0,0,-1,-1,-1,-1,9.795
1960,0,0,0,0,-2,-2,1,0,9.8
1961,0,-1,-2,-1,-2,-2,-1,0,9.805
1962,0,1,2,-3,-2,-1,0,-1,9.81
1963,-1,-2,-2,-2,-2,-2,-2,-1,9.815
1964,1,-1,1,-1,-1,0,0,-2,9.82
1965,1,-2,-1,-1,-1,0,0,-1,9.825000000000001
1966,-1,0,-1,2,1,-1,-2,2,9.83
1967,0,0,0,-1,-2,0,0,-1,9.835
1968,0,0,-3,-3,0,-1,-1,-1,9.84
1969,-1,-1,4,3,-1,-2,0,-1,9.845
1970,-2,-1,1,1,-1,-2,-2,-2,9.85
1971,0,-1,-1,1,0,0,-1,-1,9.855
1972,1,0,-3,-2,0,-1,-1,0,9.86
1973,3,0,-4,-2,1,0,0,0,9.865
1974,1,-2,-5,-7,2,0,0,0,9.870000000000001
1975,-4,-2,9,7,-3,-2,-1,-2,9.875
1976,-2,-1,3,4,0,-1,-2,-1,9.88
1977,-1,-1,0,-1,0,0,-2,-1,9.885
1978,-1,-2,-4,-2,-2,0,1,-1,9.89
1979,-1,1,-1,1,2,-1,1,0,9.895
1980,-2,-1,0,0,1,1,-1,1,9.9
1981,-1,-4,-3,-4,-3,-2,-2,-3,9.905
1982,0,-1,-5,-5,-1,-1,0,-1,9.91
1983,0,0,-1,-4,-3,0,-1,-4,9.915000000000001
1984,-2,-1,-1,3,-1,-2,-2,0,9.92
1985,-2,0,-1,-1,-1,1,0,-1,9.925
1986,0,1,-1,-3,0,1,1,-1,9.93
1987,1,-1,-1,-1,0,-1,1,1,9.935
1988,-3,-3,1,-1,-4,-1,-3,-2,9.94
1989,1,-1,2,-1,-1,-2,-2,-1,9.945
1990,0,-2,1,2,-3,-2,-1,-2,9.950000000000001
1991,0,-1,-3,-1,-1,1,-2,0,9.955
1992,-2,0,-5,-4,-2,-1,0,1,9.96
1993,-1,-1,-3,-1,-1,-1,1,0,9.965
1994,-1,-2,1,2,-2,0,-1,-1,9.97
1995,0,-1,-1,-3,-1,-2,0,0,9.975
1996,3,-2,-2,-1,-2,-2,-1,-1,9.98
1997,1,0,-1,2,0,-1,-2,-1,9.985
1998,-2,-1,2,5,-1,-2,-2,-1,9.99
1999,-2,-1,-4,-3,1,0,-1,-1,9.995000000000001
2000,-2,-2,-3,-2,-1,-1,0,-1,10.0
2001,1,-1,1,1,-1,1,-2,-1,10.005
2002,-1,-1,1,0,-3,-3,-1,-1,10.01
2003,-1,0,0,-2,-1,0,-1,0,10.015
2004,0,0,0,-2,2,0,-1,-1,10.02
2005,-1,-1,-2,-2,1,-1,-1,-1,10.025
2006,-2,-1,0,1,2,-1,-1,0,10.03
2007,-2,0,-2,0,1,-1,-2,-1,10.035
2008,0,2,-2,-4,-1,-1,2,0,10.040000000000001
2009,-2,-2,-4,-2,-1,0,0,0,10.045
2010,1,-1,2,0,0,1,-1,0,10.05
2011,0,-2,-4,-1,-1,1,0,0,10.055
2012,-1,-2,-1,2,-1,-1,0,-3,10.06
2013,-1,-1,-1,0,1,0,0,-1,10.065
2014,0,-1,-4,-2,-1,0,1,-1,10.07
2015,-1,0,1,-3,-2,-2,-1,-1,10.075000000000001
2016,0,1,2,1,1,1,0,-1,10.08
2017,-1,0,-3,-5,-3,-1,-1,-1,10.085
2018,0,1,2,2,1,0,-1,-1,10.09
2019,-2,-5,4,3,-2,-2,-2,-1,10.095
2020,1,-2,-3,-1,-3,-4,-1,1,10.1
2021,1,1,0,0,-1,-1,-1,0,10.105
2022,0,-2,-5,-4,-1,0,-1,0,10.11
2023,1,0,0,-1,0,0,0,-1,10.115
2024,-1,-1,0,1,-1,0,1,-1,10.120000000000001
2025,-1,0,-2,0,0,-2,-1,-1,10.125
2026,-2,0,1,1,-2,-2,-2,-2,10.13
2027,-1,-2,1,-3,-3,-1,-1,-1,10.135
2028,-1,-1,1,-1,1,0,-1,-1,10.14
2029,-1,1,0,-3,1,-1,0,1,10.145
2030,-1,1,-3,0,-1,0,0,-2,10.15
2031,1,2,0,-1,0,-1,1,-1,10.155
2032,-1,-1,-3,-4,-3,-1,-1,-1,10.16
2033,1,0,1,1,-1,-1,-2,-1,10.165000000000001
2034,-1,1,1,3,0,-1,-1,-1,10.17
2035,-2,-1,-2,-1,-2,-1,-2,0,10.175
2036,-2,0,0,1,-1,1,-1,1,10.18
2037,-2,-3,0,1,-2,0,-1,-2,10.185
2038,-3,-1,-1,-2,0,0,0,1,10.19
2039,1,-3,-3,-3,0,0,-1,-3,10.195
2040,-1,-1,-2,-2,-1,1,1,-1,10.200000000000001
2041,0,0,1,-1,0,-1,0,0,10.205
2042,-1,-1,-1,-3,-1,-2,0,-2,10.21
2043,-1,0,-1,-1,0,-1,0,0,10.215
2044,0,2,-1,-1,-1,-2,-1,-1,10.22
2045,-1,-2,0,1,-3,0,-1,-1,10.225
2046,0,-2,-2,-3,-2,0,-1,0,10.23
2047,0,0,-1,2,-1,0,-1,0,10.235
2048,-1,0,2,0,0,-1,0,0,10.24
2049,0,2,-1,-1,0,-2,-1,-1,10.245000000000001
2050,2,-2,2,2,0,-1,-2,-1,10.25
2051,-1,-1,-7,-7,-1,0,0,0,10.255
2052,1,-2,-2,-4,0,-1,-2,-1,10.26
2053,1,-3,2,0,0,-1,-1,1,10.265
2054,-2,-1,-2,-4,0,-1,-1,-1,10.27
2055,-1,-1,1,3,-1,1,1,-1,10.275
2056,-1,-1,1,0,0,-4,-2,-1,10.28
2057,-3,-1,-3,-3,1,-2,0,-2,10.285
2058,0,-2,-1,-2,-1,1,0,0,10.290000000000001
2059,-1,0,-2,-1,-1,-1,0,-1,10.295
2060,-1,-2,-2,-2,-3,0,1,-2,10.3
2061,-3,-3,-2,0,-1,1,0,-1,10.305
2062,-1,-1,-1,-1,-2,-1,-1,0,10.31
2063,-2,0,-1,0,-1,-1,-1,-1,10.315
2064,-1,0,0,3,0,-1,-2,-1,10.32
2065,-1,0,-1,-3,-1,0,0,0,10.325000000000001
2066,1,-2,-5,-2,1,1,1,1,10.33
2067,0,-1,1,1,-1,-3,-1,-1,10.335
2068,-1,0,-1,-2,0,0,-1,-1,10.34
2069,-1,0,0,1,-1,-1,0,-1,10.345
2070,-3,-1,1,-1,-2,-3,-2,-1,10.35
2071,0,1,1,0,0,-2,-2,1,10.355
2072,-2,-2,-2,-3,0,-3,-1,0,10.36
2073,-1,-1,-2,-2,-2,0,-2,0,10.365
2074,0,-2,0,-2,-1,1,-1,-2,10.370000000000001
2075,-2,-3,-3,-2,-2,-1,-2,-1,10.375
2076,-2,-2,0,0,0,1,0,0,10.38
2077,0,0,-1,1,-2,-1,0,-2,10.385
2078,0,1,-2,0,-3,-1,-1,0,10.39
2079,-2,-2,-2,-1,-2,1,0,-1,10.395
2080,-2,1,0,2,-1,-2,-1,0,10.4
2081,-1,-2,0,0,-3,-2,-1,-2,10.405
2082,0,1,-2,1,0,0,-1,1,10.41
2083,-2,0,-3,-2,0,0,-2,-2,10.415000000000001
2084,-1,0,-1,-4,-1,0,-1,-2,10.42
2085,0,-2,-3,-3,0,-1,0,0,10.425
2086,-2,-2,0,1,-1,-2,-1,-2,10.43
2087,-1,-2,6,4,-1,0,-1,0,10.435
2088,1,-1,-4,-3,-1,-2,0,-1,10.44
2089,-1,-3,1,0,-1,-3,0,0,10.445
2090,0,-1,-3,-2,1,-1,0,-2,10.450000000000001
2091,-3,-1,-3,-1,1,0,-1,-1,10.455
2092,-2,0,3,4,0,-2,-3,-2,10.46
2093,0,2,-1,-3,-3,1,1,-1,10.465
2094,1,0,0,-1,-1,-3,-1,-2,10.47
2095,0,0,0,0,0,2,-2,-2,10.475
2096,-1,-2,-2,-1,-1,2,2,1,10.48
2097,-2,0,-4,-2,0,0,-2,0,10.485
2098,-1,-2,4,0,-1,-2,-1,-1,10.49
2099,-1,0,-2,-1,-2,-1,-1,1,10.495000000000001
2100,0,-1,0,-1,-2,0,-3,-1,10.5
2101,-1,-1,0,1,-1,-2,0,-2,10.505
2102,-2,0,-2,-1,-3,1,0,1,10.51
2103,-2,0,-1,-1,0,-2,0,-2,10.515
2104,-1,-1,1,0,-1,-2,-2,-1,10.52
2105,-2,1,1,-1,0,-4,0,1,10.525
2106,0,-1,1,1,-2,-2,-1,0,10.53
2107,-1,-2,-3,-1,-3,-1,0,-1,10.535
2108,-2,0,-1,1,0,0,0,-2,10.540000000000001
2109,0,-1,-3,0,1,1,-1,-1,10.545
2110,-2,1,-3,0,0,0,-1,0,10.55
2111,-1,1,-1,-1,0,-1,0,-1,10.555
2112,-1,-1,-1,-2,0,0,0,0,10.56
2113,0,-1,-2,0,-1,-1,-2,-1,10.565
2114,-1,-1,-2,-2,-1,0,0,0,10.57
2115,-1,-1,-2,-1,1,-1,2,-1,10.575000000000001
2116,1,0,1,-1,0,-2,1,0,10.58
2117,-2,-2,-2,-1,0,-1,0,-1,10.585
2118,-1,-1,2,0,0,-2,-1,-2,10.59
2119,1,-3,-5,-6,-4,-2,0,0,10.595
2120,-2,-3,-2,0,0,0,0,-1,10.6
2121,0,-2,-1,-1,0,2,-2,1,10.605
2122,-3,0,-2,0,-2,0,-2,-1,10.61
2123,-1,0,1,-3,0,-2,-2,-1,10.615
2124,-1,-1,-4,-2,-1,-1,0,1,10.620000000000001
2125,1,0,2,1,0,0,0,-1,10.625
2126,-2,-2,-2,0,1,-2,-1,0,10.63
2127,-2,-3,-1,1,-1,-1,-1,-1,10.635
2128,-1,0,0,-1,-1,-1,0,-3,10.64
2129,-1,-1,-2,-2,0,-2,1,-1,10.645
2130,1,-2,2,0,0,-1,2,-2,10.65
2131,-1,-1,-1,2,1,-2,-2,1,10.655
2132,-1,0,0,0,-1,0,0,-1,10.66
2133,-2,-1,-2,-2,0,-2,0,-1,10.665000000000001
2134,0,0,-4,-4,0,1,-2,-2,10.67
2135,0,0,1,-1,-1,0,-1,-1,10.675
2136,1,0,0,-2,-1,-2,-2,-1,10.68
2137,0,1,1,-1,-1,-1,-2,0,10.685
2138,0,-2,-1,-2,-3,-4,-1,-2,10.69
2139,0,-1,2,1,-1,-1,1,-2,10.695
2140,-3,1,-4,-1,-1,0,-2,1,10.700000000000001
2141,0,0,-1,-1,0,1,-1,0,10.705
2142,-2,0,0,1,1,-1,-1,-1,10.71
2143,0,1,-1,0,-1,-1,-1,0,10.715
2144,-2,-1,-2,-1,-1,-2,0,0,10.72
2145,-2,0,0,1,-1,-1,-1,-1,10.725
2146,-1,0,0,-1,-2,0,-1,-1,10.73
2147,0,0,0,0,-3,-1,-1,-1,10.735
2148,0,-3,-1,-3,-4,0,-2,-1,10.74
2149,0,-2,-2,-2,-1,0,-1,-3,10.745000000000001
2150,0,1,-1,0,1,0,-1,0,10.75
2151,-1,-1,-3,-2,0,-1,-1,0,10.755
2152,0,0,1,-1,0,2,-1,-2,10.76
2153,-1,-2,1,1,-3,-2,0,-1,10.765
2154,0,-1,0,0,-1,-1,0,1,10.77
2155,0,-3,0,0,-1,0,1,-1,10.775
2156,-1,-3,-6,-4,-1,-2,-1,0,10.78
2157,0,-2,0,0,1,-1,-1,0,10.785
2158,-1,-3,-4,-4,-1,-1,0,-1,10.790000000000001
2159,-1,1,1,2,0,0,-1,0,10.795
2160,-2,-1,2,3,-1,-2,-2,-3,10.8
2161,-1,-1,-2,-1,-1,1,0,-2,10.805
2162,-1,-2,0,1,0,-1,-1,-2,10.81
2163,-2,-2,-2,-2,-1,1,0,-1,10.815
2164,-1,2,-1,0,1,0,1,-2,10.82
2165,-1,-3,-3,-3,-2,-2,-3,1,10.825000000000001
2166,0,0,0,0,-1,0,-1,1,10.83
2167,-1,-2,-1,-3,0,-1,-1,-3,10.835
2168,-1,-3,0,-1,0,-2,0,-2,10.84
2169,-1,-2,1,2,-1,-1,0,-1,10.845
2170,0,-2,-1,-2,0,-1,0,-1,10.85
2171,0,1,-1,-3,-2,-1,-1,-1,10.855
2172,0,-2,0,1,1,-1,-2,0,10.86
2173,-1,0,-3,-3,-2,-1,0,-1,10.865
2174,0,-2,-1,-3,-1,2,-1,-1,10.870000000000001
2175,-1,-2,1,2,1,-1,-2,0,10.875
2176,-2,0,-2,0,-1,0,-2,-2,10.88
2177,-1,0,0,0,1,0,0,-1,10.885
2178,-1,0,-4,-1,-2,0,-1,-2,10.89
2179,0,-2,-2,-3,-2,-2,-2,-2,10.895
2180,1,0,0,-3,-1,1,1,0,10.9
2181,-1,-1,1,2,-1,-1,0,0,10.905
2182,1,-1,-2,0,-1,-2,0,0,10.91
2183,-1,1,-2,0,1,-1,-1,-1,10.915000000000001
2184,-1,-1,-1,-2,-1,-1,-2,0,10.92
2185,0,0,-1,-2,0,-1,0,-1,10.925
2186,0,-1,1,-2,-1,0,-1,-1,10.93
2187,-1,-1,-2,-3,-2,0,0,-1,10.935
2188,-1,0,0,-1,-3,0,0,0,10.94
2189,-1,1,-1,-3,-2,1,-2,-1,10.945
2190,-4,0,0,1,-1,1,1,0,10.950000000000001
2191,-2,0,0,1,-1,-2,-2,0,10.955
2192,0,-2,-2,0,0,0,-1,0,10.96
2193,-1,-3,-1,-2,0,0,-3,-1,10.965
2194,1,-1,0,-1,-1,-1,-1,0,10.97
2195,-1,-2,-2,1,-1,-1,-2,1,10.975
2196,0,1,-1,2,-1,-1,-1,-1,10.98
2197,1,-2,0,1,-1,0,-1,-1,10.985
2198,-1,0,-1,-2,-1,0,-1,-2,10.99
2199,0,-1,-2,-1,-2,-1,0,-1,10.995000000000001
2200,-1,0,-2,-2,-3,-1,-1,-1,11.0
2201,1,-1,0,1,2,0,0,-1,11.005
2202,-1,0,-1,-2,0,-2,0,-1,11.01
2203,-2,0,-3,-1,-2,0,-1,-1,11.015
2204,-1,-1,-2,-1,0,-3,-1,1,11.02
2205,-1,0,-1,-2,-2,-1,-1,-1,11.025
2206,-3,-1,0,0,2,-1,-3,0,11.03
2207,-1,0,1,0,2,-1,1,-1,11.035
2208,0,-1,-1,-2,-2,1,-2,0,11.040000000000001
2209,-4,2,1,0,-2,-1,-1,-1,11.045
2210,-1,-1,-3,0,-3,-2,0,-1,11.05
2211,0,-1,-2,-2,-1,1,0,-1,11.055
2212,0,-1,-1,0,-1,-2,-3,-1,11.06
2213,1,-3,0,1,0,0,0,-1,11.065
2214,0,0,0,-4,-7,-2,0,-1,11.07
2215,-1,-4,-1,4,2,1,1,-2,11.075000000000001
2216,-1,-2,-3,-3,3,1,-1,-2,11.08
2217,-1,-2,-5,-3,-2,-1,0,0,11.085
2218,0,-1,0,0,1,0,1,-1,11.09
2219,-3,-1,1,0,-6,-5,-2,-3,11.095
2220,-2,0,2,0,1,0,0,-1,11.1
2221,-2,0,-3,1,-1,-2,-1,-3,11.105
2222,-1,-1,-3,-4,-2,0,-1,0,11.11
2223,0,-1,2,0,0,-1,-1,-2,11.115
2224,-2,-1,-1,0,-1,-1,-2,0,11.120000000000001
2225,1,1,-2,-3,0,-2,-1,0,11.125
2226,1,-2,0,2,0,-1,1,-2,11.13
2227,0,-2,-3,-4,-1,-1,-1,0,11.135
2228,0,-2,-1,0,-2,-3,-2,-2,11.14
2229,-1,-1,-1,-1,0,0,1,-2,11.145
2230,-1,-2,-1,0,2,-1,-1,-1,11.15
2231,0,1,1,-3,-3,-1,-1,0,11.155
2232,-2,-1,0,-2,-1,-2,2,-1,11.16
2233,1,0,0,2,-3,0,0,0,11.165000000000001
2234,-1,0,-2,1,2,-1,0,-1,11.17
2235,-1,0,0,-2,-1,-1,-1,-2,11.175
2236,0,-3,0,0,-2,-3,-2,0,11.18
2237,0,-1,0,-1,-1,-1,-1,0,11.185
2238,-1,-1,-1,-1,-3,1,0,0,11.19
2239,0,0,-4,0,-1,-1,0,2,11.195
2240,-1,0,-2,-5,-3,1,-1,-1,11.200000000000001
2241,-1,-3,0,1,1,0,0,0,11.205
2242,-1,-3,-1,1,-2,-2,0,-1,11.21
2243,-2,-1,-2,-1,1,-2,0,0,11.215
2244,0,-1,2,1,0,-1,0,0,11.22
2245,-2,0,-3,-5,-2,-1,-1,-1,11.225
2246,-1,0,2,1,0,0,1,-1,11.23
2247,1,-1,1,-1,1,0,-1,-1,11.235
2248,-1,0,-1,-1,0,0,-1,-2,11.24
2249,-1,-2,0,-1,-1,0,-2,0,11.245000000000001
2250,0,0,-2,-1,-1,-1,-1,1,11.25
2251,-1,0,-2,0,-1,-1,-1,-1,11.255
2252,0,-1,-1,2,-1,0,0,0,11.26
2253,0,1,-1,-5,-3,-2,0,0,11.265
2254,0,0,0,0,1,-1,-2,0,11.27
2255,-1,0,-1,-4,-3,0,-1,-1,11.275
2256,-2,-4,-1,2,1,-1,0,1,11.28
2257,-2,0,0,1,0,-2,-1,0,11.285
2258,0,0,0,0,0,0,0,-1,11.290000000000001
2259,0,-3,0,-2,-1,0,-1,-2,11.295
2260,0,0,-1,-3,-2,-2,0,-1,11.3
2261,-1,-1,0,2,-1,-2,-1,-1,11.305
2262,-2,-2,-1,0,1,-2,-2,-1,11.31
2263,0,0,0,0,-1,-1,-1,0,11.315
2264,2,1,-1,0,-1,0,-1,-1,11.32
2265,0,-1,-1,-3,1,-3,-1,0,11.325000000000001
2266,-2,-1,-1,-2,-1,0,0,-3,11.33
2267,-1,-1,0,0,0,-1,0,2,11.335
2268,-1,-1,0,0,-3,-1,0,-2,11.34
2269,-1,0,0,1,-3,0,0,0,11.345
2270,0,0,0,-2,-3,-1,0,-2,11.35
2271,0,-3,-1,-1,-1,2,1,-1,11.355
2272,-2,0,-2,-2,-1,-1,-1,-2,11.36
2273,-1,0,-2,0,1,1,-2,-1,11.365
2274,-1,-3,1,1,0,-1,-1,0,11.370000000000001
2275,-1,1,0,-1,0,-1,-1,-1,11.375
2276,1,-2,-1,0,0,-2,1,0,11.38
2277,0,2,-1,-1,-1,-1,0,-2,11.385
2278,-2,-1,-4,-3,-2,-2,-2,0,11.39
2279,-2,1,-3,0,1,-2,-1,-1,11.395
2280,-2,-2,-2,-1,-1,2,-1,-1,11.4
2281,-1,-3,-2,1,-1,-1,0,-1,11.405
2282,0,-4,-1,-2,-4,-1,-1,-2,11.41
2283,-1,-1,1,-3,-5,-3,-1,-1,11.415000000000001
2284,0,1,-1,1,0,-1,0,-1,11.42
2285,-2,-2,2,1,-1,-1,-1,0,11.425
2286,0,-3,-2,-2,0,-2,-2,-1,11.43
2287,1,-1,-3,-2,-1,-2,-2,-1,11.435
2288,0,-1,0,-2,-1,0,-2,0,11.44
2289,-1,0,-3,-1,0,0,-1,0,11.445
2290,-1,-1,-3,1,-1,-1,-2,1,11.450000000000001
2291,-1,0,-1,-1,-1,-1,0,0,11.455
2292,1,1,2,-1,-2,0,1,0,11.46
2293,-2,-3,-2,2,4,-1,-1,-4,11.465
2294,0,0,-1,-2,-1,0,0,1,11.47
2295,0,2,1,1,-1,2,1,0,11.475
2296,-1,-3,-2,-1,-1,-1,-2,-1,11.48
2297,1,0,-1,-1,-3,-1,-2,-2,11.485
2298,1,2,-1,-3,-1,-1,-2,-2,11.49
2299,-2,-2,-2,0,-2,-2,0,-2,11.495000000000001
2300,-2,-2,-2,1,1,-1,1,-1,11.5
2301,-2,-2,-3,-4,-1,-1,-1,-1,11.505
2302,-3,0,2,3,-1,0,0,-1,11.51
2303,0,-2,-2,-1,-3,-2,-3,0,11.515
2304,-4,-1,-2,-2,-1,-2,-1,-1,11.52
2305,1,0,1,0,-1,0,0,2,11.525
2306,-1,0,-3,1,-1,2,-1,0,11.53
2307,-2,-2,-2,-5,0,-1,-1,-3,11.535
2308,2,1,1,1,1,0,-1,1,11.540000000000001
2309,-7,-2,-1,-1,-2,-1,-1,-1,11.545
2310,-2,-1,1,-1,-4,-1,0,-1,11.55
2311,-4,-4,-1,-2,-1,0,-2,-2,11.555
2312,0,-1,-2,-2,-3,0,4,3,11.56
2313,9,5,2,-1,2,3,-1,0,11.565
2314,-1,4,1,4,-1,-2,1,1,11.57
2315,-6,-9,-7,-7,-4,-3,-3,-4,11.575000000000001
2316,-1,-3,-1,0,-2,-2,-4,-4,11.58
2317,2,1,-1,2,1,2,4,4,11.585
2318,-3,3,-4,-1,0,-1,2,-1,11.59
2319,-1,-2,3,1,1,0,-4,-3,11.595
2320,-4,-2,-1,0,0,-1,-1,-3,11.6
2321,10,-3,0,-2,0,1,3,5,11.605
2322,-1,-1,-1,-3,0,0,-2,-1,11.61
2323,-12,18,2,0,0,0,3,0,11.615
2324,-1,-8,-1,2,-3,-1,-2,-1,11.620000000000001
2325,-6,-2,1,9,1,0,-3,-4,11.625
2326,-1,-10,-10,-18,-6,-2,1,-2,11.63
2327,8,4,7,10,-1,-1,0,1,11.635
2328,-2,-3,-4,-4,-2,-4,-3,-3,11.64
2329,1,1,0,-1,-2,-2,-1,-1,11.645
2330,4,4,1,5,3,-1,-1,-1,11.65
2331,-4,-3,4,2,-4,-5,-3,-3,11.655
2332,15,12,1,0,2,2,4,5,11.66
2333,-27,-19,-6,-5,-7,-3,-2,-6,11.665000000000001
2334,8,-5,-3,-2,-2,-2,-3,-1,11.67
2335,1,-5,-5,-4,0,1,-1,-3,11.675
2336,-5,2,1,1,1,-1,1,1,11.68
2337,20,12,0,-5,-1,-2,1,1,11.685
2338,-28,-8,1,0,-1,-1,1,-1,11.69
2339,9,-10,-7,-5,-1,-3,-4,0,11.695
2340,-10,1,-4,-5,0,1,-2,-4,11.700000000000001
2341,0,-3,5,7,2,2,4,3,11.705
2342,4,-1,4,6,3,-1,-1,-1,11.71
2343,6,11,0,-1,3,5,2,5,11.715
2344,-11,-11,-4,-8,-1,-1,0,-1,11.72
2345,8,15,5,0,-1,-1,-1,-2,11.725
2346,-8,-2,10,7,1,-3,-5,-3,11.73
2347,-7,-17,-9,-10,-1,0,4,5,11.735
2348,20,6,-3,2,-3,2,0,-3,11.74
2349,-33,-11,-10,-6,2,1,1,-1,11.745000000000001
2350,7,-9,-9,-7,-1,0,-4,-7,11.75
2351,-13,0,3,7,5,1,1,-4,11.755
2352,13,2,2,0,-1,-2,0,4,11.76
2353,7,2,1,0,-5,-2,2,-1,11.765
2354,15,19,6,4,7,5,9,15,11.77
2355,10,-5,-2,1,1,0,1,-1,11.775
2356,-8,-2,5,2,-2,-3,-6,-3,11.78
2357,5,5,-2,-6,-7,-2,-3,-2,11.785
2358,-18,-11,-7,-3,-3,-3,-6,-8,11.790000000000001
2359,16,7,9,7,5,5,5,6,11.795
2360,-9,3,-7,-3,-3,0,2,1,11.8
2361,-3,-7,-5,-3,-4,-4,-7,-5,11.805
2362,21,14,0,-3,-3,0,3,4,11.81
2363,-22,-11,-14,-7,-2,-6,-11,-15,11.815
2364,3,-19,-1,3,-2,-6,-10,-6,11.82
2365,-9,-12,-1,-6,7,2,2,1,11.825000000000001
2366,-2,3,2,4,-4,0,6,9,11.83
2367,27,2,3,-2,-6,-3,1,5,11.835
2368,11,12,12,25,16,6,8,8,11.84
2369,-36,2,-14,-30,-11,-4,-2,-6,11.845
2370,-1,11,-6,2,0,-1,-3,3,11.85
2371,-7,-14,-9,-10,5,-5,-2,-3,11.855
2372,-11,-7,-8,-7,-19,-5,-12,-20,11.86
2373,9,16,6,-4,8,-2,3,-2,11.865
2374,27,30,3,4,0,2,4,3,11.870000000000001
2375,-33,-35,2,2,-8,-2,6,8,11.875
2376,38,28,-8,-6,-4,-10,-8,-6,11.88
2377,-4,19,10,3,10,10,10,10,11.885
2378,-22,-43,5,14,-14,1,5,-4,11.89
2379,12,14,-9,-11,2,-3,-8,-9,11.895
2380,-8,-1,-1,-42,-11,-3,9,19,11.9
2381,-4,27,6,61,-7,-5,-28,-38,11.905
2382,25,3,-12,-43,14,1,17,26,11.91
2383,-14,-55,-59,-32,-4,4,-18,-28,11.915000000000001
2384,-22,17,31,68,16,6,16,25,11.92
2385,-45,-16,-11,-54,-30,-18,-6,-6,11.925
2386,62,84,46,96,49,9,-1,4,11.93
2387,-50,-29,2,-89,-48,-3,-5,-5,11.935
2388,48,-12,-62,-45,6,-16,-12,-1,11.94
2389,3,-26,6,10,8,7,16,18,11.945
2390,-29,46,40,25,-13,-3,-15,-26,11.950000000000001
2391,34,6,-32,20,38,13,24,43,11.955
2392,-72,-88,-32,-20,-23,-10,-12,-34,11.96
2393,-36,-10,7,41,-8,-18,-35,-29,11.965
2394,39,-32,-16,-49,-13,-16,-11,-1,11.97
2395,3,19,-3,8,9,30,31,19,11.975
2396,18,24,48,88,-14,-24,-7,-1,11.98
2397,-35,-64,-81,-35,66,21,16,21,11.985
2398,-62,-14,25,3,-31,-7,7,-21,11.99
2399,17,75,43,86,29,-10,-39,-43,11.995000000000001
2400,5,-19,-3,-124,-58,1,-2,-5,12.0
2401,66,0,-26,8,1,-7,12,27,12.005
2402,1,-66,-13,39,-9,3,-7,-19,12.01
2403,-17,50,19,-14,16,-14,4,-4,12.015
2404,24,12,13,75,17,-2,-6,3,12.02
2405,9,14,18,-37,-13,4,1,2,12.025
2406,-27,-29,-33,-60,-3,15,16,0,12.030000000000001
2407,77,20,45,-10,-42,-2,14,27,12.035
2408,-116,28,45,110,76,7,-23,-39,12.040000000000001
2409,61,-61,-71,-81,2,6,0,1,12.045
2410,-59,47,-25,12,12,-25,-12,14,12.05
2411,-43,-83,0,-44,-14,19,5,-8,12.055
2412,65,53,6,-11,-1,12,12,18,12.06
2413,37,27,79,93,-26,-9,1,3,12.065
2414,1,17,14,-13,-12,-11,-18,6,12.07
2415,-35,-25,-23,36,66,-9,-22,-38,12.075000000000001
2416,1,-40,-23,-1,-25,20,43,44,12.08
2417,31,58,19,-16,-13,-20,-29,-19,12.085
2418,32,-10,-6,-44,-14,-7,-7,-2,12.09
2419,2,4,-12,-9,-33,6,18,35,12.095
2420,-28,-60,-10,-30,6,-16,-23,-20,12.1
2421,-11,4,32,82,-2,16,18,1,12.105
2422,16,40,-37,-93,7,-10,-21,-10,12.11
2423,35,46,53,36,-10,0,10,7,12.115
2424,-22,-21,-9,-33,6,19,10,-9,12.120000000000001
2425,41,29,-3,-46,-33,-4,20,25,12.125
2426,-17,-14,23,22,14,7,2,-3,12.13
2427,-70,-28,-59,24,-11,-23,-23,-17,12.135
2428,37,13,25,27,13,8,18,40,12.14
2429,-70,-32,11,-37,-76,-31,-31,-38,12.145
2430,78,-4,-22,0,-3,10,20,31,12.15
2431,5,16,-21,0,56,11,-1,-6,12.155000000000001
2432,7,14,-6,-11,20,8,12,17,12.16
2433,-46,-3,-3,-30,-4,-2,-7,-4,12.165000000000001
2434,-1,31,35,-30,-70,4,11,-20,12.17
2435,15,-58,-22,57,33,-5,-19,-6,12.175
2436,-10,6,-2,2,-16,-23,-31,-12,12.18
2437,46,34,28,66,7,24,32,42,12.185
2438,-21,-4,-29,-37,81,7,-6,-9,12.19
2439,64,9,39,-3,-16,34,57,61,12.195
2440,-109,-58,-37,-63,-30,-48,-72,-105,12.200000000000001
2441,34,-5,-29,62,-24,-40,-37,-15,12.205
2442,-19,-42,-28,1,-5,10,32,40,12.21
2443,-109,-52,1,2,16,1,-23,-59,12.215
2444,123,127,26,21,12,4,1,8,12.22
2445,-6,22,48,16,45,33,35,40,12.225
2446,-70,-6,1,25,-36,-42,-32,-21,12.23
2447,64,31,1,-38,-59,-18,6,24,12.235
2448,0,-54,-38,-54,51,46,46,44,12.24
2449,-56,-19,-1,9,-5,-39,-65,-83,12.245000000000001
2450,-23,-43,-18,-23,49,37,43,64,12.25
2451,-52,54,26,18,1,-22,-50,-76,12.255
2452,76,50,49,122,22,11,29,53,12.26
2453,114,51,0,-114,1,44,52,57,12.265
2454,-3,-62,-18,-4,37,-2,-26,-36,12.27
2455,-27,19,-1,16,-20,-7,3,5,12.275
2456,-68,-31,26,12,-66,-16,-30,-36,12.280000000000001
2457,-43,-40,-48,15,33,10,28,36,12.285
2458,59,-60,-33,6,-29,-27,-23,-14,12.290000000000001
2459,43,8,-2,-47,-6,-12,-10,2,12.295
2460,-36,-10,-45,-47,27,2,-28,-58,12.3
2461,-31,25,29,68,38,9,-7,-9,12.305
2462,-93,-66,-28,-15,-42,-14,-16,-38,12.31
2463,-8,11,-18,-11,18,17,38,56,12.315
2464,74,23,0,-21,-29,-33,-4,-7,12.32
2465,-66,-48,-45,-12,17,-9,-37,-51,12.325000000000001
2466,51,54,-7,20,-9,17,14,4,12.33
2467,38,-8,-4,22,19,12,7,29,12.335
2468,12,-13,-4,-13,-17,5,14,46,12.34
2469,-61,-36,-36,-48,7,-8,-21,-62,12.345
2470,10,11,85,37,-30,7,20,23,12.35
2471,10,-53,-2,19,-4,14,25,30,12.355
2472,91,90,7,-38,9,-9,-5,13,12.36
2473,-45,-36,8,-22,-9,-4,-4,-13,12.365
2474,-22,-35,-29,-30,11,2,-19,-27,12.370000000000001
2475,44,10,0,-21,-15,-10,-20,-9,12.375
2476,-34,-12,14,22,17,12,18,12,12.38
2477,27,0,-17,-11,-18,-6,14,22,12.385
2478,-43,-36,11,74,83,21,5,-14,12.39
2479,28,33,11,2,-9,-9,-8,0,12.395
2480,-7,-18,-9,-18,-26,3,10,5,12.4
2481,39,45,24,19,5,1,3,2,12.405000000000001
2482,16,12,-1,8,-4,7,6,12,12.41
2483,-4,22,31,9,-8,-10,-21,-18,12.415000000000001
2484,-22,-37,3,15,10,17,12,-2,12.42
2485,-52,-14,-14,-26,-18,-17,-18,-8,12.425
2486,18,19,26,9,4,0,2,2,12.43
2487,-14,10,3,-4,-7,-10,8,-5,12.435
2488,-29,-47,-12,-29,-16,9,18,-5,12.44
2489,43,7,14,0,7,-6,-6,26,12.445
2490,14,40,4,3,-31,6,5,-14,12.450000000000001
2491,-19,-23,-8,-13,1,-3,-1,-13,12.455
2492,-10,5,3,6,-9,0,5,4,12.46
2493,29,12,4,-9,10,3,4,3,12.465
2494,-1,0,9,-2,-9,-15,-15,0,12.47
2495,-2,-20,-15,-5,3,-5,-12,-9,12.475
2496,-22,-14,-9,-14,-6,4,4,-7,12.48
2497,18,-3,5,22,-4,-13,-2,4,12.485
2498,7,32,11,2,-1,-1,4,5,12.49
2499,7,7,17,-16,-11,-3,-23,1,12.495000000000001
2500,-12,15,19,10,1,16,30,-6,12.5
2501,-4,-40,13,2,-2,4,7,0,12.505
2502,7,-13,1,-1,2,-1,5,0,12.51
2503,1,0,-3,1,-6,-12,9,-4,12.515
2504,-12,-4,-11,0,0,-17,-32,-10,12.52
2505,13,9,2,3,5,12,23,9,12.525
2506,2,1,-22,-1,-3,-3,-3,-6,12.530000000000001
2507,-9,-14,-14,3,-3,-3,-9,-7,12.535
2508,0,18,-4,-4,4,-5,-10,-1,12.540000000000001
2509,2,4,-4,-1,3,13,11,5,12.545
2510,8,8,-4,8,-3,-4,-11,-1,12.55
2511,-6,2,-5,0,-1,7,3,-5,12.555
2512,-2,-7,-15,-3,-1,-6,0,3,12.56
2513,5,5,3,-7,-2,2,-6,-2,12.565
2514,-3,5,-4,2,-3,-4,-10,-5,12.57
2515,-4,-5,-3,-7,-2,1,6,1,12.575000000000001
2516,-3,-9,-9,-7,0,-2,-3,-2,12.58
2517,1,1,-7,-6,-16,-7,-11,-1,12.585
2518,6,12,6,6,0,-1,-3,1,12.59
2519,-5,-6,7,-9,-3,5,9,0,12.595
2520,-1,-5,1,1,0,-6,-10,1,12.6
2521,1,4,9,4,-3,2,-2,-1,12.605
2522,3,12,10,-6,-2,-2,-2,5,12.61
2523,-4,-1,17,3,-4,-10,-4,0,12.615
2524,-7,1,11,-4,-6,3,-12,-8,12.620000000000001
2525,1,-3,0,1,4,-8,-10,2,12.625
2526,1,-1,-8,0,1,4,17,-1,12.63
2527,1,4,-7,4,0,1,-2,-2,12.635
2528,-3,0,-19,-8,-2,-3,-4,0,12.64
2529,1,1,-13,0,2,4,5,1,12.645
2530,2,7,-5,5,4,-2,-8,1,12.65
2531,1,0,-10,-4,-6,-1,-1,-2,12.655000000000001
2532,-2,-5,-4,5,0,1,1,0,12.66
2533,3,2,-7,5,6,1,-2,-2,12.665000000000001
2534,-1,-5,-6,-7,-3,3,3,3,12.67
2535,2,-3,-5,-4,0,-1,0,0,12.675
2536,1,-3,9,14,5,0,0,3,12.68
2537,-3,-11,-9,-2,-2,-4,-5,-2,12.685
2538,1,3,-6,-5,-3,-2,-6,-4,12.69
2539,-2,5,7,2,-3,1,5,0,12.695
2540,0,-3,-7,-19,-3,-6,-2,-3,12.700000000000001
2541,-1,3,-7,-1,0,3,7,-1,12.705
2542,-2,7,23,13,1,-1,-6,0,12.71
2543,-3,-1,-21,2,0,1,-1,0,12.715
2544,-6,-2,12,-3,-6,-7,-1,-1,12.72
2545,-2,-5,9,-1,0,4,3,-2,12.725
2546,-1,-2,4,4,1,0,-1,-1,12.73
2547,-5,-4,1,8,4,0,1,-2,12.735
2548,2,2,-5,-1,2,4,7,5,12.74
2549,2,1,-10,-7,-1,-3,-5,-2,12.745000000000001
2550,-1,-3,-3,-5,-5,-3,3,0,12.75
2551,0,2,1,-10,-4,-1,-1,-3,12.755
2552,-2,-5,-5,1,0,-1,-1,-1,12.76
2553,3,3,4,2,0,0,1,-1,12.765
2554,0,-4,3,9,5,0,2,4,12.77
2555,-2,-7,-19,-16,-4,-3,0,-1,12.775
2556,3,17,10,6,1,1,0,1,12.780000000000001
2557,-3,-4,-14,-14,-1,0,-4,-2,12.785
2558,3,1,-1,0,-2,-2,-1,0,12.790000000000001
2559,1,-1,-1,0,-1,0,2,-1,12.795
2560,-2,-4,9,8,3,-1,-7,-2,12.8
2561,-1,-3,-16,-8,-8,1,0,-3,12.805
2562,0,2,4,0,-4,-2,-1,-1,12.81
2563,-1,2,-6,0,0,-6,-10,-2,12.815
2564,0,2,-7,-15,0,8,12,-1,12.82
2565,-1,4,15,12,1,2,1,0,12.825000000000001
2566,-1,-2,0,-2,2,-2,1,1,12.83
2567,-3,-2,5,5,-4,-3,-1,-4,12.835
2568,-2,-2,-15,-7,0,0,-5,-3,12.84
2569,2,7,6,1,0,0,3,1,12.845
2570,0,1,5,-2,-2,1,-2,-3,12.85
2571,2,2,0,9,3,2,2,4,12.855
2572,-1,-4,4,10,1,-3,-1,0,12.86
2573,-2,-2,-12,-19,-1,0,4,0,12.865
2574,1,6,18,20,-1,-2,-6,-3,12.870000000000001
2575,-3,-9,-24,-19,-1,0,2,-3,12.875
2576,3,17,10,6,1,-3,-2,-1,12.88
2577,-1,-2,5,6,-1,-2,-3,0,12.885
2578,2,-1,-2,1,2,3,-1,-1,12.89
2579,0,3,14,0,-3,0,1,-1,12.895
2580,0,-7,-8,-1,-2,-2,-4,0,12.9
2581,0,0,-1,2,0,0,-1,0,12.905000000000001
2582,-3,-5,-10,-11,-6,-4,-2,-2,12.91
2583,3,13,11,4,1,1,0,0,12.915000000000001
2584,0,-6,-7,-5,0,-2,-2,1,12.92
2585,2,12,10,9,2,-2,0,1,12.925
2586,-5,-16,-11,-6,0,2,1,0,12.93
2587,0,6,8,1,0,0,-1,-1,12.935
2588,0,-1,-1,-3,0,-3,-1,-1,12.94
2589,0,4,2,2,0,1,1,-1,12.945
2590,-3,-2,-12,-11,-3,-3,-1,-4,12.950000000000001
2591,2,5,8,4,1,2,2,1,12.955
2592,-2,-5,-2,0,1,0,-1,-1,12.96
2593,0,4,-1,-2,-4,-1,-1,1,12.965
2594,-1,-1,-9,-1,-2,-3,-1,0,12.97
2595,-3,-7,0,-1,-3,-3,-3,-1,12.975
2596,1,-4,-4,0,-3,-3,-2,-2,12.98
2597,-1,-2,4,3,2,1,1,1,12.985
2598,0,0,0,-3,0,1,0,0,12.99
2599,-5,-12,-15,-5,-3,0,0,-2,12.995000000000001
2600,1,5,4,5,0,-1,-1,-1,13.0
2601,-2,-4,-4,-2,-2,-3,-2,-4,13.005
2602,5,8,7,-2,1,-1,-1,2,13.01
2603,0,3,0,-1,-1,0,-1,1,13.015
2604,-4,-6,-6,-2,-3,-2,0,-1,13.02
2605,-3,-8,-1,-1,-2,-1,-2,-2,13.025
2606,0,-2,-2,-1,-1,-1,-3,-1,13.030000000000001
2607,-1,-6,-7,-6,-1,-3,-1,0,13.035
2608,-2,-4,-3,-8,-1,1,1,-1,13.040000000000001
2609,-1,-1,3,6,0,1,2,-1,13.045
2610,-1,-7,-5,-7,-1,0,0,-1,13.05
2611,1,1,3,4,0,-2,1,0,13.055
2612,-2,-3,6,7,0,-3,0,-2,13.06
2613,-2,-10,-3,-5,-1,-2,1,-2,13.065
2614,-2,2,2,0,-1,-2,-1,-2,13.07
2615,1,-1,0,-1,0,0,-1,-2,13.075000000000001
2616,-1,-7,-14,-12,-2,0,0,0,13.08
2617,-1,-3,-4,1,0,0,-2,-2,13.085
2618,0,13,2,2,1,-1,0,-3,13.09
2619,-3,-6,1,0,-3,-1,-2,-2,13.095
2620,-1,3,-2,-2,-1,-1,-3,-1,13.1
2621,1,-2,0,-2,-1,-2,-2,-1,13.105
2622,-1,-5,-6,-3,-1,-1,0,-1,13.11
2623,-1,-4,1,1,-2,3,-1,-1,13.115
2624,0,0,2,1,-1,-1,0,0,13.120000000000001
2625,-2,-1,-4,-1,-2,0,0,-1,13.125
2626,-1,-5,-2,-4,-1,-2,0,-2,13.13
2627,-1,2,-1,2,-1,-3,-1,0,13.135
2628,-2,-6,-10,-15,-2,-1,-1,0,13.14
2629,1,4,10,10,-1,0,0,2,13.145
2630,-2,-1,1,1,1,-4,-1,-2,13.15
2631,1,1,9,2,1,0,-1,-1,13.155000000000001
2632,0,-2,-5,-4,-1,0,-3,-1,13.16
2633,0,3,-4,-7,0,0,-1,-2,13.165000000000001
2634,-2,-4,-1,1,-1,0,-2,0,13.17
2635,-1,2,1,0,-1,-1,1,0,13.175
2636,-2,-2,2,4,0,-1,0,-1,13.18
2637,-2,-3,-3,-1,-1,0,-2,-1,13.185
2638,1,1,0,2,-1,0,0,0,13.19
2639,0,1,-2,-1,0,0,1,-1,13.195
2640,1,3,2,2,-2,2,-1,-1,13.200000000000001
2641,-2,-3,-3,-3,-1,-3,0,-2,13.205
2642,-1,-3,0,-4,-3,0,-2,-1,13.21
2643,-2,-2,-1,0,-1,-2,-3,0,13.215
2644,-2,1,0,0,-2,-2,2,0,13.22
2645,-1,-1,2,2,0,0,0,0,13.225
2646,-1,-4,-2,-1,-1,0,-1,0,13.23
2647,0,0,-3,-3,-2,-1,-2,0,13.235
2648,-1,0,4,3,0,-1,0,-1,13.24
2649,-2,-1,-2,-2,-1,-3,0,-1,13.245000000000001
2650,1,0,-4,-2,-2,-1,0,-2,13.25
2651,-3,0,0,1,1,-1,-2,-2,13.255
2652,1,0,3,3,-1,1,0,0,13.26
2653,-1,-5,-12,-12,-2,-1,1,-2,13.265
2654,-2,0,-1,-1,0,-2,-2,-1,13.27
2655,0,-1,-1,-2,0,-2,0,-1,13.275
2656,1,1,1,1,1,0,0,-2,13.280000000000001
2657,0,2,5,8,0,-1,0,-1,13.285
2658,-3,-10,1,-1,0,1,0,-1,13.290000000000001
2659,-4,-3,-4,-1,0,1,-1,-2,13.295
2660,3,12,4,2,0,-1,0,1,13.3
2661,-1,0,0,-3,-3,-2,-3,-1,13.305
2662,1,3,-4,-2,0,-3,-1,1,13.31
2663,0,1,1,-2,1,-1,0,2,13.315
2664,-3,-9,0,1,1,-1,0,-2,13.32
2665,2,1,0,-1,2,-1,0,0,13.325000000000001
2666,-2,-2,-4,-2,-1,1,0,0,13.33
2667,1,-3,0,0,-1,-1,-1,-3,13.335
2668,-4,-4,0,-1,0,-1,0,-1,13.34
2669,-1,5,0,-2,-2,0,-2,0,13.345
2670,-2,-10,-1,2,-1,0,-1,-1,13.35
2671,0,-2,-4,-3,-5,-2,0,-2,13.355
2672,1,-4,-4,0,-1,-1,-2,-1,13.36
2673,-1,4,-1,-1,-1,-2,0,-1,13.365
2674,1,4,-3,-3,0,-1,-2,-1,13.370000000000001
2675,0,-3,0,1,-1,-1,-2,0,13.375
2676,-2,-4,-1,0,-1,2,-1,0,13.38
2677,-3,-7,-2,0,1,0,0,-1,13.385
2678,-1,4,-1,1,-3,-2,-2,-1,13.39
2679,-1,-6,1,-4,0,1,0,-1,13.395
2680,-1,-1,-6,-3,-2,-2,-1,-2,13.4
2681,0,-15,2,1,-1,-2,0,-1,13.405000000000001
2682,-3,3,2,2,0,0,0,0,13.41
2683,0,2,0,1,2,0,1,0,13.415000000000001
2684,0,7,4,0,1,1,0,1,13.42
2685,-1,-6,1,2,-1,0,1,0,13.425
2686,1,-1,-3,-4,-2,-3,-1,0,13.43
2687,-1,-2,-5,-3,-3,0,0,-2,13.435
2688,-1,-2,-3,0,-3,-4,-3,-3,13.44
2689,0,6,-1,-1,-2,0,-2,0,13.445
2690,-1,2,-2,-2,-2,2,0,-2,13.450000000000001
2691,-2,-4,-5,1,0,-2,-2,-2,13.455
2692,-1,-4,-1,-3,-1,-1,-2,-1,13.46
2693,1,4,1,1,-1,0,-2,-1,13.465
2694,0,-2,0,-1,-1,1,0,0,13.47
2695,-1,0,1,-1,-2,-2,-2,0,13.475
2696,-1,-2,1,1,0,0,-1,-1,13.48
2697,0,-2,-1,0,1,0,-1,-1,13.485
2698,0,-3,-2,0,-1,-1,-1,-1,13.49
2699,2,6,4,3,3,-2,0,0,13.495000000000001
2700,-3,-2,-5,-5,-3,0,-1,-2,13.5
2701,4,7,-3,-2,0,0,-1,-2,13.505
2702,-2,-12,-3,-2,-3,-2,-1,-2,13.51
2703,2,4,4,2,-1,-1,-2,1,13.515
2704,-2,-3,-4,-2,0,-3,-1,-1,13.52
2705,-1,-1,-4,-3,-2,-2,-2,0,13.525
2706,0,-1,0,-2,-1,-1,0,-1,13.530000000000001
2707,1,0,0,0,0,0,-2,0,13.535
2708,0,2,3,1,0,0,2,1,13.540000000000001
2709,-2,-1,-2,-2,-2,0,-2,-1,13.545
2710,-1,2,0,-2,-1,-3,-2,-1,13.55
2711,-1,0,-2,0,-1,0,-1,-3,13.555
2712,-1,0,0,0,-2,1,-1,1,13.56
2713,-2,-1,3,0,-1,-2,0,-2,13.565
2714,-1,0,-2,0,0,-1,0,1,13.57
2715,1,1,-2,-2,-1,0,0,-2,13.575000000000001
2716,0,-2,-2,-5,-2,0,1,0,13.58
2717,-1,0,4,1,-1,-1,-1,-1,13.585
2718,0,1,-2,-2,-1,0,-1,0,13.59
2719,-1,-3,-4,-1,-2,-1,-1,0,13.595
2720,0,1,2,-1,-1,-2,-3,-1,13.6
2721,-2,-1,1,-2,-1,1,0,1,13.605
2722,1,4,3,4,2,0,-1,-1,13.61
2723,-2,-4,-9,-7,-1,-1,0,-1,13.615
2724,-2,-1,-1,0,0,-1,1,-1,13.620000000000001
2725,-1,-4,-6,0,2,2,0,0,13.625
2726,0,1,8,6,0,-1,0,0,13.63
2727,0,-1,-4,-2,0,-1,0,0,13.635
2728,1,4,-7,-6,-2,-1,0,-1,13.64
2729,-1,-3,0,-2,-1,-1,0,1,13.645
2730,-2,1,0,-3,0,-2,-1,-1,13.65
2731,-1,2,1,4,0,-1,1,0,13.655000000000001
2732,1,1,1,0,-2,-1,-1,-1,13.66
2733,-1,1,-3,-1,-2,-1,0,-1,13.665000000000001
2734,0,0,-1,-1,-1,0,-1,-1,13.67
2735,-1,0,0,-2,-2,0,1,-1,13.675
2736,0,6,-1,2,2,-1,0,-1,13.68
2737,-3,-3,0,0,-2,-1,0,-2,13.685
2738,0,-1,0,-2,0,0,-1,0,13.69
2739,0,1,0,1,-1,1,-2,0,13.695
2740,0,-4,4,1,1,-1,0,-1,13.700000000000001
2741,-3,-2,-1,0,0,-2,-2,-2,13.705
2742,-1,0,-3,-3,-4,-1,2,-1,13.71
2743,-1,-3,2,-2,-2,-1,-2,0,13.715
2744,-1,-2,1,0,0,2,1,-1,13.72
2745,0,1,-1,0,-2,-1,-2,-1,13.725
2746,0,-2,-1,1,1,-1,-2,-2,13.73
2747,-1,-2,-3,-3,0,0,1,-3,13.735
2748,0,-4,-1,1,-1,-3,-1,-2,13.74
2749,-3,1,3,2,-1,0,0,0,13.745000000000001
2750,-1,0,-6,-2,-2,-2,-1,-2,13.75
2751,-2,0,0,0,-2,-1,-1,-1,13.755
2752,0,-2,-3,-3,0,-1,-1,0,13.76
2753,0,-1,-2,-1,0,1,0,-1,13.765
2754,-1,-1,0,0,-1,0,0,0,13.77
2755,1,-2,0,0,-2,0,-1,0,13.775
2756,-1,-1,0,-1,1,-4,-4,-2,13.780000000000001
2757,1,-2,-1,-1,0,-1,0,-1,13.785
2758,-1,0,0,-2,-1,-2,0,-1,13.790000000000001
2759,0,-1,-1,-1,-1,-2,-1,0,13.795
2760,-2,-3,-1,-1,-3,1,-1,-1,13.8
2761,1,0,-1,-3,-1,0,-1,-1,13.805
2762,-2,0,0,-2,-1,0,-2,-1,13.81
2763,0,2,2,1,-1,-1,-2,-1,13.815
2764,-1,1,0,2,-1,1,0,1,13.82
2765,0,0,1,0,1,-1,3,1,13.825000000000001
2766,-3,-2,-4,-3,0,-1,0,0,13.83
2767,-2,-1,-2,0,-1,-1,0,-1,13.835
2768,0,-1,-1,-2,-2,-3,-1,0,13.84
2769,0,0,-5,-2,-1,-2,-1,-1,13.845
2770,1,0,3,3,-2,-1,-2,1,13.85
2771,-1,-1,-1,-2,-1,0,-2,-1,13.855
2772,-1,0,0,-1,-2,-1,1,0,13.86
2773,-1,0,-3,-3,1,-1,0,0,13.865
2774,-1,-1,0,-1,0,-1,1,0,13.870000000000001
2775,-1,-2,-1,0,-2,-1,-2,0,13.875
2776,0,-1,-1,-1,-1,1,-1,-2,13.88
2777,-1,-2,0,-2,-2,0,-1,-2,13.885
2778,0,1,-2,-4,-2,0,-1,-1,13.89
2779,-1,0,-2,-3,0,-1,-1,-1,13.895
2780,-2,-1,-1,1,2,-1,0,1,13.9
2781,-1,0,0,1,1,0,-2,-1,13.905000000000001
2782,-2,-1,-3,0,1,0,-1,-2,13.91
2783,0,0,3,1,2,1,-1,-1,13.915000000000001
2784,0,-2,-10,-8,-3,-1,-3,-1,13.92
2785,0,0,1,0,0,-2,-1,-1,13.925
2786,0,1,0,2,-1,1,0,-1,13.93
2787,-2,-2,0,-2,-2,-1,2,-1,13.935
2788,-1,0,3,0,0,-1,-2,-1,13.94
2789,1,0,-3,-3,-2,-2,-1,-2,13.945
2790,2,-1,-1,0,1,-3,-1,-1,13.950000000000001
2791,-2,0,-1,0,0,0,-1,-1,13.955
2792,0,-1,0,0,-1,-1,-1,-1,13.96
2793,-1,-1,1,1,-2,0,-1,0,13.965
2794,1,-1,2,-1,-1,-2,-2,0,13.97
2795,0,0,1,2,0,-1,0,-1,13.975
2796,-2,1,-3,-1,-1,0,0,-2,13.98
2797,-2,-2,-2,1,0,-1,-1,0,13.985
2798,-3,-2,-2,-2,-1,-1,0,0,13.99
2799,-2,-1,-2,-2,-2,-1,-2,-1,13.995000000000001
2800,-1,1,9,6,1,-1,0,-1,14.0
2801,-1,0,-2,0,0,-1,0,1,14.005
2802,0,-4,-15,-15,-2,0,-3,0,14.01
2803,-1,-2,-2,0,-1,-1,-1,0,14.015
2804,-1,0,3,1,1,0,-2,-1,14.02
2805,-2,0,5,3,-1,0,-1,-1,14.025
2806,-1,-1,1,1,-1,-3,0,-1,14.030000000000001
2807,-1,-1,-4,-4,0,1,-2,0,14.035
2808,-1,-2,-1,1,-2,0,0,0,14.040000000000001
2809,0,0,-2,-1,-3,-1,-1,-1,14.045
2810,1,2,2,3,1,1,0,-1,14.05
2811,-2,-1,-2,-1,-3,-1,1,-1,14.055
2812,-2,-1,1,0,-2,-1,-2,0,14.06
2813,-2,-2,-3,-1,1,-2,-1,-2,14.065
2814,-1,0,-4,-3,0,-2,-1,-1,14.07
2815,0,-3,1,2,0,-2,-1,0,14.075000000000001
2816,0,0,1,1,0,-1,-1,-1,14.08
2817,0,0,-3,-4,-3,-1,-1,1,14.085
2818,-1,-1,-3,-4,-2,-2,1,-1,14.09
2819,-1,2,7,5,-1,0,1,1,14.095
2820,1,3,8,7,-2,0,0,-2,14.1
2821,-4,-8,-31,-24,-2,0,-2,-2,14.105
2822,-2,-2,-3,-2,1,-2,-1,0,14.11
2823,0,-2,-2,-4,0,0,0,-2,14.115
2824,0,1,7,2,-2,-1,0,-1,14.120000000000001
2825,0,2,11,8,1,0,0,-2,14.125
2826,-1,1,7,3,1,2,-1,-1,14.13
2827,-2,-1,1,-3,0,-3,-1,-1,14.135
2828,-1,-3,-9,-7,-1,1,-3,-2,14.14
2829,1,1,3,1,-1,-2,-1,-3,14.145
2830,-1,0,2,1,-4,1,-1,0,14.15
2831,0,-1,-1,3,-1,1,-2,-1,14.155000000000001
2832,-1,-3,-5,-3,0,-2,0,-2,14.16
2833,-1,-2,-2,0,2,0,-1,-1,14.165000000000001
2834,-1,-1,5,1,-1,-1,-2,-2,14.17
2835,-2,0,-4,-2,0,-3,-1,-1,14.175
2836,-3,-3,-6,-5,-1,-2,-2,-1,14.18
2837,0,0,2,2,-3,-1,-2,0,14.185
2838,0,-2,3,3,-1,-1,-1,-2,14.19
2839,-1,-2,-11,-6,-1,0,1,0,14.195
2840,0,-2,-4,-3,1,0,2,0,14.200000000000001
2841,-2,2,6,3,0,-1,0,1,14.205
2842,-1,-2,1,1,-1,-1,-2,0,14.21
2843,1,-1,0,-1,-2,-1,-1,-1,14.215
2844,0,1,-2,0,-1,-1,-2,1,14.22
2845,-1,-1,-5,-6,-4,0,-2,0,14.225
2846,0,-1,3,2,-1,-2,0,-1,14.23
2847,1,3,2,2,0,-1,-1,1,14.235
2848,-2,-2,2,1,-2,-1,-1,-1,14.24
2849,-1,-1,1,2,0,0,0,-1,14.245000000000001
2850,0,0,-6,-3,-1,-1,-1,-1,14.25
2851,0,0,5,3,3,0,-2,0,14.255
2852,0,-2,-5,-4,0,-1,0,0,14.26
2853,0,-3,-4,-1,2,1,-1,0,14.265
2854,0,-3,-4,-4,-1,0,0,-2,14.27
2855,-1,-1,0,-1,-2,0,0,-2,14.275
2856,-2,1,0,1,-1,-1,0,0,14.280000000000001
2857,-2,2,6,4,0,-1,-1,0,14.285
2858,0,1,-1,0,-2,-1,-2,-1,14.290000000000001
2859,-2,-1,3,-1,-1,-1,1,-1,14.295
2860,0,1,-2,-2,-4,0,-2,-1,14.3
2861,-1,-1,-2,0,-1,-1,0,-1,14.305
2862,-2,0,0,1,2,1,-1,-1,14.31
2863,0,-1,-3,-2,0,-2,-2,-2,14.315
2864,0,-1,-1,-1,-1,1,-1,-1,14.32
2865,1,-1,3,4,0,-1,0,0,14.325000000000001
2866,0,0,-3,-2,-2,0,-1,1,14.33
2867,-1,-3,-3,-2,-3,-1,-1,-2,14.335
2868,-1,-3,-6,-5,-2,-1,-1,-1,14.34
2869,0,1,4,3,-1,-1,-2,-2,14.345
2870,-3,-3,-3,0,-1,-2,0,-2,14.35
2871,0,-1,3,0,-1,-2,-1,0,14.355
2872,1,-2,-1,1,0,1,0,1,14.36
2873,-1,1,1,-3,0,1,0,-1,14.365
2874,-1,-2,-2,-2,0,1,-1,0,14.370000000000001
2875,-1,0,-1,1,-2,0,-1,-1,14.375
2876,-2,2,7,3,1,-2,0,0,14.38
2877,-3,-3,-11,-10,-2,-3,0,0,14.385
2878,0,3,4,2,-1,-1,0,-1,14.39
2879,-1,1,0,1,1,-1,-1,0,14.395
2880,0,-6,-7,-5,-1,-1,0,-1,14.4
2881,1,-2,4,5,-2,0,-2,-2,14.405000000000001
2882,1,-1,-1,-1,-2,-2,-1,0,14.41
2883,-1,0,0,0,-1,1,1,-1,14.415000000000001
2884,0,1,2,0,0,-1,1,-2,14.42
2885,-2,-2,-3,-3,-1,-1,0,-1,14.425
2886,-2,-3,-2,-3,-2,-3,-2,0,14.43
2887,1,-2,0,-1,0,0,-1,-1,14.435
2888,-1,1,-4,-4,1,2,0,-1,14.44
2889,0,0,-4,0,1,-3,0,0,14.445
2890,0,1,4,2,-2,-1,-2,-1,14.450000000000001
2891,-2,-3,-4,-3,-3,-1,-2,1,14.455
2892,-1,0,2,1,-2,-1,-1,0,14.46
2893,1,2,5,3,2,0,1,1,14.465
2894,-1,-1,-1,-1,1,0,-1,0,14.47
2895,-2,-2,-2,-4,-2,-1,-2,-2,14.475
2896,-1,-2,0,1,0,0,1,1,14.48
2897,1,-1,-1,0,-3,0,0,-1,14.485
2898,-1,0,0,-1,1,-1,1,0,14.49
2899,-2,-2,-6,-4,-1,-1,2,-1,14.495000000000001
2900,-1,-2,-1,1,-1,-1,-2,1,14.5
2901,-1,-1,2,-2,-4,0,-2,0,14.505
2902,0,1,5,6,0,0,-2,0,14.51
2903,0,1,3,4,-1,0,0,0,14.515
2904,0,-1,-4,-2,-2,-3,1,-2,14.52
2905,0,-1,-7,-4,-1,0,-1,-1,14.525
2906,-2,0,-2,-4,-1,1,2,-1,14.530000000000001
2907,0,-2,-3,-1,1,-2,-3,0,14.535
2908,0,0,1,0,0,-1,-1,0,14.540000000000001
2909,0,0,-2,-1,-1,-1,0,0,14.545
2910,-1,-3,-2,-2,-3,-3,0,-2,14.55
2911,1,0,0,3,0,1,1,0,14.555
2912,0,0,3,2,-2,1,-2,-1,14.56
2913,-1,-2,-6,-3,1,-1,0,-2,14.565
2914,1,1,4,1,0,-2,-1,-1,14.57
2915,1,1,-2,-2,-1,-1,1,-1,14.575000000000001
2916,1,1,2,3,0,1,-1,-2,14.58
2917,-2,1,1,1,-1,-1,0,0,14.585
2918,-1,-3,-5,-2,-3,-1,0,-2,14.59
2919,-1,-2,0,-1,1,0,-1,-2,14.595
2920,-1,-2,2,1,2,0,-3,-1,14.6
2921,-1,-2,1,-2,-2,-1,-2,-2,14.605
2922,0,-1,-5,-3,-1,0,-2,-1,14.61
2923,-1,-2,-2,-2,-2,-1,-3,-1,14.615
2924,-3,-1,-1,-2,-1,0,-1,-1,14.620000000000001
2925,-1,-2,-4,-3,-1,-3,0,0,14.625
2926,-2,1,-2,-2,-2,-1,-1,1,14.63
2927,0,-2,-1,-1,-3,1,-1,-2,14.635
2928,-1,1,2,2,-1,0,0,0,14.64
2929,-2,1,6,3,1,0,-3,-2,14.645
2930,-1,-4,-12,-9,-3,0,1,-3,14.65
2931,-1,0,1,0,3,-1,-2,-2,14.655000000000001
2932,0,0,-6,-5,-1,-1,0,-1,14.66
2933,0,0,4,5,2,1,1,1,14.665000000000001
2934,0,-1,2,4,1,1,-1,0,14.67
2935,-3,0,-5,-6,-4,-1,-1,-1,14.675
2936,-1,-1,0,0,-3,0,-1,-1,14.68
2937,0,-3,-2,-1,-3,-2,-2,-1,14.685
2938,-1,-1,0,3,-1,1,1,-1,14.69
2939,-1,-2,-4,-2,1,-2,0,0,14.695
2940,0,1,-1,1,0,-2,-1,-1,14.700000000000001
2941,-2,2,-3,-1,0,-1,0,1,14.705
2942,0,1,4,1,0,-2,-3,-1,14.71
2943,0,0,-2,-1,-1,-1,0,-1,14.715
2944,-1,-1,3,2,-3,-2,1,0,14.72
2945,0,-2,-5,-3,-1,1,0,-1,14.725
2946,2,0,4,4,1,1,-1,1,14.73
2947,-1,-2,0,1,-1,-1,-2,0,14.735
2948,-1,1,3,-1,0,1,0,0,14.74
2949,-2,-2,-2,-1,1,-3,-1,-2,14.745000000000001
2950,-3,-4,-6,-4,1,-1,-2,-1,14.75
2951,0,1,2,0,-1,0,-1,0,14.755
2952,0,-2,-6,-3,1,1,0,-1,14.76
2953,-1,-1,1,1,-1,0,-1,-1,14.765
2954,0,0,-1,0,0,-2,-1,-1,14.77
2955,-1,1,-2,-1,-1,-1,1,-2,14.775
2956,-1,1,5,0,-3,-1,-1,-2,14.780000000000001
2957,-1,-1,-2,0,-2,-1,-3,-1,14.785
2958,-1,-1,-3,-2,-2,-2,-2,-1,14.790000000000001
2959,0,2,3,2,-1,1,-3,0,14.795
2960,0,-2,-3,-4,0,-3,-1,0,14.8
2961,1,1,-4,-3,-2,0,1,1,14.805
2962,0,-2,0,-2,-3,1,1,0,14.81
2963,0,-1,2,-1,0,-2,-1,-1,14.815
2964,0,-1,-2,-1,-1,0,-3,-1,14.82
2965,0,0,2,0,0,0,-2,-2,14.825000000000001
2966,-2,0,-2,-1,-2,1,0,1,14.83
2967,4,-1,2,0,0,2,0,1,14.835
2968,2,-2,-3,-3,1,0,1,0,14.84
2969,0,1,0,-1,-1,0,0,-1,14.845
2970,0,-2,-3,0,-2,-1,1,-1,14.85
2971,-1,-1,-2,0,-1,-1,1,0,14.855
2972,-4,-3,-2,1,-2,-2,-1,-3,14.86
2973,0,-2,-2,-2,-2,-1,-1,-1,14.865
2974,-1,0,-1,-1,0,-1,-1,-2,14.870000000000001
2975,-1,-1,-2,-3,1,0,1,0,14.875
2976,-2,-1,-1,-1,2,-1,-2,-2,14.88
2977,-2,1,1,1,-2,0,-1,-1,14.885
2978,-3,0,-2,-1,-3,-1,-1,-2,14.89
2979,-1,-3,-1,0,-1,-2,0,-2,14.895
2980,0,0,-3,0,-1,-1,-1,-1,14.9
2981,0,-4,-5,-5,-2,-3,0,0,14.905000000000001
2982,1,0,1,0,0,0,-1,0,14.91
2983,-1,0,3,1,-2,0,-1,-1,14.915000000000001
2984,0,-3,-2,-2,-2,-2,0,-2,14.92
2985,-2,1,-2,-1,0,0,0,-1,14.925
2986,0,-1,1,0,0,-2,-2,-1,14.93
2987,-3,-1,-3,-1,-1,1,1,-1,14.935
2988,0,0,4,2,-2,0,-1,0,14.94
2989,0,-1,-6,-3,-1,0,0,0,14.945
2990,-2,-1,0,-3,-1,-1,-2,-2,14.950000000000001
2991,1,-1,-2,-4,-1,0,-1,-1,14.955
2992,-1,-1,1,-1,0,-1,-1,0,14.96
2993,0,-2,4,3,0,-1,-1,-2,14.965
2994,-1,-1,1,0,-1,-1,-1,-1,14.97
2995,0,0,-2,-3,-1,-1,-1,0,14.975
2996,-1,2,-4,-1,-2,-1,-1,0,14.98
2997,-1,-2,-2,-1,-2,-1,-2,-1,14.985
2998,-1,-1,1,0,1,1,-1,-1,14.99
2999,-1,0,4,1,-2,-1,0,0,14.995000000000001
3000,-3,-3,-4,-4,-3,-3,0,-3,15.0
3001,-1,-2,2,-2,-2,-1,0,0,15.005
3002,0,0,-4,-1,0,-1,-1,-2,15.01
3003,-1,0,0,-2,1,0,-1,0,15.015
3004,-1,-1,1,1,1,0,-1,1,15.02
3005,-1,1,-1,0,-1,-3,-2,-1,15.025
3006,-1,-1,-1,1,1,0,1,1,15.030000000000001
3007,-1,0,-4,-2,-1,-1,-1,-2,15.035
3008,-1,-1,-3,-2,2,0,-1,0,15.040000000000001
3009,1,0,4,4,-1,1,0,0,15.045
3010,1,-2,-3,-5,1,-1,-1,0,15.05
3011,-1,-4,-3,0,-2,0,-2,-1,15.055
3012,-1,0,-4,-2,-1,-1,-1,1,15.06
3013,-1,1,2,2,1,0,0,-1,15.065
3014,0,-1,0,3,0,2,0,1,15.07
3015,1,-2,-1,0,0,0,0,-1,15.075000000000001
3016,0,-2,3,-1,0,0,-1,-1,15.08
3017,-2,-1,-1,0,0,0,-1,0,15.085
3018,-2,-1,0,1,-2,-2,-1,-1,15.09
3019,-2,-2,-2,-1,-2,-1,-2,0,15.095
3020,1,1,0,0,0,0,0,-1,15.1
3021,0,-1,-3,-4,0,-1,-1,0,15.105
3022,-1,-2,1,0,1,0,-1,1,15.11
3023,1,-1,5,2,0,-2,-2,0,15.115
3024,-2,-3,-4,-4,-3,0,-1,-2,15.120000000000001
3025,0,-1,-1,-3,0,-1,-2,-1,15.125
3026,1,-1,-4,-2,-1,-3,-1,-1,15.13
3027,0,0,-3,-1,-1,-2,-1,-2,15.135
3028,-1,2,4,3,-4,0,0,0,15.14
3029,-1,-4,-8,-6,-2,-1,1,-1,15.145
3030,-2,-1,2,2,-2,0,-2,-1,15.15
3031,0,-2,-2,-2,0,0,0,0,15.155000000000001
3032,-1,-1,-3,-3,-1,-1,0,-1,15.16
3033,0,1,3,2,-1,0,0,0,15.165000000000001
3034,-3,1,2,0,-1,-1,-1,-1,15.17
3035,-4,-4,-4,-3,0,-4,0,-1,15.175
3036,0,0,-1,-1,1,0,0,1,15.18
3037,0,-1,0,1,2,-1,-2,0,15.185
3038,0,-1,-3,-3,-1,-1,-1,0,15.19
3039,1,3,1,1,-1,1,-1,0,15.195
3040,0,-2,-6,-2,-1,-1,0,-2,15.200000000000001
3041,0,-1,1,1,-1,0,0,-1,15.205
3042,0,0,-2,0,-1,0,-1,-1,15.21
3043,-3,0,-1,-2,0,0,-1,0,15.215
3044,-1,0,-2,-1,-1,-1,1,0,15.22
3045,-1,-1,-2,-1,-1,-3,-1,0,15.225
3046,-1,-3,-2,-4,-3,-2,-1,-2,15.23
3047,-1,1,1,3,-2,1,0,-2,15.235
3048,0,0,-5,-5,2,1,-2,-1,15.24
3049,-1,0,0,-1,-2,0,-1,-1,15.245000000000001
3050,-1,-2,1,0,1,-1,1,-1,15.25
3051,-2,-1,-6,-4,0,-1,-1,0,15.255
3052,0,1,2,1,0,-1,0,1,15.26
3053,0,0,0,-1,-2,0,-2,-3,15.265
3054,0,0,-2,0,-1,-2,0,-1,15.27
3055,0,-2,0,0,-3,1,-1,-2,15.275
3056,-2,-5,-3,-3,-1,0,-1,-1,15.280000000000001
3057,1,-1,-4,-3,0,-2,-2,1,15.285
3058,1,0,2,-1,-1,-1,-1,0,15.290000000000001
3059,-1,0,0,0,0,0,-2,-1,15.295
3060,-1,-3,0,0,-2,-1,-1,0,15.3
3061,-2,-2,1,-2,0,0,-1,0,15.305
3062,-1,-2,0,0,0,0,-1,-2,15.31
3063,-1,0,0,1,1,-1,1,0,15.315
3064,0,2,-1,0,-2,-2,-1,-1,15.32
3065,-2,1,-1,2,-2,-1,0,-2,15.325000000000001
3066,-2,-2,-1,-2,-1,-1,-1,-2,15.33
3067,-1,-3,2,-1,0,-1,1,-1,15.335
3068,2,-3,-3,-4,1,1,-1,-1,15.34
3069,-2,-1,-1,0,1,-3,-1,0,15.345
3070,-1,-2,1,-1,-1,-1,-1,-1,15.35
3071,0,0,-1,-2,-1,-1,-2,-2,15.355
3072,0,1,2,2,1,-1,-1,-2,15.36
3073,-2,-2,-1,-1,1,-1,-1,-1,15.365
3074,-1,-1,-3,-3,0,0,0,0,15.370000000000001
3075,-2,-1,1,2,-2,-2,0,-1,15.375
3076,0,0,0,2,0,0,0,-2,15.38
3077,2,-1,-1,1,-2,1,0,-1,15.385
3078,0,0,1,3,0,0,-1,-2,15.39
3079,0,-1,-1,-4,0,0,-1,0,15.395
3080,-3,-2,-3,-2,-2,-1,2,-2,15.4
3081,-1,1,-1,-2,-3,-1,-2,-1,15.405000000000001
3082,-1,0,1,1,-2,-2,-1,1,15.41
3083,1,0,-4,-2,0,0,1,2,15.415000000000001
3084,-1,0,8,4,0,-1,-1,1,15.42
3085,-3,-2,-1,3,0,-2,-2,-1,15.425
3086,0,0,-8,-4,-1,0,-1,0,15.43
3087,-2,1,1,0,-1,-2,-3,-1,15.435
3088,1,-2,-3,-1,1,0,0,0,15.44
3089,0,-1,3,-1,0,1,-1,0,15.445
3090,0,-3,-1,0,-1,-2,0,-1,15.450000000000001
3091,0,-1,-2,-1,0,-1,0,0,15.455
3092,1,0,0,2,-1,0,-2,-1,15.46
3093,1,0,1,0,0,-1,0,-1,15.465
3094,-2,0,-3,-2,0,1,-1,0,15.47
3095,-2,1,-3,-3,-1,-2,-2,-1,15.475
3096,-2,-1,-1,1,-1,-1,-2,0,15.48
3097,2,1,1,0,1,1,0,-1,15.485000000000001
3098,-2,-1,-1,-2,-1,-1,0,-2,15.49
3099,1,-2,-1,1,0,-1,0,-2,15.495000000000001
3100,-1,0,-2,-2,-1,-1,-2,0,15.5
3101,-1,0,-4,-2,-1,-2,1,0,15.505
3102,1,2,6,2,-1,-1,0,-3,15.51
3103,0,-1,3,0,-1,-2,-1,-1,15.515
3104,0,-3,-7,-4,-1,-1,-2,-3,15.52
3105,-2,-1,-2,-1,-1,-1,0,0,15.525
3106,-1,-2,-2,-1,1,-2,-1,-2,15.530000000000001
3107,-1,-2,1,1,0,0,-1,0,15.535
3108,-1,-1,2,0,0,0,0,1,15.540000000000001
3109,0,0,0,2,0,1,0,-1,15.545
3110,-1,-1,-6,-4,-1,-1,-1,2,15.55
3111,-2,-2,-1,-3,-3,-1,-1,0,15.555
3112,0,1,-2,-2,-2,-2,-1,-1,15.56
3113,0,-1,-3,-2,-2,-1,-1,-2,15.565
3114,0,-1,2,2,-2,-1,0,-1,15.57
3115,-1,3,-1,-2,-1,0,1,-1,15.575000000000001
3116,-2,-1,-1,-2,-1,0,-1,-1,15.58
3117,-3,1,1,1,-1,0,0,0,15.585
3118,0,-1,-1,-2,-1,0,-2,-1,15.59
3119,0,-2,-2,0,-1,-1,1,0,15.595
3120,-2,0,-1,1,-2,-1,-2,-3,15.6
3121,0,-4,-5,-3,-2,-2,-2,-1,15.605
3122,-4,0,1,1,-2,-3,-1,-2,15.610000000000001
3123,1,-2,-1,-2,1,-1,0,0,15.615
3124,0,-1,2,2,4,-1,0,-1,15.620000000000001
3125,0,-1,-2,-2,-1,-1,-1,-3,15.625
3126,0,-1,-3,-4,-3,-2,-1,-1,15.63
3127,-2,2,0,1,2,0,-1,-1,15.635
3128,-1,-2,1,1,0,0,1,0,15.64
3129,-2,-4,-10,-6,-1,-2,-1,-1,15.645
3130,-2,-1,3,3,2,1,0,1,15.65
3131,-3,-1,-4,-5,-2,0,-1,-2,15.655000000000001
3132,0,-1,0,-1,-2,-1,1,-1,15.66
3133,-2,-1,3,1,0,-1,0,-1,15.665000000000001
3134,-1,0,0,-1,-1,-2,-2,0,15.67
3135,0,-4,-2,-1,0,-1,-2,1,15.675
3136,-1,1,2,-1,-1,0,-1,-1,15.68
3137,0,-1,1,0,0,1,-1,0,15.685
3138,0,1,-2,-1,0,-1,-1,-2,15.69
3139,0,-2,3,3,0,-1,-1,-1,15.695
3140,-2,-2,-3,-1,-2,-1,0,-1,15.700000000000001
3141,-1,-2,2,1,1,-1,-1,0,15.705
3142,0,0,3,4,1,1,-1,0,15.71
3143,-1,1,-2,0,-2,1,0,-1,15.715
3144,1,1,2,0,-1,-1,0,0,15.72
3145,-1,-2,-5,-5,-2,-3,-2,-1,15.725
3146,0,-1,-3,-4,-1,-1,1,1,15.73
3147,-2,-1,-1,1,-1,-1,2,0,15.735000000000001
3148,-1,-2,-2,-2,-2,0,-2,0,15.74
3149,-1,1,3,2,-1,0,0,1,15.745000000000001
3150,0,-2,-1,0,-3,-1,1,-1,15.75
3151,0,0,-1,-1,-2,-3,-1,-2,15.755
3152,-1,-2,0,-1,-1,-2,-1,-1,15.76
3153,0,-2,-1,-1,0,-1,-1,0,15.765
3154,-1,-3,-4,0,1,0,-1,-1,15.77
3155,-1,0,0,-3,0,0,-2,0,15.775
3156,0,0,-2,0,-1,0,-1,0,15.780000000000001
3157,-1,-1,0,3,1,1,-1,-1,15.785
3158,-1,-1,-1,0,0,-2,0,-2,15.790000000000001
3159,0,0,-1,0,-1,-2,0,0,15.795
3160,-2,-2,-2,0,-1,-2,-2,-1,15.8
3161,-1,0,3,-1,-1,0,-1,-1,15.805
3162,-3,-1,-6,-3,0,-1,0,0,15.81
3163,-1,-1,-1,1,-1,-1,-1,-1,15.815
3164,0,1,-1,-1,0,-1,0,-2,15.82
3165,-3,-3,2,0,-2,-1,-1,-2,15.825000000000001
3166,1,-1,1,1,3,-2,-2,-1,15.83
3167,-1,-1,-1,-1,0,-1,-2,-1,15.835
3168,-2,-1,-3,-2,-1,-2,0,-2,15.84
3169,3,4,0,-1,-1,-1,0,0,15.845
3170,3,3,-3,-3,-2,1,0,-1,15.85
3171,-4,-4,0,0,-1,0,0,0,15.855
3172,-2,0,-1,0,-2,-1,-2,-1,15.860000000000001
3173,0,-2,-2,-1,-1,-3,-1,0,15.865
3174,3,1,0,-1,-2,0,1,1,15.870000000000001
3175,-1,-2,0,0,-2,-2,-1,1,15.875
3176,-3,-3,-1,-2,1,-1,0,1,15.88
3177,-2,-3,0,-1,0,0,1,-1,15.885
3178,-2,-2,0,1,0,0,-1,-1,15.89
3179,1,0,3,-1,1,0,0,-3,15.895
3180,2,-1,4,2,-1,0,-2,0,15.9
3181,-8,-1,-5,-4,2,-3,-1,-2,15.905000000000001
3182,-1,0,-2,-3,0,0,0,1,15.91
3183,-4,-1,6,4,-2,-1,-1,0,15.915000000000001
3184,3,-2,-10,-6,-2,0,-2,-2,15.92
3185,2,-1,0,0,1,0,0,1,15.925
3186,0,0,5,0,-1,0,2,0,15.93
3187,4,-3,-4,-4,-2,-3,-2,-2,15.935
3188,-8,-4,1,0,-2,-2,-1,-2,15.94
3189,-1,0,-1,-4,-4,0,0,0,15.945
3190,7,-1,-2,-2,-1,-1,-2,-1,15.950000000000001
3191,-5,-2,0,1,-1,-1,0,-1,15.955
3192,6,5,0,1,1,1,2,1,15.96
3193,-12,-2,-1,-2,-2,-1,-1,-3,15.965
3194,2,-3,0,0,-5,-3,-1,-4,15.97
3195,2,-6,-1,-1,0,0,-2,-2,15.975
3196,0,-1,-8,-7,1,0,-1,0,15.98
3197,7,1,0,-2,-1,1,-2,2,15.985000000000001
3198,-7,1,-1,1,-1,-3,-4,0,15.99
3199,1,8,1,2,1,0,2,3,15.995000000000001
3200,-7,-10,5,-2,-2,-1,-1,-4,16.0
3201,9,1,0,8,2,2,3,3,16.005
3202,-13,-12,-8,-14,-5,-2,-2,-3,16.01
3203,-2,0,-1,1,0,0,-1,-2,16.015
3204,1,0,-1,-1,0,-1,-1,0,16.02
3205,1,4,2,1,-1,-1,-1,-1,16.025
3206,-6,-8,-4,-1,-4,-2,-4,-4,16.03
3207,12,5,0,1,1,2,5,6,16.035
3208,3,-1,0,-2,-2,-1,0,1,16.04
3209,1,1,-1,1,3,1,-1,-2,16.045
3210,-11,-4,-2,2,1,0,-2,-3,16.05
3211,-6,-6,-2,-3,0,-3,-2,-2,16.055
3212,3,4,2,3,0,0,0,1,16.06
3213,1,-1,-3,-4,-1,-2,-2,1,16.065
3214,6,9,2,1,0,0,0,1,16.07
3215,-2,1,-2,-1,-3,-1,1,-1,16.075
3216,-7,-3,-2,2,-1,0,0,0,16.080000000000002
3217,25,1,4,2,-2,2,2,5,16.085
3218,-25,12,1,4,2,1,-1,-4,16.09
3219,7,1,0,-2,4,1,-2,-1,16.095
3220,-2,-9,-7,-14,-8,-5,-1,-1,16.1
3221,-19,-11,-4,-1,0,-1,-3,-7,16.105
3222,15,-19,-2,1,-1,2,2,8,16.11
3223,6,1,-3,-4,-2,0,3,5,16.115000000000002
3224,1,5,9,9,3,2,-1,0,16.12
3225,3,5,-4,0,-3,-2,-4,-5,16.125
3226,16,-4,-2,-10,0,1,0,4,16.13
3227,-1,6,1,7,0,1,1,0,16.135
3228,-16,-25,-3,4,3,0,-3,-4,16.14
3229,16,8,1,-9,-1,3,3,6,16.145
3230,-22,12,-5,-3,-8,-7,-7,-10,16.15
3231,46,4,0,3,3,6,6,7,16.155
3232,-13,9,7,1,-5,2,0,-1,16.16
3233,-2,-21,-13,12,12,3,2,-6,16.165
3234,-1,26,12,20,14,-1,-2,-2,16.17
3235,3,-10,-6,-20,-12,-3,-8,0,16.175
3236,9,-13,-5,0,1,5,7,0,16.18
3237,-11,-5,-3,3,-15,-10,-7,-7,16.185
3238,11,2,2,5,0,0,-2,-6,16.19
3239,-21,29,9,-2,-1,-3,-5,2,16.195
3240,9,-41,-35,-3,7,3,8,12,16.2
3241,5,2,-9,-32,-13,-4,7,10,16.205000000000002
3242,8,40,21,13,-3,-1,-12,-21,16.21
3243,-32,-23,-9,-6,-12,-14,-24,-26,16.215
3244,-28,-29,-16,-14,-4,1,-6,-9,16.22
3245,40,21,5,1,2,13,32,35,16.225
3246,11,-13,-18,-18,-9,6,9,4,16.23
3247,12,30,27,27,19,6,4,7,16.235
3248,-22,30,5,-11,-23,-16,-15,-23,16.240000000000002
3249,27,-25,-26,-9,13,12,19,31,16.245
3250,-4,6,-4,17,16,-2,-6,-1,16.25
3251,0,-31,-7,0,-2,-11,-23,-17,16.255
3252,-10,27,-6,15,-8,-3,3,-8,16.26
3253,-32,4,17,-12,-9,-11,-14,-6,16.265
3254,6,-15,7,-11,3,14,22,10,16.27
3255,17,20,7,42,13,-3,-8,5,16.275
3256,19,8,-48,-40,7,14,15,0,16.28
3257,-17,6,21,-9,-26,-5,-31,-41,16.285
3258,-22,-30,-4,42,4,-15,-2,2,16.29
3259,-46,-52,-19,-50,-21,-3,5,-4,16.295
3260,52,49,24,-33,-13,3,22,36,16.3
3261,-85,-59,-38,-11,-14,-29,-43,-46,16.305
3262,16,65,68,64,4,1,-12,-4,16.31
3263,-25,-15,-5,37,44,24,40,17,16.315
3264,34,-46,-62,-59,-15,-22,-41,-34,16.32
3265,-44,-6,9,48,35,11,29,14,16.325
3266,16,8,-12,-87,-30,-13,-17,-9,16.330000000000002
3267,-34,41,33,22,-48,-10,3,-13,16.335
3268,-17,9,-1,-9,53,12,-4,-6,16.34
3269,57,58,27,-20,-18,-9,1,9,16.345
3270,-18,-70,-7,97,6,3,9,8,16.35
3271,74,7,-31,-100,17,12,9,17,16.355
3272,-76,-44,14,30,-17,-4,-11,-22,16.36
3273,83,55,-4,-29,1,15,31,48,16.365000000000002
3274,23,22,-10,-6,14,7,14,33,16.37
3275,-53,-65,-24,25,2,-11,-31,-48,16.375
3276,21,-13,-7,6,32,-5,-2,4,16.38
3277,19,43,12,22,-4,-13,-29,-34,16.385
3278,17,13,11,11,-6,8,23,16,16.39
3279,-8,19,20,-40,-45,1,18,35,16.395
3280,-11,-27,27,26,53,14,6,-3,16.4
3281,-24,-27,-29,-12,9,15,20,24,16.405
3282,14,62,-7,-24,-5,-16,-32,-34,16.41
3283,-42,-17,28,47,29,19,18,10,16.415
3284,15,15,-8,-35,-45,3,30,48,16.42
3285,-49,-60,-19,29,28,-1,-34,-34,16.425
3286,-71,20,1,-60,20,5,-17,-47,16.43
3287,16,-92,-8,42,34,1,10,3,16.435
3288,127,127,107,118,29,24,38,74,16.44
3289,-104,-50,-20,-6,-14,-10,-9,-17,16.445
3290,-20,-60,-47,-72,-18,-2,-18,-19,16.45
3291,65,78,26,10,-47,6,26,43,16.455000000000002
3292,-70,-34,-24,-64,51,0,-21,-32,16.46
3293,116,108,89,77,17,30,30,20,16.465
3294,-58,-97,59,57,12,-10,-22,-8,16.47
3295,8,3,-54,-2,-24,-13,-14,-13,16.475
3296,62,71,14,14,-32,19,38,26,16.48
3297,-6,22,12,-41,-11,18,40,63,16.485
3298,-52,-20,0,-9,1,-12,-41,-80,16.490000000000002
3299,19,67,15,-14,35,9,-32,-16,16.495
3300,-16,-4,27,-11,-63,-18,18,24,16.5
3301,-14,-6,-48,56,54,-4,-28,-18,16.505
3302,109,-36,18,-26,-25,19,60,78,16.51
3303,-77,-12,-40,-40,-11,-13,-27,-42,16.515
3304,-72,-28,-36,17,-51,-51,-58,-53,16.52
3305,27,-26,2,13,19,-2,-9,14,16.525
3306,-10,-36,-39,-38,-88,-21,-1,13,16.53
3307,-43,-54,-55,3,114,37,21,-35,16.535
3308,80,61,58,-30,3,-5,-6,45,16.54
3309,-69,-57,-11,36,-56,-16,-17,-55,16.545
3310,52,103,1,-2,22,37,69,84,16.55
3311,63,27,30,-10,-21,-26,-19,18,16.555
3312,-39,4,-10,7,43,24,-3,-45,16.56
3313,-14,-30,-35,-75,-31,-13,-11,-20,16.565
3314,-42,3,8,37,-10,-2,0,-11,16.57
3315,76,41,41,18,47,47,71,67,16.575
3316,0,-42,3,117,-18,-27,-16,26,16.580000000000002
3317,50,102,73,-76,4,13,20,5,16.585
3318,17,-91,-118,-5,-38,-9,-27,-22,16.59
3319,-84,-19,-23,46,62,3,-10,-49,16.595
3320,-90,-89,-50,-9,-48,-30,-45,-39,16.6
3321,85,96,0,-41,-17,-10,10,19,16.605
3322,-23,-42,24,13,45,-1,-6,17,16.61
3323,-30,78,13,-35,-62,-14,-11,-23,16.615000000000002
3324,0,23,46,60,-28,-12,-24,-56,16.62
3325,15,-75,-37,-85,11,5,27,39,16.625
3326,12,51,-15,70,77,19,19,29,16.63
3327,9,-60,-30,-39,-45,-1,5,-8,16.635
3328,21,-6,-42,-53,19,3,-15,-15,16.64
3329,-65,-65,17,30,-30,-20,-26,-21,16.645
3330,11,58,37,37,84,6,6,-2,16.65
3331,-48,-109,-14,10,-26,-6,-12,-23,16.655
3332,-22,32,17,-55,-11,10,17,19,16.66
3333,19,-25,-10,31,24,-26,-56,-22,16.665
3334,-52,-34,-7,-49,-32,-16,-31,-65,16.67
3335,32,28,32,3,-31,-18,-6,20,16.675
3336,7,27,5,-40,19,-2,4,-9,16.68
3337,-25,33,27,63,-3,21,20,15,16.685
3338,17,21,4,-9,-34,-14,-13,1,16.69
3339,72,36,60,10,1,16,43,52,16.695
3340,-73,-72,-83,-23,34,-7,-33,-56,16.7
3341,36,50,24,86,3,-17,-1,3,16.705000000000002
3342,39,-8,-9,-111,-27,12,19,34,16.71
3343,15,50,20,37,33,-3,5,28,16.715
3344,1,43,31,33,19,30,22,-11,16.72
3345,-23,-19,1,12,-30,-1,9,0,16.725
3346,-21,-31,-6,-13,22,2,2,-7,16.73
3347,-51,-25,-35,-35,-40,-16,-27,-18,16.735
3348,63,-40,24,46,-11,15,29,29,16.740000000000002
3349,-63,-23,-47,-82,4,-21,-32,-28,16.745
3350,32,25,38,39,-31,4,-2,-6,16.75
3351,-6,-5,-4,-15,-9,-6,-6,2,16.755
3352,-16,3,-3,14,4,-9,-4,-8,16.76
3353,2,-7,8,-3,-2,34,47,13,16.765
3354,-35,-31,-17,-1,-2,-28,-27,-21,16.77
3355,4,34,0,14,-11,-9,-10,-12,16.775
3356,25,11,-8,-41,-15,-11,-24,2,16.78
3357,-11,-25,14,12,25,11,25,0,16.785
3358,-35,1,-12,-13,-19,-10,-9,-8,16.79
3359,33,1,-31,25,28,4,-6,-10,16.795
3360,-1,-40,-3,13,19,5,9,31,16.8
3361,-15,-24,-17,-31,6,7,-7,-25,16.805
3362,26,22,3,4,-7,1,3,7,16.81
3363,-7,17,-3,-30,-21,-31,-10,-5,16.815
3364,-19,-55,-9,-5,-16,0,-9,-22,16.82
3365,7,4,4,14,0,-6,-26,16,16.825
3366,-20,3,-5,-2,11,7,28,-6,16.830000000000002
3367,-1,-19,5,0,-6,13,-12,-10,16.835
3368,-17,14,1,-10,-4,23,66,16,16.84
3369,-19,-19,-10,1,-3,-22,-35,-24,16.845
3370,23,9,4,1,-11,-17,5,15,16.85
3371,3,2,-1,-5,-3,-9,-17,-6,16.855
3372,6,10,18,12,3,-7,-13,5,16.86
3373,14,1,8,-4,-3,6,7,-1,16.865000000000002
3374,12,26,18,8,5,3,1,8,16.87
3375,-7,-5,13,-2,-5,0,-1,-2,16.875
3376,11,9,39,-3,3,3,-2,5,16.88
3377,-2,-13,-7,-4,-3,0,8,2,16.885
3378,-9,-5,5,-1,-2,3,-4,-7,16.89
3379,-7,-13,-8,-1,-7,2,-2,-4,16.895
3380,3,6,-18,-3,-7,-8,-1,4,16.9
3381,1,3,-22,3,-1,1,-1,-3,16.905
3382,-1,6,-13,6,1,-2,-7,-2,16.91
3383,3,-9,-21,-11,-7,-2,-5,1,16.915
3384,5,7,-5,5,5,3,0,4,16.92
3385,1,8,-1,3,2,5,5,3,16.925
3386,0,2,-2,5,4,8,3,1,16.93
3387,-3,-5,6,4,-4,-5,3,6,16.935
3388,4,3,-9,-8,-3,-4,-4,2,16.94
3389,-3,-3,-12,-5,-2,-1,-8,-5,16.945
3390,1,1,13,22,1,2,-1,3,16.95
3391,-1,-4,-15,-9,4,1,1,1,16.955000000000002
3392,0,-4,0,-7,-4,-6,-7,1,16.96
3393,5,3,2,-8,-5,0,1,-1,16.965
3394,2,-5,22,-1,5,0,-1,3,16.97
3395,-2,-6,40,1,-5,-5,-5,-3,16.975
3396,-2,-1,8,-15,-6,0,-1,1,16.98
3397,-4,0,-5,-5,-1,-2,3,1,16.985
3398,-3,3,-12,2,2,3,-3,-1,16.990000000000002
3399,-3,-7,-19,4,-2,-3,-5,-2,16.995
3400,0,-1,-15,5,-2,-3,-2,0,17.0
3401,-4,-5,2,13,0,-2,-4,-4,17.005
3402,-4,-8,-46,-32,-6,-1,1,-3,17.01
3403,0,1,-7,1,1,0,-1,-1,17.015
3404,4,3,-9,-4,1,0,-5,1,17.02
3405,0,-8,8,9,0,2,9,0,17.025
3406,-3,-13,-1,3,2,1,-5,-4,17.03
3407,4,2,-3,2,1,2,5,4,17.035
3408,-2,-1,-4,5,-1,-3,-2,1,17.04
3409,2,11,10,-5,2,1,-7,-2,17.045
3410,0,1,-10,-1,-3,0,1,1,17.05
3411,-7,-8,-10,-28,-11,-8,-7,-7,17.055
3412,7,15,5,10,7,6,8,3,17.06
3413,2,2,1,7,3,-1,-3,-1,17.065
3414,1,1,-13,-22,-3,0,3,2,17.07
3415,-1,-1,0,15,2,0,-1,0,17.075
3416,-1,-2,-2,0,-2,-1,1,-1,17.080000000000002
3417,-1,1,3,-5,-2,-2,1,-2,17.085
3418,3,7,9,11,0,-4,-3,0,17.09
3419,-2,1,5,4,2,6,7,1,17.095
3420,0,9,-1,-8,-2,-2,-5,-2,17.1
3421,0,0,-7,3,-2,2,5,1,17.105
3422,-2,1,10,10,0,-5,-5,-1,17.11
3423,-4,-7,-18,-18,-6,-9,-6,-4,17.115000000000002
3424,0,2,0,-4,2,2,-1,0,17.12
3425,-2,-9,21,22,2,-1,-2,-2,17.125
3426,0,-7,-23,-18,-2,1,1,-2,17.13
3427,-1,2,3,-5,-1,-3,-1,1,17.135
3428,0,0,-4,2,-1,-2,0,0,17.14
3429,0,1,-5,-6,-3,-5,-5,-3,17.145
3430,1,1,16,14,2,-1,0,-2,17.150000000000002
3431,2,-3,-3,-3,-1,-2,1,3,17.155
3432,-2,-6,-9,-15,-2,-1,-1,-1,17.16
3433,-1,2,-1,3,-2,-2,0,0,17.165
3434,-1,0,8,5,1,2,1,0,17.17
3435,2,5,4,6,1,0,-2,0,17.175
3436,-2,-4,3,0,-4,-4,-2,-4,17.18
3437,-2,-2,-11,-18,-2,0,1,-1,17.185
3438,0,-1,0,-1,0,-2,-3,1,17.19
3439,0,0,8,11,2,2,0,-1,17.195
3440,-1,-7,-6,-7,-3,-2,-1,-1,17.2
3441,0,-1,3,-7,-3,-3,-2,-2,17.205000000000002
3442,-2,-1,-5,-7,-4,-2,0,0,17.21
3443,3,2,9,6,2,1,0,1,17.215
3444,0,0,1,12,-1,2,0,0,17.22
3445,-2,1,-15,-10,-3,-2,-2,-1,17.225
3446,-1,1,6,3,0,-2,1,1,17.23
3447,-1,3,12,10,-1,0,0,-1,17.235
3448,-2,-1,-5,-2,1,-2,-1,-3,17.240000000000002
3449,-1,-3,3,-1,-1,1,-2,-1,17.245
3450,-1,0,1,-1,-1,0,0,-1,17.25
3451,0,3,7,8,0,2,1,-1,17.255
3452,-2,-5,-8,-7,-4,-3,-1,-1,17.26
3453,0,0,5,14,0,1,4,0,17.265
3454,0,0,-4,-4,-3,-3,-3,-3,17.27
3455,-3,-2,0,1,-1,-2,-2,-2,17.275000000000002
3456,-3,1,6,1,-4,-2,0,0,17.28
3457,1,1,5,5,1,-1,-1,1,17.285
3458,-1,1,-4,-5,-1,0,-1,-2,17.29
3459,1,0,1,-5,-3,1,3,0,17.295
3460,1,-1,6,20,3,-2,-2,0,17.3
3461,-3,-3,-12,-33,-7,-2,-3,-5,17.305
3462,2,4,10,14,1,-1,-2,-1,17.31
3463,-3,-7,-20,-15,-1,-1,-3,-2,17.315
