slno,emg1,emg2,emg3,emg4,emg5,emg6,emg7,emg8,Time
0,-1,0,-2,0,5,0,-1,-1,0.0
1,-1,0,-1,-3,-1,1,0,-1,0.005
2,1,-1,-1,4,3,0,-1,1,0.01
3,-1,0,-1,-3,-6,-1,-1,-3,0.015
4,-1,0,0,-2,-1,0,-1,-1,0.02
5,0,-2,-1,0,-2,-1,-2,-1,0.025
6,-2,-2,-1,-3,-1,-1,1,-1,0.03
7,1,-2,-2,0,1,-1,-1,-2,0.035
8,0,0,0,0,-1,-1,-1,0,0.04
9,-2,-1,0,1,2,0,-1,0,0.045
10,-1,-1,-1,-23,-4,0,-1,-2,0.05
11,-1,-1,-1,22,6,-1,-2,-2,0.055
12,0,0,2,3,-6,0,2,0,0.06
13,-1,0,0,7,-3,-2,-1,-1,0.065
14,0,0,0,-7,-2,-2,-1,-1,0.07
15,0,0,0,-8,2,-1,0,0,0.075
16,-1,-2,-1,-3,-3,0,-2,-1,0.08
17,-1,0,-1,-1,3,1,0,-1,0.085
18,-1,-1,-2,7,2,-3,0,-1,0.09
19,-1,0,0,-7,-4,-1,-2,0,0.095
20,0,0,0,0,2,0,-1,-1,0.1
21,-1,-2,-1,4,1,-1,0,2,0.105
22,0,-1,1,-1,-1,0,0,1,0.11
23,-2,-1,-1,-2,-3,-1,-1,-1,0.115
24,-1,0,-1,0,0,0,-1,-1,0.12
25,-2,0,-3,-1,1,0,-1,-2,0.125
26,-1,0,-1,-10,-4,-2,-1,-1,0.13
27,-1,-1,-1,15,4,0,-1,-1,0.135
28,-1,0,-1,-2,-10,-2,-2,0,0.14
29,1,-3,0,-1,-2,0,0,0,0.145
30,-1,-2,0,3,-1,-1,1,-1,0.15
31,-2,-2,-2,-8,-4,-2,-1,-2,0.155
32,0,-1,0,-5,1,-1,-1,-3,0.16
33,0,-1,-2,2,0,-1,0,-1,0.165
34,-1,0,0,-3,-2,-1,-1,-1,0.17
35,1,0,0,-5,-5,-2,0,0,0.17500000000000002
36,-2,-3,-1,6,6,1,1,-1,0.18
37,-2,-2,-1,-1,-7,-1,-1,-2,0.185
38,-2,-2,-1,-4,3,-1,-1,-1,0.19
39,0,0,0,2,0,0,-1,0,0.195
40,0,-1,-2,-1,2,0,-2,-1,0.2
41,-2,-1,-2,1,-3,-3,-1,-1,0.20500000000000002
42,-2,0,0,0,-1,0,-1,-2,0.21
43,-1,-2,-1,-3,-5,-2,-2,1,0.215
44,-1,-2,-2,-1,-4,-2,-1,-1,0.22
45,1,0,0,-6,-3,-1,-1,-1,0.225
46,0,-1,-2,5,2,0,-1,0,0.23
47,-2,-2,-1,-24,-7,-1,-1,-2,0.23500000000000001
48,-1,0,2,18,6,-1,0,-2,0.24
49,0,1,-2,-1,0,0,0,-1,0.245
50,-3,-1,-1,4,-4,-3,0,-1,0.25
51,0,-1,-2,-5,4,2,-2,1,0.255
52,0,-1,-1,-8,-4,-1,0,-1,0.26
53,-2,-1,-1,5,1,-1,0,1,0.265
54,1,0,-1,-2,-2,0,-1,-2,0.27
55,0,-1,0,5,3,-2,-1,-1,0.275
56,1,-1,-1,-5,-2,-1,-3,0,0.28
57,-2,-1,0,-2,-8,0,-1,-1,0.28500000000000003
58,0,-1,-1,1,1,0,-1,-1,0.29
59,-1,-2,-1,4,0,1,0,-2,0.295
60,-3,-1,-1,-1,-4,-1,0,2,0.3
61,0,-1,0,-5,2,-1,-1,-1,0.305
62,-1,0,0,3,5,-1,0,-1,0.31
63,-1,0,-1,3,2,1,-2,-3,0.315
64,-1,-1,0,-3,-3,-1,-1,0,0.32
65,0,0,-1,-20,-1,0,-1,0,0.325
66,-1,0,-2,17,3,1,-1,-1,0.33
67,0,0,0,3,3,-1,1,0,0.335
68,-1,0,-2,-1,-2,-1,-1,-3,0.34
69,-1,-1,-2,-4,-1,0,1,0,0.34500000000000003
70,0,-2,-1,-10,-8,-2,-2,-2,0.35000000000000003
71,0,1,-2,1,2,-1,0,-1,0.355
72,-2,0,0,-4,-1,2,0,-1,0.36
73,0,-1,1,7,3,-3,-1,-1,0.365
74,-1,-3,0,-8,-5,-1,1,0,0.37
75,0,-1,0,6,-2,1,-2,-2,0.375
76,0,-1,-1,1,7,-1,0,-2,0.38
77,-2,-2,-4,2,0,1,-1,-1,0.385
78,-1,-1,-3,-1,0,-2,0,-1,0.39
79,0,-1,-1,-2,-4,-2,0,1,0.395
80,0,-1,0,2,0,-1,0,1,0.4
81,-1,-1,-2,-21,-6,-1,-3,-1,0.405
82,-1,1,-2,12,6,0,0,-1,0.41000000000000003
83,-2,-3,0,-2,-3,0,0,-2,0.41500000000000004
84,-2,0,-3,1,-1,0,-1,-1,0.42
85,-2,-1,-1,3,-2,-1,-1,0,0.425
86,-1,0,-1,-12,-2,0,-1,1,0.43
87,-3,2,-1,2,-2,-1,-1,0,0.435
88,0,-2,-3,-6,-7,-1,-1,0,0.44
89,-2,-2,-2,9,7,-1,-2,-1,0.445
90,0,-1,-1,-3,-3,1,1,-1,0.45
91,-1,-2,-1,3,2,-1,0,0,0.455
92,-1,-1,0,-4,1,1,-1,-1,0.46
93,0,-1,1,11,-1,-2,-1,-1,0.465
94,0,-1,1,-5,3,1,-2,0,0.47000000000000003
95,1,-2,-2,-11,-1,0,0,0,0.47500000000000003
96,1,0,-1,10,2,-1,0,0,0.48
97,0,0,-1,3,-1,-1,2,0,0.485
98,0,-1,-1,2,-1,-3,-1,-1,0.49
99,-2,0,0,3,1,-3,-2,-4,0.495
100,-1,0,-1,-23,-8,-2,-2,0,0.5
101,-1,0,-2,7,1,-1,0,-1,0.505
102,-3,1,-1,1,-2,-1,-1,-1,0.51
103,0,-1,-1,1,-5,-2,0,0,0.515
104,0,0,-2,-7,-6,0,0,-2,0.52
105,-1,-2,0,1,10,2,-2,-1,0.525
106,0,-2,-3,-3,-3,1,0,-1,0.53
107,-3,-1,-1,-6,-7,-2,0,0,0.535
108,-2,1,-1,6,10,1,-1,0,0.54
109,1,-1,0,-5,-3,0,-1,0,0.545
110,0,0,-1,0,-3,-2,-2,0,0.55
111,0,0,1,-3,-5,-1,0,-1,0.555
112,-2,-3,0,6,4,-3,0,-1,0.56
113,-1,-1,0,1,-5,-1,1,0,0.5650000000000001
114,-2,-1,-1,-2,-1,-1,-1,-2,0.5700000000000001
115,0,-1,-1,-1,2,1,-3,-1,0.5750000000000001
116,0,0,-1,-4,-4,0,-2,-1,0.58
117,0,0,0,-6,3,0,-2,-2,0.585
118,-2,-1,-1,10,1,1,0,-1,0.59
119,0,-2,-1,-3,2,0,-1,-1,0.595
120,1,-2,0,-7,-2,-1,-1,-1,0.6
121,0,-2,0,-2,-5,-3,-2,1,0.605
122,0,0,-1,1,4,0,-3,-2,0.61
123,-2,0,-2,-3,1,-2,-1,-2,0.615
124,-1,-3,0,3,-3,-1,0,0,0.62
125,0,0,-2,-1,-4,-1,0,1,0.625
126,-1,-1,1,-4,-3,0,0,0,0.63
127,0,0,-2,0,0,2,1,-1,0.635
128,1,-1,-1,2,0,-1,-1,-2,0.64
129,-1,0,1,4,2,-1,-2,-2,0.645
130,-2,-2,0,-5,-5,0,0,0,0.65
131,1,-1,-2,3,0,-1,-2,-3,0.655
132,0,0,-2,1,-2,-2,0,0,0.66
133,-1,-1,-2,-2,2,1,-1,0,0.665
134,2,0,-1,-2,-7,-3,-1,0,0.67
135,-2,0,-1,3,2,1,-1,0,0.675
136,0,0,0,-26,-12,-1,-3,-2,0.68
137,0,-1,-1,32,7,-1,-1,-1,0.685
138,-2,-1,0,-5,-1,-1,1,-1,0.6900000000000001
139,0,-1,0,2,-1,0,0,0,0.6950000000000001
140,-1,-3,-1,-4,-3,-1,1,-1,0.7000000000000001
141,-3,-1,-1,-9,-1,-1,-1,-1,0.705
142,0,-1,0,0,-5,-2,-1,-1,0.71
143,1,-2,-1,-3,-2,1,1,1,0.715
144,-2,-2,0,10,5,0,-2,-2,0.72
145,-1,-2,-1,-8,-2,-1,0,-4,0.725
146,-2,-1,-2,5,4,-1,-1,-1,0.73
147,-2,-1,0,-6,-1,0,-1,-2,0.735
148,1,0,0,5,0,-2,0,-1,0.74
149,-1,0,0,-5,-1,-1,-1,-1,0.745
150,0,-2,-1,-8,-1,-2,-2,-2,0.75
151,-1,0,-1,6,-4,-2,-1,-1,0.755
152,-1,0,0,2,-2,2,0,-1,0.76
153,-1,-1,-1,-5,-1,0,0,-2,0.765
154,0,-1,0,5,2,-2,-1,-2,0.77
155,-2,0,0,-5,-2,-1,-1,-1,0.775
156,0,0,-1,3,4,1,0,0,0.78
157,1,-2,-1,-3,-2,0,-1,-2,0.785
158,0,0,0,-26,-5,1,-1,0,0.79
159,0,0,0,38,7,-2,-1,1,0.795
160,-1,-1,-1,1,0,-1,-1,-1,0.8
161,0,-2,-1,-8,5,1,-1,1,0.805
162,-1,0,-2,4,4,-1,0,0,0.81
163,-3,-2,-2,-10,-4,-1,-2,-2,0.8150000000000001
164,0,-2,1,2,-1,0,-2,0,0.8200000000000001
165,-2,2,-2,3,-4,-2,0,-1,0.8250000000000001
166,-1,-1,-1,3,0,-2,-1,-1,0.8300000000000001
167,0,1,1,-8,-3,0,-1,0,0.835
168,-2,0,-1,2,-3,-2,-2,-1,0.84
169,-2,-2,0,-6,-5,1,-2,0,0.845
170,0,0,-1,-1,-5,1,0,-2,0.85
171,0,-1,-1,-2,7,0,-1,-1,0.855
172,-2,-2,-1,-3,-3,-2,1,0,0.86
173,0,1,-2,1,-3,-1,0,1,0.865
174,-1,0,-2,2,-1,-1,-1,-1,0.87
175,0,0,1,-3,-2,-1,-1,0,0.875
176,-1,0,-2,-6,-1,-2,0,1,0.88
177,0,-1,0,7,-2,-2,0,1,0.885
178,-2,-2,0,-1,1,0,-2,0,0.89
179,0,0,-1,4,-2,-3,-1,-2,0.895
180,-1,0,-1,1,3,0,0,-1,0.9
181,0,-2,1,-3,-1,0,1,-1,0.905
182,0,-1,-1,4,0,1,-1,0,0.91
183,-1,1,-1,-12,-4,0,-1,0,0.915
184,0,0,-2,-1,0,0,0,-2,0.92
185,-1,1,-2,3,-2,-1,-2,-1,0.925
186,-1,0,-1,-4,-1,0,0,0,0.93
187,0,-1,-1,1,-2,-1,-1,-1,0.935
188,0,-1,0,-2,3,0,-2,-1,0.9400000000000001
189,-1,-1,-1,-11,-1,0,0,-1,0.9450000000000001
190,0,0,-1,11,6,-1,1,-2,0.9500000000000001
191,1,-1,-3,-2,-2,-1,0,-1,0.9550000000000001
192,0,0,0,5,-2,1,-2,-1,0.96
193,-1,-1,0,-2,-1,-2,-3,-1,0.965
194,-1,-2,-1,0,2,-1,-2,0,0.97
195,1,-2,1,-2,0,-1,-1,0,0.975
196,-2,0,-1,-3,-2,-3,-1,1,0.98
197,-2,-1,-1,-1,0,-1,-2,-2,0.985
198,-1,-1,-2,-6,-4,-1,-1,0,0.99
199,0,-1,0,3,-1,0,-3,0,0.995
200,0,-2,-1,-16,-10,-2,-1,-1,1.0
201,-1,1,2,38,9,0,0,0,1.0050000000000001
202,-2,-1,-2,-10,-8,-2,0,0,1.01
203,-1,1,1,-7,5,-1,0,1,1.0150000000000001
204,-1,-2,0,1,-3,-1,-1,-2,1.02
205,-3,-1,-1,-5,-4,-2,0,-2,1.025
206,0,-2,-1,3,0,-1,-1,-2,1.03
207,-1,-3,-2,-3,-4,-2,-1,-2,1.035
208,-2,0,-1,-1,2,2,0,-2,1.04
209,0,-2,0,-9,-1,-1,-2,0,1.045
210,-2,-1,1,2,1,-2,-1,1,1.05
211,-1,-1,0,-5,-5,0,-1,0,1.055
212,1,0,-2,3,2,-1,-1,-2,1.06
213,-1,0,1,0,-2,1,1,-2,1.065
214,-1,-1,-1,2,1,-2,-2,-2,1.07
215,0,-2,-1,-1,1,1,0,-2,1.075
216,-1,1,1,0,-3,-1,-1,1,1.08
217,0,-1,-2,3,10,2,-1,0,1.085
218,0,-1,0,-1,3,1,0,0,1.09
219,-1,-2,0,-22,-9,-2,-1,-1,1.095
220,-2,-4,-3,18,4,-1,1,-1,1.1
221,-1,0,-1,-4,2,-1,-2,0,1.105
222,-1,0,-2,4,-1,0,-1,-1,1.11
223,-1,0,-3,-3,0,0,0,-3,1.115
224,0,0,-1,0,-4,-3,-1,0,1.12
225,-1,-1,-4,-12,-6,0,0,-1,1.125
226,0,0,0,1,-1,0,0,0,1.1300000000000001
227,-2,-1,0,7,0,-2,1,1,1.135
228,0,0,-2,-3,-7,-1,-1,-2,1.1400000000000001
229,-2,-1,1,6,4,-2,1,-2,1.145
230,-1,-2,-3,-11,-6,-2,-2,0,1.1500000000000001
231,0,-1,-1,0,-1,1,-2,0,1.155
232,-2,0,-1,3,2,1,-1,1,1.16
233,0,-2,-1,-10,-6,-2,-1,0,1.165
234,-1,0,1,2,-5,0,0,-2,1.17
235,1,-2,0,7,0,-1,-1,-1,1.175
236,0,0,-1,-23,-5,-1,-1,1,1.18
237,1,0,-1,25,3,2,-1,0,1.185
238,-2,-4,-1,1,-2,0,1,-1,1.19
239,-1,0,0,1,-3,-1,-2,-4,1.195
240,-1,-1,2,4,3,-1,-2,0,1.2
241,1,-1,-3,-14,0,-1,-1,0,1.205
242,-1,2,0,-2,0,0,1,0,1.21
243,-1,0,0,3,2,-1,-2,0,1.215
244,-1,-1,-1,-2,1,-1,-1,-2,1.22
245,-2,-1,-2,-7,-4,-2,0,-1,1.225
246,-2,0,1,6,2,0,-1,-1,1.23
247,-3,0,-1,-2,1,1,-1,-1,1.235
248,0,-1,-1,10,-5,-1,-1,-1,1.24
249,-2,-1,-1,-10,-1,-2,1,-2,1.245
250,0,-2,-1,8,5,0,0,0,1.25
251,0,0,-1,-5,-2,-1,-2,0,1.2550000000000001
252,1,-2,1,6,2,-1,0,0,1.26
253,-2,-1,-1,-2,1,2,-2,-1,1.2650000000000001
254,-1,-1,-2,-19,-11,-3,-2,-1,1.27
255,0,-1,-2,14,14,0,0,-1,1.2750000000000001
256,-1,0,-1,-6,1,1,-1,-2,1.28
257,-1,-1,0,8,-2,-1,-2,-2,1.285
258,1,-1,-1,-5,3,1,1,1,1.29
259,0,1,0,-1,-2,-1,-2,-1,1.295
260,0,0,0,2,-1,-1,0,-1,1.3
261,-1,-1,-2,-9,-5,-2,-2,0,1.305
262,-2,-1,-1,2,-3,-1,-1,0,1.31
263,-2,-1,0,-1,-7,-1,-1,-1,1.315
264,-1,-2,-1,2,3,-1,1,-1,1.32
265,0,0,-1,-4,-5,-1,-1,-1,1.325
266,0,-2,-1,8,6,1,-1,-3,1.33
267,-2,-3,-2,-1,-3,-3,0,-1,1.335
268,-2,-2,-1,-7,-4,0,-3,-1,1.34
269,0,-2,1,3,9,1,2,0,1.345
270,-1,-2,-1,4,-2,-2,-3,-1,1.35
271,-1,-1,-1,-8,1,1,0,-1,1.355
272,0,-2,0,1,1,-1,-1,1,1.36
273,-1,-1,-2,-4,-6,-2,-2,0,1.365
274,1,0,0,1,-2,-1,0,-1,1.37
275,-1,0,0,-6,-4,-1,-1,-3,1.375
276,1,-1,-1,6,-1,0,0,0,1.3800000000000001
277,-3,-1,-2,5,-2,1,1,-2,1.385
278,-1,-1,-1,-4,0,-1,0,0,1.3900000000000001
279,0,-3,-1,-5,-3,-1,-1,0,1.395
280,-1,-2,0,-2,-1,-2,-1,-1,1.4000000000000001
281,1,-1,0,1,-6,1,-1,-1,1.405
282,0,0,-1,-3,4,0,0,-1,1.41
283,0,-1,-2,4,-2,-3,-1,1,1.415
284,-1,0,-2,1,10,-2,-2,-1,1.42
285,1,-2,-1,-4,0,-2,-3,0,1.425
286,0,1,1,-1,-3,0,-1,1,1.43
287,0,-2,0,-5,1,0,0,1,1.435
288,0,-3,-2,6,-2,-2,-1,-1,1.44
289,-1,-1,-2,-4,-5,-2,-2,0,1.445
290,-1,-2,-2,-2,1,-1,-2,-1,1.45
291,-1,1,0,6,1,-1,-3,-2,1.455
292,-2,1,0,-5,-3,1,-1,-1,1.46
293,-1,-2,-1,-3,-6,-3,-2,-1,1.465
294,0,-2,0,2,-2,-1,0,0,1.47
295,0,-1,-3,-1,1,-1,-1,0,1.475
296,1,-1,-1,-3,0,-1,-1,-1,1.48
297,1,0,-1,-14,-3,-2,0,-1,1.485
298,-1,0,-2,8,-1,-2,-2,-1,1.49
299,0,0,-1,3,-1,0,-1,-2,1.495
300,0,-1,-1,2,-1,1,0,0,1.5
301,-1,0,1,-2,-1,-1,-2,1,1.5050000000000001
302,-2,0,0,-6,-2,-1,0,0,1.51
303,0,-2,-1,-1,-2,0,-1,0,1.5150000000000001
304,-1,0,-1,-5,-7,-1,0,-1,1.52
305,0,0,1,6,-3,-2,-1,-2,1.5250000000000001
306,0,-1,-1,1,-2,1,0,-3,1.53
307,-1,-2,-1,-2,-5,-1,-2,-1,1.5350000000000001
308,-2,-1,-2,-2,-1,-1,-1,0,1.54
309,-2,-1,0,1,1,0,-3,-1,1.545
310,-1,1,-1,2,1,-1,-2,-2,1.55
311,-1,0,0,-2,-2,-1,-1,0,1.555
312,-1,-1,-1,-2,0,-1,-1,-1,1.56
313,0,-3,0,3,3,0,1,-1,1.565
314,0,0,-1,-3,-3,0,-1,-2,1.57
315,0,-2,-1,1,2,-1,0,-2,1.575
316,0,-1,-1,0,0,-4,0,0,1.58
317,-1,0,-1,2,1,-1,-2,0,1.585
318,-2,-1,-2,-2,-4,-1,-3,-3,1.59
319,0,-1,-3,-1,0,-2,0,0,1.595
320,2,0,-2,1,-1,0,0,-1,1.6
321,0,-1,-2,-3,-3,0,-1,0,1.605
322,-1,-2,-4,-3,-5,0,-2,1,1.61
323,1,0,0,3,10,0,1,-1,1.615
324,0,-2,0,4,3,0,0,-1,1.62
325,-3,0,1,-6,0,1,-1,-2,1.625
326,0,-3,-1,9,1,-2,-1,0,1.6300000000000001
327,-1,0,-2,1,-3,0,-3,-3,1.635
328,-1,-1,-2,-4,-4,0,-1,0,1.6400000000000001
329,2,0,0,2,1,-4,0,-1,1.645
330,-3,-1,-1,-4,-1,1,-1,-1,1.6500000000000001
331,-2,2,0,-27,-5,-1,0,-2,1.655
332,0,-1,-1,34,5,2,-1,-1,1.6600000000000001
333,-3,0,-3,-7,-2,0,-2,-2,1.665
334,1,0,0,-1,-2,0,0,1,1.67
335,-1,-1,-1,1,-2,-2,-1,0,1.675
336,-2,1,-2,-14,-2,-1,-1,-2,1.68
337,0,-1,-1,3,0,-1,-1,-1,1.685
338,0,-1,-1,3,3,-1,-1,-1,1.69
339,0,-1,-1,-7,-10,-2,0,1,1.695
340,0,-1,1,-1,5,-1,1,0,1.7
341,0,-1,-1,2,-3,1,-2,-1,1.705
342,0,1,1,-5,-1,-1,0,1,1.71
343,-2,-3,-1,6,3,-1,0,0,1.715
344,-1,0,-1,-5,-4,-2,-1,-1,1.72
345,-1,0,0,-1,-1,0,-1,-1,1.725
346,0,0,-1,-9,-1,0,0,-1,1.73
347,0,-3,-1,13,3,0,-1,0,1.735
348,-3,0,0,-7,-2,0,-1,1,1.74
349,-1,0,-1,-22,-3,-1,1,-1,1.745
350,-1,0,-1,25,0,-1,-2,-1,1.75
351,-2,0,-1,4,3,-2,-1,-2,1.7550000000000001
352,0,-1,-2,-5,-2,0,-2,-3,1.76
353,-1,0,0,1,-4,-2,-1,0,1.7650000000000001
354,-2,-1,-3,-7,-1,-1,-2,0,1.77
355,0,0,-1,-4,-3,-2,1,-1,1.7750000000000001
356,-1,-2,1,-1,-1,-2,-2,0,1.78
357,-1,-2,-2,8,-3,0,-1,-1,1.7850000000000001
358,-1,-1,-2,-5,7,0,0,0,1.79
359,-1,0,0,4,-2,0,-1,-1,1.795
360,0,0,-1,-6,-2,-2,-1,0,1.8
361,-1,-2,-2,3,-4,-2,-2,-2,1.805
362,0,-2,-1,0,0,0,0,0,1.81
363,-1,-1,0,-4,0,1,-2,-1,1.815
364,-2,-1,0,1,-1,-2,-1,-1,1.82
365,0,0,0,8,2,-1,-1,2,1.825
366,0,0,-3,-9,-6,-1,-1,-3,1.83
367,0,0,-1,0,8,-1,1,-1,1.835
368,0,0,-1,-7,-3,-2,0,1,1.84
369,-1,-1,0,20,-1,0,0,-1,1.845
370,0,0,0,-4,-4,-2,-1,1,1.85
371,0,-1,-1,-1,-6,-2,-1,-1,1.855
372,-1,0,-2,1,0,1,-1,-2,1.86
373,-3,-2,0,-10,-1,-1,-2,0,1.865
374,-1,-2,1,-4,-3,-2,0,-1,1.87
375,-2,-1,-2,-1,0,1,0,-1,1.875
376,-2,-1,0,-7,-6,-2,-1,-2,1.8800000000000001
377,-1,0,-1,-2,3,-1,0,-2,1.885
378,0,-1,-1,1,-2,-1,-2,-1,1.8900000000000001
379,-1,0,-1,2,0,-1,-2,0,1.895
380,0,-2,-1,5,-2,1,-1,-1,1.9000000000000001
381,0,-1,-1,-8,5,1,-1,-1,1.905
382,-2,-1,-4,0,-2,-2,-1,-3,1.9100000000000001
383,-1,-1,-1,-1,4,0,-1,0,1.915
384,-1,0,-1,5,-1,-2,-1,0,1.92
385,-1,-1,-1,2,-2,-1,0,0,1.925
386,0,-3,-2,-3,0,-2,-2,-1,1.93
387,-1,0,-1,0,-1,1,0,0,1.935
388,-1,-1,-2,-3,-2,-2,-2,0,1.94
389,-2,0,-1,0,3,1,0,0,1.945
390,0,-1,-3,-6,-5,-1,1,0,1.95
391,-3,-1,0,5,1,-1,-1,-1,1.955
392,0,0,-2,-19,0,-1,0,-1,1.96
393,0,-1,-1,29,4,0,-3,-1,1.965
394,0,0,0,2,2,0,0,-1,1.97
395,1,-2,-1,0,-5,-2,-2,-1,1.975
396,-1,0,1,-2,2,-1,0,-1,1.98
397,0,-1,-1,-14,-5,0,1,-2,1.985
398,-1,0,1,1,0,-1,-1,0,1.99
399,-1,-2,-2,4,0,-1,-1,-1,1.995
400,-1,-1,-2,-4,-5,-1,-1,-2,2.0
401,-1,-1,-1,-4,-1,0,-1,-1,2.005
402,0,-1,-2,3,0,-1,1,0,2.0100000000000002
403,0,2,0,-9,-2,-2,0,0,2.015
404,-1,-1,1,3,-2,-2,0,-1,2.02
405,-3,-2,-1,-5,-2,-1,-1,0,2.025
406,-2,-1,0,1,-1,1,-1,-1,2.0300000000000002
407,-1,0,-1,-6,3,1,0,-1,2.035
408,-2,-3,-3,1,-4,-2,-1,-1,2.04
409,1,1,0,-2,-3,-3,-1,-1,2.045
410,-1,-1,0,-3,3,0,-1,0,2.05
411,-1,0,-2,-1,-4,-3,-1,-1,2.055
412,0,-2,0,1,-2,-2,0,1,2.06
413,0,-1,-3,-8,-6,0,-1,-1,2.065
414,-2,0,0,8,1,0,0,0,2.07
415,-2,-3,1,-2,-4,-2,0,0,2.075
416,0,0,0,3,2,1,0,-1,2.08
417,0,-1,-1,-9,-1,-2,-1,0,2.085
418,-1,-1,-1,-9,-2,-1,-1,-1,2.09
419,0,0,-1,4,-3,0,-1,-1,2.095
420,0,-1,-1,-5,1,-3,-1,0,2.1
421,0,-1,-1,0,2,-1,-1,-1,2.105
422,-1,0,0,-2,-3,-2,-1,-1,2.11
423,-2,-3,-1,2,-3,-2,-3,-2,2.115
424,-2,0,0,8,2,0,-2,-1,2.12
425,1,0,0,-1,-2,-1,-1,0,2.125
426,-3,-3,-1,-3,-6,-1,-1,-1,2.13
427,0,0,-2,-2,-2,-2,0,-1,2.1350000000000002
428,0,0,0,2,-1,2,0,0,2.14
429,-1,-2,-3,1,0,1,-1,1,2.145
430,-1,0,-1,-5,-2,-2,-1,-2,2.15
431,0,-1,1,-8,-3,-1,-1,0,2.1550000000000002
432,-1,-3,0,7,2,2,-1,0,2.16
433,-2,0,-1,-4,-1,0,1,-2,2.165
434,1,0,-3,9,0,0,0,-2,2.17
435,-1,-2,0,1,-1,0,1,1,2.1750000000000003
436,0,0,-1,-3,3,-1,-1,-1,2.18
437,-1,-1,1,5,-1,0,-2,-1,2.185
438,-2,-3,-2,-8,2,-1,-1,-2,2.19
439,0,-1,0,0,-2,-1,-1,-1,2.195
440,1,-1,-3,-3,-7,-1,-1,-2,2.2
441,-2,-1,-1,-8,-1,-1,-1,0,2.205
442,0,1,-2,1,2,1,0,0,2.21
443,-2,0,-1,1,2,1,-1,0,2.215
444,1,0,-2,-5,-5,0,-1,-1,2.22
445,0,-1,-2,1,-1,-2,-3,-1,2.225
446,-1,-1,0,2,1,-2,0,0,2.23
447,-1,-1,0,1,-2,-3,-1,-1,2.235
448,-2,-1,-1,-1,1,-1,-1,-1,2.24
449,-2,-1,1,7,2,1,-1,-2,2.245
450,2,-2,-1,-5,3,-1,-1,1,2.25
451,-2,-1,-1,-11,-2,1,0,0,2.255
452,-2,0,0,5,0,-2,-1,0,2.2600000000000002
453,-1,-1,-3,-1,0,-4,-1,-1,2.265
454,-2,1,-1,1,-11,-1,0,-2,2.27
455,0,0,-1,0,4,1,-1,0,2.275
456,-1,-2,-1,-9,0,0,0,0,2.2800000000000002
457,0,-2,-1,3,0,-1,-2,-1,2.285
458,-3,1,1,-5,-4,-1,-1,0,2.29
459,0,-1,-2,-4,-6,-2,0,0,2.295
460,0,-1,0,0,-2,-2,1,-1,2.3000000000000003
461,-1,1,-1,0,-2,-1,-2,0,2.305
462,-2,-2,-2,-3,2,1,-2,-3,2.31
463,-2,-1,-1,3,2,0,-2,-2,2.315
464,-1,0,-1,2,2,0,-1,-1,2.32
465,0,-1,0,-4,-2,1,1,-1,2.325
466,1,0,-1,1,2,0,-1,-1,2.33
467,-2,0,-2,5,3,-1,-1,-2,2.335
468,0,-1,-2,-5,-5,-1,-1,0,2.34
469,-2,1,0,0,0,-1,0,-1,2.345
470,-1,1,-1,-4,0,0,-1,1,2.35
471,0,-2,-1,6,2,-2,0,-1,2.355
472,-3,-2,-2,1,1,-2,-1,-1,2.36
473,-2,-2,-1,-3,-2,0,-2,-2,2.365
474,-2,-1,-2,8,1,0,0,2,2.37
475,-1,1,0,-13,-4,0,-1,-2,2.375
476,-2,-1,0,-2,-2,-1,-1,-2,2.38
477,-3,0,-1,4,-2,-1,1,0,2.3850000000000002
478,0,-1,-3,-11,-2,-1,1,-3,2.39
479,-1,-1,0,3,1,-1,0,0,2.395
480,-1,-2,-1,0,-1,-1,0,0,2.4
481,-2,0,-1,-2,0,-1,-1,-1,2.4050000000000002
482,0,-2,1,0,0,0,-2,0,2.41
483,0,-1,-1,0,-6,-2,0,0,2.415
484,0,1,0,4,9,1,-1,-2,2.42
485,0,-1,0,-7,0,1,0,1,2.4250000000000003
486,1,-1,-1,3,-1,1,-1,-2,2.43
487,0,-1,-3,2,-2,-1,-2,-1,2.435
488,-1,1,-2,-6,1,0,-2,0,2.44
489,2,0,0,-5,-7,-2,0,-1,2.445
490,-2,0,-1,6,0,-1,-1,-2,2.45
491,-1,-1,-1,-3,-1,2,0,-1,2.455
492,-2,-1,-1,9,1,-3,-1,-1,2.46
493,-2,-2,-1,-7,0,-1,-2,-2,2.465
494,1,-1,0,-3,-1,-1,0,0,2.47
495,-1,-2,1,9,-2,-1,-1,-1,2.475
496,0,-1,-2,-14,-1,0,-1,1,2.48
497,0,-2,-2,3,3,-1,0,-1,2.485
498,0,0,0,-3,-6,-2,-1,0,2.49
499,-1,-1,-2,0,3,-1,0,-1,2.495
500,-1,1,-1,-1,0,0,-1,-1,2.5
501,0,-1,-1,2,0,0,-2,-1,2.505
502,0,-1,-3,5,-1,-1,0,-1,2.5100000000000002
503,0,0,0,-2,-2,-1,-1,1,2.515
504,0,0,0,-1,-1,1,1,-3,2.52
505,-1,0,0,2,2,2,0,0,2.525
506,-1,1,-1,-6,-2,-1,-2,0,2.5300000000000002
507,-2,-1,-4,-3,-4,-2,-1,0,2.535
508,0,-1,-1,-10,-4,-2,-1,-1,2.54
509,0,0,-3,15,-1,0,-1,-1,2.545
510,-1,0,-2,1,5,1,-1,-1,2.5500000000000003
511,-1,-2,0,-4,-7,0,-2,-3,2.555
512,-1,-1,-1,5,9,-2,0,-1,2.56
513,-2,-1,-1,-8,-1,-1,0,0,2.565
514,-1,-2,0,-4,4,1,-4,-2,2.57
515,0,0,-1,3,-3,-2,0,1,2.575
516,-1,-1,-2,-4,-7,-2,-1,-2,2.58
517,0,0,0,5,-4,-2,0,-1,2.585
518,0,-3,-1,-8,3,0,1,-1,2.59
519,0,0,-1,-1,3,0,-1,0,2.595
520,-1,-3,0,1,-4,2,-2,-1,2.6
521,0,-2,0,2,4,1,-1,-2,2.605
522,0,0,-1,1,-5,-1,-1,0,2.61
523,-2,1,-1,-2,2,0,-1,-2,2.615
524,0,-1,-1,3,-3,0,0,-1,2.62
525,-1,-1,-2,-2,2,-1,-1,-1,2.625
526,-2,0,-1,-1,-3,-2,1,-3,2.63
527,-1,-1,-1,-4,-5,0,-1,0,2.6350000000000002
528,0,-1,0,-3,-1,-3,-1,-2,2.64
529,0,0,-1,-2,-2,-1,-1,2,2.645
530,-1,1,0,1,-6,-3,-1,0,2.65
531,0,0,0,4,6,1,-1,0,2.6550000000000002
532,-2,0,-1,-5,-2,0,0,-1,2.66
533,0,0,0,-5,-8,-2,0,0,2.665
534,-1,-2,-3,-3,0,0,1,-1,2.67
535,-2,-2,-2,-3,-2,0,-1,-3,2.6750000000000003
536,-1,-1,-2,0,-2,-2,-1,-3,2.68
537,-2,-2,0,1,0,1,-1,-1,2.685
538,-1,-1,-1,1,0,1,1,1,2.69
539,1,-1,1,0,-1,-2,-1,-1,2.695
540,0,-1,0,1,0,0,0,1,2.7
541,-1,-1,-1,0,0,-1,-1,-3,2.705
542,0,-1,2,0,-2,0,-2,0,2.71
543,-1,-1,-1,3,-8,-2,-1,-1,2.715
544,0,-1,-1,-2,13,1,0,-1,2.72
545,-2,0,-2,-1,0,-1,-1,-1,2.725
546,-1,-1,-1,-1,-2,-2,1,0,2.73
547,-1,-1,-1,-3,0,-1,-1,1,2.735
548,0,0,-1,2,-5,0,-1,2,2.74
549,0,-3,-3,-26,-5,0,-2,0,2.745
550,-1,0,-1,25,8,-1,-2,0,2.75
551,-1,-1,-1,4,2,-1,0,-2,2.755
552,-1,1,-1,1,-6,-2,-1,-1,2.7600000000000002
553,-1,-2,-2,-7,3,0,-1,-2,2.765
554,-1,-2,-2,-5,-3,0,-1,-1,2.77
555,-1,0,0,-5,0,0,0,0,2.775
556,-1,-1,0,1,-3,-1,-1,0,2.7800000000000002
557,1,1,1,-3,-8,-2,-1,-2,2.785
558,0,0,1,6,7,-2,-1,-2,2.79
559,0,-3,-2,2,0,-1,-1,0,2.795
560,-1,0,-1,2,-3,0,0,0,2.8000000000000003
561,-2,0,-1,-1,-1,-1,1,0,2.805
562,0,-1,-2,-6,-2,0,-1,0,2.81
563,1,1,-1,-10,-3,0,0,0,2.815
564,-1,-3,-2,4,-2,-3,-2,-1,2.82
565,-2,-2,-1,6,3,0,-2,-1,2.825
566,0,1,0,-4,-4,-2,0,-1,2.83
567,-2,-2,-1,-3,2,-1,0,-2,2.835
568,0,0,0,-2,-2,1,-2,-1,2.84
569,0,-1,-1,6,4,-1,1,1,2.845
570,-2,-1,-1,-28,-10,-2,-1,-1,2.85
571,-1,-2,1,36,10,-1,-2,-2,2.855
572,-2,0,1,-4,-11,-1,0,-2,2.86
573,-1,0,0,9,14,2,-2,-1,2.865
574,0,-1,-1,2,2,-1,-1,0,2.87
575,-2,0,-2,-12,-6,1,-1,0,2.875
576,-2,-3,-1,-4,1,-2,-1,-1,2.88
577,0,-1,1,-2,-5,-2,1,-2,2.8850000000000002
578,-3,0,-2,5,0,-1,0,-1,2.89
579,-2,-1,-3,-6,-3,-1,-1,-2,2.895
580,0,-2,-1,5,3,1,0,2,2.9
581,-2,-1,-1,-5,-6,-2,0,0,2.9050000000000002
582,-1,-3,-1,1,2,0,-1,0,2.91
583,0,-1,0,-5,-4,0,-2,1,2.915
584,-1,0,-1,0,-1,-2,0,-1,2.92
585,0,0,0,3,1,-1,-2,1,2.9250000000000003
586,0,-1,-1,-2,-5,-2,-1,0,2.93
587,0,-2,-1,2,2,0,0,-2,2.935
588,-2,-2,-1,-3,-1,-1,-2,-1,2.94
589,-1,0,-2,-1,-2,0,0,-2,2.945
590,0,-1,-1,2,-7,-2,-1,-2,2.95
591,-1,0,-1,-9,6,0,-1,0,2.955
592,-1,0,0,-16,-6,-2,-1,-2,2.96
593,-1,-2,0,23,2,0,-1,-2,2.965
594,-1,1,-1,-1,-1,-1,-2,-1,2.97
595,0,1,-1,-2,-5,-1,1,0,2.975
596,-1,-1,-2,3,0,0,1,0,2.98
597,-1,-2,0,-8,-3,0,-2,1,2.985
598,1,1,0,-2,-2,0,1,0,2.99
599,-2,0,-2,5,-2,-3,-1,0,2.995
600,-1,-1,-2,4,3,0,0,-2,3.0
601,-2,-1,-1,-6,-6,-2,0,-1,3.005
602,1,-3,-1,3,2,3,-1,-2,3.0100000000000002
603,1,0,2,-7,-1,-1,0,0,3.015
604,-2,0,0,-1,-3,-1,-1,-1,3.02
605,-1,-3,0,-2,-4,-1,-1,-2,3.025
606,0,-1,0,3,10,-2,-1,0,3.0300000000000002
607,0,-1,0,-4,0,-1,0,-1,3.035
608,1,-2,1,3,2,-1,-1,-2,3.04
609,-1,-1,-1,-2,-3,-2,-2,-1,3.045
610,-2,0,0,-4,-7,-1,0,-1,3.0500000000000003
611,-2,-2,-1,-2,-1,0,0,-1,3.055
612,1,-1,-1,1,-1,-1,0,-1,3.06
613,-1,-1,0,1,3,-1,2,1,3.065
614,-2,-2,-2,-1,-2,-1,-2,-2,3.0700000000000003
615,0,-1,-1,-1,-5,-2,-2,-1,3.075
616,1,-2,0,-2,-3,-1,-1,-1,3.08
617,0,0,-2,-1,2,0,0,-3,3.085
618,1,-2,0,0,-6,-3,-1,1,3.09
619,0,1,0,-19,-3,2,0,0,3.095
620,-1,1,0,17,3,1,0,-1,3.1
621,0,1,0,1,-4,-1,-1,-1,3.105
622,-3,-1,-2,-5,-1,-1,0,-1,3.11
623,2,-1,-1,-3,6,1,0,-1,3.115
624,0,-1,-2,-9,-4,-2,-2,0,3.12
625,0,1,-1,2,2,0,-1,1,3.125
626,-1,-1,-1,-4,-3,0,1,-3,3.13
627,-1,0,-1,5,-3,-3,1,0,3.1350000000000002
628,0,-1,-2,-6,0,-3,-1,1,3.14
629,0,0,-2,7,2,0,0,-1,3.145
630,0,-1,0,-1,0,-1,-2,-1,3.15
631,1,-1,1,2,0,1,0,-1,3.1550000000000002
632,-1,0,0,0,1,-1,-1,0,3.16
633,-2,-1,1,-3,-3,-1,-2,0,3.165
634,1,-1,-2,0,0,-1,-1,0,3.17
635,-2,-3,-3,5,0,-1,-2,-3,3.1750000000000003
636,-2,-2,-1,-2,1,-1,0,-1,3.18
637,-1,-1,0,-5,-1,-2,-3,0,3.185
638,0,0,-1,1,-1,0,0,1,3.19
639,-2,-1,-1,3,-2,-1,-1,0,3.1950000000000003
640,-1,-2,-2,-3,-10,-3,-1,-2,3.2
641,-1,-1,-1,-2,7,0,2,-1,3.205
642,-1,-2,0,2,0,-1,-1,-1,3.21
643,-3,1,-1,0,-1,0,-1,-1,3.215
644,-2,1,0,-22,-2,0,0,1,3.22
645,-1,-1,1,24,1,-2,0,0,3.225
646,-1,-3,-1,4,2,0,-2,0,3.23
647,-1,-1,0,2,-3,-1,0,0,3.235
648,0,-1,-2,2,2,0,-2,-3,3.24
649,0,-2,-3,-14,-7,-3,0,0,3.245
650,0,1,-1,-4,-1,-2,0,-1,3.25
651,0,-2,-1,-1,0,-4,-2,-1,3.255
652,-1,0,1,5,1,1,-2,-1,3.2600000000000002
653,-1,-1,-1,-4,-4,-2,0,-2,3.265
654,-2,-1,-2,-4,1,0,-1,0,3.27
655,0,0,-2,-6,-3,-1,-1,-2,3.275
656,-1,-1,-1,6,5,-3,-1,1,3.2800000000000002
657,-1,-1,-2,-3,1,1,-1,0,3.285
658,-1,-1,1,0,-2,-1,0,-1,3.29
659,-1,-1,0,-4,-4,-2,-2,-1,3.295
660,0,-2,-2,10,10,1,-1,-2,3.3000000000000003
661,0,-1,0,2,-5,-3,-3,-1,3.305
662,-1,-1,-3,-4,0,0,1,-1,3.31
663,0,0,-2,-2,1,0,-1,0,3.315
664,-1,0,-1,-1,-5,-1,1,1,3.3200000000000003
665,-1,-1,-1,-7,-1,-1,-1,-1,3.325
666,0,-1,-2,0,-1,-2,0,0,3.33
667,-1,-1,-1,-1,-1,-2,-1,0,3.335
668,0,-1,1,-6,-3,0,1,-3,3.34
669,-1,-1,-1,1,1,0,-1,-1,3.345
670,1,0,0,-3,-2,-1,-1,-1,3.35
671,0,-2,0,8,2,0,-1,-1,3.355
672,-1,-1,-2,-3,-4,-2,-1,-1,3.36
673,-1,2,-1,-9,-1,-1,0,-1,3.365
674,-1,0,-1,3,5,1,-1,-2,3.37
675,0,-3,-2,-7,-5,-2,0,-1,3.375
676,-1,0,-1,6,7,0,1,0,3.38
677,-1,0,0,-3,-7,-1,-2,-3,3.3850000000000002
678,0,0,-2,3,1,-1,-1,-2,3.39
679,-2,0,0,3,2,-1,0,-2,3.395
680,1,-1,-1,-2,-3,-1,-2,0,3.4
681,0,-1,-1,-1,-3,-2,0,0,3.4050000000000002
682,0,-1,1,-2,-3,0,-2,-2,3.41
683,0,0,-1,-4,-2,0,1,0,3.415
684,-1,0,-2,4,-3,-2,0,-1,3.42
685,-1,-1,-1,-4,1,0,-1,0,3.4250000000000003
686,-1,-1,-1,2,-3,-2,-1,-1,3.43
687,-1,-2,0,-3,0,0,-3,-2,3.435
688,0,-1,-2,-3,-2,-1,-2,-1,3.44
689,-1,-2,0,-4,1,-2,0,0,3.4450000000000003
690,0,0,1,-2,-1,0,-1,0,3.45
691,-1,-1,-1,1,0,-2,-2,-2,3.455
692,-1,-1,1,-18,-5,-1,-1,-1,3.46
693,0,-2,-1,29,7,1,-2,-3,3.465
694,-1,-2,1,-2,-2,0,-2,0,3.47
695,0,-1,0,2,0,-3,2,1,3.475
696,-1,0,-1,-3,-5,-2,-3,0,3.48
697,-1,-3,-1,-13,0,1,0,0,3.485
698,-2,-1,-2,4,4,-1,0,-1,3.49
699,-1,0,-2,7,1,-3,-2,-1,3.495
700,-1,-1,0,5,-6,-1,0,-2,3.5
701,0,0,-2,-11,1,-2,-1,-1,3.505
702,0,-1,-2,-5,0,1,-2,-1,3.5100000000000002
703,0,0,-1,0,-4,-1,-3,-2,3.515
704,0,0,0,3,2,1,-1,-1,3.52
705,0,0,-1,-1,0,1,-1,0,3.525
706,-2,-1,-2,0,-5,-2,0,0,3.5300000000000002
707,0,0,-2,-5,0,0,-1,-1,3.535
708,0,-2,0,5,0,-1,-1,0,3.54
709,1,-1,-1,0,0,0,-1,-2,3.545
710,-1,-1,0,-4,-5,0,0,0,3.5500000000000003
711,-1,-2,-1,1,-2,-1,-2,-2,3.555
712,0,0,-1,-1,4,3,0,1,3.56
713,-1,-1,0,-5,-3,0,0,0,3.565
714,0,-1,0,-11,4,1,-1,0,3.5700000000000003
715,1,-2,0,10,1,-1,0,0,3.575
716,-1,-3,-1,2,0,0,-1,-2,3.58
717,1,0,-2,-2,-3,0,0,-1,3.585
718,-1,-1,1,0,3,1,0,-1,3.59
719,-1,0,-1,-5,-3,-1,0,-1,3.595
720,-1,-1,0,-1,-1,-3,-3,0,3.6
721,-1,-1,0,-4,-3,-1,0,0,3.605
722,-1,0,-3,2,-1,-1,-1,-1,3.61
723,1,-1,2,-2,0,1,0,0,3.615
724,-1,0,-1,2,1,-1,-1,0,3.62
725,-1,0,0,-3,-2,-3,-3,0,3.625
726,-1,-2,-1,1,-3,-2,-1,-2,3.63
727,-2,-1,-1,-6,0,-1,-1,-1,3.6350000000000002
728,0,1,-1,-5,-3,0,-1,0,3.64
729,0,0,-1,0,-1,-3,0,-1,3.645
730,1,-1,-1,5,3,-2,0,0,3.65
731,-1,-1,-1,-1,-3,-1,-1,-1,3.6550000000000002
732,-1,-2,1,0,-1,-2,1,0,3.66
733,0,-1,0,-2,-5,0,0,-1,3.665
734,0,-1,0,2,2,-1,-1,-2,3.67
735,-1,0,-3,-3,-1,-1,0,-2,3.6750000000000003
736,0,-2,-2,3,3,-2,1,-1,3.68
737,-2,-2,-1,0,-3,1,0,-1,3.685
738,-2,0,0,2,-3,-3,-1,0,3.69
739,-1,0,0,-1,4,0,-1,1,3.6950000000000003
740,0,-1,-1,-25,-6,-3,-2,-2,3.7
741,-1,-3,-2,26,6,0,-1,0,3.705
742,0,-1,0,-5,-5,-1,-1,-3,3.71
743,-1,-1,0,2,1,0,0,-2,3.715
744,0,-1,-2,-2,-2,-2,0,-1,3.72
745,-2,-1,-1,-10,-3,-1,-1,-2,3.725
746,-2,0,0,-2,-2,-2,-1,0,3.73
747,0,0,0,1,-3,-3,0,-1,3.735
748,0,0,-1,3,-2,1,-1,-2,3.74
749,-2,0,0,-6,0,0,0,-2,3.745
750,-2,-1,0,3,-3,-1,-1,0,3.75
751,-1,-1,0,-1,-3,1,0,-1,3.755
752,-1,-2,-2,-1,-2,-2,-2,-1,3.7600000000000002
753,0,-2,0,3,-7,-3,-2,-1,3.765
754,0,-1,-2,-9,5,0,0,0,3.77
755,-2,-2,-3,-3,-2,0,-1,0,3.775
756,-1,0,0,5,-2,0,0,-2,3.7800000000000002
757,-1,-1,-1,-2,0,-1,-1,-1,3.785
758,-1,-1,0,-1,-3,-2,1,-1,3.79
759,1,-1,-2,2,-2,-4,1,-1,3.795
760,-3,-1,-1,3,1,-2,0,-2,3.8000000000000003
761,-1,-1,-1,-18,-3,0,-2,-1,3.805
762,0,0,-1,18,2,1,-1,0,3.81
763,0,-2,0,1,-5,-3,0,-1,3.815
764,-2,0,0,-1,-1,0,0,1,3.8200000000000003
765,0,0,0,3,-1,0,0,0,3.825
766,-1,-1,0,-10,-4,-1,-2,-2,3.83
767,0,-1,-2,-1,-2,-1,-2,-1,3.835
768,1,0,-2,5,3,2,-1,-1,3.84
769,-1,-1,-2,-8,-1,-3,-1,0,3.845
770,0,-2,-2,-1,-1,0,-1,-1,3.85
771,-1,-1,0,2,8,-1,0,-2,3.855
772,-3,0,0,1,0,-2,0,-1,3.86
773,-1,2,-1,1,0,0,-1,-2,3.865
774,-1,-2,-3,-2,-5,-1,1,-1,3.87
775,0,-1,0,4,1,-1,0,-1,3.875
776,-1,-1,0,-8,2,-1,-2,0,3.88
777,-1,1,0,5,1,0,0,-1,3.8850000000000002
778,0,-2,-2,-2,-3,-2,-1,0,3.89
779,-2,-2,-2,-7,0,1,0,0,3.895
780,1,-1,0,3,-1,0,0,0,3.9
781,0,0,-2,-3,-5,-2,0,-2,3.9050000000000002
782,0,-1,2,4,8,-1,-3,-1,3.91
783,-1,0,-1,-25,-7,1,-3,-2,3.915
784,0,-1,-1,29,7,1,0,-1,3.92
785,0,-2,-1,1,-1,-1,-1,-1,3.9250000000000003
786,-1,3,0,-5,-8,-2,0,-3,3.93
787,0,0,-1,3,4,-1,-1,0,3.935
788,-1,0,-2,-8,-8,1,-1,-1,3.94
789,0,-3,-3,2,10,0,-1,-2,3.9450000000000003
790,-1,0,-1,-3,-1,-1,-1,1,3.95
791,-3,-1,-1,1,-2,-1,-2,1,3.955
792,-1,-1,0,-6,-4,-1,0,1,3.96
793,-2,-3,-2,4,0,0,-1,0,3.9650000000000003
794,-1,2,-1,-5,-4,-1,-1,-1,3.97
795,-1,-2,0,1,0,-3,-2,-2,3.975
796,0,-2,-2,-1,1,-1,-1,0,3.98
797,-1,0,0,-4,-5,0,-2,0,3.985
798,-3,-2,0,3,-3,-1,-2,0,3.99
799,0,1,-2,1,0,1,-1,0,3.995
800,-2,0,0,-6,-8,-2,-1,-2,4.0
801,0,-1,-1,6,0,0,-1,-1,4.005
802,0,-1,-2,-6,3,0,0,1,4.01
803,-2,0,0,9,-1,0,-1,-1,4.015
804,0,-1,-1,-7,5,-2,0,-2,4.0200000000000005
805,-2,0,-2,-5,-3,-1,0,-2,4.025
806,0,-1,1,6,-2,-1,-1,-1,4.03
807,0,-1,-1,2,-1,-2,1,0,4.035
808,-2,1,-2,2,-2,-3,-1,-1,4.04
809,0,0,1,-4,-4,-5,0,1,4.045
810,-1,-2,-1,2,2,1,-1,-2,4.05
811,0,-1,-1,-2,-1,-1,-1,-1,4.055
812,-1,0,-1,1,-1,3,-1,-1,4.0600000000000005
813,-2,1,-2,-4,-1,-1,-1,0,4.065
814,-2,0,0,-6,-4,-1,-2,-1,4.07
815,-1,-1,-1,1,1,-2,-1,-1,4.075
816,1,-4,0,-4,-5,-3,-1,-1,4.08
817,-1,-2,-2,3,4,-1,-1,0,4.085
818,-1,1,0,-1,-1,-1,1,0,4.09
819,-1,-4,-2,2,-6,-2,-1,-2,4.095
820,-1,0,0,1,7,0,-1,-2,4.1
821,-1,-1,0,-4,-2,0,-1,0,4.105
822,-1,-1,-1,3,1,-2,-2,-1,4.11
823,0,-1,-1,-6,-2,0,-1,-1,4.115
824,-3,-1,0,-4,-9,-1,-2,-1,4.12
825,-1,-2,0,7,-3,-2,0,-1,4.125
826,0,-1,-2,-15,3,2,-1,0,4.13
827,-1,-1,-1,11,0,1,0,0,4.135
828,0,0,0,0,1,-1,0,1,4.14
829,0,-1,0,2,-1,0,-3,-2,4.1450000000000005
830,-1,-2,-2,3,-1,-1,-2,-3,4.15
831,0,0,-2,-9,-1,-2,0,-1,4.155
832,-1,-1,0,-6,0,0,0,-1,4.16
833,-1,0,-1,5,-2,-1,-1,0,4.165
834,-2,-2,-1,-5,-2,1,-1,0,4.17
835,1,1,0,-2,6,-1,-1,-1,4.175
836,1,-1,-1,0,-4,-1,-2,-1,4.18
837,0,-1,-1,-9,-2,-1,0,0,4.1850000000000005
838,0,-1,0,3,2,0,-1,0,4.19
839,-1,0,-2,-1,-3,-1,-2,-2,4.195
840,0,-1,0,-3,-2,-2,0,-1,4.2
841,-1,-2,0,0,3,0,-1,-2,4.205
842,2,-1,-3,2,-3,-1,1,-2,4.21
843,-1,-2,0,-2,-5,-1,3,0,4.215
844,-2,0,-2,0,4,0,-1,0,4.22
845,-1,-1,1,-4,-7,1,-1,0,4.225
846,-1,-1,0,2,-1,-3,-1,1,4.23
847,0,-2,1,-1,0,1,-1,-1,4.235
848,0,-1,-2,-14,-1,-1,-2,-1,4.24
849,1,0,-1,24,8,0,0,-1,4.245
850,-1,-2,-2,6,-1,-1,0,-1,4.25
851,-1,0,-2,-7,1,0,-2,-3,4.255
852,-3,-2,-1,4,0,1,-1,1,4.26
853,-1,-1,-1,-4,-2,-1,-2,-1,4.265
854,0,0,0,-8,-1,-1,-1,0,4.2700000000000005
855,-3,-2,-1,4,-1,-1,0,1,4.275
856,-3,-1,-2,1,-4,-2,-1,-1,4.28
857,0,0,-1,-5,2,-2,0,-1,4.285
858,-1,-1,-1,5,1,0,0,-1,4.29
859,-1,0,0,-6,-4,-1,-1,-1,4.295
860,1,1,-2,4,-4,0,2,-1,4.3
861,-2,0,-2,-2,-1,-1,0,0,4.305
862,-1,-1,-1,-2,-2,-2,-2,-2,4.3100000000000005
863,1,0,-1,-2,3,-2,-1,0,4.315
864,0,-2,-1,2,1,0,0,-1,4.32
865,0,0,-1,-1,0,0,-1,0,4.325
866,-2,0,-1,-4,-2,-1,-1,0,4.33
867,-3,-1,1,1,-2,0,0,-1,4.335
868,0,1,-1,1,-3,-2,-2,-3,4.34
869,0,-3,-1,-3,6,1,-1,-1,4.345
870,0,0,0,-21,-5,0,1,-1,4.3500000000000005
871,-1,-3,-1,26,6,0,-2,-1,4.355
872,0,-2,0,-1,-3,0,-1,0,4.36
873,-2,-1,1,2,-6,0,0,0,4.365
874,1,-1,-1,-6,4,0,0,-1,4.37
875,0,1,-1,-7,-2,-2,-2,-1,4.375
876,-1,0,-3,-3,2,2,1,-1,4.38
877,-1,-1,0,-4,-9,-1,-1,-1,4.385
878,-2,-3,0,4,-3,-1,-2,-1,4.39
879,0,-1,-2,-1,0,1,-1,0,4.3950000000000005
880,-1,-4,-2,10,2,-1,-2,-2,4.4
881,-2,0,-4,-10,4,-1,-3,-2,4.405
882,-1,-1,-1,2,-5,-1,-1,-1,4.41
883,-2,-2,0,-7,-3,0,0,-1,4.415
884,-1,-2,0,-4,-1,-1,-1,0,4.42
885,0,-2,-1,-2,-4,-1,-2,0,4.425
886,-1,0,0,7,6,-2,-1,1,4.43
887,0,1,-4,-2,-2,-3,-1,-1,4.4350000000000005
888,-2,0,-1,1,1,-3,-1,0,4.44
889,-1,0,-1,-2,-1,-1,-1,-2,4.445
890,0,0,-1,3,-3,-1,-1,-1,4.45
891,-2,2,1,-10,-3,1,0,0,4.455
892,0,0,0,4,0,0,-1,-1,4.46
893,1,-1,-1,-2,-1,0,-1,-1,4.465
894,-1,0,0,-15,-5,-1,-2,0,4.47
895,2,0,1,24,1,-1,-2,-1,4.4750000000000005
896,-2,-1,-1,-3,-1,-2,-1,0,4.48
897,-1,-1,-1,3,-2,-1,-1,-2,4.485
898,-1,-3,0,1,4,1,-1,-1,4.49
899,-2,0,0,-9,-2,-1,0,-2,4.495
900,-1,0,-1,-4,-4,-1,-2,-1,4.5
901,-2,-1,0,5,0,-2,0,-1,4.505
902,0,0,-1,-9,-4,-1,0,-1,4.51
903,-1,-2,0,2,-8,-1,-1,-1,4.515
904,0,-2,-1,8,9,1,-1,-1,4.5200000000000005
905,-2,-2,-2,-13,3,1,-1,0,4.525
906,-1,-2,-1,6,-4,-1,-1,-1,4.53
907,0,-3,-1,-9,-3,-1,-1,-1,4.535
908,0,1,-1,0,-1,-1,-3,-2,4.54
909,-1,-2,0,1,-3,0,-1,0,4.545
910,-1,-1,-3,6,-1,-3,-1,-2,4.55
911,-1,1,-2,2,3,0,2,0,4.555
912,-1,-3,-1,-4,-2,0,0,0,4.5600000000000005
913,-1,-1,-1,-2,-3,-2,0,0,4.565
914,0,-1,0,2,-4,0,2,-1,4.57
915,0,-1,-1,-28,-5,-1,-1,0,4.575
916,-1,0,-1,25,6,-2,0,1,4.58
917,-1,-2,1,-1,-5,0,0,-1,4.585
918,-1,-1,0,2,0,1,-2,1,4.59
919,0,0,-2,0,0,-1,-2,-1,4.595
920,-1,0,1,-11,-8,-1,0,0,4.6000000000000005
921,0,-3,-3,7,4,-1,-1,-1,4.605
922,-1,-1,-1,-5,6,0,-1,-2,4.61
923,0,-2,0,3,1,-1,-1,0,4.615
924,-1,0,-2,-9,-3,-1,-1,-2,4.62
925,-1,1,-1,1,-5,1,-1,0,4.625
926,-2,0,-1,1,0,-1,-1,-1,4.63
927,-1,-1,0,8,2,0,-2,0,4.635
928,-1,-1,-1,-6,1,0,0,-1,4.64
929,0,0,-2,-8,-3,-1,0,-1,4.6450000000000005
930,-1,-1,-1,2,1,-2,-2,-2,4.65
931,-2,0,-1,1,-5,0,0,0,4.655
932,1,0,-1,-3,-2,0,-3,-1,4.66
933,-2,-2,-1,-1,2,-1,-1,-1,4.665
934,-1,-1,-1,1,0,-1,-1,0,4.67
935,0,1,0,0,-1,0,-1,-1,4.675
936,-1,-1,0,-4,1,-1,-2,0,4.68
937,-1,-1,0,-3,1,-1,1,-1,4.6850000000000005
938,0,0,-1,2,-5,-1,0,0,4.69
939,-2,-1,-1,-4,0,0,0,0,4.695
940,1,-2,0,-21,-5,-2,-1,1,4.7
941,-1,2,-1,21,8,1,-1,-2,4.705
942,-1,-1,-1,-1,-2,-1,0,-1,4.71
943,-3,-1,-2,2,3,-1,-2,-1,4.715
944,-1,-1,-2,0,-7,-1,0,-1,4.72
945,0,-2,-1,-9,-1,-2,-1,-3,4.7250000000000005
946,0,0,0,0,0,0,-2,-1,4.73
947,1,-2,-1,-3,3,0,1,0,4.735
948,0,-1,1,2,0,0,-2,-1,4.74
949,0,0,-1,-3,-4,-1,-1,-1,4.745
950,-1,2,-1,5,1,1,0,0,4.75
951,-1,-3,-2,-5,-3,-4,-4,-2,4.755
952,-2,-1,-1,6,-1,-1,0,-1,4.76
953,-1,-1,-1,0,1,1,-1,0,4.765
954,-1,-3,-2,-14,-6,-2,-2,-3,4.7700000000000005
955,0,-1,-1,2,-3,-1,1,0,4.775
956,0,-1,-2,-2,0,-1,-1,0,4.78
957,-2,-1,-1,-3,-1,-1,1,0,4.785
958,-1,-1,0,4,0,0,1,2,4.79
959,-1,1,0,-2,-1,-2,-2,-1,4.795
960,0,-1,-1,0,-1,0,-1,-2,4.8
961,1,-1,-2,-26,-7,0,-2,-1,4.805
962,0,-2,-2,36,6,0,-1,-1,4.8100000000000005
963,0,-2,-1,-1,-2,0,1,-1,4.815
964,-1,-1,-1,0,1,-1,0,-1,4.82
965,-2,-1,-2,1,0,-1,0,1,4.825
966,0,0,-2,-10,0,-3,-1,-2,4.83
967,0,-2,-2,0,-3,-1,-1,-1,4.835
968,-1,0,0,4,1,0,0,-1,4.84
969,1,-1,1,4,0,-3,0,0,4.845
970,-2,-1,-3,-16,-2,-3,0,0,4.8500000000000005
971,-2,0,0,4,4,-1,-1,1,4.855
972,-2,-1,0,-6,-2,0,-1,-1,4.86
973,-2,0,-2,-5,1,1,0,-3,4.865
974,1,-2,0,4,-6,-1,-2,-2,4.87
975,0,-2,-2,6,-1,-1,0,-1,4.875
976,-2,1,-1,-5,-3,0,-1,-1,4.88
977,0,0,1,1,-1,-1,0,0,4.885
978,-1,-1,-1,-3,2,0,-1,-2,4.89
979,1,-2,-1,-18,-9,-2,1,0,4.8950000000000005
980,1,-2,0,13,4,-1,-1,0,4.9
981,-1,-2,-2,1,-5,-2,-1,0,4.905
982,-1,0,0,-3,-4,-1,0,-1,4.91
983,-2,0,0,-4,-1,0,-1,-2,4.915
984,-1,-2,-3,1,6,-1,-1,-1,4.92
985,-1,1,-1,2,-2,0,-2,-1,4.925
986,0,0,-2,-5,-2,1,-1,0,4.93
987,-1,1,-1,4,3,1,-1,0,4.9350000000000005
988,-1,-1,-4,2,-8,-3,-1,-1,4.94
989,-1,-1,-1,-1,5,-1,0,0,4.945
990,-3,-1,1,-2,-2,0,-1,1,4.95
991,0,0,0,7,1,-1,-1,-2,4.955
992,-2,-1,0,-6,-1,2,1,0,4.96
993,1,0,-1,2,10,-2,1,0,4.965
994,1,-3,-1,-5,-2,-1,-1,-1,4.97
995,0,0,-2,3,2,-1,0,-2,4.9750000000000005
996,0,1,-3,-24,-9,-2,0,-1,4.98
997,-2,0,0,25,4,1,-1,0,4.985
998,-3,-2,-2,2,3,1,-1,-2,4.99
999,-2,0,-1,0,-2,1,1,0,4.995
1000,-1,0,1,-3,-1,-1,0,0,5.0
1001,-2,-1,-1,-10,-5,0,0,0,5.005
1002,0,0,-1,3,1,-3,-1,0,5.01
1003,1,-1,0,-4,-1,-1,-2,-1,5.015
1004,-1,-1,-1,3,3,0,0,1,5.0200000000000005
1005,0,-1,-1,-3,-7,-1,-1,1,5.025
1006,-1,-1,0,2,2,-1,-2,-2,5.03
1007,2,-1,-2,-5,-1,-2,0,-1,5.035
1008,-1,-1,0,7,-6,-1,-2,-1,5.04
1009,-1,-1,-1,-5,7,1,-1,-2,5.045
1010,-1,1,-2,-4,-2,-1,0,-1,5.05
1011,-1,-2,1,2,2,-2,-1,0,5.055
1012,-1,0,-2,-6,-1,0,-1,-1,5.0600000000000005
1013,-1,-1,0,-1,-5,-3,-1,0,5.065
1014,0,-3,-2,-2,-2,-2,-2,0,5.07
1015,0,0,-1,-19,-4,0,-2,-1,5.075
1016,0,0,0,33,10,0,-1,-1,5.08
1017,-1,-1,-2,-6,-7,-1,-3,-1,5.085
1018,1,0,-2,-1,-1,-1,1,0,5.09
1019,0,-2,-1,3,3,0,-2,-2,5.095
1020,0,-2,-1,-12,-4,-1,-2,0,5.1000000000000005
1021,0,0,0,0,0,0,-2,-1,5.105
1022,-1,-1,-1,2,-2,-3,-2,0,5.11
1023,-2,0,-1,-1,-3,0,1,0,5.115
1024,1,0,-1,-2,-1,-1,-1,-1,5.12
1025,0,-1,-2,-8,-2,-1,0,-1,5.125
1026,0,1,0,4,0,2,-1,-2,5.13
1027,-1,-1,-1,3,-3,-4,0,-1,5.135
1028,-2,0,-1,-4,0,-1,0,-2,5.14
1029,-2,-2,0,3,-4,-1,-1,0,5.1450000000000005
1030,-2,0,1,-8,1,0,-2,-1,5.15
1031,-2,-1,-2,10,5,-1,-1,-2,5.155
1032,-1,-1,0,-1,0,1,0,0,5.16
1033,0,0,-2,-26,-8,-1,0,-2,5.165
1034,1,0,-1,25,8,-1,0,0,5.17
1035,-2,-1,-2,2,-1,-1,-1,-1,5.175
1036,-1,-1,-2,0,-2,-2,-2,-1,5.18
1037,0,0,0,-3,-2,-1,-1,-1,5.1850000000000005
1038,-3,-2,-1,-7,-4,1,0,0,5.19
1039,0,0,-1,-2,0,-1,-3,-2,5.195
1040,-3,1,-1,-1,0,-2,-1,-1,5.2
1041,-2,-1,-2,3,0,-1,-1,-2,5.205
1042,0,0,-1,-5,-3,0,-1,-1,5.21
1043,-2,-1,-1,2,2,0,-1,-1,5.215
1044,-1,-1,1,-6,-8,-4,0,-1,5.22
1045,1,-1,-2,6,3,0,0,-2,5.2250000000000005
1046,-1,-1,-1,-3,0,0,0,-2,5.23
1047,-2,-1,-1,-7,-4,-1,1,-1,5.235
1048,-2,-2,-2,-5,-1,1,-2,-2,5.24
1049,-1,0,0,11,2,-1,-1,-1,5.245
1050,-1,-2,0,-5,-1,0,0,0,5.25
1051,1,-1,-2,0,5,0,-2,0,5.255
1052,0,-1,-1,0,2,0,0,-2,5.26
1053,-3,-1,-1,5,-5,0,-2,0,5.265
1054,0,-1,-1,-10,-3,-1,1,0,5.2700000000000005
1055,-1,-1,0,6,-2,-2,-1,0,5.275
1056,1,0,0,-14,-4,-2,-2,-2,5.28
1057,0,-3,-1,17,1,0,0,-1,5.285
1058,-2,-2,0,2,-2,-2,-2,-2,5.29
1059,0,-1,1,-2,-3,-1,0,0,5.295
1060,0,-1,-2,9,4,0,-2,0,5.3
1061,-2,-1,0,-9,0,-1,0,-2,5.305
1062,-1,0,-1,-4,-2,-1,0,1,5.3100000000000005
1063,-1,-1,-2,2,0,-2,0,0,5.315
1064,0,0,-2,-4,0,0,0,-2,5.32
1065,0,-1,-2,-8,-7,-1,-2,-1,5.325
1066,-1,-2,0,4,9,2,-3,0,5.33
1067,1,-1,0,-5,-8,0,-1,-1,5.335
1068,-1,-1,1,4,-1,-2,1,1,5.34
1069,0,-1,-2,-2,-3,-3,-1,-1,5.345
1070,0,0,-2,2,6,-1,0,-2,5.3500000000000005
1071,-1,0,-2,-3,-2,0,0,-2,5.355
1072,-1,-1,1,-1,1,1,0,-1,5.36
1073,0,0,-2,1,3,-1,1,0,5.365
1074,0,1,-1,-5,-4,-2,-1,-1,5.37
1075,-1,-1,-1,-3,-2,0,0,0,5.375
1076,-2,-1,-1,2,-1,-1,-1,0,5.38
1077,0,-3,-1,-23,-2,0,-2,0,5.385
1078,0,-2,0,28,2,-3,-1,-2,5.39
1079,-2,-1,0,0,0,-1,-2,-2,5.3950000000000005
1080,0,-3,0,-9,-5,-1,-1,0,5.4
1081,-2,-2,0,7,3,-1,-1,0,5.405
1082,-1,-1,-1,-12,-4,-1,-1,0,5.41
1083,0,-1,-1,0,0,-1,0,0,5.415
1084,0,-1,-1,3,-5,0,0,-3,5.42
1085,-1,0,-1,-2,4,0,-1,0,5.425
1086,0,0,-2,-5,-5,-1,-2,-1,5.43
1087,-1,-1,0,2,2,-1,-1,-1,5.4350000000000005
1088,-1,0,-2,-3,-1,-1,-1,0,5.44
1089,0,0,-2,2,0,0,0,0,5.445
1090,-1,-1,-1,-3,-3,-1,0,0,5.45
1091,0,-3,-1,-4,-1,-1,-1,-1,5.455
1092,0,-1,0,1,-2,0,0,0,5.46
1093,-1,1,1,-5,-5,-2,-1,-2,5.465
1094,-1,0,0,3,1,1,-1,0,5.47
1095,-3,-3,-3,-2,-3,-2,-1,-1,5.4750000000000005
1096,-1,-1,-1,0,3,0,1,-1,5.48
1097,-1,0,0,-7,-3,-2,-2,-1,5.485
1098,-1,0,-1,-2,-8,-1,1,0,5.49
1099,-1,0,0,-5,-1,0,-1,-1,5.495
1100,-1,-1,-1,23,8,-1,-2,-2,5.5
1101,-1,-1,-1,-12,4,1,1,-1,5.505
1102,0,-1,-1,-7,-3,0,0,0,5.51
1103,0,0,0,0,-5,-2,-1,-1,5.515
1104,0,-3,-1,-8,-3,-2,-1,0,5.5200000000000005
1105,0,-1,-3,11,1,-2,0,-1,5.525
1106,0,0,-1,-6,0,1,-2,-3,5.53
1107,0,2,1,3,3,0,1,0,5.535
1108,-3,-1,0,-5,-5,-1,-2,-3,5.54
1109,-2,-1,0,4,-2,-1,0,1,5.545
1110,-3,-1,-1,-1,1,-1,-1,0,5.55
1111,-2,0,0,1,3,0,1,2,5.555
1112,0,1,-1,-3,-6,-2,0,2,5.5600000000000005
1113,-1,-2,0,9,4,-2,-2,-1,5.565
1114,0,-2,0,-9,-3,-2,1,-1,5.57
1115,-1,-1,-2,-12,-7,0,-1,-2,5.575
1116,0,-1,-2,23,10,1,-2,-1,5.58
1117,-1,-1,0,1,-7,-2,-1,-1,5.585
1118,-1,-1,-1,-4,-2,-2,-1,0,5.59
1119,0,0,-2,2,1,0,0,0,5.595
1120,-1,-1,-2,-11,-5,-2,-1,-1,5.6000000000000005
1121,-1,0,-2,2,-1,0,-1,-1,5.605
1122,-1,-3,1,1,-2,-1,-2,-2,5.61
1123,0,-3,-2,-7,0,0,-1,-2,5.615
1124,-1,0,-2,-6,1,0,-1,0,5.62
1125,0,-2,-2,-1,-5,-1,-1,-1,5.625
1126,-1,0,-1,0,0,0,-1,0,5.63
1127,-1,-1,0,4,-4,-4,-1,-1,5.635
1128,0,-1,0,3,7,-2,0,0,5.64
1129,-2,0,-1,2,-3,-2,0,-2,5.6450000000000005
1130,0,0,-1,-2,-2,-1,-1,-1,5.65
1131,-1,-1,0,-8,-5,-1,-1,-1,5.655
1132,-2,-1,-2,5,-1,-1,0,-2,5.66
1133,0,-2,0,-6,1,-1,0,1,5.665
1134,1,0,-1,2,3,1,0,0,5.67
1135,1,1,-1,-6,0,1,-2,-2,5.675
1136,0,0,-2,9,-4,-3,-2,-2,5.68
1137,1,0,-1,1,2,0,-2,-1,5.6850000000000005
1138,-3,-2,0,-6,-5,-1,-1,-2,5.69
1139,1,0,-1,8,7,0,1,-1,5.695
1140,0,0,-1,-11,-1,1,-1,-1,5.7
1141,0,0,0,6,-6,-2,-2,-1,5.705
1142,-1,-1,-1,-1,7,-1,-1,-2,5.71
1143,-2,-1,-1,-4,-2,1,-1,0,5.715
1144,-1,-1,-1,-7,-3,-1,-1,0,5.72
1145,-1,1,-1,0,1,-1,0,-1,5.7250000000000005
1146,1,-1,-1,2,-1,-3,-3,-2,5.73
1147,0,-1,0,4,1,1,-1,0,5.735
1148,0,-1,0,-4,-1,0,0,-1,5.74
1149,-2,0,-2,3,1,-1,0,-1,5.745
1150,-1,-2,-1,0,-1,0,0,-1,5.75
1151,0,-1,-3,-6,-1,-3,-1,0,5.755
1152,-2,-1,0,10,1,-1,-1,1,5.76
1153,-1,-2,1,-6,1,1,0,-1,5.765
1154,-1,-1,-1,0,-3,-1,0,1,5.7700000000000005
1155,-2,-1,0,1,-1,2,0,0,5.775
1156,-2,0,-1,-21,-6,0,-1,-2,5.78
1157,0,0,-1,7,5,1,-2,-1,5.785
1158,0,-1,0,5,2,-2,0,-1,5.79
1159,0,-1,0,9,-2,-1,-1,-2,5.795
1160,0,-2,1,-16,-2,-1,0,-3,5.8
1161,-1,-1,-2,-5,-1,-3,-2,-2,5.805
1162,0,0,0,0,-1,1,0,-1,5.8100000000000005
1163,0,-2,-1,-2,-1,-2,-2,-1,5.815
1164,0,-1,0,5,0,-2,-1,0,5.82
1165,1,-2,-1,2,-7,-1,-1,1,5.825
1166,-1,-1,0,-4,4,2,-2,-1,5.83
1167,-2,-4,-3,-2,-5,-1,0,-2,5.835
1168,0,-1,-1,4,12,0,-1,-1,5.84
1169,-1,-1,0,0,2,1,-1,0,5.845
1170,-2,-1,-1,-3,-4,-1,-1,-1,5.8500000000000005
1171,0,1,-1,-4,-2,-3,1,0,5.855
1172,-1,-2,-1,9,-2,0,0,1,5.86
1173,-1,-1,-1,-5,0,1,1,-3,5.865
1174,-1,-1,-1,-1,-1,-2,-1,-2,5.87
1175,-2,0,0,-1,1,-2,0,-1,5.875
1176,-1,-2,-2,0,-6,-1,-1,-1,5.88
1177,-2,-1,-2,-5,-2,-1,-1,0,5.885
1178,-2,0,0,-9,-1,1,0,-1,5.89
1179,-1,-1,0,19,2,1,-1,-1,5.8950000000000005
1180,-1,-1,0,-2,-6,-2,0,-3,5.9
1181,2,-1,0,-1,1,-1,1,-2,5.905
1182,0,-2,-2,5,-1,-1,0,-1,5.91
1183,0,1,0,-8,-5,-1,-1,-1,5.915
1184,-1,-2,-2,-4,2,1,-1,-1,5.92
1185,0,-2,-1,2,-2,-2,0,1,5.925
1186,-1,-1,-3,-5,-5,-2,-1,-1,5.93
1187,-2,0,0,-4,0,1,0,0,5.9350000000000005
1188,0,1,0,3,-1,0,-2,0,5.94
1189,-2,1,-2,-5,1,1,-1,-1,5.945
1190,-1,-1,-2,1,-3,-1,0,-1,5.95
1191,0,0,-1,0,0,-2,-2,0,5.955
1192,-2,-1,-2,0,-3,-1,-1,-1,5.96
1193,-2,-1,-1,-4,-3,0,0,1,5.965
1194,0,-1,-1,-1,2,0,-1,0,5.97
1195,-2,-1,0,6,0,-1,0,-1,5.9750000000000005
1196,0,1,-2,-3,-1,-2,-1,1,5.98
1197,1,-1,1,6,-1,-2,-2,0,5.985
1198,0,-1,-1,-1,5,-1,0,0,5.99
1199,0,0,-1,-10,-3,-2,-1,-2,5.995
1200,-1,-1,-1,5,2,0,-1,0,6.0
1201,-1,1,-1,2,4,0,2,-1,6.005
1202,-2,0,-1,-19,-7,0,-1,0,6.01
1203,0,-2,-3,26,8,1,-1,-2,6.015000000000001
1204,1,-1,-1,-4,-5,0,-1,0,6.0200000000000005
1205,-1,0,-2,0,9,0,-1,-1,6.025
1206,-1,0,0,1,0,0,-2,-2,6.03
1207,-1,-1,1,-11,-3,-3,0,1,6.035
1208,0,0,-1,0,-2,0,0,0,6.04
1209,-1,-2,-2,-2,-1,-2,-1,-2,6.045
1210,-1,-1,-1,4,-4,-2,-1,0,6.05
1211,-2,-1,-1,-3,-1,-1,-2,-2,6.055
1212,-3,-2,0,4,0,-2,1,-2,6.0600000000000005
1213,0,-1,-1,-8,-3,0,-1,1,6.065
1214,0,-2,-1,4,-1,-1,1,1,6.07
1215,0,-2,-2,-3,-3,0,0,-2,6.075
1216,1,1,1,-6,-2,-1,0,0,6.08
1217,-3,0,-2,-4,-3,-2,-1,-1,6.085
1218,-1,0,0,3,0,1,-1,-1,6.09
1219,0,0,0,1,0,0,0,-1,6.095
1220,-1,-3,-2,-5,-1,-2,1,-1,6.1000000000000005
1221,0,0,-1,-1,-10,-3,-3,0,6.105
1222,0,1,-1,3,3,-1,-1,1,6.11
1223,-2,-1,-2,-11,-4,0,-1,-1,6.115
1224,-2,1,-1,13,0,0,0,-1,6.12
1225,-3,0,0,-6,-4,-2,-2,-1,6.125
1226,0,-2,-2,2,0,0,-1,0,6.13
1227,-1,0,0,-4,0,1,-2,1,6.135
1228,1,-1,0,-18,-4,-1,-2,0,6.140000000000001
1229,-1,-2,1,27,2,-1,1,0,6.1450000000000005
1230,-1,1,-2,1,-3,0,0,0,6.15
1231,-2,-1,-2,0,1,-1,-1,-1,6.155
1232,-1,-1,-1,0,-2,-1,0,-1,6.16
1233,0,0,0,-9,-1,1,-1,-2,6.165
1234,-1,-2,-1,-2,0,1,0,-2,6.17
1235,0,-2,-1,3,0,0,-1,-1,6.175
1236,0,0,-1,-4,1,1,0,-1,6.18
1237,2,-1,0,-6,-3,-3,-2,-3,6.1850000000000005
1238,-1,-1,-3,2,-3,-1,0,1,6.19
1239,0,1,1,-6,-5,-3,-1,-1,6.195
1240,0,-2,-1,1,0,-1,-1,0,6.2
1241,0,-1,-1,-5,-2,-1,-2,-1,6.205
1242,0,-1,1,2,2,0,-4,-2,6.21
1243,-1,0,-2,-1,-3,0,-1,1,6.215
1244,0,0,0,-1,-1,-1,0,-2,6.22
1245,-2,-2,-3,-1,-1,-2,0,-1,6.2250000000000005
1246,-1,-1,1,-4,-3,-1,-1,-1,6.23
1247,0,0,-1,-2,-1,1,-1,0,6.235
1248,-1,-2,-1,4,0,0,-1,-3,6.24
1249,-2,2,0,-4,1,-1,0,0,6.245
1250,1,1,0,-1,-2,-3,0,0,6.25
1251,-1,-1,-1,-1,0,-1,-1,0,6.255
1252,-2,-1,-2,0,0,0,-1,0,6.26
1253,-1,-1,-2,-3,-3,0,0,-1,6.265000000000001
1254,0,-1,-2,2,1,-2,1,-1,6.2700000000000005
1255,0,-1,-2,1,-2,-2,-3,-1,6.275
1256,-1,0,-1,-2,-1,0,-2,1,6.28
1257,-1,0,-1,1,2,1,0,-1,6.285
1258,-1,-2,0,1,-1,1,1,-1,6.29
1259,1,-2,-1,-7,-1,-1,2,-1,6.295
1260,-1,-2,-2,4,1,-1,0,0,6.3
1261,0,0,-2,0,1,2,-1,-1,6.305
1262,-1,-1,-3,0,-1,0,-1,-1,6.3100000000000005
1263,-2,0,-1,4,-6,-1,-1,-1,6.315
1264,0,-2,-3,-8,6,0,-1,0,6.32
1265,0,-2,-2,-17,-10,-5,-1,1,6.325
1266,0,-1,0,8,2,1,-1,0,6.33
1267,0,-1,0,1,5,-1,0,0,6.335
1268,1,0,-1,2,-3,-1,-1,-1,6.34
1269,-1,-1,-1,-2,-2,-1,1,-1,6.345
1270,1,-1,0,-6,-6,-3,-3,-2,6.3500000000000005
1271,0,0,-2,0,-1,-1,-2,0,6.355
1272,-2,-1,0,-1,-4,-2,0,0,6.36
1273,-1,-1,1,4,5,0,-1,1,6.365
1274,-3,-1,-1,-3,-3,-2,0,-1,6.37
1275,-1,-1,-1,2,-1,-1,-2,1,6.375
1276,-1,0,1,-3,-1,-2,-2,-2,6.38
1277,0,-1,-1,1,-1,0,0,-1,6.385
1278,0,-1,-2,2,1,1,0,0,6.390000000000001
1279,-1,-2,-4,-5,-2,0,-1,-2,6.3950000000000005
1280,0,1,0,-3,-7,-2,-1,1,6.4
1281,-1,-1,0,4,9,1,-1,0,6.405
1282,-2,0,0,-4,-1,0,-2,-1,6.41
1283,-1,-2,-1,-5,0,0,0,2,6.415
1284,0,0,-2,4,-3,0,-1,-2,6.42
1285,-1,0,-3,6,3,-1,0,-1,6.425
1286,-1,-1,-1,-1,0,-4,1,0,6.43
1287,2,-1,1,-11,-3,-1,3,-1,6.4350000000000005
1288,-1,0,0,14,-3,-1,-2,-1,6.44
1289,-1,1,1,-8,3,-1,0,0,6.445
1290,0,-1,-1,1,0,-2,-1,-1,6.45
1291,-1,0,1,-5,-1,-1,-1,1,6.455
1292,0,-3,-3,-8,-4,-1,0,-1,6.46
1293,0,-1,0,5,-4,-2,-3,-3,6.465
1294,0,0,-1,-4,-2,-1,-1,-2,6.47
1295,-1,-2,-1,3,-1,-3,-1,-2,6.4750000000000005
1296,-2,-2,-1,0,-1,0,-1,-1,6.48
1297,0,0,-1,-1,-7,-2,0,0,6.485
1298,-2,0,0,1,11,1,0,0,6.49
1299,0,0,0,3,0,0,-1,0,6.495
1300,-1,0,-1,1,3,-2,-1,-2,6.5
1301,-1,-1,-2,-5,-2,0,1,0,6.505
1302,-2,-1,1,0,-3,0,-2,-1,6.51
1303,0,0,0,4,1,-2,-1,-2,6.515000000000001
1304,0,0,0,-5,1,1,-1,0,6.5200000000000005
1305,0,-2,-2,0,-3,-1,0,0,6.525
1306,-1,-1,-1,-1,-3,-1,-2,-2,6.53
1307,-2,0,0,3,2,0,-2,-2,6.535
1308,-1,-2,0,-5,-3,-3,-2,0,6.54
1309,0,0,0,2,0,-1,-2,-1,6.545
1310,0,-1,0,-1,-1,0,0,-1,6.55
1311,-1,-1,-1,-4,-1,-1,0,-1,6.555
1312,0,-1,-1,1,0,0,1,-1,6.5600000000000005
1313,-1,-2,-1,0,-1,0,-1,-1,6.565
1314,0,-1,-1,-3,-6,-1,-1,-1,6.57
1315,-1,-1,0,0,-1,-1,-1,-2,6.575
1316,0,-2,0,-1,0,0,1,-1,6.58
1317,-1,-1,-1,0,0,-2,-2,-1,6.585
1318,0,0,-1,-2,-2,0,0,0,6.59
1319,-1,0,-1,0,-4,-3,-1,-2,6.595
1320,-1,-1,0,0,3,-1,0,0,6.6000000000000005
1321,1,-2,0,-2,-3,0,0,0,6.605
1322,1,0,-1,-21,-6,-2,-2,-1,6.61
1323,-3,1,0,20,8,1,-1,-1,6.615
1324,0,-1,0,0,-4,-2,-1,0,6.62
1325,-1,-2,-1,-5,-1,-3,-1,1,6.625
1326,-1,-1,0,-2,2,2,-2,1,6.63
1327,0,-2,-1,-7,-4,0,1,-1,6.635
1328,-1,0,-1,-3,-1,0,-1,-1,6.640000000000001
1329,0,-1,-1,1,0,0,-2,-1,6.6450000000000005
1330,-1,-2,-3,6,-5,-3,0,0,6.65
1331,-2,-1,0,-5,-2,-2,-2,-1,6.655
1332,0,2,-2,5,0,-1,0,-1,6.66
1333,0,0,-1,-1,-1,0,-1,-4,6.665
1334,-1,-1,0,0,3,2,-1,0,6.67
1335,0,0,-2,1,-5,-2,-2,0,6.675
1336,-1,0,0,-3,-1,-2,-2,0,6.68
1337,-2,-2,-2,-1,0,1,-2,0,6.6850000000000005
1338,1,0,1,1,-1,-3,-1,-3,6.69
1339,-1,0,-2,-3,7,1,-1,-1,6.695
1340,-1,-2,-4,-6,-5,0,-1,0,6.7
1341,0,1,1,0,1,-1,1,-2,6.705
1342,-1,-1,-2,3,-2,-2,-1,0,6.71
1343,-2,-1,0,-8,-3,-1,-1,0,6.715
1344,-1,0,-3,4,0,-2,-1,-1,6.72
1345,-1,1,1,-1,-6,0,0,-2,6.7250000000000005
1346,0,-2,0,5,4,0,0,-1,6.73
1347,-1,-2,-1,1,-1,-2,-1,-1,6.735
1348,-2,0,-1,2,4,1,-1,-1,6.74
1349,0,-1,-1,-2,-9,-5,-1,1,6.745
1350,-1,-1,-3,-5,7,2,-1,0,6.75
1351,1,1,-1,1,0,0,-1,-1,6.755
1352,-1,-1,-1,-10,-5,0,-1,-1,6.76
1353,-1,-2,0,6,9,1,0,-1,6.765000000000001
1354,-3,-1,-2,0,-4,-2,-2,0,6.7700000000000005
1355,-1,-1,-4,-1,-5,-2,-1,-1,6.775
1356,-2,-1,0,-2,2,0,-2,-2,6.78
1357,-2,1,-1,1,0,2,-1,-1,6.785
1358,-2,1,0,4,-2,-2,0,-2,6.79
1359,0,-2,-1,-3,1,0,-1,-1,6.795
1360,-1,0,0,0,-2,-1,1,-2,6.8
1361,-4,-3,-1,-2,0,-1,-3,-1,6.805
1362,2,0,0,10,-1,0,0,-1,6.8100000000000005
1363,0,-1,-2,-5,-1,-1,0,-1,6.815
1364,-1,-2,0,-23,-3,-1,0,-1,6.82
1365,0,1,0,19,9,0,-1,-2,6.825
1366,-2,1,-1,3,1,-1,-1,-1,6.83
1367,0,-1,0,4,-1,-1,0,-2,6.835
1368,3,0,-1,0,1,0,0,1,6.84
1369,-5,-2,0,-6,-7,-4,2,1,6.845
1370,-1,-2,1,-7,4,0,0,-1,6.8500000000000005
1371,0,-2,-1,3,7,-1,1,-1,6.855
1372,-2,0,0,2,1,-1,-1,-2,6.86
1373,2,-2,-3,-2,-3,-2,-1,-1,6.865
1374,0,0,-1,-2,-3,0,-2,-1,6.87
1375,-2,-2,0,-5,-2,-1,0,-1,6.875
1376,0,0,-1,2,-2,-1,-1,0,6.88
1377,0,-2,-1,-2,-1,0,-1,-1,6.885
1378,0,0,-1,-2,-6,-2,0,0,6.890000000000001
1379,1,0,-2,-3,-3,0,-3,0,6.8950000000000005
1380,-4,-3,0,5,2,0,0,-2,6.9
1381,1,-1,-1,-3,-3,-1,0,0,6.905
1382,-3,-1,0,-3,2,1,0,-2,6.91
1383,-2,-2,0,-2,-3,0,-1,0,6.915
1384,-2,-2,-2,-2,-2,0,0,-1,6.92
1385,0,-1,-1,5,1,1,-2,-3,6.925
1386,-3,-1,-1,1,0,-2,1,-1,6.93
1387,-2,0,0,1,-6,-1,0,0,6.9350000000000005
1388,-1,-3,-3,-5,-4,-3,-2,-1,6.94
1389,-2,-2,-1,-9,-3,-2,-2,0,6.945
1390,0,1,-2,-1,-4,-1,0,-1,6.95
1391,-1,1,-1,-6,-2,0,-1,0,6.955
1392,-1,-1,0,1,1,0,-2,0,6.96
1393,-1,0,-1,-4,0,0,1,0,6.965
1394,-1,-2,-1,0,0,-1,-1,-1,6.97
1395,0,-1,-1,0,0,0,-1,-1,6.9750000000000005
1396,1,0,0,1,-1,-2,1,0,6.98
1397,-2,-1,1,3,0,-1,0,-1,6.985
1398,2,-2,-2,-5,-1,-2,-1,0,6.99
1399,-3,-2,-1,1,1,0,-1,0,6.995
1400,-2,1,1,4,-1,0,1,-1,7.0
1401,-1,-1,-2,-6,-2,-2,-1,-1,7.005
1402,-1,0,-1,1,-5,0,-1,-2,7.01
1403,-1,-3,-1,-19,-4,-3,-1,-1,7.015000000000001
1404,0,-1,-2,30,2,0,-1,0,7.0200000000000005
1405,0,-1,-1,1,2,-1,-1,0,7.025
1406,-1,-1,0,1,0,1,-1,-2,7.03
1407,-1,-1,-2,6,1,-1,1,-2,7.035
1408,-1,0,-1,-10,-6,-1,0,1,7.04
1409,-2,-1,-1,0,-4,-2,-2,0,7.045
1410,-1,-2,-1,-2,2,0,-1,-2,7.05
1411,2,-1,0,2,0,-1,0,0,7.055
1412,-1,-1,-1,-5,3,0,0,-1,7.0600000000000005
1413,-7,0,-1,2,-4,0,-2,-3,7.065
1414,1,-1,-2,-10,-8,-3,-5,-2,7.07
1415,-2,1,-1,7,8,0,1,-1,7.075
1416,3,1,-1,-10,-4,-2,0,-1,7.08
1417,-2,1,-3,-11,4,0,-1,-1,7.085
1418,-5,1,0,-15,2,1,-1,-2,7.09
1419,-8,-5,1,58,-23,-5,-3,-3,7.095
1420,3,-1,-4,-16,21,0,-1,2,7.1000000000000005
1421,10,1,0,-9,2,0,0,2,7.105
1422,2,4,-1,-12,-3,-3,0,-1,7.11
1423,-2,-2,-5,-22,-11,-3,-2,-2,7.115
1424,-6,2,7,25,9,2,0,0,7.12
1425,4,0,8,-11,1,4,0,-2,7.125
1426,11,-6,-2,-55,-7,0,1,2,7.13
1427,-11,1,-1,22,0,-2,-1,-4,7.135
1428,-4,-5,-7,-3,7,2,0,-1,7.140000000000001
1429,2,4,5,-7,3,3,1,2,7.1450000000000005
1430,2,1,-1,31,1,-1,-3,1,7.15
1431,11,0,-2,-7,-2,-2,-1,-1,7.155
1432,-2,2,5,-9,7,4,-1,-1,7.16
1433,-2,-1,-4,21,-13,-6,-3,-2,7.165
1434,-10,-6,-2,-11,-12,0,-1,-2,7.17
1435,0,1,0,13,33,6,-2,0,7.175
1436,-3,-7,-4,-77,-26,-5,-1,-1,7.18
1437,5,7,-3,71,15,0,1,9,7.1850000000000005
1438,4,2,-3,-10,0,-5,0,-27,7.19
1439,10,2,3,46,-4,-6,-3,2,7.195
1440,-6,-1,6,17,36,16,6,-1,7.2
1441,12,15,-7,-35,-42,-7,-3,2,7.205
1442,-39,-38,4,-47,8,7,-1,10,7.21
1443,6,11,-3,-37,-19,-4,4,-1,7.215
1444,-9,-20,-4,56,-3,-12,-10,-19,7.22
1445,13,8,0,87,55,18,10,15,7.2250000000000005
1446,28,8,-4,-11,-9,-10,-11,22,7.23
1447,-44,10,8,-116,-49,-8,-5,-24,7.235
1448,10,-2,-10,18,-36,-2,10,20,7.24
1449,-40,-39,0,-108,-26,-11,-9,-24,7.245
1450,21,24,10,14,21,4,-5,-4,7.25
1451,0,-38,-22,37,-8,15,11,14,7.255
1452,1,19,7,50,2,-14,-11,-8,7.26
1453,9,-2,-16,-32,-6,-1,-15,-3,7.265000000000001
1454,5,17,7,71,37,3,4,-2,7.2700000000000005
1455,4,21,3,-70,-37,-6,-1,5,7.275
1456,16,-21,21,67,3,2,3,-2,7.28
1457,-29,-28,-33,-74,44,8,6,1,7.285
1458,-20,16,-6,12,29,4,0,-1,7.29
1459,4,-16,4,-73,-73,-14,-2,-2,7.295
1460,-34,4,3,104,52,11,6,24,7.3
1461,7,-19,19,14,-28,-1,1,-34,7.305
1462,-14,20,7,38,-69,-19,-3,11,7.3100000000000005
1463,19,15,-1,101,119,25,7,9,7.315
1464,30,26,-2,-125,-56,-6,-1,8,7.32
1465,-12,-36,5,-41,-31,-15,-6,1,7.325
1466,7,-6,4,-32,8,2,5,-21,7.33
1467,12,16,-2,50,48,-2,-5,13,7.335
1468,-13,4,-14,-102,-33,-9,-9,-15,7.34
1469,12,17,1,19,36,10,6,16,7.345
1470,0,-27,-17,-20,-69,-13,4,-10,7.3500000000000005
1471,7,7,9,61,90,13,-15,-5,7.355
1472,4,2,-3,-37,0,0,0,20,7.36
1473,4,23,7,-39,30,-1,6,-36,7.365
1474,1,34,19,79,39,8,3,18,7.37
1475,11,-34,-24,42,33,6,8,5,7.375
1476,-18,-26,-1,5,-38,-18,-10,-8,7.38
1477,-14,1,-4,87,16,4,-5,7,7.385
1478,-5,-22,-14,-20,20,5,0,-1,7.390000000000001
1479,8,11,13,-86,2,-1,-2,-6,7.3950000000000005
1480,1,20,21,-28,-31,-4,-2,-10,7.4
1481,4,-6,-12,18,-52,-11,0,10,7.405
1482,28,16,2,-32,65,16,0,8,7.41
1483,-28,4,-17,-5,-46,-12,2,1,7.415
1484,16,7,5,-11,3,9,8,0,7.42
1485,-3,-26,-9,-22,-30,-13,-6,-4,7.425
1486,6,-5,-22,32,-42,-6,-2,-5,7.43
1487,15,4,-20,4,-4,0,4,-1,7.4350000000000005
1488,-34,-6,40,60,6,-8,-9,0,7.44
1489,0,28,1,-62,-20,0,1,-34,7.445
1490,8,-6,6,19,29,6,2,14,7.45
1491,-9,-16,-6,-63,-13,-3,-1,5,7.455
1492,29,-13,-17,94,12,3,2,-5,7.46
1493,-4,4,-12,10,25,3,1,13,7.465
1494,-31,4,-1,-16,-63,-16,-2,-8,7.47
1495,-11,-4,7,90,33,11,7,0,7.4750000000000005
1496,6,-28,-6,11,7,3,-5,-18,7.48
1497,9,-10,6,75,21,-1,1,11,7.485
1498,7,3,9,-51,25,4,0,-10,7.49
1499,-41,27,-16,46,-17,-7,-4,-10,7.495
1500,24,-8,-4,-32,4,1,6,6,7.5
1501,36,13,-12,112,28,5,-3,15,7.505
1502,-13,38,-29,-23,-36,-11,-6,-8,7.51
1503,-41,-101,23,-18,-60,-14,-7,4,7.515000000000001
1504,14,29,-9,-14,68,15,3,-43,7.5200000000000005
1505,-22,13,-22,12,-20,-5,0,10,7.525
1506,22,10,-14,-23,-25,-6,4,15,7.53
1507,-18,16,14,71,-43,-2,0,-22,7.535
1508,-11,-13,-26,-55,-2,-2,-5,14,7.54
1509,-11,1,39,-10,9,2,-4,10,7.545
1510,10,27,-31,-40,12,-1,-2,-5,7.55
1511,41,-20,6,-107,-23,-3,1,3,7.555
1512,-61,-4,-1,-56,-40,-12,-9,-9,7.5600000000000005
1513,11,36,-39,-42,33,11,6,-2,7.565
1514,-25,-49,-1,-8,23,3,-3,-2,7.57
1515,9,-25,-12,-67,-14,-7,-6,-16,7.575
1516,8,7,14,20,-8,0,1,16,7.58
1517,-6,28,24,-97,-18,-8,-1,-2,7.585
1518,3,-29,-1,50,-6,2,2,0,7.59
1519,53,25,-8,-57,42,3,3,29,7.595
1520,-32,-38,-9,-20,32,15,3,-13,7.6000000000000005
1521,-25,0,25,70,-29,-6,0,-3,7.605
1522,-38,1,-21,18,13,8,3,-4,7.61
1523,18,0,0,-48,-29,-7,-5,1,7.615
1524,10,31,-7,-86,-26,-9,-2,5,7.62
1525,22,30,-6,59,62,12,0,4,7.625
1526,-24,-82,38,19,-12,-7,-7,-1,7.63
1527,14,64,-43,-37,-7,-1,0,-8,7.635
1528,-3,-33,-6,30,14,-3,8,0,7.640000000000001
1529,11,-3,15,-12,7,8,-9,-10,7.6450000000000005
1530,-17,53,6,5,-5,-2,-2,8,7.65
1531,2,-79,17,127,2,-8,2,16,7.655
1532,-35,5,40,-8,26,11,4,1,7.66
1533,49,3,-31,6,-32,-11,0,7,7.665
1534,-22,-23,-1,-72,9,-2,0,4,7.67
1535,6,76,15,-1,10,9,1,-14,7.675
1536,20,-37,5,40,-13,-3,-1,13,7.68
1537,-26,-67,-5,-36,-38,-11,-2,-3,7.6850000000000005
1538,32,38,-3,-76,13,4,5,-3,7.69
1539,-18,22,5,-41,27,2,8,-16,7.695
1540,-8,3,-7,5,20,7,-11,-16,7.7
1541,-21,-11,10,-12,-16,-1,10,-7,7.705
1542,25,20,-6,-36,-20,-9,-9,-5,7.71
1543,12,-2,31,63,-15,-3,1,-1,7.715
1544,50,52,-40,-46,51,13,8,17,7.72
1545,-6,-59,8,10,-40,-16,-8,-7,7.7250000000000005
1546,-21,-23,15,91,28,6,1,-4,7.73
1547,-41,-28,1,-57,-36,-14,-9,0,7.735
1548,46,47,3,18,11,4,4,4,7.74
1549,-7,-28,-6,-28,-14,-4,-1,1,7.745
1550,-59,-11,7,2,12,2,-1,-11,7.75
1551,23,32,-20,-58,-43,-6,-9,-2,7.755
1552,-35,-73,-9,54,-5,-5,1,-5,7.76
1553,14,54,14,11,2,0,0,34,7.765000000000001
1554,35,-7,15,87,-2,2,0,-14,7.7700000000000005
1555,-42,16,6,29,61,16,-2,35,7.775
1556,36,43,-23,0,-40,-7,2,-20,7.78
1557,-4,6,37,9,38,8,-1,7,7.785
1558,-7,-40,-52,-102,-39,-9,-4,-11,7.79
1559,13,28,17,-29,-35,-4,-2,-2,7.795
1560,-1,28,-13,105,35,4,0,18,7.8
1561,41,-36,-39,-81,-18,-4,0,-17,7.805000000000001
1562,-7,2,25,88,31,8,-1,-4,7.8100000000000005
1563,21,9,-33,-21,13,-1,0,-14,7.815
1564,-24,-38,0,-53,-28,-9,-10,1,7.82
1565,1,52,9,25,-40,-4,2,19,7.825
1566,57,-10,0,-15,-10,0,7,-11,7.83
1567,-45,-39,-3,21,11,-1,-2,-6,7.835
1568,-5,-2,18,-4,-26,-11,-5,-12,7.84
1569,-7,37,0,9,53,18,6,-4,7.845
1570,48,17,13,-9,18,4,4,33,7.8500000000000005
1571,-29,-49,-6,-25,1,-9,-19,-5,7.855
1572,-22,5,1,-29,-13,-8,-6,-12,7.86
1573,-7,-3,6,-15,16,5,0,-6,7.865
1574,0,2,-6,-41,-25,-6,3,-5,7.87
1575,33,60,14,33,47,18,8,0,7.875
1576,1,-37,-3,59,10,1,-3,9,7.88
1577,-33,-16,-33,-79,-28,-8,-3,-7,7.885
1578,-10,31,2,-40,-9,-2,-6,29,7.890000000000001
1579,29,-23,9,15,-6,-6,-2,-32,7.8950000000000005
1580,-8,11,-6,-127,-31,-1,4,14,7.9
1581,3,-2,11,72,19,3,-1,-7,7.905
1582,-37,-7,-2,33,-17,-12,-5,1,7.91
1583,8,13,4,-7,-16,-1,5,3,7.915
1584,-20,-9,-6,42,8,-2,-23,-27,7.92
1585,13,11,-8,-55,-18,-10,-21,13,7.925
1586,14,-15,13,-40,-3,4,59,31,7.930000000000001
1587,-10,27,-4,29,-5,2,3,0,7.9350000000000005
1588,-7,-5,1,7,12,3,6,-4,7.94
1589,-30,-37,-2,-11,-17,-5,-16,-9,7.945
1590,33,37,-1,-24,-28,-6,-28,-23,7.95
1591,-15,-22,17,71,33,3,10,9,7.955
1592,11,6,-4,4,-32,-5,-12,6,7.96
1593,-2,12,-16,36,58,8,5,-9,7.965
1594,-26,-43,17,-15,9,-2,-12,-12,7.97
1595,6,2,-62,-21,-12,-4,3,8,7.9750000000000005
1596,11,7,2,-21,9,2,23,30,7.98
1597,-11,-3,11,11,-3,-3,3,-20,7.985
1598,0,-1,4,45,1,0,-1,1,7.99
1599,-3,-16,12,10,0,-2,-21,-14,7.995
1600,-3,1,-7,11,-6,-5,-15,-27,8.0
1601,0,1,-2,-38,-20,-2,7,29,8.005
1602,-4,7,7,29,-6,3,19,-1,8.01
1603,-1,3,13,19,9,0,0,6,8.015
1604,1,-2,-8,-34,-19,-4,9,0,8.02
1605,-3,8,5,6,-10,-2,-16,-16,8.025
1606,-10,-9,-10,-31,2,0,3,-1,8.03
1607,-1,-27,-3,10,0,2,-5,-4,8.035
1608,4,9,2,-1,4,-1,13,23,8.040000000000001
1609,1,8,0,-4,-3,-2,-11,-13,8.045
1610,-3,22,-6,8,5,3,4,6,8.05
1611,-5,4,4,-40,-9,-3,-3,-3,8.055
1612,1,7,1,3,4,0,-6,-13,8.06
1613,3,-2,18,5,1,1,6,8,8.065
1614,-6,-17,-48,1,-7,-5,-15,-10,8.07
1615,-4,-10,6,-11,-4,-3,2,-1,8.075
1616,6,5,6,-2,-1,0,-7,-4,8.08
1617,-4,-14,-4,-9,-5,0,7,0,8.085
1618,0,-7,11,10,2,-2,-10,-8,8.09
1619,-2,-10,-3,-13,-4,-1,2,1,8.095
1620,1,-4,-2,-1,-1,1,0,1,8.1
1621,0,-1,5,-6,-3,0,8,-2,8.105
1622,-1,-6,-1,6,5,-1,-5,-3,8.11
1623,-2,-2,-3,-13,-2,-2,-2,1,8.115
1624,-1,6,10,-5,-4,-1,1,0,8.120000000000001
1625,-2,0,-5,0,2,0,3,-4,8.125
1626,0,1,3,16,1,1,-8,-3,8.13
1627,-4,4,0,-8,-3,0,2,2,8.135
1628,1,4,0,2,-1,-2,0,-2,8.14
1629,2,-3,-3,-3,0,0,0,-1,8.145
1630,0,2,2,4,3,-1,-6,-2,8.15
1631,-1,0,2,-5,5,1,0,0,8.155
1632,0,-2,-3,-7,0,1,-2,-1,8.16
1633,1,-2,0,1,-3,-1,1,0,8.165000000000001
1634,1,-2,5,-17,-3,-3,-3,-1,8.17
1635,-1,0,-1,30,4,-1,0,-1,8.175
1636,1,-1,-1,4,-1,-1,0,-2,8.18
1637,-1,8,-2,0,2,-1,3,2,8.185
1638,-1,4,0,11,3,0,-3,-2,8.19
1639,0,0,0,-8,0,1,-2,-2,8.195
1640,-1,-5,-2,2,-3,-1,-1,0,8.2
1641,-2,-11,1,1,-6,-3,-2,-1,8.205
1642,1,-5,0,0,4,2,-1,-3,8.21
1643,-1,-5,0,-3,-3,-1,-1,1,8.215
1644,-1,0,0,1,-1,-1,-1,-2,8.22
1645,0,-2,-2,-3,-1,0,1,-1,8.225
1646,0,-3,-1,3,0,0,-4,-1,8.23
1647,-2,-1,-1,-3,-4,-2,-2,0,8.235
1648,-1,1,-1,-1,-1,-1,1,-2,8.24
1649,0,1,-1,1,0,0,1,-1,8.245000000000001
1650,0,-2,-1,4,-1,-1,-4,-2,8.25
1651,-2,-1,-2,-9,-3,-1,-1,-6,8.255
1652,0,-1,-3,-3,-1,-1,5,10,8.26
1653,-1,-2,-4,-6,-5,-1,-1,0,8.265
1654,-2,0,-1,8,3,1,1,0,8.27
1655,-1,2,2,3,-2,-2,-2,-3,8.275
1656,-2,1,0,-5,1,1,-4,-3,8.28
1657,0,-4,-1,-1,-1,-2,-1,0,8.285
1658,-2,-1,0,-3,-3,0,-1,-1,8.290000000000001
1659,-1,-2,-2,-3,-1,0,-1,0,8.295
1660,0,2,-1,-1,0,-1,-3,-2,8.3
1661,-2,-2,0,4,-6,-1,0,-2,8.305
1662,0,-2,-2,-5,8,0,-3,-2,8.31
1663,0,0,-1,-3,-2,-2,0,2,8.315
1664,-2,-3,2,-1,-1,1,-1,-1,8.32
1665,-1,0,-2,-15,0,-3,-1,-2,8.325
1666,-2,-1,-2,22,-4,-1,-1,0,8.33
1667,-2,0,0,3,2,-2,-1,0,8.335
1668,1,-1,-2,-4,1,-1,0,-1,8.34
1669,0,2,3,9,1,0,0,0,8.345
1670,-1,-4,-2,-8,-4,-1,-1,-2,8.35
1671,0,-1,-2,-3,-2,0,1,1,8.355
1672,-3,-3,-4,0,-4,-1,0,-3,8.36
1673,-1,1,2,-1,0,-1,-1,1,8.365
1674,0,-2,-1,-3,-3,-1,0,1,8.370000000000001
1675,-2,-2,-2,-7,-3,-2,1,-1,8.375
1676,-1,-1,-1,-16,-2,0,0,-1,8.38
1677,-1,-1,-1,26,-1,1,0,-1,8.385
1678,0,-1,1,-3,-1,-2,-1,0,8.39
1679,0,0,1,-1,0,-1,-2,1,8.395
1680,-2,0,0,1,-4,-3,-1,0,8.4
1681,0,-4,-3,-7,-5,-3,-1,-2,8.405
1682,0,3,0,1,2,0,0,0,8.41
1683,-1,0,0,-4,-3,-2,1,0,8.415000000000001
1684,0,3,-2,-8,-1,2,0,-1,8.42
1685,1,2,1,9,1,0,1,1,8.425
1686,-2,-7,-2,-3,-4,0,0,0,8.43
1687,-2,0,-3,1,-1,0,0,0,8.435
1688,-1,0,1,4,3,0,0,0,8.44
1689,1,1,-2,-12,0,0,-2,0,8.445
1690,-3,-2,-3,4,2,-2,0,0,8.45
1691,-1,-1,2,-2,2,1,-1,-1,8.455
1692,1,-1,-2,5,-2,-3,0,0,8.46
1693,-6,-1,-1,-2,1,0,0,0,8.465
1694,3,3,-1,-6,-4,-2,-1,-3,8.47
1695,-5,-2,-1,-2,3,2,0,-1,8.475
1696,1,0,0,5,2,0,-2,-1,8.48
1697,0,-1,-1,-4,-3,1,0,-1,8.485
1698,-3,-2,1,-1,1,-2,0,-1,8.49
1699,-1,0,-2,2,-2,-1,-1,-2,8.495000000000001
1700,-3,-2,-2,-2,1,-1,-2,0,8.5
1701,0,-2,0,-1,2,0,2,-1,8.505
1702,-1,1,0,-2,-2,0,-2,-1,8.51
1703,0,-2,0,-1,-1,0,-1,0,8.515
1704,-1,-3,1,1,-6,0,-2,0,8.52
1705,-2,-2,-4,5,3,-1,-4,0,8.525
1706,-1,1,0,-13,1,1,0,0,8.53
1707,2,-1,0,-17,-4,0,-1,2,8.535
1708,-1,-1,1,30,12,-1,-2,-2,8.540000000000001
1709,0,-1,0,0,1,2,0,-2,8.545
1710,0,-1,-1,6,-7,-1,0,-1,8.55
1711,2,-2,-2,-5,2,0,-1,-1,8.555
1712,-1,-1,-2,-9,-6,-2,0,0,8.56
1713,1,0,-1,-4,4,1,-1,0,8.565
1714,-3,-1,0,6,-1,-2,-1,-1,8.57
1715,-3,-5,-6,0,-6,-4,-2,-1,8.575000000000001
1716,-1,-1,-2,0,4,-1,-1,-1,8.58
1717,-2,0,0,4,-3,-3,0,-1,8.585
1718,-2,-1,1,-8,-1,1,-2,-1,8.59
1719,0,0,-2,3,-4,0,-1,-1,8.595
1720,-1,0,-2,-3,-2,-2,-1,-1,8.6
1721,0,-1,1,-6,1,1,-1,-2,8.605
1722,1,-2,-1,3,1,-2,-2,0,8.61
1723,2,0,0,0,-2,1,0,1,8.615
1724,0,-1,-1,-3,2,-1,-1,-1,8.620000000000001
1725,1,-3,-1,-3,-3,-3,0,-1,8.625
1726,0,0,-1,-1,-4,-1,-1,0,8.63
1727,0,-1,0,8,2,0,1,1,8.635
1728,1,0,1,-3,1,0,-1,-1,8.64
1729,-1,-1,-1,0,-1,-1,-1,0,8.645
1730,-1,-1,-3,-1,1,0,0,0,8.65
1731,-1,-1,0,0,-4,-2,-1,0,8.655
1732,-1,0,-1,-3,-2,1,1,0,8.66
1733,-2,-2,-1,0,2,-2,-1,-1,8.665000000000001
1734,-1,-1,0,-4,-3,-1,-3,-2,8.67
1735,0,1,0,0,0,-1,-1,-2,8.675
1736,-2,-2,-1,0,0,0,-1,0,8.68
1737,-2,-1,0,1,2,-1,-2,-1,8.685
1738,-1,-1,-1,-4,-2,0,0,0,8.69
1739,-1,0,0,0,-3,-1,0,-2,8.695
1740,0,1,1,-23,-7,0,1,0,8.700000000000001
1741,-1,-2,-2,25,7,-1,-1,0,8.705
1742,0,0,-1,2,1,-1,1,-1,8.71
1743,-1,-3,-1,2,1,-2,-3,-1,8.715
1744,-1,-2,0,-2,-2,-3,0,-1,8.72
1745,0,-2,-2,-10,-4,0,-1,-2,8.725
1746,-2,-1,-1,-5,-1,0,0,-1,8.73
1747,-1,2,1,5,1,-1,1,0,8.735
1748,-1,-1,1,4,-1,0,-1,-1,8.74
1749,-1,-4,-3,-7,-2,1,-2,-1,8.745000000000001
1750,-1,-2,-3,3,1,-2,0,-2,8.75
1751,0,2,0,-8,-2,0,1,-1,8.755
1752,0,-2,-1,1,-1,-1,-2,0,8.76
1753,-2,-4,-1,-3,-5,-1,-2,0,8.765
1754,-1,0,0,-3,1,1,0,-1,8.77
1755,0,0,1,6,-8,-1,-1,-1,8.775
1756,-2,-1,-4,-1,10,0,0,-1,8.78
1757,2,2,-1,-8,0,1,1,1,8.785
1758,-2,-1,1,0,-2,-1,-1,-2,8.790000000000001
1759,-2,-1,-1,0,1,-2,1,1,8.795
1760,0,0,0,6,-3,-1,0,0,8.8
1761,-1,-1,-1,-6,-3,0,0,0,8.805
1762,0,-2,-1,1,3,0,0,0,8.81
1763,-2,-2,-1,1,1,1,1,-1,8.815
1764,-2,1,-2,-7,-1,1,-1,-1,8.82
1765,-3,-2,-4,0,-10,-3,-1,-1,8.825000000000001
1766,1,0,-1,3,-2,-1,0,0,8.83
1767,-1,-4,-1,-1,1,0,-1,-2,8.835
1768,-2,-1,0,5,-4,-2,-3,-2,8.84
1769,-2,1,0,-8,1,-1,0,-2,8.845
1770,-2,-2,0,0,-3,-2,-1,-1,8.85
1771,-1,-1,-2,3,0,0,-1,0,8.855
1772,1,1,0,-10,-5,1,2,0,8.86
1773,1,-1,-4,-5,-1,-1,-1,-2,8.865
1774,-1,0,-1,0,-8,-2,-3,1,8.870000000000001
1775,-2,-1,0,1,6,-1,0,0,8.875
1776,-2,-3,-2,2,1,0,0,1,8.88
1777,-2,0,-1,0,-1,-2,1,0,8.885
1778,0,-2,-2,-4,-3,-2,0,-1,8.89
1779,-1,0,-2,-3,1,-2,-2,0,8.895
1780,-1,-1,-3,2,-2,-2,-2,-1,8.9
1781,-1,-1,1,-9,-5,-2,1,0,8.905
1782,-1,0,0,11,2,-2,0,0,8.91
1783,-1,0,-2,-2,7,3,0,-1,8.915000000000001
1784,0,-2,-1,9,2,-1,0,-1,8.92
1785,0,2,-1,-1,2,-2,-1,-1,8.925
1786,-2,2,2,-9,-3,-1,0,-2,8.93
1787,-1,-1,0,-4,-7,-4,0,-1,8.935
1788,2,-1,1,4,-5,0,-1,-1,8.94
1789,0,-1,1,-3,-1,1,0,0,8.945
1790,2,0,-2,-1,4,-1,-3,-1,8.950000000000001
1791,-1,-2,-2,-4,-2,-2,-1,0,8.955
1792,1,0,-4,-2,-2,1,-2,-2,8.96
1793,1,2,0,10,6,0,-2,0,8.965
1794,-2,0,-1,-7,-4,-2,-1,-1,8.97
1795,-1,-1,-1,1,0,0,0,-1,8.975
1796,-1,0,0,-4,-4,-2,-1,-2,8.98
1797,0,1,-1,3,-2,1,-1,-1,8.985
1798,1,-1,-2,-7,1,1,0,-1,8.99
1799,0,-1,-1,5,-4,-1,-4,-2,8.995000000000001
1800,-1,1,0,-4,-5,-5,2,1,9.0
1801,-1,-4,-2,3,0,-1,0,-1,9.005
1802,-1,-1,1,-4,1,1,0,0,9.01
1803,0,-1,0,-4,-2,-1,-1,2,9.015
1804,-1,-2,0,2,4,0,-2,-1,9.02
1805,-2,1,-2,-6,-5,-1,0,-2,9.025
1806,-2,-5,-4,4,2,-1,-2,-2,9.03
1807,-1,3,-1,-8,-6,1,2,-1,9.035
1808,0,-2,-2,8,11,0,0,0,9.040000000000001
1809,-1,0,0,-7,4,-1,-1,-2,9.045
1810,0,0,-1,1,0,3,0,0,9.05
1811,0,0,1,5,1,-3,0,-1,9.055
1812,-2,-3,-2,-9,-7,-3,-2,-2,9.06
1813,-2,0,-1,1,-4,-2,-1,-1,9.065
1814,-1,0,-1,1,-1,1,0,0,9.07
1815,-1,0,-1,-8,0,-2,-1,-2,9.075000000000001
1816,-1,0,-1,3,-3,1,0,-1,9.08
1817,-1,-3,0,-22,-8,-3,-1,-1,9.085
1818,-1,1,3,30,8,0,-1,-3,9.09
1819,-1,-3,-3,-4,-2,0,0,2,9.095
1820,-1,0,0,-2,-5,-4,-1,-2,9.1
1821,-1,-1,0,2,0,-1,0,-1,9.105
1822,0,0,-1,-12,-3,-1,0,0,9.11
1823,-3,-2,-4,-1,0,-2,-1,-2,9.115
1824,0,1,1,0,-1,0,-1,-1,9.120000000000001
1825,-1,1,-3,3,2,2,-1,1,9.125
1826,0,-1,0,-6,-5,-2,-1,-2,9.13
1827,-2,-2,1,7,1,-1,-1,-1,9.135
1828,0,0,0,-3,-1,-1,1,-1,9.14
1829,1,-2,-1,5,-2,-2,-1,1,9.145
1830,-2,-2,-4,-13,-10,-3,-2,-2,9.15
1831,-1,0,-1,0,8,1,-1,-1,9.155
1832,0,-1,-3,-2,0,-2,-1,0,9.16
1833,0,-3,0,1,-3,-1,0,0,9.165000000000001
1834,-1,1,2,5,0,-1,1,1,9.17
1835,-1,0,-1,-2,-6,-1,-1,-1,9.175
1836,-1,-1,1,-1,2,1,0,-1,9.18
1837,-1,-1,-2,6,1,-1,-1,1,9.185
1838,0,-2,-1,-5,-1,0,0,-1,9.19
1839,-2,-1,0,-2,-1,-2,0,1,9.195
1840,-1,0,0,-22,-4,0,-1,-1,9.200000000000001
1841,-1,0,0,23,7,0,0,-1,9.205
1842,-2,0,-1,-1,-2,-2,-1,-1,9.21
1843,0,-1,0,3,0,1,-2,-1,9.215
1844,-2,-2,-2,-2,-3,-2,-2,0,9.22
1845,0,-1,-2,-26,-9,-3,-2,-2,9.225
1846,0,0,0,15,13,2,0,-1,9.23
1847,0,0,0,-12,0,1,0,-2,9.235
1848,0,0,1,8,0,-1,0,-2,9.24
1849,-3,-2,-2,0,4,3,1,-2,9.245000000000001
1850,-1,-1,-3,-5,-7,-3,0,0,9.25
1851,-1,1,1,-23,-12,-1,-1,-1,9.255
1852,0,1,-2,15,9,1,0,1,9.26
1853,0,0,-1,9,2,0,-2,-2,9.265
1854,0,-1,1,-4,0,0,0,0,9.27
1855,0,-2,-1,0,-2,-1,-1,-1,9.275
1856,0,0,-1,-6,-5,-1,-1,-2,9.28
1857,-1,-1,-2,2,-2,-2,-1,-2,9.285
1858,-1,2,-2,-6,-3,-1,0,1,9.290000000000001
1859,-1,-3,-2,7,2,-2,0,-1,9.295
1860,0,-2,1,3,-5,0,1,-1,9.3
1861,1,-1,-1,-4,-5,-1,-2,0,9.305
1862,0,-2,-1,-4,8,0,-2,-2,9.31
1863,-2,-1,0,4,0,0,0,-1,9.315
1864,-2,-1,-1,-4,-2,-1,-1,-1,9.32
1865,1,1,1,1,-3,-1,1,-1,9.325000000000001
1866,-1,-2,-2,-8,-2,-1,-2,-2,9.33
1867,0,1,0,15,-2,0,-3,0,9.335
1868,-2,-2,-3,-3,12,1,-2,-2,9.34
1869,-1,0,0,-27,-6,-2,-1,-1,9.345
1870,-1,-3,-3,35,7,1,0,-2,9.35
1871,1,-1,0,4,0,-2,-1,-2,9.355
1872,-1,0,0,-3,-6,-3,0,1,9.36
1873,-2,-1,-1,5,3,-2,-1,0,9.365
1874,-2,0,-1,-8,-3,-2,-2,1,9.370000000000001
1875,-1,0,-2,-6,-5,-1,-1,-1,9.375
1876,0,-1,-1,2,0,1,-1,-1,9.38
1877,0,-2,0,0,1,-1,1,-2,9.385
1878,-2,0,1,-9,-10,-3,0,-1,9.39
1879,-1,0,-1,5,6,1,-1,-1,9.395
1880,0,0,1,5,-4,0,0,-1,9.4
1881,0,-1,-3,-3,3,0,-2,-1,9.405
1882,1,-1,-2,-3,-3,-1,0,0,9.41
1883,-1,-2,-2,-2,-6,-2,0,0,9.415000000000001
1884,1,-3,-2,-2,-3,-2,-1,-3,9.42
1885,-2,-2,-2,-13,-5,0,-1,-1,9.425
1886,1,-1,0,12,4,0,-1,-1,9.43
1887,-1,0,-1,-4,2,0,-1,-1,9.435
1888,-1,-5,-1,0,-5,-3,1,0,9.44
1889,-1,0,0,-1,0,1,-1,-1,9.445
1890,0,-1,-1,-15,-5,-1,-1,-2,9.450000000000001
1891,0,-1,1,-15,1,-2,-1,-3,9.455
1892,-3,-3,-1,11,5,0,-1,-1,9.46
1893,1,0,0,10,2,-2,-2,0,9.465
1894,1,0,-3,-1,-8,-2,0,-1,9.47
1895,0,1,0,-3,1,2,0,0,9.475
1896,-1,-1,-1,-3,-2,-1,-1,0,9.48
1897,-1,-1,-2,-2,-6,-2,0,-1,9.485
1898,0,0,2,-3,4,1,-1,1,9.49
1899,0,-2,-1,11,-4,-1,-2,0,9.495000000000001
1900,0,2,-1,-13,-2,0,-3,-2,9.5
1901,0,0,0,7,5,1,1,0,9.505
1902,-1,-1,-1,-10,-7,-3,0,-2,9.51
1903,-2,-1,0,-3,-3,-1,-1,-1,9.515
1904,-1,-2,0,8,2,1,-2,1,9.52
1905,-1,-3,-3,3,0,-3,-3,-1,9.525
1906,0,0,-2,-1,-2,0,0,-1,9.53
1907,-1,-3,-1,-4,-3,-2,0,-2,9.535
1908,0,0,-1,-6,4,-2,-3,-3,9.540000000000001
1909,-2,-1,0,0,2,0,1,-2,9.545
1910,-2,-2,-1,-6,0,0,1,-1,9.55
1911,-1,-2,-1,4,-4,-1,0,0,9.555
1912,0,-2,-2,-2,-5,-1,0,-2,9.56
1913,0,0,0,3,2,0,0,-1,9.565
1914,-1,-2,1,1,2,0,-2,0,9.57
1915,-2,0,-3,-2,-3,-2,0,0,9.575000000000001
1916,0,0,-1,1,0,-4,0,0,9.58
1917,0,1,1,-4,-7,-1,0,1,9.585
1918,-2,-2,0,-1,-1,-2,-1,-1,9.59
1919,1,-2,-1,-1,1,-2,-1,0,9.595
1920,0,1,0,-20,-2,3,0,0,9.6
1921,-1,-1,-1,25,9,-1,-1,-1,9.605
1922,-1,-1,0,-7,-3,-1,-1,-2,9.61
1923,1,1,-1,5,-1,-1,0,-2,9.615
1924,-2,0,-2,-1,2,-2,0,-1,9.620000000000001
1925,-2,-2,-2,-6,-6,-3,-2,0,9.625
1926,0,0,-1,4,3,1,-3,-1,9.63
1927,0,0,1,-5,1,0,-1,0,9.635
1928,-1,-1,-1,4,-1,0,0,0,9.64
1929,-2,0,-1,1,-3,-1,-2,-1,9.645
1930,-1,-4,-3,-7,0,-1,-1,-1,9.65
1931,-1,-1,0,-3,-3,-1,-1,-2,9.655
1932,0,0,0,1,-5,-1,-2,0,9.66
1933,-2,-2,-1,0,2,0,-1,0,9.665000000000001
1934,0,0,-1,-2,-2,0,0,0,9.67
1935,-1,-2,1,2,1,0,-2,-1,9.675
1936,-2,-1,-2,0,-2,-2,0,0,9.68
1937,0,-3,-1,-6,0,-3,-1,-1,9.685
1938,1,0,0,2,-1,-2,-2,1,9.69
1939,-1,1,-1,-28,-8,-1,1,2,9.695
1940,0,-1,0,43,15,2,-1,-1,9.700000000000001
1941,0,-1,0,1,2,1,2,-1,9.705
1942,-2,-1,-3,2,1,0,0,0,9.71
1943,0,-1,-1,2,2,-1,0,-1,9.715
1944,-1,0,0,-14,-7,0,-1,-1,9.72
1945,-1,-2,-4,-4,-1,0,1,-1,9.725
1946,0,0,-1,3,0,1,1,1,9.73
1947,-3,0,-2,3,-2,-2,-1,-3,9.735
1948,-1,-1,-2,-5,-1,-1,-3,-2,9.74
1949,0,0,0,-1,-1,-2,-1,-1,9.745000000000001
1950,-1,1,-1,-4,-2,1,-1,0,9.75
1951,1,-2,0,4,0,-1,0,0,9.755
1952,-1,-1,-1,-2,-1,-1,0,0,9.76
1953,-2,0,0,-3,-1,-1,-1,1,9.765
1954,-1,1,-1,-1,-2,-1,0,0,9.77
1955,-2,-1,-1,4,1,-1,0,-1,9.775
1956,-3,-3,-1,-2,0,-1,0,0,9.78
1957,-2,-1,-1,-4,-4,-2,-2,-1,9.785
1958,-2,-2,1,0,0,-2,-1,-1,9.790000000000001
1959,2,1,-1,6,2,1,-1,0,9.795
1960,-1,-1,-1,-8,-3,-1,0,0,9.8
1961,0,0,-1,-15,-5,-1,-1,-1,9.805
1962,-1,-1,0,19,2,-2,1,-2,9.81
1963,-3,-1,-1,9,3,0,-2,-2,9.815
1964,-1,-2,-1,-9,0,-1,-1,0,9.82
1965,-2,0,-1,-5,5,2,0,0,9.825000000000001
1966,1,-1,-1,5,-2,-2,-1,1,9.83
1967,-1,0,1,-1,-3,-2,1,0,9.835
1968,-1,-1,0,6,2,0,0,-2,9.84
1969,-1,-2,0,1,-3,-4,-1,0,9.845
1970,-2,-1,-1,-8,1,-1,-2,-1,9.85
1971,0,-1,-2,-2,0,-2,-2,0,9.855
1972,1,0,1,-6,-5,-1,-2,0,9.86
1973,-1,0,-1,-17,-6,1,0,-1,9.865
1974,-2,-2,-3,21,9,0,-1,-1,9.870000000000001
1975,-2,0,1,-2,0,-1,-2,1,9.875
1976,-1,-1,0,0,0,-1,-3,-1,9.88
1977,1,1,-1,2,0,0,0,0,9.885
1978,0,-3,-1,-2,0,-1,1,-1,9.89
1979,-2,-3,-2,-4,-3,-2,-1,-1,9.895
1980,-1,-2,-2,4,-2,-1,-2,0,9.9
1981,-2,0,-1,3,-5,-2,-1,0,9.905
1982,-1,-1,-2,-3,5,0,-2,-2,9.91
1983,-1,-1,-3,4,1,-1,1,-2,9.915000000000001
1984,-1,0,0,-7,-3,-1,0,-2,9.92
1985,-2,-2,-2,9,4,-2,-1,-1,9.925
1986,-1,-1,-1,-11,-7,0,0,-1,9.93
1987,0,-2,-1,-4,0,0,0,-1,9.935
1988,0,0,-2,3,1,0,-2,-1,9.94
1989,-1,-2,0,-1,-1,0,-2,-2,9.945
1990,0,-2,0,-6,-5,-1,-2,-1,9.950000000000001
1991,-2,-2,0,0,-2,-1,-2,1,9.955
1992,1,0,0,-5,-4,-1,-1,0,9.96
1993,-1,-2,-3,9,0,0,-2,0,9.965
1994,-1,0,1,-4,-4,-1,-1,-1,9.97
1995,-2,-2,0,-2,-1,0,-2,-1,9.975
1996,-2,-2,0,3,0,0,-1,0,9.98
1997,0,-2,1,-10,-6,-2,-1,0,9.985
1998,0,-1,-2,2,-7,-1,-1,-1,9.99
1999,2,-1,1,7,4,1,1,0,9.995000000000001
2000,0,-3,1,-9,-1,-2,0,0,10.0
2001,0,1,1,-6,-1,0,-1,-1,10.005
2002,-3,-2,-3,-1,-4,-4,-1,0,10.01
2003,-1,-1,-1,-4,5,1,0,-2,10.015
2004,-1,0,-1,6,1,0,1,-1,10.02
2005,-1,0,1,3,-3,-1,-1,-1,10.025
2006,0,1,-1,-5,1,0,1,-2,10.03
2007,-2,-2,-2,-5,-3,-3,-1,1,10.035
2008,-2,-2,-1,3,4,-1,-2,-1,10.040000000000001
2009,-1,-2,-1,0,0,-2,-1,-1,10.045
2010,1,0,-1,-4,-1,-1,-1,0,10.05
2011,-2,-3,-3,-1,0,-1,-1,-3,10.055
2012,0,0,-2,-7,-4,-4,-2,-2,10.06
2013,0,-3,-3,6,-5,-2,-1,-1,10.065
2014,-1,-1,-1,0,4,1,-1,0,10.07
2015,0,2,-1,-3,-7,-4,0,0,10.075000000000001
2016,-1,-1,0,6,-4,2,2,-1,10.08
2017,0,-1,-2,-9,-1,-1,-1,-1,10.085
2018,-2,-1,-2,-4,0,0,-1,1,10.09
2019,-2,-1,-1,4,0,1,-3,0,10.095
2020,-1,0,-3,-13,-2,-2,-1,0,10.1
2021,-1,0,0,0,1,-1,2,0,10.105
2022,0,-1,0,-2,-3,-2,-1,-1,10.11
2023,-1,-1,1,-1,3,0,0,-1,10.115
2024,-1,0,-1,-3,-1,-2,0,0,10.120000000000001
2025,-2,-2,-2,9,-4,0,0,-2,10.125
2026,1,0,-1,-3,3,-1,-1,-1,10.13
2027,0,0,-4,-19,-4,1,1,-1,10.135
2028,0,-2,-1,27,4,0,-1,-1,10.14
2029,1,-1,0,0,-1,0,1,0,10.145
2030,-1,-1,1,-4,-3,0,-1,-1,10.15
2031,-1,0,-1,1,-3,-1,-2,1,10.155
2032,-2,0,1,-9,-1,-2,-1,-1,10.16
2033,0,0,-1,-4,3,-2,-1,-2,10.165000000000001
2034,1,-1,-1,4,-3,-1,-2,-1,10.17
2035,-2,-2,-3,-3,1,-1,-1,-1,10.175
2036,2,0,0,-1,-3,-1,-1,0,10.18
2037,-1,-1,-1,2,1,-2,-1,-1,10.185
2038,-2,1,-1,-8,1,0,1,-1,10.19
2039,-1,-1,-1,6,-2,-1,-1,-1,10.195
2040,-1,-1,-2,0,1,0,1,-1,10.200000000000001
2041,-1,1,1,1,-8,-3,-2,-1,10.205
2042,-3,-1,-2,-6,7,0,-4,-2,10.21
2043,0,-3,-1,2,0,-1,0,-1,10.215
2044,-1,-1,-1,0,2,1,1,1,10.22
2045,1,-1,1,0,2,-1,1,-1,10.225
2046,0,1,0,-1,-4,-3,-1,0,10.23
2047,0,0,0,-23,-8,-2,0,-2,10.235
2048,-1,-3,0,29,7,0,-2,-1,10.24
2049,-2,-1,-2,-2,2,-1,-2,2,10.245000000000001
2050,0,-2,0,1,-4,0,-1,-1,10.25
2051,1,0,-1,3,3,0,-1,-2,10.255
2052,-2,1,0,-12,-4,-1,-1,-1,10.26
2053,-3,-1,-4,-2,1,0,0,-1,10.265
2054,-1,0,-2,2,-1,-1,0,0,10.27
2055,1,0,-1,3,1,-2,-1,0,10.275
2056,0,-1,0,-7,-1,0,-2,-2,10.28
2057,0,0,0,2,2,1,0,0,10.285
2058,-3,-3,-2,-5,-5,1,-1,-2,10.290000000000001
2059,-2,0,0,7,-7,-3,-1,0,10.295
2060,-1,0,-2,-13,5,-2,0,1,10.3
2061,-2,-1,-2,-8,1,1,1,-1,10.305
2062,-1,-2,0,10,-1,-1,0,0,10.31
2063,0,-2,-1,5,-2,-2,0,-1,10.315
2064,0,-1,0,-2,-6,-2,-1,-1,10.32
2065,-2,0,-3,-8,1,0,-2,-2,10.325000000000001
2066,-1,0,0,-20,-2,-1,0,0,10.33
2067,-3,-1,-1,36,11,2,0,0,10.335
2068,-1,-1,0,-4,-4,-1,0,-1,10.34
2069,1,-2,-1,2,3,-1,-1,0,10.345
2070,0,-1,-2,1,-3,-1,-2,-2,10.35
2071,0,-2,-2,-11,-3,-2,0,-2,10.355
2072,0,-1,-1,-6,-2,-1,-1,-1,10.36
2073,-1,-3,-1,1,-5,-1,-2,1,10.365
2074,1,0,0,10,-5,-1,1,0,10.370000000000001
2075,-1,-1,0,-10,-1,1,-1,0,10.375
2076,-2,-2,-2,2,-4,1,-1,-1,10.38
2077,-1,-2,-3,-5,-3,-2,-1,-2,10.385
2078,-1,1,-1,-16,-2,-3,-1,-1,10.39
2079,-2,-1,2,29,0,-1,1,0,10.395
2080,-3,-2,-4,-11,-6,-2,-2,0,10.4
2081,-1,0,3,-8,0,2,1,-1,10.405
2082,-1,-2,-1,11,12,2,0,-1,10.41
2083,1,1,0,-10,0,1,-1,0,10.415000000000001
2084,-1,-1,0,6,4,0,-2,-1,10.42
2085,-1,0,-2,1,-3,1,-2,0,10.425
2086,-1,-4,1,-4,-6,-4,-2,-2,10.43
2087,-1,0,-1,-8,1,-2,-1,-2,10.435
2088,1,-2,-1,-5,-3,1,-1,0,10.44
2089,-1,-2,-1,8,4,-1,-2,-1,10.445
2090,0,0,-1,2,1,0,0,0,10.450000000000001
2091,-1,-2,-1,0,-4,-1,-2,-2,10.455
2092,-1,0,-1,-10,0,-1,-1,-3,10.46
2093,1,1,-1,-1,-1,-2,2,0,10.465
2094,-2,-1,0,5,0,1,-1,0,10.47
2095,0,0,-2,-8,-6,0,-1,0,10.475
2096,0,0,-3,-1,-5,0,-2,0,10.48
2097,-1,0,0,5,2,-1,1,-1,10.485
2098,-1,-2,-3,-2,0,-2,-2,1,10.49
2099,-1,-2,0,-7,-9,-1,0,0,10.495000000000001
2100,0,0,-1,-2,-4,-3,-1,-2,10.5
2101,0,0,0,1,1,1,-1,-2,10.505
2102,1,-1,0,2,-1,1,2,1,10.51
2103,-2,-1,-1,-9,1,0,-1,0,10.515
2104,-1,0,-2,3,0,-1,-1,-1,10.52
2105,-1,-1,-2,-1,-2,-1,-2,-3,10.525
2106,0,1,-2,2,-1,-2,-3,-2,10.53
2107,1,0,-1,0,4,0,-2,0,10.535
2108,0,-1,0,3,0,-2,1,0,10.540000000000001
2109,-1,-1,1,8,2,-1,-1,0,10.545
2110,-2,-3,-2,-11,-2,1,0,-1,10.55
2111,-2,0,-1,0,1,-2,-1,-1,10.555
2112,-1,1,0,3,3,-1,-1,-1,10.56
2113,-1,-3,-1,-2,-3,0,-1,0,10.565
2114,-1,-1,-2,3,-1,0,0,0,10.57
2115,0,-2,-1,-4,-5,-4,-1,-1,10.575000000000001
2116,-1,1,-1,10,7,2,-1,-1,10.58
2117,0,0,-1,-6,-1,-2,-1,-1,10.585
2118,-1,-1,-1,1,0,-1,0,0,10.59
2119,1,0,-2,3,0,1,-1,-2,10.595
2120,0,-1,1,-8,-1,0,1,1,10.6
2121,-2,-1,-2,0,0,-2,-2,-2,10.605
2122,-2,-1,-1,3,-2,1,-2,-1,10.61
2123,0,-1,-1,-8,1,0,-1,0,10.615
2124,-1,-3,-1,-5,-4,0,-1,-1,10.620000000000001
2125,0,-3,-1,1,3,0,-2,0,10.625
2126,-1,0,0,-1,-5,-2,-1,-1,10.63
2127,-1,-1,-3,-5,-2,-1,-1,-1,10.635
2128,-1,-1,0,7,0,-2,-1,-1,10.64
2129,0,0,0,-1,0,-1,1,0,10.645
2130,0,0,-2,-1,0,0,0,-1,10.65
2131,1,-1,0,8,2,1,0,-1,10.655
2132,-1,-1,-1,-8,1,1,-1,0,10.66
2133,-1,-3,-3,-7,-5,-2,-3,0,10.665000000000001
2134,1,0,0,0,2,-2,0,-1,10.67
2135,-1,0,-1,-2,-1,-2,-2,-1,10.675
2136,-1,-1,-1,3,-5,0,0,-1,10.68
2137,-2,-1,0,0,-2,0,0,-2,10.685
2138,0,-2,-1,-2,0,1,1,1,10.69
2139,-3,-1,-1,9,1,-3,-3,-1,10.695
2140,-1,2,0,-13,0,0,1,-1,10.700000000000001
2141,-2,1,-1,-1,-4,-2,0,-1,10.705
2142,-1,-1,-3,4,0,-1,-1,-1,10.71
2143,0,-2,0,-10,-7,0,0,0,10.715
2144,0,-1,-1,0,2,-2,0,1,10.72
2145,0,-1,0,4,2,-2,0,-1,10.725
2146,-1,0,-2,-5,-3,-1,-1,-1,10.73
2147,-1,0,1,6,11,1,-1,0,10.735
2148,-1,0,-1,1,-4,-1,0,-2,10.74
2149,0,0,-2,-6,-4,-1,1,1,10.745000000000001
2150,-1,-1,0,2,2,2,0,-1,10.75
2151,-1,-1,-3,-31,-12,-3,-2,0,10.755
2152,0,-1,-2,35,10,-1,-2,-1,10.76
2153,0,1,0,-2,0,-1,1,0,10.765
2154,-2,-3,-1,2,1,0,-2,-1,10.77
2155,0,0,-2,-4,-3,-3,-2,-1,10.775
2156,0,-1,-1,2,-12,-1,-1,-1,10.78
2157,-4,-2,-1,-15,17,7,-1,1,10.785
2158,1,-1,0,-7,-9,-3,-1,-2,10.790000000000001
2159,-1,0,-2,6,-9,-1,0,-1,10.795
2160,2,-2,1,-19,0,-3,-1,1,10.8
2161,1,-1,0,4,-3,-1,-3,-2,10.805
2162,0,-2,1,17,10,0,0,0,10.81
2163,0,0,-3,-14,-19,2,-2,-1,10.815
2164,-4,-2,-1,6,10,1,0,-1,10.82
2165,0,-2,-3,-11,-6,-1,-2,-2,10.825000000000001
2166,-1,0,-2,-4,8,-2,-2,-1,10.83
2167,-1,1,2,13,-8,-3,-2,-1,10.835
2168,1,-1,-2,-11,-5,2,-2,1,10.84
2169,-2,-1,-1,13,2,0,-2,1,10.845
2170,-4,-1,-1,4,-7,-5,-1,-2,10.85
2171,1,-1,-1,-3,1,-2,-1,-4,10.855
2172,-1,-1,0,-5,1,2,0,0,10.86
2173,2,-2,-1,5,-5,-1,-1,0,10.865
2174,3,1,-1,-13,-4,-1,-1,-1,10.870000000000001
2175,-4,-3,0,0,10,0,2,1,10.875
2176,-1,-1,-1,-3,-6,-3,-1,-3,10.88
2177,-2,0,1,6,0,-3,0,-2,10.885
2178,-2,-2,-1,-8,-4,0,0,1,10.89
2179,-2,-2,-2,4,7,0,0,-2,10.895
2180,0,-2,-2,4,-2,-2,-2,-2,10.9
2181,1,-1,0,3,-1,0,0,-1,10.905
2182,0,-2,-1,-29,-4,0,-1,-1,10.91
2183,1,1,1,22,7,-1,-1,-1,10.915000000000001
2184,-2,-3,0,3,0,-1,-1,2,10.92
2185,0,1,-1,-2,-1,1,-2,-3,10.925
2186,-1,-2,0,3,-8,-2,-2,-1,10.93
2187,-1,1,0,-9,0,2,-1,2,10.935
2188,-1,0,-2,-2,-2,1,1,-2,10.94
2189,0,-2,-2,-1,4,-1,0,-1,10.945
2190,-1,1,0,6,3,-1,-1,0,10.950000000000001
2191,-1,-1,1,-2,-2,-1,0,0,10.955
2192,0,0,0,3,-9,-3,-1,-1,10.96
2193,-1,-2,-2,-9,1,0,-2,-1,10.965
2194,-1,-2,-1,9,0,1,-1,-2,10.97
2195,0,0,-2,2,6,0,1,0,10.975
2196,3,2,0,-6,-3,-3,0,0,10.98
2197,-2,-1,-2,2,-6,0,0,-1,10.985
2198,-4,-2,-1,2,1,0,-1,-2,10.99
2199,0,-2,-2,-24,-6,-2,-1,0,10.995000000000001
2200,0,-1,0,33,12,1,-1,0,11.0
2201,2,-2,-1,-9,-10,-4,0,1,11.005
2202,0,1,-1,2,2,1,0,2,11.01
2203,0,0,0,7,2,-1,0,-1,11.015
2204,-1,0,-2,-13,-9,-3,-1,-1,11.02
2205,-1,0,-1,-3,0,0,1,0,11.025
2206,1,-1,-1,4,-3,0,-1,0,11.03
2207,-1,-2,-1,-1,2,0,-1,-1,11.035
2208,-2,-2,1,-11,-2,0,-1,1,11.040000000000001
2209,-1,2,-1,5,0,-1,-1,1,11.045
2210,0,-1,-2,-5,-12,-3,-2,-2,11.05
2211,-1,0,-2,-1,4,1,0,1,11.055
2212,-2,-1,-1,2,3,2,0,-1,11.06
2213,-1,-1,0,-1,0,-2,-2,-3,11.065
2214,1,0,0,4,5,-1,-1,0,11.07
2215,-1,-1,-1,-7,-9,-3,-1,0,11.075000000000001
2216,-2,0,-1,-8,3,0,0,-1,11.08
2217,-2,-3,-1,20,3,-1,-1,-1,11.085
2218,0,-1,-2,-9,-7,-1,-2,-2,11.09
2219,0,-3,1,11,11,3,-1,1,11.095
2220,0,-1,-4,-9,-6,-3,-1,0,11.1
2221,-1,-1,0,-4,-6,-2,0,-2,11.105
2222,1,-1,-1,-2,4,1,0,-1,11.11
2223,-6,2,-2,5,0,-1,-1,-1,11.115
2224,2,2,0,7,-5,-2,0,-2,11.120000000000001
2225,1,-1,-1,-14,4,-1,0,2,11.125
2226,-1,-2,-3,-1,3,-1,-1,-1,11.13
2227,0,-2,0,-3,-2,-1,0,-2,11.135
2228,-2,-2,-3,0,1,0,0,0,11.14
2229,-1,2,1,2,-2,-2,-1,-2,11.145
2230,-1,-2,-1,1,-5,-2,1,0,11.15
2231,1,-2,-1,3,7,1,1,0,11.155
2232,0,2,-2,-4,6,-1,-2,-1,11.16
2233,-2,-3,0,1,-3,0,-1,0,11.165000000000001
2234,-2,0,-1,-4,-1,1,-1,1,11.17
2235,-1,-3,0,-18,-5,-4,-2,-2,11.175
2236,-3,-1,-2,14,-4,0,0,0,11.18
2237,0,2,-1,16,6,0,0,0,11.185
2238,-3,-3,-2,-17,-4,-3,-2,-1,11.19
2239,1,-1,-2,21,4,-3,-1,-4,11.195
2240,-4,-1,1,-7,-4,0,-1,-1,11.200000000000001
2241,-1,0,0,5,-11,1,-1,-1,11.205
2242,-2,0,-1,-9,12,0,0,0,11.21
2243,-1,-1,-3,-24,9,0,0,-1,11.215
2244,2,-2,-2,19,-1,-4,-2,0,11.22
2245,0,2,0,5,8,4,0,1,11.225
2246,-3,-5,-3,11,6,-1,-3,-3,11.23
2247,0,2,16,6,-18,-4,-4,-2,11.235
2248,-5,-8,-32,-22,-3,2,5,-1,11.24
2249,-1,-3,-11,47,-18,-8,1,-3,11.245000000000001
2250,1,0,1,-20,26,8,-2,0,11.25
2251,1,-1,0,32,8,3,7,3,11.255
2252,1,2,14,-12,-21,-5,-11,-3,11.26
2253,-1,-3,1,-19,4,1,-3,0,11.265
2254,2,5,3,7,8,0,2,1,11.27
2255,-7,0,15,-16,-5,-3,-3,-1,11.275
2256,1,-3,-14,31,2,2,2,-18,11.28
2257,-2,-8,-6,-69,-9,-1,-2,10,11.285
2258,2,-6,5,36,-1,-1,1,3,11.290000000000001
2259,-4,3,-2,-12,-8,-2,-2,-1,11.295
2260,0,6,12,5,-14,-4,2,1,11.3
2261,9,-3,-2,-10,11,-2,-4,-7,11.305
2262,-22,-1,-2,3,-8,-2,3,-3,11.31
2263,-1,-1,-4,25,-7,0,0,2,11.315
2264,-5,-1,-1,-25,12,-1,-2,1,11.32
2265,2,4,-2,-12,1,3,1,-2,11.325000000000001
2266,5,7,-1,-6,-36,-3,-1,2,11.33
2267,1,-8,-11,3,14,2,0,-2,11.335
2268,-6,-4,4,-2,7,1,-2,2,11.34
2269,-4,1,9,-4,-8,0,0,-3,11.345
2270,1,-4,-4,11,-3,-2,0,-4,11.35
2271,1,1,-10,-26,-13,-4,-4,-3,11.355
2272,3,3,6,48,13,3,0,4,11.36
2273,2,0,-8,-24,-10,-9,-1,-1,11.365
2274,-2,-1,0,-34,10,6,1,-1,11.370000000000001
2275,13,14,-6,24,9,-1,-2,2,11.375
2276,-7,-11,11,-28,2,3,2,-12,11.38
2277,-4,-14,-19,21,-22,-6,-4,-2,11.385
2278,0,4,7,-18,16,3,-1,2,11.39
2279,15,0,8,-42,-18,-3,2,-16,11.395
2280,14,11,-22,58,40,5,4,23,11.4
2281,-26,-20,8,-11,-29,-7,-4,-10,11.405
2282,-30,-12,4,7,-37,-9,-8,-16,11.41
2283,3,9,16,-8,10,2,1,12,11.415000000000001
2284,8,5,-10,9,14,-2,-1,-14,11.42
2285,2,0,-4,-40,18,6,3,39,11.425
2286,11,1,-28,-15,-2,-2,2,-25,11.43
2287,-14,-19,16,22,-11,-4,-7,7,11.435
2288,5,22,19,-48,-39,-7,-1,-2,11.44
2289,-1,5,3,50,47,10,5,-7,11.445
2290,13,-8,-16,-43,-29,-18,-12,18,11.450000000000001
2291,-14,22,-4,4,-14,11,8,3,11.455
2292,12,-21,-17,-24,35,7,1,-11,11.46
2293,5,-27,-2,-54,-56,-20,-10,-9,11.465
2294,10,31,26,14,34,15,9,-15,11.47
2295,-9,-13,-15,-5,-29,-8,0,15,11.475
2296,-3,-11,14,38,2,4,0,9,11.48
2297,3,31,1,-2,-7,-1,5,-6,11.485
2298,6,-17,-1,29,15,-4,-7,6,11.49
2299,21,32,-21,-74,3,4,-6,16,11.495000000000001
2300,-21,-29,16,67,-5,4,5,-19,11.5
2301,-16,0,-29,-71,-60,-21,-4,-32,11.505
2302,5,-6,20,-41,7,11,8,22,11.51
2303,-9,11,-14,85,2,-2,3,-1,11.515
2304,19,38,-5,-67,65,11,-3,12,11.52
2305,-15,-57,14,97,92,14,-3,-2,11.525
2306,17,12,7,105,11,9,-5,-11,11.53
2307,-8,19,-55,-22,-16,-9,-2,49,11.535
2308,-18,-37,20,45,52,7,7,-50,11.540000000000001
2309,-34,-29,-7,10,-23,1,-3,0,11.545
2310,26,39,-15,-102,-53,-11,3,14,11.55
2311,-2,-20,20,-57,2,7,-14,-4,11.555
2312,-5,31,-7,-82,-42,-10,9,12,11.56
2313,-17,-7,7,-32,41,17,-5,35,11.565
2314,4,-7,-38,-42,25,4,6,1,11.57
2315,41,-3,22,45,-17,-8,-18,-48,11.575000000000001
2316,-76,16,-20,-82,-54,-19,-17,17,11.58
2317,-6,-6,22,-90,-29,-2,6,-20,11.585
2318,17,4,-2,36,11,4,1,16,11.59
2319,3,-22,16,31,10,-5,10,-19,11.595
2320,71,1,-11,-24,12,8,-1,15,11.6
2321,-14,26,-3,-71,-99,-25,-9,8,11.605
2322,-38,-30,-10,-28,67,17,10,-7,11.61
2323,-9,5,13,87,-31,-7,14,0,11.615
2324,-5,-12,8,-43,-9,-9,-29,-34,11.620000000000001
2325,57,34,-18,18,-47,-4,4,19,11.625
2326,22,20,13,-74,15,2,0,1,11.63
2327,-28,-20,5,39,44,8,7,18,11.635
2328,28,37,24,-22,19,14,24,7,11.64
2329,10,-13,6,-44,-60,-14,-26,-15,11.645
2330,-32,-7,40,73,28,-2,-3,-16,11.65
2331,0,-24,-38,-95,28,9,7,1,11.655
2332,21,30,-21,35,-23,-8,-7,27,11.66
2333,8,-11,22,116,13,8,20,-7,11.665000000000001
2334,-19,-45,-22,-21,-46,-15,-12,-29,11.67
2335,-9,-3,6,-108,-47,-4,3,1,11.675
2336,-34,2,-15,49,14,-3,-11,27,11.68
2337,27,23,17,90,40,4,5,-17,11.685
2338,19,6,-20,-53,-17,-6,-4,18,11.69
2339,0,-1,20,122,10,3,-3,-31,11.695
2340,-41,-28,-12,-95,-59,-15,-9,-8,11.700000000000001
2341,12,3,-34,-41,98,19,6,19,11.705
2342,2,7,14,106,42,10,-2,15,11.71
2343,5,3,-5,-114,-70,-20,-8,-17,11.715
2344,6,-34,25,105,19,10,13,2,11.72
2345,-38,22,-5,3,12,0,-3,8,11.725
2346,19,-2,22,-55,-7,-4,5,1,11.73
2347,8,-12,-14,-3,78,17,-7,-10,11.735
2348,-29,-7,8,-72,-83,-21,-4,-33,11.74
2349,3,-17,-4,-11,-14,1,10,69,11.745000000000001
2350,15,-3,5,55,-5,-7,-16,-20,11.75
2351,-5,38,14,-36,4,3,-6,10,11.755
2352,15,-5,15,-42,11,-2,6,15,11.76
2353,-20,14,-43,-61,-46,-12,-5,-19,11.765
2354,-43,-19,-14,-15,-5,0,-7,-8,11.77
2355,11,-20,-24,-97,-42,-9,-3,5,11.775
2356,13,14,1,16,-29,-10,-11,1,11.78
2357,23,34,7,-28,54,29,12,-32,11.785
2358,12,-21,-10,24,-89,-21,3,21,11.790000000000001
2359,-12,-5,-20,-39,94,17,5,23,11.795
2360,-3,3,6,29,-62,-7,5,-13,11.8
2361,-16,-43,-5,5,-14,-9,-12,-14,11.805
2362,16,34,-30,5,28,4,3,-6,11.81
2363,-2,-18,34,68,-39,-5,4,30,11.815
2364,3,2,-20,-45,-23,-4,10,-18,11.82
2365,13,-18,12,116,42,13,-5,0,11.825000000000001
2366,-25,10,7,15,-13,2,4,-4,11.83
2367,5,-15,-25,-74,-36,-22,-16,-22,11.835
2368,-23,16,4,-25,40,7,2,-14,11.84
2369,-3,27,10,47,-13,-6,-1,-8,11.845
2370,-4,-49,11,68,-54,-8,0,18,11.85
2371,5,32,4,58,67,9,12,-4,11.855
2372,10,-17,-5,-59,-5,3,-5,20,11.86
2373,-25,4,22,73,19,-4,0,-11,11.865
2374,19,53,-12,-16,40,13,10,2,11.870000000000001
2375,-8,-33,17,3,-15,-4,2,-23,11.875
2376,10,-8,0,88,92,14,1,11,11.88
2377,1,19,-23,-117,-25,-2,-12,4,11.885
2378,-1,-28,13,21,3,-1,9,-32,11.89
2379,7,24,10,-8,-26,-6,-20,-31,11.895
2380,-11,5,-52,15,-39,-13,3,22,11.9
2381,-3,-36,6,-1,47,13,-2,-10,11.905
2382,13,22,41,92,36,5,-1,6,11.91
2383,-15,-14,-17,18,54,13,5,8,11.915000000000001
2384,14,-11,18,9,4,-5,-6,-20,11.92
2385,-26,-11,4,29,-14,-10,2,14,11.925
2386,35,20,-2,-45,32,18,5,18,11.93
2387,-15,41,12,23,-33,-12,3,-24,11.935
2388,-37,-47,-38,-91,-9,-2,-10,7,11.94
2389,7,-29,35,19,12,9,6,11,11.945
2390,-6,-17,-5,-73,11,-4,-5,-39,11.950000000000001
2391,-6,20,-9,65,-19,-4,4,28,11.955
2392,4,-20,4,37,35,10,10,0,11.96
2393,-30,-24,-2,-16,49,9,0,15,11.965
2394,-10,-14,-17,28,-41,-16,-17,-38,11.97
2395,-18,7,-41,-8,-8,7,-1,-6,11.975
2396,24,9,8,-6,-9,-4,0,18,11.98
2397,15,30,-22,28,-22,-10,-10,9,11.985
2398,-2,10,13,51,-6,-3,-3,21,11.99
2399,2,-15,-2,13,-30,-15,-2,-24,11.995000000000001
2400,19,19,0,91,36,13,-6,8,12.0
2401,1,5,0,35,-23,-8,0,-6,12.005
2402,-14,-9,-10,-30,-45,-11,8,7,12.01
2403,13,-11,23,-30,28,7,-3,8,12.015
2404,9,-16,15,23,-40,-16,-6,-40,12.02
2405,39,29,23,-4,23,9,4,4,12.025
2406,-24,15,-9,-128,-59,-13,-7,2,12.030000000000001
2407,3,1,-22,93,52,21,19,22,12.035
2408,13,10,6,-47,-40,-6,-1,3,12.040000000000001
2409,1,-12,11,8,-4,-5,-8,-12,12.045
2410,-10,0,-41,-35,1,-3,-2,3,12.05
2411,-17,-35,22,-81,-40,1,10,3,12.055
2412,12,47,-2,37,25,7,-7,-6,12.06
2413,13,-35,5,-40,-63,-15,-2,-48,12.065
2414,-25,-4,-41,16,43,15,9,24,12.07
2415,8,-2,-4,-46,-32,-15,-15,4,12.075000000000001
2416,8,-3,0,77,41,12,3,5,12.08
2417,7,21,31,6,-20,-9,3,0,12.085
2418,7,24,-8,-29,17,0,-4,6,12.09
2419,-4,-33,13,-60,33,10,2,-8,12.095
2420,-5,8,-21,-4,-17,-7,-1,-5,12.1
2421,-7,8,-28,-54,-3,2,4,-6,12.105
2422,10,-13,24,8,0,4,6,-4,12.11
2423,-21,4,9,108,24,-3,-6,5,12.115
2424,3,1,25,-49,-19,-4,-12,-1,12.120000000000001
2425,15,18,-14,-26,73,18,9,4,12.125
2426,-26,11,15,71,-5,-5,-5,-39,12.13
2427,7,-11,-19,-13,-40,-6,-3,9,12.135
2428,-37,-47,8,12,37,8,5,0,12.14
2429,-7,12,-11,-16,-14,-6,-2,6,12.145
2430,18,-7,27,-15,-22,-5,1,2,12.15
2431,3,60,-21,17,21,2,-13,-11,12.155000000000001
2432,-5,-56,-9,0,-10,-3,3,-1,12.16
2433,-9,21,-8,-55,-21,-3,-3,-2,12.165000000000001
2434,-6,-5,12,29,25,4,-2,6,12.17
2435,4,-2,8,-48,-28,-7,-1,-8,12.175
2436,-1,12,-5,-9,-9,-3,0,9,12.18
2437,5,-3,4,-22,18,1,-3,-3,12.185
2438,-1,-6,-3,37,-11,-4,-1,8,12.19
2439,0,1,3,20,7,3,1,0,12.195
2440,2,6,-4,-2,-7,-4,-1,-3,12.200000000000001
2441,4,-6,0,25,0,0,1,-1,12.205
2442,-5,5,-1,-36,-18,-3,-3,3,12.21
2443,3,-7,2,-4,-2,-2,0,-2,12.215
2444,-8,11,5,58,29,3,5,0,12.22
2445,2,-1,-14,9,-9,-4,-2,-4,12.225
2446,-5,-15,-2,-47,-9,-1,-5,5,12.23
2447,1,-13,2,4,13,1,-1,-5,12.235
2448,4,4,1,-41,-15,-3,1,-1,12.24
2449,-2,-6,1,-3,0,-2,0,2,12.245000000000001
2450,-3,-12,1,-13,-7,-1,-5,1,12.25
2451,8,-3,2,6,-5,-2,0,-1,12.255
2452,-4,12,-3,-9,1,0,-1,-2,12.26
2453,1,-10,-3,2,1,1,-1,-1,12.265
2454,-4,-9,3,2,0,-2,-3,-1,12.27
2455,-1,0,0,5,-1,-1,1,-1,12.275
2456,-1,1,-3,-18,-4,0,-1,2,12.280000000000001
2457,-2,1,-3,8,-3,-3,-2,-2,12.285
2458,2,3,0,-7,-5,0,-2,1,12.290000000000001
2459,-1,0,0,4,10,0,0,-2,12.295
2460,0,3,-1,-6,-7,-4,-2,-1,12.3
2461,-1,2,-2,10,1,-1,0,-1,12.305
2462,-4,-1,-1,2,0,-2,0,-1,12.31
2463,0,-2,-2,-1,-5,-1,-2,-1,12.315
2464,-2,-1,-1,1,-1,0,-1,-3,12.32
2465,0,6,1,-10,-8,-1,0,-1,12.325000000000001
2466,-3,-4,-2,23,6,0,-1,0,12.33
2467,0,-1,-1,-2,-7,1,2,-3,12.335
2468,0,-2,-2,-9,-9,-4,-2,-2,12.34
2469,0,-1,0,-16,-1,1,1,0,12.345
2470,-1,-2,-3,21,8,0,2,0,12.35
2471,0,-3,-1,1,-9,0,-3,-3,12.355
2472,-1,3,0,8,2,-1,-2,1,12.36
2473,0,1,-1,4,-5,-3,0,-1,12.365
2474,-1,-3,-2,-14,-5,-2,-1,-3,12.370000000000001
2475,1,1,2,16,-2,-2,-3,1,12.375
2476,-2,-3,-3,-18,-3,-2,0,-1,12.38
2477,-1,-1,-2,7,-2,1,-1,0,12.385
2478,0,1,1,-6,6,1,0,0,12.39
2479,-1,-4,-1,4,9,1,0,-1,12.395
2480,-1,-1,-1,11,-9,-2,-1,0,12.4
2481,-1,-3,-2,4,2,-3,-1,-1,12.405000000000001
2482,-1,1,0,-2,-9,-2,0,1,12.41
2483,-2,0,1,-12,-7,-3,-2,0,12.415000000000001
2484,-1,-2,-3,-12,-5,-1,-2,-1,12.42
2485,0,-2,-3,16,6,-1,0,-1,12.425
2486,-1,-1,1,-5,-11,-2,-1,0,12.43
2487,-1,0,0,1,-1,-2,-1,-2,12.435
2488,-1,0,0,-15,-20,0,0,0,12.44
2489,-1,0,0,41,20,1,-2,-2,12.445
2490,0,-1,-1,-13,-4,-2,0,0,12.450000000000001
2491,1,-1,-1,-7,-4,-1,-2,-3,12.455
2492,0,1,1,6,-14,-4,0,-1,12.46
2493,-1,-1,0,-9,16,2,1,-1,12.465
2494,-1,0,0,4,1,-2,-2,-2,12.47
2495,-2,-1,0,9,1,3,3,0,12.475
2496,-1,3,0,-17,8,1,0,0,12.48
2497,2,-3,-1,18,-19,-6,-4,-1,12.485
2498,-2,-2,-4,-34,3,4,-1,0,12.49
2499,2,1,-2,14,0,-3,-1,0,12.495000000000001
2500,0,0,-2,4,6,2,1,-1,12.5
2501,-2,0,0,-5,-10,-2,-2,-2,12.505
2502,-1,-1,-2,0,-3,0,0,-1,12.51
2503,0,-1,0,-9,-5,-4,-3,-1,12.515
2504,-1,-3,-1,13,12,1,1,0,12.52
2505,-2,-2,2,-3,2,-1,0,0,12.525
2506,-1,-2,-1,-17,7,-1,-2,-2,12.530000000000001
2507,2,1,3,8,1,3,1,1,12.535
2508,-1,0,0,5,1,1,-1,0,12.540000000000001
2509,-1,1,-1,0,1,-1,-1,2,12.545
2510,-2,-2,-2,-23,-13,-2,0,-2,12.55
2511,0,-1,1,10,28,2,0,-1,12.555
2512,-1,-2,-1,9,7,2,-1,-2,12.56
2513,0,2,0,-11,-3,-1,-1,0,12.565
2514,-1,3,0,21,-9,-6,-2,-1,12.57
2515,0,-5,-4,-8,-6,0,-1,-1,12.575000000000001
2516,0,-3,0,2,8,2,0,0,12.58
2517,1,0,-1,-5,-6,-1,-1,-2,12.585
2518,0,-2,-1,8,7,0,-1,0,12.59
2519,-2,-2,-2,-4,-13,-3,-1,-2,12.595
2520,-2,1,0,-14,7,0,-2,-1,12.6
2521,-1,-2,-1,3,-10,-1,0,-2,12.605
2522,0,1,1,12,-1,2,0,0,12.61
2523,1,-1,-1,-21,4,0,1,0,12.615
2524,1,-2,0,0,-2,-1,1,0,12.620000000000001
2525,-2,-2,-3,1,11,2,-2,-1,12.625
2526,2,0,0,20,-9,-4,-1,-1,12.63
2527,-6,-5,-2,-32,0,-1,1,-1,12.635
2528,-1,-3,0,6,9,0,-3,-3,12.64
2529,2,2,0,0,-6,-1,0,0,12.645
2530,-2,-2,-4,-32,-6,-2,-3,-1,12.65
2531,2,3,-1,42,9,0,-1,0,12.655000000000001
2532,-2,0,-1,-10,-17,-4,0,0,12.66
2533,-1,-4,-2,-12,-5,-3,-2,1,12.665000000000001
2534,2,2,-2,5,8,2,0,1,12.67
2535,-3,-1,1,-22,4,0,-3,-1,12.675
2536,-1,-3,-1,3,-3,-3,-1,0,12.68
2537,-3,-2,-4,-4,-11,-3,0,0,12.685
2538,-1,-4,0,3,-2,0,-1,-3,12.69
2539,1,1,1,0,-10,0,-1,-1,12.695
2540,0,2,-1,2,-3,-1,-1,-2,12.700000000000001
2541,-1,-1,-1,-16,-8,-6,-4,0,12.705
2542,-1,-2,0,-7,5,0,0,2,12.71
2543,-1,-1,-2,34,6,1,0,-1,12.715
2544,0,1,-1,-5,-1,0,2,-2,12.72
2545,1,3,-1,19,0,0,1,0,12.725
2546,-3,-2,-3,-11,-3,-1,-1,-2,12.73
2547,-1,-1,-1,-7,-3,0,-1,-1,12.735
2548,0,-1,-1,-17,-13,-3,-1,1,12.74
2549,-2,-1,0,28,2,0,0,-2,12.745000000000001
2550,0,-1,1,-6,3,-1,0,0,12.75
2551,2,-1,-1,3,8,1,-2,0,12.755
2552,-2,-2,-3,13,7,-1,-1,-1,12.76
2553,-2,1,0,-18,0,2,2,-1,12.765
2554,-1,-4,-1,12,0,-1,-2,-2,12.77
2555,0,-1,1,-14,-8,-2,-2,0,12.775
2556,0,0,-1,-4,-2,0,-1,-1,12.780000000000001
2557,0,-2,-1,-4,8,2,-1,-1,12.785
2558,0,1,0,1,-3,-1,0,-1,12.790000000000001
2559,-2,-1,-1,4,-6,-2,-1,0,12.795
2560,-1,1,-1,-7,3,0,-1,-1,12.8
2561,-2,-1,1,11,-11,-1,0,0,12.805
2562,-2,-2,0,20,7,2,-1,-1,12.81
2563,1,-4,-4,-19,13,2,-1,0,12.815
2564,1,0,-2,0,-4,-2,0,0,12.82
2565,0,-1,0,-16,-8,-1,-3,-3,12.825000000000001
2566,-1,1,1,5,1,-2,1,-1,12.83
2567,-1,0,0,5,-9,-2,-2,-1,12.835
2568,-1,-1,-1,3,0,0,-2,0,12.84
2569,0,-1,-1,-12,4,1,-1,0,12.845
2570,1,-1,-2,-7,-5,0,-1,-1,12.85
2571,-1,0,3,-23,-14,-3,-1,-1,12.855
2572,0,-2,0,26,8,0,-2,-1,12.86
2573,0,1,0,-19,-4,-2,-1,0,12.865
2574,-1,-2,-1,22,5,-1,-1,-1,12.870000000000001
2575,0,1,-1,-6,-14,-5,0,1,12.875
2576,0,0,-1,-24,-6,0,-2,-2,12.88
2577,1,-1,1,21,17,7,2,1,12.885
2578,1,0,1,-9,-1,-1,-1,1,12.89
2579,-2,-3,-3,13,-5,-3,1,-1,12.895
2580,-3,-1,0,-3,-4,0,-1,-1,12.9
2581,-1,0,-2,12,4,-3,-1,-1,12.905000000000001
2582,-1,1,-1,-1,-2,-3,-2,-2,12.91
2583,-1,0,0,6,-1,0,1,-1,12.915000000000001
2584,1,0,2,-2,2,-2,-2,1,12.92
2585,-3,-2,-2,-11,2,1,-3,-3,12.925
2586,-2,-1,-1,5,-3,-1,-1,0,12.93
2587,-1,0,-1,-22,-7,0,1,0,12.935
2588,-2,-1,-1,30,-17,-2,-1,0,12.94
2589,0,-2,0,-12,22,3,1,0,12.945
2590,-1,-1,-3,-3,-10,-2,-2,-2,12.950000000000001
2591,-1,0,-2,-14,4,0,-3,-1,12.955
2592,-1,-2,-1,-9,1,-1,-2,-1,12.96
2593,-3,-3,-1,3,-9,-3,0,-2,12.965
2594,-1,-1,0,-3,-2,0,0,-2,12.97
2595,0,-3,-2,3,1,-2,-2,-1,12.975
2596,-1,-2,-2,-6,-5,1,1,0,12.98
2597,0,0,0,-26,-1,-2,-1,0,12.985
2598,-2,-2,-1,21,2,-2,-1,-3,12.99
2599,-1,-2,-1,31,11,1,-1,-1,12.995000000000001
2600,1,0,-2,-10,7,0,-1,-1,13.0
2601,-1,-1,-2,-7,-6,-2,-1,-1,13.005
2602,0,0,-1,-12,-4,-2,-2,1,13.01
2603,0,0,0,3,-3,-1,-2,0,13.015
2604,-1,-1,-2,4,4,1,-1,-2,13.02
2605,0,0,0,7,-7,-2,-2,-2,13.025
2606,-1,-1,-1,-8,1,1,2,1,13.030000000000001
2607,0,-1,-2,-35,-14,-2,-2,-2,13.035
2608,-2,-2,1,77,15,-4,-3,-1,13.040000000000001
2609,1,0,2,11,-1,5,2,2,13.045
2610,0,-2,-1,-7,17,1,-3,0,13.05
2611,-2,0,-1,-4,4,1,0,-1,13.055
2612,-1,0,-3,-26,-12,-3,0,-3,13.06
2613,-1,-1,-2,9,-3,-2,-1,-2,13.065
2614,-1,-3,-1,6,-1,-2,-1,-2,13.07
2615,-1,0,1,2,-1,-1,-2,-1,13.075000000000001
2616,-1,-2,1,-4,4,-3,1,-3,13.08
2617,-3,-1,-2,13,-4,-4,-2,-1,13.085
2618,-2,-4,-1,-18,3,4,0,0,13.09
2619,-3,-3,-6,10,-9,-4,-4,-4,13.095
2620,-1,-1,-1,-12,7,0,-1,1,13.1
2621,-2,-1,-3,-11,-3,-2,-1,0,13.105
2622,-1,-1,-1,5,-14,-4,1,-2,13.11
2623,0,-1,3,1,6,-1,0,-1,13.115
2624,-2,0,-1,-13,-4,0,1,-1,13.120000000000001
2625,-2,-2,-2,1,0,0,0,-2,13.125
2626,-2,0,-1,-7,-7,-1,-1,0,13.13
2627,-1,0,-1,-8,-1,-2,-2,-2,13.135
2628,1,-2,-2,-28,-13,-2,-2,-1,13.14
2629,1,-1,0,16,22,3,0,-1,13.145
2630,0,-1,-1,6,1,1,0,0,13.15
2631,1,1,0,-9,-8,-1,1,0,13.155000000000001
2632,-3,-2,-2,12,13,-2,-2,-2,13.16
2633,-1,-2,-1,-28,-20,-6,-3,-2,13.165000000000001
2634,0,0,0,26,8,-2,-2,0,13.17
2635,0,0,1,14,7,1,0,-1,13.175
2636,-2,-1,-2,-18,-12,1,0,-1,13.18
2637,0,-2,-2,-2,-2,0,0,-2,13.185
2638,0,2,0,-4,1,-3,-2,0,13.19
2639,-2,0,0,2,-3,-3,0,0,13.195
2640,-1,1,0,1,-7,1,-1,-1,13.200000000000001
2641,-1,-1,1,-8,7,-1,-1,0,13.205
2642,-2,-2,-1,-4,-4,-1,-1,-1,13.21
2643,0,-2,-2,7,-3,1,0,1,13.215
2644,1,-2,-3,-3,-7,-2,0,-1,13.22
2645,-1,-1,-1,-7,-3,-1,-1,-2,13.225
2646,-2,1,-1,2,-1,-2,0,1,13.23
2647,-1,-2,0,6,5,-1,0,0,13.235
2648,1,0,0,20,-1,1,-2,-1,13.24
2649,-2,-2,-3,-1,-16,-2,-1,0,13.245000000000001
2650,0,-3,0,8,24,1,-1,-1,13.25
2651,-1,0,-3,-18,-8,-1,0,0,13.255
2652,0,-2,-2,24,4,-1,-2,0,13.26
2653,0,1,0,-3,-2,-2,-1,-2,13.265
2654,-2,-1,0,-8,-6,-1,-1,-2,13.27
2655,-2,0,0,4,-1,0,0,-2,13.275
2656,0,0,1,-20,0,-2,0,-3,13.280000000000001
2657,1,0,0,3,2,1,0,-1,13.285
2658,1,-1,-1,-8,-14,-2,0,0,13.290000000000001
2659,-1,-1,1,7,-1,-1,-1,0,13.295
2660,1,-2,-1,4,6,0,2,0,13.3
2661,0,0,0,-5,-1,-2,-1,-1,13.305
2662,0,-1,-2,-7,5,1,-1,-1,13.31
2663,-1,-3,-2,0,-2,-2,-2,-1,13.315
2664,0,0,1,-7,-2,0,-1,-1,13.32
2665,-3,-1,0,7,-2,-2,0,0,13.325000000000001
2666,1,0,0,-6,-8,-2,-2,-1,13.33
2667,-2,-1,-1,4,5,0,-1,-2,13.335
2668,-3,-2,-2,-5,0,-2,-1,1,13.34
2669,-1,-3,-1,-16,-6,0,-1,-1,13.345
2670,-2,0,-1,4,-10,-1,-1,-1,13.35
2671,0,-1,0,3,10,1,0,0,13.355
2672,0,0,-1,8,-7,-2,-1,2,13.36
2673,-1,-1,-2,-18,10,1,0,0,13.365
2674,-1,-1,-1,-37,-9,-1,-1,-1,13.370000000000001
2675,0,-3,-3,39,10,1,-1,-2,13.375
2676,-1,1,1,-10,-7,0,0,0,13.38
2677,0,0,0,15,-6,-1,-1,-1,13.385
2678,0,-1,-1,-18,0,-2,0,-1,13.39
2679,0,0,-1,-2,-12,-5,-3,0,13.395
2680,0,-2,-1,-1,13,2,-1,-1,13.4
2681,-1,-1,0,10,-1,-2,-2,-1,13.405000000000001
2682,-1,-2,-1,5,1,0,-1,0,13.41
2683,-2,-1,0,-19,-9,-3,0,-1,13.415000000000001
2684,1,0,-2,-4,-2,-2,0,-2,13.42
2685,-1,0,-2,0,-4,0,-2,-1,13.425
2686,0,1,1,51,6,1,2,0,13.43
2687,-2,0,-3,-10,5,1,-2,-1,13.435
2688,-1,-1,-2,-18,11,1,-1,0,13.44
2689,-1,-2,-1,-4,-5,-1,-2,0,13.445
2690,-1,-1,-3,-12,-6,-2,0,-3,13.450000000000001
2691,1,-1,-1,20,1,0,-2,-1,13.455
2692,-1,-2,0,-8,-6,-1,0,-3,13.46
2693,0,-1,-2,-1,1,-1,-2,0,13.465
2694,-2,-2,0,5,-3,0,-1,-1,13.47
2695,-1,-1,1,-18,-3,0,-1,-1,13.475
2696,-1,-1,-1,-14,-2,0,-2,-2,13.48
2697,-1,0,0,-9,-8,-3,1,0,13.485
2698,-2,-2,0,30,16,4,0,-2,13.49
2699,0,-1,-1,-5,-5,-2,-1,-1,13.495000000000001
2700,-1,-1,0,-14,-2,1,0,1,13.5
2701,0,-1,-1,13,5,0,-3,-1,13.505
2702,2,0,0,30,8,0,-1,0,13.51
2703,-1,-2,-1,-12,-8,-2,0,-1,13.515
2704,-1,-1,-1,6,0,-1,-1,-2,13.52
2705,-1,-2,0,-2,1,-2,-2,-2,13.525
2706,-1,0,-1,-27,-10,-2,0,0,13.530000000000001
2707,-1,-2,-1,18,9,2,-1,-1,13.535
2708,1,-1,0,1,-9,-3,0,0,13.540000000000001
2709,-2,0,0,23,-2,0,-1,0,13.545
2710,-1,-1,-1,-25,6,0,-3,-2,13.55
2711,-2,0,0,-1,-11,-4,0,2,13.555
2712,-3,-1,0,-7,10,3,-1,1,13.56
2713,0,-1,-1,-5,-2,-1,1,-1,13.565
2714,-1,-1,-1,5,-3,-1,-1,-2,13.57
2715,-1,-1,0,-9,-8,-5,0,-1,13.575000000000001
2716,-1,0,1,-1,0,-3,-2,-1,13.58
2717,-1,-3,-4,12,-6,-1,1,-1,13.585
2718,-2,0,-1,-19,-11,0,-3,0,13.59
2719,-1,0,-2,15,18,3,-1,0,13.595
2720,0,0,-3,18,-9,-3,2,0,13.6
2721,0,1,-1,-19,10,2,-2,-1,13.605
2722,1,0,2,-8,-5,0,1,0,13.61
2723,-2,-2,0,-9,-13,-2,0,-1,13.615
2724,-2,0,-1,-2,1,1,0,-2,13.620000000000001
2725,-1,-1,-1,4,9,0,0,0,13.625
2726,0,-1,-2,-9,-11,-2,-2,-2,13.63
2727,1,-1,-2,-24,9,2,-1,0,13.635
2728,-3,-3,-1,21,-4,-3,-2,-3,13.64
2729,0,-1,0,-1,-1,-1,-1,-1,13.645
2730,0,-1,-1,-12,-4,-2,-1,1,13.65
2731,0,1,1,3,14,4,1,-1,13.655000000000001
2732,-2,-1,-2,2,2,-1,-3,-2,13.66
2733,-1,1,-1,0,-3,0,0,-1,13.665000000000001
2734,-1,-1,0,5,2,0,0,-1,13.67
2735,-1,-2,-3,-3,2,-1,-2,-2,13.675
2736,-1,-1,0,-14,-3,-1,-1,1,13.68
2737,-2,0,-1,-2,-6,-2,-1,-2,13.685
2738,1,-3,0,11,-4,-2,-2,-2,13.69
2739,-1,-1,-1,9,-21,-6,-3,-2,13.695
2740,0,0,1,14,29,7,2,0,13.700000000000001
2741,0,-1,0,-2,-1,0,1,1,13.705
2742,-1,-1,-2,3,9,-1,-2,-2,13.71
2743,-1,0,-1,-9,-13,-1,-1,0,13.715
2744,-3,-2,-2,-8,-13,-4,-2,-2,13.72
2745,-1,0,1,0,0,-1,0,-1,13.725
2746,-1,2,-2,-7,-3,-2,-1,1,13.73
2747,-1,-2,-1,1,3,-1,-1,0,13.735
2748,-1,0,1,-2,-6,-1,0,0,13.74
2749,-1,-2,-1,1,4,0,-1,-1,13.745000000000001
2750,-1,-1,0,-2,-5,-3,-1,0,13.75
2751,0,0,-1,4,4,1,-1,-1,13.755
2752,-1,-2,-1,-6,0,-2,0,-1,13.76
2753,-1,-1,1,3,-8,-1,-1,-1,13.765
2754,-1,-2,-3,-5,-3,-2,-1,-1,13.77
2755,-1,-1,0,7,11,4,0,0,13.775
2756,0,0,-2,-6,-5,0,-1,0,13.780000000000001
2757,0,0,-2,-2,4,2,1,0,13.785
2758,-1,-1,-1,-3,-1,2,2,0,13.790000000000001
2759,0,1,1,-10,-6,-2,1,1,13.795
2760,0,-1,-1,13,6,-3,-2,0,13.8
2761,-2,-1,-1,23,8,-1,-1,-1,13.805
2762,0,-1,1,6,2,0,0,0,13.81
2763,-2,-2,-2,-4,-12,-2,-2,0,13.815
2764,0,-2,-1,-12,-10,0,-1,0,13.82
2765,-1,-1,-2,-11,-3,-1,-2,0,13.825000000000001
2766,0,-2,-2,4,4,-1,0,0,13.83
2767,0,-1,0,-9,-6,-1,0,-1,13.835
2768,0,-2,-1,-4,-7,-2,-2,-2,13.84
2769,-2,-2,-2,-8,-9,-2,-1,-1,13.845
2770,1,-1,-1,-2,6,1,-1,0,13.85
2771,-1,-1,0,-3,-3,-3,-1,-1,13.855
2772,1,0,-2,14,2,-1,1,-1,13.86
2773,1,-1,-1,-17,-6,0,0,-1,13.865
2774,-1,-1,0,6,3,0,-1,-2,13.870000000000001
2775,-1,-3,0,4,1,-1,-1,-1,13.875
2776,-1,-3,-2,-19,-4,-1,0,0,13.88
2777,-1,-1,-4,-15,-7,-3,-1,0,13.885
2778,-2,-1,-2,9,-2,-2,0,-1,13.89
2779,0,-1,-2,0,4,1,-1,-1,13.895
2780,0,-2,-1,21,-12,0,-1,-2,13.9
2781,-2,0,-1,-21,5,1,-1,-2,13.905000000000001
2782,-1,0,0,-6,-1,-2,-1,-1,13.91
2783,1,1,1,3,13,1,0,1,13.915000000000001
2784,-1,-1,0,-8,-1,-1,-1,0,13.92
2785,-2,-2,1,11,-6,-4,-1,-1,13.925
2786,-1,0,-1,0,1,-1,-1,-1,13.93
2787,-1,0,-2,-8,-5,-1,-2,-2,13.935
2788,-2,-2,-1,-2,-3,-1,-1,-3,13.94
2789,1,-1,-1,6,6,0,-1,-1,13.945
2790,0,-1,0,-9,-11,-3,-2,1,13.950000000000001
2791,1,1,1,-4,3,5,3,0,13.955
2792,0,1,0,6,2,-1,0,1,13.96
2793,-2,-1,0,12,3,0,-2,0,13.965
2794,-2,-2,-3,-11,0,1,0,-1,13.97
2795,-1,-3,-2,-1,-2,-3,-3,-2,13.975
2796,0,1,-1,-12,-6,-3,-3,-3,13.98
2797,-1,-4,-2,-3,0,-2,0,-1,13.985
2798,-1,0,-1,-10,-8,-3,-2,-2,13.99
2799,-2,0,-1,34,8,0,-1,0,13.995000000000001
2800,-1,1,-1,-3,9,1,2,0,14.0
2801,2,0,2,-3,-9,-2,0,-1,14.005
2802,0,-1,-1,14,18,2,1,-1,14.01
2803,-1,-2,-2,-8,-6,-3,-1,0,14.015
2804,-2,0,-2,-3,-1,-1,-3,-1,14.02
2805,1,0,-1,7,2,1,0,0,14.025
2806,-1,0,0,2,-5,-1,-1,0,14.030000000000001
2807,0,-2,-3,-6,-1,-1,-3,-3,14.035
2808,0,-2,0,5,2,1,-1,-1,14.040000000000001
2809,-1,0,0,-2,-2,-2,-2,-1,14.045
2810,-2,-1,-3,-34,-12,-2,-1,-2,14.05
2811,1,0,0,33,21,3,1,-1,14.055
2812,-1,-1,1,-4,-9,-2,-1,1,14.06
2813,0,0,-2,1,7,3,-1,-1,14.065
2814,1,1,1,-9,-1,-1,1,1,14.07
2815,-2,-1,-3,-6,-6,-1,0,-1,14.075000000000001
2816,-1,-1,-2,0,0,-3,0,0,14.08
2817,-1,1,0,-2,1,-1,0,-2,14.085
2818,-2,1,0,7,-2,0,-1,-1,14.09
2819,0,-1,0,-10,-9,-2,-2,0,14.095
2820,-2,-1,-1,1,2,0,0,-2,14.1
2821,-2,-3,-1,-12,-11,-4,-3,-2,14.105
2822,-1,0,0,7,-5,-1,-1,-1,14.11
2823,-2,-2,0,-38,-20,-5,-1,-1,14.115
2824,0,0,-1,22,7,0,-1,-1,14.120000000000001
2825,-1,0,-1,16,4,1,0,0,14.125
2826,-2,-2,1,-8,4,1,-1,-1,14.13
2827,-1,-1,0,-13,-9,-1,-2,-1,14.135
2828,0,-2,-1,-1,-10,-3,-2,-1,14.14
2829,-2,0,-1,-6,3,1,1,0,14.145
2830,-3,-1,1,10,-2,-1,-1,0,14.15
2831,-1,0,0,8,5,1,1,1,14.155000000000001
2832,-1,0,-1,-11,-1,0,0,-1,14.16
2833,0,0,-1,10,4,1,-1,0,14.165000000000001
2834,-1,-1,-1,8,2,-1,-1,-1,14.17
2835,-2,0,1,2,1,3,1,-1,14.175
2836,-1,-2,-3,-9,-8,-4,-1,0,14.18
2837,0,1,1,-22,-12,-1,1,0,14.185
2838,1,-2,-1,11,2,0,0,0,14.19
2839,-1,-1,0,12,11,-2,1,-2,14.195
2840,0,-1,-1,-10,0,0,0,-1,14.200000000000001
2841,-3,-1,-2,1,-4,-2,0,-1,14.205
2842,-2,-1,-2,3,-5,0,-1,-1,14.21
2843,-2,0,-1,-6,-3,-2,-2,1,14.215
2844,-2,-1,-2,-8,-1,-1,-2,-2,14.22
2845,-1,-1,-1,5,3,-1,-1,-2,14.225
2846,-1,-1,-2,-2,-1,-2,0,-1,14.23
2847,-1,0,0,-3,2,1,1,0,14.235
2848,-1,-2,-1,3,4,-1,-2,-2,14.24
2849,-1,-1,-1,-13,-20,-5,-1,-1,14.245000000000001
2850,1,0,-2,4,-2,-2,-1,1,14.25
2851,0,2,1,13,-2,1,1,-1,14.255
2852,-1,-4,-3,-5,8,0,-1,0,14.26
2853,0,-1,-2,-8,-1,0,0,0,14.265
2854,-2,-1,0,-4,-3,-2,-2,-2,14.27
2855,-2,-1,-1,4,1,-2,-2,0,14.275
2856,0,1,2,-15,-10,2,0,-1,14.280000000000001
2857,0,-2,0,-8,-3,-1,-1,-1,14.285
2858,1,0,-1,25,8,2,-1,0,14.290000000000001
2859,-1,0,-2,-2,0,0,-1,1,14.295
2860,-1,1,1,-2,-5,-2,-3,0,14.3
2861,-2,-1,0,-16,-7,-1,-2,0,14.305
2862,0,-1,2,16,17,3,1,-2,14.31
2863,1,-1,-3,-19,-14,-4,-4,0,14.315
2864,-2,0,-1,13,8,2,2,0,14.32
2865,0,0,0,-4,4,-1,1,0,14.325000000000001
2866,0,-1,-3,-39,-9,-2,0,-1,14.33
2867,0,-2,-1,19,3,0,-2,-2,14.335
2868,-1,-1,0,-5,-17,-7,0,-1,14.34
2869,1,-1,1,23,42,7,0,0,14.345
2870,0,0,0,-9,-7,1,1,1,14.35
2871,0,-2,-4,-9,-4,-3,-1,-2,14.355
2872,0,1,-1,-22,-5,-1,-2,-1,14.36
2873,-1,0,-1,25,4,-2,-3,0,14.365
2874,-1,-2,-1,8,-2,-1,-1,1,14.370000000000001
2875,0,0,1,2,0,-2,0,-1,14.375
2876,0,-1,-2,3,2,1,-1,0,14.38
2877,-2,-1,-3,-17,-17,-4,-1,-1,14.385
2878,-2,-1,-1,3,7,-1,-1,-1,14.39
2879,-2,-1,-2,4,-4,-3,-1,-3,14.395
2880,-1,-1,0,-17,2,0,1,0,14.4
2881,-2,-2,-2,19,-6,-1,-2,-1,14.405000000000001
2882,1,-1,-1,4,-1,0,0,-1,14.41
2883,-2,-2,-1,-8,0,1,-2,-1,14.415000000000001
2884,0,-1,3,12,8,1,-1,0,14.42
2885,-1,-1,0,-1,-7,0,0,0,14.425
2886,-2,0,1,-11,-10,-2,-1,-1,14.43
2887,-1,-1,0,-20,-1,-2,0,-1,14.435
2888,0,0,-1,27,12,5,0,0,14.44
2889,1,-2,0,14,15,2,1,-1,14.445
2890,-2,-1,-1,1,-1,-1,-2,-2,14.450000000000001
2891,0,0,-2,-1,-1,-1,-1,1,14.455
2892,0,-2,-2,-1,-8,-4,-2,-1,14.46
2893,-1,0,0,-7,-4,-3,0,-1,14.465
2894,1,-2,-2,-16,0,-2,-2,0,14.47
2895,0,-1,-1,20,5,-1,0,-1,14.475
2896,-2,0,0,20,5,-2,-1,-1,14.48
2897,0,-2,-2,-5,-1,-3,0,-1,14.485
2898,1,1,-1,-25,-8,-1,-1,-1,14.49
2899,-1,-1,0,12,5,-1,-1,0,14.495000000000001
2900,-1,-1,-2,4,0,0,-1,-1,14.5
2901,-1,-1,-1,-6,-4,-3,-2,-1,14.505
2902,-2,1,-1,15,0,-1,0,0,14.51
2903,-1,-2,0,-14,-8,-1,1,1,14.515
2904,-1,-2,-1,-3,-2,-4,-1,0,14.52
2905,-1,-2,0,-7,-6,-1,0,-1,14.525
2906,-1,-1,-1,-4,1,1,-1,-1,14.530000000000001
2907,0,0,-1,4,-4,0,0,0,14.535
2908,-1,0,0,-8,2,0,0,-1,14.540000000000001
2909,-1,-1,-1,8,12,1,1,-1,14.545
2910,-1,-3,2,10,-2,-3,-3,0,14.55
2911,-1,-1,-1,-1,0,0,-3,-1,14.555
2912,1,-2,-3,-6,1,-3,-1,0,14.56
2913,-1,-1,-1,-19,-15,-2,-1,-1,14.565
2914,-1,0,-1,-1,3,0,1,0,14.57
2915,0,-1,1,23,15,2,0,-1,14.575000000000001
2916,0,1,0,-3,-12,-2,-2,0,14.58
2917,-3,0,-1,-14,-3,-1,-2,-1,14.585
2918,0,-3,-2,-4,0,0,0,0,14.59
2919,-1,-1,-2,-10,-11,-3,-1,-1,14.595
2920,-2,0,-2,3,0,-1,0,-2,14.6
2921,-1,0,-2,6,0,0,0,0,14.605
2922,-1,1,2,6,-2,0,-1,-2,14.61
2923,-1,-3,-1,-2,1,-1,-3,-1,14.615
2924,0,-1,-1,0,-2,-1,0,-3,14.620000000000001
2925,-2,0,-1,3,0,-3,-3,0,14.625
2926,-1,0,-1,8,4,0,0,0,14.63
2927,-1,1,-1,-12,5,4,0,-2,14.635
2928,-2,-2,-1,-5,2,1,1,-2,14.64
2929,1,-1,-1,4,-6,-1,1,0,14.645
2930,-1,-2,-1,0,-4,-3,-1,0,14.65
2931,0,0,-1,-2,0,-1,-2,-1,14.655000000000001
2932,0,-2,-1,-1,-7,-1,-1,0,14.66
2933,-1,0,-2,-19,-10,0,-1,-1,14.665000000000001
2934,-2,0,0,18,20,0,-4,-2,14.67
2935,1,0,1,14,-1,0,0,1,14.675
2936,-2,-2,-2,4,0,-1,-2,0,14.68
2937,0,2,0,-10,0,3,-3,1,14.685
2938,-1,2,0,2,-7,-2,0,-1,14.69
2939,-1,-1,-3,-4,-11,-4,-2,-2,14.695
2940,0,1,-4,-4,0,1,1,-1,14.700000000000001
2941,0,-4,3,-2,8,0,-1,-3,14.705
2942,-2,-2,-1,-11,-5,-3,0,-3,14.71
2943,-1,0,-1,-9,0,0,0,0,14.715
2944,-3,-1,0,2,-9,-3,-1,0,14.72
2945,-3,-1,-3,12,16,2,-1,-2,14.725
2946,0,0,0,-27,-4,2,1,0,14.73
2947,1,-2,0,14,3,0,-2,-2,14.735
2948,-1,-2,-2,-8,1,1,-2,-2,14.74
2949,-1,0,0,10,-2,-3,0,-1,14.745000000000001
2950,-1,-1,-3,-6,-6,0,-3,-3,14.75
2951,-1,1,-2,-10,-1,1,-1,-1,14.755
2952,1,0,0,-1,0,-1,-2,-1,14.76
2953,0,-1,-1,2,-2,-2,-2,-1,14.765
2954,-2,-1,-2,-13,-4,-1,-1,-1,14.77
2955,0,-2,-1,23,4,-2,0,-1,14.775
2956,-1,1,1,9,10,1,-1,-1,14.780000000000001
2957,0,-1,0,-4,-8,0,0,0,14.785
2958,0,0,-1,-20,-9,0,-1,0,14.790000000000001
2959,-1,1,-1,11,2,-1,0,0,14.795
2960,-2,2,0,-8,-2,-4,-1,-1,14.8
2961,1,0,0,-3,-10,-2,-1,-1,14.805
2962,-2,-2,-2,24,22,2,0,-1,14.81
2963,-2,1,-1,-6,-6,0,2,0,14.815
2964,2,-1,-1,4,-1,0,-1,-1,14.82
2965,0,1,-1,3,-2,-1,1,-1,14.825000000000001
2966,0,0,-1,-6,-3,-1,-1,0,14.83
2967,-2,-2,0,-14,-8,-2,-2,-2,14.835
2968,0,-1,1,-1,0,-1,-2,-1,14.84
2969,-2,-2,-3,-5,1,0,-1,0,14.845
2970,-1,-2,0,7,-8,-4,0,-2,14.85
2971,0,-1,-3,-6,0,-1,1,-1,14.855
2972,0,0,0,-6,-5,-2,-1,-1,14.86
2973,0,-2,-3,1,-4,-2,-2,-1,14.865
2974,-1,-1,-2,2,-4,-1,0,-2,14.870000000000001
2975,-1,0,0,-10,2,0,-2,-1,14.875
2976,-1,-1,-3,9,0,0,-1,-1,14.88
2977,-1,0,-1,-17,-8,-1,-2,0,14.885
2978,1,-1,2,25,-2,1,0,1,14.89
2979,-1,-1,-2,-29,-10,-4,0,-1,14.895
2980,-2,-1,0,9,-1,0,1,0,14.9
2981,-2,0,0,11,5,-2,0,-2,14.905000000000001
2982,-1,0,-1,0,-1,-1,-1,-1,14.91
2983,-1,0,-2,-9,-4,-3,-1,-1,14.915000000000001
2984,-4,-2,-1,-3,4,-2,-1,-2,14.92
2985,-2,0,0,3,0,0,2,0,14.925
2986,0,0,0,3,1,-2,0,-1,14.93
2987,-1,-2,-1,-5,-6,-2,-3,-1,14.935
2988,-1,1,-1,-8,-6,-2,-1,-2,14.94
2989,-1,-1,-1,4,6,1,0,0,14.945
2990,0,0,-1,-4,-5,-1,1,2,14.950000000000001
2991,-1,-1,1,-4,-7,-1,-1,-2,14.955
2992,0,-1,-4,-8,12,3,1,1,14.96
2993,-1,-2,0,28,0,-1,-2,-1,14.965
2994,-2,-1,-2,1,4,-2,-1,0,14.97
2995,0,-1,-2,-37,-10,-2,0,-1,14.975
2996,-2,-1,0,58,24,1,-1,0,14.98
2997,0,-1,-1,-5,-7,-1,-1,0,14.985
2998,-2,-1,-3,-8,-2,0,-2,-1,14.99
2999,-2,0,-1,12,4,1,0,-1,14.995000000000001
3000,-1,-1,-2,-17,-2,-1,0,-2,15.0
3001,0,0,-2,-8,-2,-2,-1,-2,15.005
3002,-1,-1,0,7,0,1,0,-1,15.01
3003,1,-1,-1,1,11,1,1,-1,15.015
3004,-1,1,1,-11,-8,0,-2,1,15.02
3005,1,2,-2,8,1,-2,-1,-1,15.025
3006,0,1,-1,-16,-5,-2,-2,0,15.030000000000001
3007,0,-1,-2,7,1,-1,-1,0,15.035
3008,0,-1,-1,6,-12,-1,-2,0,15.040000000000001
3009,0,-1,-2,-6,10,0,0,-1,15.045
3010,0,-1,1,-7,-19,-4,-2,-1,15.05
3011,-1,0,0,24,20,0,0,-1,15.055
3012,2,0,0,-16,-7,-2,0,-1,15.06
3013,-1,-3,-2,-12,1,1,-2,-2,15.065
3014,0,-1,-3,-18,-1,-2,-1,0,15.07
3015,-2,-2,-2,56,10,0,-2,-1,15.075000000000001
3016,1,0,0,-14,-8,-2,1,-1,15.08
3017,1,0,-1,-6,-6,-1,1,-2,15.085
3018,-1,0,0,7,10,0,-1,-1,15.09
3019,-1,-1,0,-19,-5,-1,0,-1,15.095
3020,1,-1,-1,-25,-3,-1,0,-1,15.1
3021,0,-1,-1,34,9,1,0,0,15.105
3022,0,-1,-2,-1,-1,-1,-1,-1,15.11
3023,0,-1,-1,-8,-2,3,-2,-1,15.115
3024,-2,-2,-2,0,-7,-2,-2,-2,15.120000000000001
3025,-1,0,1,-15,-3,-3,0,1,15.125
3026,-1,-2,0,2,-1,-1,-2,-3,15.13
3027,0,0,-1,-3,-2,-2,0,0,15.135
3028,-2,-2,-1,2,3,0,-1,0,15.14
3029,-1,-2,1,-8,-13,-3,-2,1,15.145
3030,-1,-1,-2,3,9,1,-1,-1,15.15
3031,-2,-1,-2,-10,-9,-2,0,-1,15.155000000000001
3032,-1,0,1,4,1,-1,-1,0,15.16
3033,-2,-1,-2,2,8,0,0,-1,15.165000000000001
3034,1,-2,0,-12,-12,-2,-1,-1,15.17
3035,0,0,-2,-17,-15,-1,-2,-1,15.175
3036,0,-2,-3,37,25,4,0,0,15.18
3037,-2,0,-2,-3,2,-1,-1,0,15.185
3038,0,0,-1,2,-5,-1,-1,-1,15.19
3039,-2,-1,1,-7,-3,-3,-1,0,15.195
3040,-1,-1,-2,-13,-10,-2,0,-2,15.200000000000001
3041,-1,-1,-1,3,0,-2,-3,-1,15.205
3042,0,0,-1,2,6,0,1,-1,15.21
3043,-1,-1,0,1,-2,-2,-3,-2,15.215
3044,-1,0,-1,-8,-6,-1,0,0,15.22
3045,1,-1,-2,0,4,0,-1,-1,15.225
3046,0,-2,-1,-3,-4,-1,1,0,15.23
3047,-1,-1,2,2,5,0,-1,0,15.235
3048,-2,-2,-2,-10,-2,0,0,-2,15.24
3049,-1,-1,0,0,-8,0,1,-3,15.245000000000001
3050,-2,-1,-1,20,5,-2,-2,0,15.25
3051,-1,0,-1,-2,-3,1,1,0,15.255
3052,-1,0,0,-16,-6,0,-1,-1,15.26
3053,1,-1,0,-8,3,1,0,-2,15.265
3054,0,-1,1,21,-2,-2,-1,-1,15.27
3055,0,-2,0,-14,-13,-5,-1,0,15.275
3056,0,0,0,-9,-7,0,0,1,15.280000000000001
3057,-1,-1,-1,8,16,-1,-1,0,15.285
3058,0,0,-4,-8,5,4,0,0,15.290000000000001
3059,0,0,-1,-9,-1,0,0,-1,15.295
3060,0,1,0,6,2,-1,-1,-1,15.3
3061,-3,-1,-1,-8,-8,-4,-2,-3,15.305
3062,-1,-1,-1,-10,-5,-1,-1,-1,15.31
3063,-1,-1,-1,9,9,2,0,-1,15.315
3064,-2,0,0,-2,-3,-2,-1,-2,15.32
3065,-1,-2,-2,9,-2,0,0,-1,15.325000000000001
3066,-1,-2,-4,-5,-3,-1,-3,-1,15.33
3067,0,0,-1,-6,-2,-2,1,-2,15.335
3068,-4,-2,-2,26,4,1,0,0,15.34
3069,1,-2,0,-17,-9,-2,0,-2,15.345
3070,0,0,1,-3,-3,-1,0,0,15.35
3071,-1,-2,-4,4,2,-1,-2,0,15.355
3072,-2,-2,1,-10,3,-1,0,-1,15.36
3073,0,0,-1,12,-1,-2,-1,-2,15.365
3074,0,0,1,-14,-3,-1,-1,-1,15.370000000000001
3075,-1,1,0,24,7,0,0,-1,15.375
3076,0,-1,-2,-5,-3,-2,0,1,15.38
3077,-1,-2,-2,-5,-2,1,-2,1,15.385
3078,-1,0,-1,-3,-3,-3,-1,-4,15.39
3079,-1,-1,0,-26,-12,-3,-2,-2,15.395
3080,-1,-1,-2,12,18,6,1,-1,15.4
3081,0,1,2,11,13,1,1,-1,15.405000000000001
3082,-1,1,0,2,4,0,0,0,15.41
3083,-2,-5,-1,-25,-7,-1,-2,-1,15.415000000000001
3084,0,0,0,32,9,1,-2,-1,15.42
3085,-1,2,1,-8,-5,1,1,1,15.425
3086,-1,0,-1,3,0,0,1,-1,15.43
3087,-4,0,-1,4,-3,-4,-2,-2,15.435
3088,0,0,-1,-9,-9,-2,-1,-1,15.44
3089,-2,-1,-2,-12,-7,1,-2,0,15.445
3090,-2,-2,-3,2,2,-1,-2,-1,15.450000000000001
3091,-1,0,0,12,13,1,0,-2,15.455
3092,0,-1,-2,-8,-12,-2,0,-1,15.46
3093,-1,-1,0,-3,8,-1,-1,-1,15.465
3094,-4,-2,-1,-5,-7,-3,-1,-1,15.47
3095,0,-1,-2,-6,4,1,0,-1,15.475
3096,2,1,0,23,-1,-2,-3,0,15.48
3097,-5,-2,-4,-2,-8,-4,-1,1,15.485000000000001
3098,1,-1,1,-14,-13,-1,1,-1,15.49
3099,0,-2,-1,9,10,2,0,0,15.495000000000001
3100,0,-2,-1,-20,-7,-4,-2,-2,15.5
3101,0,0,-1,2,-4,2,0,-1,15.505
3102,-2,-1,1,4,1,0,-3,0,15.51
3103,-3,0,0,-8,-13,-1,0,1,15.515
3104,-1,-1,-2,-10,-6,0,0,0,15.52
3105,0,-1,1,9,17,-2,-1,-1,15.525
3106,-1,-1,-3,2,9,-1,0,0,15.530000000000001
3107,1,2,0,3,-1,1,-1,1,15.535
3108,-2,-1,-1,-9,-6,-1,1,0,15.540000000000001
3109,2,-1,-1,24,1,1,-1,-1,15.545
3110,1,-1,0,7,0,-1,-3,-1,15.55
3111,-4,-2,1,9,13,1,-1,-1,15.555
3112,-1,-1,-2,-2,0,-2,1,1,15.56
3113,-2,-1,2,-9,-5,-2,-1,-1,15.565
3114,4,0,-2,-5,3,-1,-2,0,15.57
3115,1,0,-1,16,-10,-1,-2,-2,15.575000000000001
3116,-4,0,1,-9,-2,-2,-1,-2,15.58
3117,-1,0,-1,-10,-7,0,-3,0,15.585
3118,-2,-3,-3,8,5,2,0,0,15.59
3119,0,0,0,-10,0,1,0,1,15.595
3120,1,-3,-1,-5,-2,-3,-1,-1,15.6
3121,-1,0,-1,4,-9,-1,0,-2,15.605
3122,-3,-2,0,-24,-3,-1,-2,-2,15.610000000000001
3123,0,0,0,23,-9,-3,-2,0,15.615
3124,-1,-2,-1,17,11,3,0,0,15.620000000000001
3125,1,-1,-1,-10,-5,-1,-1,0,15.625
3126,-2,2,1,5,14,1,0,0,15.63
3127,3,0,-1,-9,-9,-4,0,-2,15.635
3128,-1,-1,0,-1,-1,-1,-2,-1,15.64
3129,-2,1,1,-25,-11,-2,1,-1,15.645
3130,1,-1,1,24,0,-1,-2,0,15.65
3131,-1,-2,-3,-17,-1,-1,-1,-2,15.655000000000001
3132,-1,-1,0,30,8,0,-2,0,15.66
3133,2,1,-2,-14,2,-1,0,0,15.665000000000001
3134,-4,-3,-3,12,-9,-4,0,-3,15.67
3135,-1,-6,0,0,13,3,1,0,15.675
3136,-3,1,-1,-19,1,-1,0,-2,15.68
3137,-7,-2,-2,-4,-4,-1,0,-2,15.685
3138,1,1,0,5,1,1,-1,-1,15.69
3139,1,4,-1,2,-9,-4,-2,0,15.695
3140,3,-9,-1,-17,-11,-3,-1,-1,15.700000000000001
3141,-4,0,-2,4,9,3,-2,0,15.705
3142,-1,-1,0,-8,6,0,-1,-1,15.71
3143,1,2,-1,-7,0,1,-1,1,15.715
3144,1,3,0,1,6,0,-1,0,15.72
3145,1,-5,-2,11,2,-1,1,-2,15.725
3146,0,-3,0,5,-6,0,1,-1,15.73
3147,-2,-1,-1,-10,-3,-1,-4,-2,15.735000000000001
3148,-2,1,0,-17,-2,-1,-2,-2,15.74
3149,4,2,1,30,8,3,0,1,15.745000000000001
3150,-1,-1,-3,-13,-3,-3,-1,1,15.75
3151,1,-5,2,19,9,1,0,0,15.755
3152,-6,4,0,-18,-7,-2,0,-1,15.76
3153,-3,-13,-1,-39,-12,-4,0,-3,15.765
3154,-1,-3,0,25,-1,-1,-1,-1,15.77
3155,0,3,-1,-7,-8,-2,0,-2,15.775
3156,-6,2,0,24,26,2,1,-1,15.780000000000001
3157,1,-8,5,6,-13,-1,-2,0,15.785
3158,1,2,1,-36,7,-1,1,1,15.790000000000001
3159,1,-1,-2,-12,-4,-1,0,0,15.795
3160,10,7,4,23,4,1,-1,0,15.8
3161,-12,-2,-13,6,-6,-5,-4,-1,15.805
3162,3,-5,6,-1,3,2,1,0,15.81
3163,-4,3,0,-14,-2,-1,0,-1,15.815
3164,-1,3,-4,6,-20,-7,0,0,15.82
3165,6,-12,2,1,-2,-1,-1,0,15.825000000000001
3166,-19,0,8,-15,-19,-2,-2,-4,15.83
3167,2,-1,-11,35,29,3,1,1,15.835
3168,14,18,3,-17,14,3,-1,1,15.84
3169,2,-13,-17,-6,-5,0,0,-1,15.845
3170,-3,-5,-10,-26,-4,-3,-3,-2,15.85
3171,-4,-3,6,27,-8,-5,-3,-5,15.855
3172,-5,-12,7,-23,-3,2,-2,-4,15.860000000000001
3173,6,10,-9,-17,2,-6,-18,-14,15.865
3174,-1,-7,1,0,10,6,11,12,15.870000000000001
3175,2,6,2,62,-24,-6,-8,-21,15.875
3176,1,-7,-4,-46,-12,-3,7,24,15.88
3177,-1,18,13,26,56,15,0,-7,15.885
3178,2,9,-6,17,-26,-7,-13,2,15.89
3179,9,-19,0,19,-5,-6,23,5,15.895
3180,-12,12,5,5,-5,-2,-5,-11,15.9
3181,7,10,-11,-15,-1,-5,0,-11,15.905000000000001
3182,-2,-23,7,-34,-1,4,-3,6,15.91
3183,-6,-3,-10,-46,-34,-5,-6,1,15.915000000000001
3184,-4,9,19,42,24,-2,-1,-4,15.92
3185,16,-18,-1,89,-31,-6,3,8,15.925
3186,-32,1,-2,-65,-17,4,3,-13,15.93
3187,10,27,10,24,12,-4,-5,6,15.935
3188,-2,-23,-1,-103,-22,0,-6,-12,15.94
3189,-8,-9,-11,-15,-37,-9,3,12,15.945
3190,33,14,15,-16,-18,0,10,-18,15.950000000000001
3191,-29,-11,-18,20,41,6,-26,2,15.955
3192,-4,-4,-7,50,-11,-7,-7,2,15.96
3193,-7,13,14,-16,18,0,-1,-3,15.965
3194,2,-9,-8,-48,15,1,2,2,15.97
3195,4,13,37,72,-8,1,7,6,15.975
3196,-17,-27,-48,-82,16,4,4,-6,15.98
3197,30,18,-1,35,52,17,6,14,15.985000000000001
3198,-19,1,5,-2,3,-7,-1,4,15.99
3199,21,22,-11,13,21,11,2,-1,15.995000000000001
3200,10,-25,17,64,-24,-7,-3,8,16.0
3201,-42,-56,3,12,-35,-7,2,-10,16.005
3202,3,30,-2,31,24,-1,-6,-3,16.01
3203,-7,-2,-1,4,23,12,5,-6,16.015
3204,-25,6,31,18,-3,6,4,-4,16.02
3205,17,12,-44,-25,33,2,-2,-1,16.025
3206,50,-8,33,43,-41,-16,-9,-4,16.03
3207,-6,-5,-15,-71,-8,13,10,23,16.035
3208,-6,0,-21,4,28,2,1,-9,16.04
3209,-15,15,28,55,-6,-1,-11,-9,16.045
3210,18,4,-20,-55,-52,-21,-5,12,16.05
3211,-27,-48,-4,-109,-31,-2,2,-10,16.055
3212,-23,21,19,71,30,10,6,4,16.06
3213,-11,2,12,-108,-10,0,2,-2,16.065
3214,-1,3,-45,75,1,1,-5,-4,16.07
3215,23,14,8,-96,-65,-22,-5,0,16.075
3216,27,0,-5,19,16,8,5,0,16.080000000000002
3217,-1,11,-4,55,-7,-6,-7,2,16.085
3218,-7,30,10,-72,12,5,0,-4,16.09
3219,14,-30,-5,113,25,4,3,30,16.095
3220,18,-30,-10,-53,-93,-29,-15,-21,16.1
3221,-1,54,2,-63,50,12,7,9,16.105
3222,-22,-34,-1,16,18,9,4,0,16.11
3223,-24,-22,2,35,-43,-12,-4,-2,16.115000000000002
3224,20,39,16,57,68,24,14,-8,16.12
3225,-2,-26,19,23,-35,-21,-31,7,16.125
3226,6,39,-50,29,11,6,1,-4,16.13
3227,9,10,21,-84,2,5,0,-4,16.135
3228,14,6,-8,21,-27,-7,-2,4,16.14
3229,4,-15,-3,-37,14,2,12,-2,16.145
3230,16,-30,-18,18,-25,-5,0,8,16.15
3231,-28,12,13,21,-24,-7,-3,-16,16.155
3232,-19,-3,-5,-23,22,11,-2,1,16.16
3233,26,22,16,-22,-44,-9,5,25,16.165
3234,-6,-35,-28,60,66,8,-3,-16,16.17
3235,-12,-31,-7,20,-28,-10,-2,-3,16.175
3236,0,8,-12,88,38,7,-1,-15,16.18
3237,-16,9,16,-56,-32,-2,6,17,16.185
3238,27,6,23,21,-12,-5,-3,4,16.19
3239,15,24,5,18,18,2,5,-9,16.195
3240,-16,-10,17,35,-9,-9,-2,3,16.2
3241,-1,2,-28,-46,-3,-2,-15,-7,16.205000000000002
3242,-13,-18,-14,60,-18,-3,-2,-16,16.21
3243,-4,23,14,-96,63,13,-4,-2,16.215
3244,19,-11,12,36,41,1,4,12,16.22
3245,27,14,5,-20,-24,1,11,-10,16.225
3246,-60,-23,22,22,4,5,-1,8,16.23
3247,7,-8,-9,-67,-10,-8,-2,-34,16.235
3248,6,-3,-16,-103,-44,-7,-8,13,16.240000000000002
3249,-10,-13,16,91,30,4,1,-11,16.245
3250,7,28,-12,-88,-14,-10,-3,6,16.25
3251,4,23,0,-23,11,7,3,5,16.255
3252,18,-4,-1,-64,-47,-11,-5,6,16.26
3253,-13,-67,-19,98,1,-8,-4,-18,16.265
3254,-18,27,11,-1,54,6,3,3,16.27
3255,-3,-34,-27,-41,-55,-12,-2,-2,16.275
3256,46,33,-21,-10,48,12,2,8,16.28
3257,4,0,-28,-83,-37,-10,-2,8,16.285
3258,-44,-15,-1,-26,-35,-14,-3,-10,16.29
3259,-28,-11,-6,32,-20,0,3,5,16.295
3260,13,-23,13,-27,4,3,2,-16,16.3
3261,5,-1,-23,-49,17,-1,-16,-7,16.305
3262,5,-5,20,62,36,14,3,-2,16.31
3263,0,8,19,72,21,3,4,-3,16.315
3264,-13,4,-17,-60,-24,-5,-3,5,16.32
3265,-8,-8,17,48,57,16,4,5,16.325
3266,31,20,25,-10,-33,-6,0,-26,16.330000000000002
3267,5,-12,-21,37,16,-5,-7,19,16.335
3268,-21,-29,11,36,-2,8,2,-7,16.34
3269,-43,-26,17,-99,-35,-13,2,-16,16.345
3270,17,-1,-4,75,-18,-8,-7,12,16.35
3271,8,24,6,76,14,2,-2,-11,16.355
3272,10,-8,-11,-11,-60,-13,3,7,16.36
3273,37,36,2,100,15,1,-1,12,16.365000000000002
3274,-11,-14,-10,-126,-51,-7,3,0,16.37
3275,29,32,10,37,44,9,-1,14,16.375
3276,-39,-34,-3,-53,-32,-8,-3,-10,16.38
3277,-30,38,-8,67,4,7,9,-15,16.385
3278,15,8,20,-60,-11,-3,-12,1,16.39
3279,-12,-51,6,10,23,7,-1,0,16.395
3280,2,16,9,31,39,5,2,11,16.4
3281,1,-24,-17,32,23,6,3,-2,16.405
3282,16,42,13,25,-20,-6,0,4,16.41
3283,-4,-12,-7,-108,40,8,2,-14,16.415
3284,-18,7,-12,60,-66,-18,-6,5,16.42
3285,22,1,-11,-46,52,13,6,7,16.425
3286,-41,-17,11,4,-5,-7,-3,2,16.43
3287,16,24,-17,96,71,8,0,8,16.435
3288,45,14,40,-12,-24,-1,3,-3,16.44
3289,-15,2,19,42,-39,-8,-1,0,16.445
3290,14,0,-19,11,48,10,8,5,16.45
3291,-18,-28,-4,-25,-63,-19,-6,-4,16.455000000000002
3292,-9,51,-42,-128,10,1,-8,-10,16.46
3293,21,-5,6,17,5,0,5,2,16.465
3294,-9,-1,4,-22,15,5,-1,3,16.47
3295,23,15,1,-26,-20,-10,-4,-4,16.475
3296,-36,-39,-7,-60,-13,-6,-3,29,16.48
3297,-35,1,22,51,-27,-4,1,-16,16.485
3298,1,-20,-10,-98,-10,6,-9,0,16.490000000000002
3299,39,42,26,11,16,6,5,3,16.495
3300,-25,-36,-31,-29,-6,-9,-6,-4,16.5
3301,13,16,38,22,-15,0,-1,2,16.505
3302,-17,-31,-37,-27,-8,-6,6,-2,16.51
3303,-16,14,-3,-35,-46,-12,-8,-8,16.515
3304,-11,-9,30,-9,33,9,-2,-5,16.52
3305,17,-10,-39,-53,15,3,1,2,16.525
3306,19,4,9,51,21,3,3,1,16.53
3307,-25,-10,-21,-41,-37,-10,-5,-4,16.535
3308,3,-1,13,72,47,6,6,-8,16.54
3309,3,22,-8,-70,-19,1,-1,-4,16.545
3310,0,-26,0,62,25,2,1,5,16.55
3311,-8,-6,-5,-72,-7,-2,1,0,16.555
3312,4,15,-6,101,0,0,-3,-6,16.56
3313,0,-2,0,30,9,-3,-3,3,16.565
3314,13,6,3,3,2,8,5,4,16.57
3315,-1,-2,8,0,-5,-3,-2,-2,16.575
3316,-9,5,-1,30,0,-1,-2,-9,16.580000000000002
3317,-4,-4,-10,-7,-4,-1,-3,1,16.585
3318,-1,-1,5,-8,-26,0,2,-3,16.59
3319,4,-2,-10,10,35,4,0,0,16.595
3320,4,9,6,35,-4,0,0,1,16.6
3321,-5,-10,-5,-25,-13,-5,1,1,16.605
3322,0,3,6,-12,4,-1,-1,-1,16.61
3323,-5,1,5,31,-6,0,1,1,16.615000000000002
3324,4,10,-16,-10,-2,-3,-1,-3,16.62
3325,-6,-9,8,-5,-6,-3,-2,0,16.625
3326,2,8,-1,30,7,1,3,-5,16.63
3327,-5,-9,-12,4,-2,0,-1,1,16.635
3328,2,-2,3,-12,-2,-5,-3,-2,16.64
3329,2,-4,5,-22,-10,0,0,0,16.645
3330,-2,-4,-1,25,4,-1,-3,0,16.65
3331,-4,-9,-6,-11,-1,2,0,0,16.655
3332,2,3,5,-3,2,0,1,0,16.66
3333,-3,2,1,32,2,-2,-1,-3,16.665
3334,-2,5,-3,-19,3,0,-4,-3,16.67
3335,-1,-3,-3,1,-7,0,6,8,16.675
3336,0,3,-8,-9,-1,-1,-2,-4,16.68
3337,-1,0,-6,-7,-4,-3,0,0,16.685
3338,-1,2,-3,20,2,-3,-1,-3,16.69
3339,0,0,-1,7,0,-1,0,-3,16.695
3340,0,2,1,8,-2,1,-1,0,16.7
3341,0,-7,-7,-32,-3,-5,0,0,16.705000000000002
3342,-2,-2,1,12,1,-2,-1,-1,16.71
3343,1,-1,1,-3,-3,0,0,-1,16.715
3344,-1,0,2,22,1,-1,-2,-2,16.72
3345,-3,-3,-7,-20,-5,-3,-3,-5,16.725
3346,0,3,4,11,3,1,0,-1,16.73
3347,0,-2,-1,3,-3,0,-1,0,16.735
3348,0,-1,-3,-6,0,0,0,-3,16.740000000000002
3349,-1,-2,-2,2,-2,0,-1,-1,16.745
3350,-2,-3,-2,-11,-3,-2,0,0,16.75
3351,-2,-1,-1,11,5,-1,-2,-3,16.755
3352,1,-1,1,-6,1,0,-1,-1,16.76
3353,0,-1,-5,-16,-4,-2,-1,-1,16.765
3354,0,-2,-1,11,11,2,1,1,16.77
3355,-2,-3,2,17,-14,-4,-6,-4,16.775
3356,1,-1,-4,-6,-2,-2,0,1,16.78
3357,-1,1,0,2,-3,1,1,0,16.785
3358,0,1,0,5,-1,0,-2,-2,16.79
3359,-3,-3,-3,-9,-1,-2,-3,-2,16.795
3360,-1,3,-2,-5,-1,-2,0,-1,16.8
3361,-2,-2,0,24,-2,0,-2,0,16.805
3362,-1,-2,-4,-6,-3,-1,0,-1,16.81
3363,-1,1,1,1,3,0,0,0,16.815
3364,1,0,-2,2,1,1,0,0,16.82
3365,0,0,-1,-14,6,1,-1,-1,16.825
3366,-3,1,-2,3,-6,-1,-4,0,16.830000000000002
3367,0,2,0,18,-6,-1,0,0,16.835
3368,-2,-2,-1,-9,-1,-2,-2,0,16.84
3369,-1,-1,-1,-2,5,3,1,-2,16.845
3370,-3,-2,1,-1,0,0,1,-1,16.85
3371,-1,-4,-2,-10,0,-1,0,-2,16.855
3372,0,-2,0,6,-8,-2,-1,-1,16.86
3373,-1,-3,-2,-7,-2,-1,-1,-2,16.865000000000002
3374,0,-1,3,-12,-5,-4,0,0,16.87
3375,-1,2,1,13,6,1,1,-2,16.875
3376,-1,-2,-1,4,-6,-1,0,-2,16.88
3377,-1,1,0,-5,1,-2,-2,-1,16.885
3378,-2,-3,-3,-5,2,1,-1,-1,16.89
3379,1,-1,-2,-39,-10,-2,-1,-1,16.895
3380,0,-2,0,30,11,3,1,1,16.9
3381,1,1,0,5,-4,3,1,1,16.905
3382,1,2,0,-1,-3,-2,0,-2,16.91
3383,-2,-3,-1,-5,1,-1,-2,-1,16.915
3384,-3,0,-3,-17,-9,-2,-2,-1,16.92
3385,0,-2,-1,-2,4,-2,0,1,16.925
3386,-1,-2,-4,-8,-12,-2,0,-1,16.93
3387,-1,-2,0,20,12,3,-2,-2,16.935
3388,-1,-2,-1,-16,-3,0,0,0,16.94
3389,-2,-4,-4,18,-10,-3,-2,-2,16.945
3390,0,-1,-3,2,2,-1,-1,-1,16.95
3391,0,3,3,2,-3,-1,0,-1,16.955000000000002
3392,-1,-1,-1,-1,-4,-1,0,0,16.96
3393,-1,2,1,-4,13,0,-1,0,16.965
3394,0,0,-1,-10,-5,-3,-2,-1,16.97
3395,-2,-2,-4,16,1,-1,-1,-1,16.975
3396,-1,0,-1,-18,-3,1,-2,-1,16.98
3397,-1,-2,-1,17,-15,-2,-2,-1,16.985
3398,-2,-1,-3,10,14,3,2,0,16.990000000000002
3399,1,0,-2,-8,4,0,0,1,16.995
3400,0,1,0,-7,1,-1,-1,0,17.0
3401,-2,-2,-3,-11,-7,-1,0,-2,17.005
3402,-1,0,0,5,0,0,-1,1,17.01
3403,0,-2,0,-5,-3,-3,-2,-2,17.015
3404,0,-2,-1,14,2,-1,1,0,17.02
3405,0,-1,0,-23,3,1,1,0,17.025
3406,0,1,-2,7,-12,-1,2,0,17.03
3407,-1,1,-1,-22,5,-2,0,0,17.035
3408,-2,-4,-2,13,2,1,0,-1,17.04
3409,-1,-2,-2,8,6,0,0,0,17.045
3410,1,1,0,2,-2,-1,-2,-1,17.05
3411,1,-2,1,-3,-5,-1,1,-1,17.055
3412,1,-2,-1,-8,-7,-1,-2,-2,17.06
3413,-1,-1,-2,-8,-2,-2,-1,-1,17.065
3414,0,-3,-1,1,0,1,0,-1,17.07
3415,-1,-2,-1,6,-3,0,0,-1,17.075
3416,0,0,1,-4,2,0,1,0,17.080000000000002
3417,-2,-1,0,1,-2,-1,-1,0,17.085
3418,-2,-1,0,-3,0,-1,-1,-1,17.09
3419,-2,-1,0,3,-2,0,-1,-1,17.095
3420,-1,-2,-2,-2,0,-2,0,-1,17.1
3421,0,0,1,-2,3,1,-1,-1,17.105
3422,-1,1,0,-4,-1,0,0,0,17.11
3423,-1,-1,-1,-3,-1,-2,1,0,17.115000000000002
3424,0,-1,0,5,1,0,-1,-1,17.12
3425,0,0,0,-26,-11,-3,-1,-1,17.125
3426,-1,-2,-1,22,0,-3,0,-2,17.13
3427,-1,0,-2,28,21,5,2,0,17.135
3428,-1,-1,1,-2,2,-3,-1,0,17.14
3429,0,-1,-2,5,-3,-4,-2,0,17.145
3430,1,-1,1,-16,3,2,1,-2,17.150000000000002
3431,-1,0,-1,-16,-7,-3,-2,-2,17.155
3432,1,-1,1,3,1,0,1,0,17.16
3433,-1,-2,-5,-4,-3,-1,-2,-1,17.165
3434,1,-1,0,26,18,2,0,1,17.17
3435,0,-1,0,19,-7,-1,-2,0,17.175
3436,-2,0,-5,-36,10,4,1,0,17.18
3437,-2,-1,1,-3,-5,-2,0,-1,17.185
3438,-1,-1,-4,-9,-8,-4,-4,-2,17.19
3439,-2,-1,-1,-2,-5,-1,-1,-1,17.195
3440,-1,1,-1,4,-6,-3,-2,-1,17.2
3441,-3,-1,-2,8,8,1,1,0,17.205000000000002
3442,-2,1,0,-5,-1,0,0,1,17.21
3443,-1,-3,-2,-5,-2,-3,-1,0,17.215
3444,0,0,-1,3,-5,-2,0,-1,17.22
3445,-1,0,1,6,3,-1,-1,-2,17.225
3446,-1,-1,-1,-25,-8,-3,-2,-2,17.23
3447,0,-1,-1,-2,-1,1,-2,0,17.235
3448,0,-1,0,24,-4,-4,-2,-1,17.240000000000002
