slno,emg1,emg2,emg3,emg4,emg5,emg6,emg7,emg8,Time
0,1,4,-1,0,-1,-1,-1,0,0.0
1,0,0,0,-2,-1,-1,-2,0,0.005
2,-6,-2,-2,-1,0,-2,-1,-1,0.01
3,-2,-3,-1,1,1,-2,-1,0,0.015
4,2,2,3,0,0,2,-1,1,0.02
5,-3,-4,-2,0,-1,0,0,-1,0.025
6,-2,0,-1,1,0,1,-1,0,0.03
7,-1,-1,-3,-8,-3,1,-1,-2,0.035
8,-3,0,0,4,-1,0,-1,-2,0.04
9,0,-1,-3,1,0,-1,-1,-2,0.045
10,0,-1,0,-1,-1,-1,-1,0,0.05
11,0,-1,1,-1,-1,-2,-1,-1,0.055
12,0,-4,-4,-3,-1,-2,-1,-2,0.06
13,0,0,1,-5,-3,-3,-1,-1,0.065
14,-2,-2,-6,-2,-2,-2,0,-2,0.07
15,1,3,1,2,0,-1,-1,-1,0.075
16,-4,-3,0,0,0,-1,0,0,0.08
17,-1,-1,-2,-1,-2,-2,-1,-1,0.085
18,1,0,-2,-3,0,1,0,0,0.09
19,1,0,0,-3,-1,-1,0,0,0.095
20,-7,-3,-2,-2,-1,-1,0,-1,0.1
21,0,0,-1,3,-1,0,0,1,0.105
22,-2,-3,2,6,2,-1,-2,-1,0.11
23,0,0,-1,1,-2,-2,-2,-1,0.115
24,1,3,-2,-4,-2,0,-1,0,0.12
25,0,-2,0,0,-2,-1,0,-3,0.125
26,1,1,-4,-5,-1,-1,-1,-1,0.13
27,2,1,1,0,0,0,-1,0,0.135
28,-3,-3,-2,-8,-3,-2,-3,-1,0.14
29,-1,-4,0,4,1,-1,-1,-1,0.145
30,1,-1,-1,-4,-1,0,0,0,0.15
31,-2,-1,-1,1,0,-2,0,-1,0.155
32,3,4,0,0,-2,-3,0,-1,0.16
33,-1,1,2,-3,0,0,-1,-1,0.165
34,-4,-5,-3,4,0,-2,0,1,0.17
35,-1,-4,-3,-2,-2,0,-1,-2,0.17500000000000002
36,-2,-1,0,3,-1,-1,0,1,0.18
37,0,-1,-3,-4,-1,-1,-1,-1,0.185
38,2,5,2,0,-1,1,-2,-1,0.19
39,-1,0,-3,-2,-2,0,-1,1,0.195
40,-6,-9,-2,0,-1,-1,-1,-2,0.2
41,1,1,0,-2,-2,-2,-1,-2,0.20500000000000002
42,0,-1,-3,-5,0,-1,-1,-3,0.21
43,-2,-3,-1,0,0,-1,-1,-1,0.215
44,1,2,1,2,-1,-1,0,-1,0.22
45,-1,2,-3,-2,-1,0,-1,1,0.225
46,-1,1,2,-1,-3,0,-1,0,0.23
47,0,-2,-2,-2,-1,-1,0,-1,0.23500000000000001
48,0,-3,-1,8,1,-1,-1,-1,0.24
49,-4,0,1,0,2,0,-1,-1,0.245
50,-1,-1,2,-1,-2,-2,-1,0,0.25
51,-1,1,-4,-3,-1,0,-1,-2,0.255
52,-5,-2,-1,4,4,0,1,-2,0.26
53,1,0,1,2,-1,-3,1,-2,0.265
54,-2,-4,0,0,-1,-3,-2,0,0.27
55,1,1,-1,-1,-1,0,0,2,0.275
56,3,3,1,-1,-1,-1,-1,1,0.28
57,-8,-6,0,-2,-2,-1,-3,-2,0.28500000000000003
58,0,-2,0,0,0,1,0,-2,0.29
59,2,1,2,0,-3,0,-1,1,0.295
60,0,4,0,-3,-3,0,0,1,0.3
61,-4,-4,-3,0,-2,-2,-1,1,0.305
62,3,2,-1,-1,-1,-2,0,-1,0.31
63,-1,0,2,3,0,-2,0,-2,0.315
64,1,1,-2,-2,1,0,0,-1,0.32
65,1,-1,-2,-4,-3,0,0,-1,0.325
66,-2,-1,-1,3,1,-1,-1,0,0.33
67,-2,-1,1,-2,-1,-2,-2,-2,0.335
68,-2,-1,1,2,0,1,-2,-2,0.34
69,2,0,-2,-1,0,-1,-1,0,0.34500000000000003
70,-2,-1,-1,-1,-2,1,-1,-1,0.35000000000000003
71,-3,-3,-1,0,-1,-1,1,-1,0.355
72,-2,-1,-1,-2,-1,0,-3,1,0.36
73,1,2,1,0,-1,-2,1,1,0.365
74,2,0,-1,-1,0,-1,-1,-1,0.37
75,0,-3,-3,-3,-2,-1,-1,0,0.375
76,-1,-4,-3,-3,-1,-2,0,-1,0.38
77,-1,1,2,3,0,1,0,-2,0.385
78,2,1,-3,-2,0,-2,1,1,0.39
79,-1,0,-1,3,-1,-1,-2,-3,0.395
80,0,-2,0,-2,-1,-2,-1,-2,0.4
81,2,1,1,-1,-2,0,0,-1,0.405
82,-3,-6,-1,4,1,-2,-2,-3,0.41000000000000003
83,-1,-1,-3,-3,-1,0,-2,-1,0.41500000000000004
84,-1,-1,-1,-2,-1,-1,-1,0,0.42
85,1,-2,0,-1,-1,0,-1,-1,0.425
86,-2,1,-2,-3,-3,-1,0,-1,0.43
87,-2,2,-2,4,-1,1,0,0,0.435
88,-3,-1,-1,-1,0,0,-1,-1,0.44
89,2,2,1,2,1,-1,-1,1,0.445
90,-4,-6,-4,0,-2,-2,-1,0,0.45
91,-2,-1,1,-2,-1,-1,0,0,0.455
92,1,0,-1,0,-2,-2,0,0,0.46
93,-2,1,-2,-2,1,-1,1,1,0.465
94,-2,-3,0,-4,-4,-2,-2,-1,0.47000000000000003
95,0,-2,-2,-2,0,-2,1,-1,0.47500000000000003
96,1,2,0,-2,-2,1,1,-2,0.48
97,0,0,-3,0,-1,-1,-1,0,0.485
98,-1,-1,2,2,-2,1,-1,1,0.49
99,-1,-2,-1,-4,-2,-1,-2,-2,0.495
100,1,0,-2,-3,-2,-2,0,-1,0.5
101,0,-1,-2,2,-1,-2,1,-1,0.505
102,-1,1,1,-6,-2,-1,0,-2,0.51
103,0,1,0,3,1,1,1,0,0.515
104,-4,-4,-2,-1,-2,-1,-3,-1,0.52
105,-1,-1,-3,-1,-2,-1,-1,0,0.525
106,-1,-2,-1,3,-2,1,0,-1,0.53
107,1,-4,-1,-1,1,0,0,0,0.535
108,1,0,0,0,1,0,0,0,0.54
109,-2,-3,-2,-5,-4,1,-2,-2,0.545
110,1,2,2,3,0,0,1,-2,0.55
111,-2,-3,-2,-6,-5,-4,-3,-4,0.555
112,-1,-3,-4,0,-1,-1,-1,1,0.56
113,0,-1,-3,-2,-2,-1,0,0,0.5650000000000001
114,2,0,-1,-1,1,-2,-1,1,0.5700000000000001
115,1,1,0,0,0,0,0,1,0.5750000000000001
116,-1,0,-2,-1,-1,-2,-1,0,0.58
117,-2,-4,-1,0,0,-1,-2,-2,0.585
118,-2,2,-3,-3,-2,0,0,0,0.59
119,-4,0,2,4,0,-1,0,-1,0.595
120,0,-1,1,-1,-2,0,-2,-1,0.6
121,1,2,2,2,0,-1,-1,0,0.605
122,0,-4,-2,-3,-1,-2,0,-2,0.61
123,0,0,1,-2,-1,-1,-1,0,0.615
124,-2,-2,-4,-2,0,-1,0,-1,0.62
125,3,2,3,11,3,0,-1,-2,0.625
126,-3,-1,-2,-4,-3,0,1,0,0.63
127,-2,-2,0,0,-1,-1,-1,-1,0.635
128,-1,-2,-1,-1,1,0,0,0,0.64
129,0,-2,-1,-3,0,0,0,0,0.645
130,0,-2,-1,0,0,-2,-2,-3,0.65
131,0,2,-1,0,-1,-1,-1,0,0.655
132,0,1,-1,-3,1,0,-1,-2,0.66
133,2,4,0,-6,-3,0,-1,0,0.665
134,-1,2,1,2,0,2,-1,-2,0.67
135,-4,-2,-1,-2,-2,-1,0,0,0.675
136,-2,-3,0,1,-2,-3,-2,-2,0.68
137,-1,-2,-4,-3,-1,-2,-1,-1,0.685
138,-1,-2,0,-1,-1,-2,0,-1,0.6900000000000001
139,0,-1,-1,-2,0,0,-1,-1,0.6950000000000001
140,0,0,2,2,-1,-1,1,1,0.7000000000000001
141,-1,-3,-1,-1,-2,-2,0,-1,0.705
142,-1,2,1,3,0,0,-2,-1,0.71
143,-1,1,0,0,0,-1,-1,0,0.715
144,-1,-1,-1,-7,-1,0,1,-2,0.72
145,0,1,1,3,0,1,0,-1,0.725
146,-1,-4,-4,-4,-1,-1,-1,0,0.73
147,1,-2,-1,2,1,0,-1,-3,0.735
148,1,3,1,1,1,-1,-1,-1,0.74
149,-1,-1,-1,-2,-2,0,-1,-1,0.745
150,1,1,0,2,-1,-1,-2,-1,0.75
151,-1,-1,-1,-2,-1,-2,0,0,0.755
152,0,-1,-1,-1,-3,-1,-1,0,0.76
153,-1,-5,-3,-4,-1,-1,-1,-1,0.765
154,0,-1,2,1,-1,1,-1,0,0.77
155,-3,-4,-5,-6,-1,-1,-1,-3,0.775
156,0,0,-3,0,0,0,-1,-2,0.78
157,0,1,1,1,-1,-1,1,-1,0.785
158,-4,-1,-1,-3,-1,0,1,0,0.79
159,1,2,0,3,-1,-1,-1,-2,0.795
160,-5,-5,-1,-3,-2,-1,-2,-2,0.8
161,0,-4,-6,-5,-1,-2,-2,0,0.805
162,1,2,1,2,0,0,-1,-1,0.81
163,-2,-1,-1,1,2,1,0,1,0.8150000000000001
164,0,2,1,1,-1,0,0,1,0.8200000000000001
165,-1,2,3,-5,-1,-3,-2,-1,0.8250000000000001
166,-3,-3,-3,6,2,0,-3,-2,0.8300000000000001
167,-2,4,1,1,-1,0,0,0,0.835
168,-2,-2,-3,1,-2,0,0,-1,0.84
169,-1,-2,-1,2,-1,0,-1,-1,0.845
170,1,0,0,-5,-2,0,-1,0,0.85
171,1,3,3,0,0,0,1,-1,0.855
172,-3,-9,-4,-2,-2,-2,0,-2,0.86
173,-2,0,-1,-1,-1,0,-2,-2,0.865
174,-1,1,-1,-1,0,-1,-2,0,0.87
175,1,-4,-1,2,-2,-2,-1,-1,0.875
176,0,4,5,0,0,-1,-1,0,0.88
177,-3,-2,-2,0,-2,-1,0,0,0.885
178,2,0,-3,-2,1,0,1,2,0.89
179,-7,-6,-2,0,0,1,0,0,0.895
180,0,3,0,1,-1,-1,-1,0,0.9
181,-3,-4,-2,-1,-1,0,-1,-4,0.905
182,-1,-3,-1,4,0,-1,1,-1,0.91
183,2,0,-2,-4,-2,0,0,-1,0.915
184,-1,-2,-2,-1,0,-1,-1,-1,0.92
185,-3,0,2,3,0,-1,-2,-1,0.925
186,2,1,0,-10,-4,-1,-1,-2,0.93
187,0,-1,-2,3,0,-2,-1,0,0.935
188,-2,-1,-1,3,-1,0,-2,-1,0.9400000000000001
189,0,-1,-1,1,0,0,0,-1,0.9450000000000001
190,-1,-2,0,-3,0,-2,0,-1,0.9500000000000001
191,-1,-4,-1,-5,-3,-1,-2,-2,0.9550000000000001
192,2,-3,-2,3,1,0,0,0,0.96
193,0,1,2,1,-1,1,0,2,0.965
194,-3,-4,-3,-7,-3,1,-2,-3,0.97
195,2,2,-1,0,-1,0,-1,1,0.975
196,0,1,-2,-2,-1,-2,0,0,0.98
197,-2,-4,-3,-4,-1,-1,-2,-1,0.985
198,-1,0,-2,1,0,-1,-1,0,0.99
199,0,-2,0,-3,0,0,1,-1,0.995
200,1,2,0,-1,2,-1,-1,-1,1.0
201,0,0,-4,-4,-1,-1,0,-1,1.0050000000000001
202,0,1,2,5,0,0,-2,-1,1.01
203,-2,-2,1,4,-1,-2,-1,-1,1.0150000000000001
204,-5,-4,-3,-7,-1,-1,1,0,1.02
205,0,0,2,1,2,-1,0,1,1.025
206,-1,-2,-2,-2,-2,-2,1,-1,1.03
207,1,2,0,1,1,-2,-1,1,1.035
208,2,-1,3,1,-1,0,0,0,1.04
209,-1,-3,-3,-1,-1,0,-1,0,1.045
210,-1,-1,-1,-5,-3,-1,-1,0,1.05
211,0,-1,1,9,4,2,1,0,1.055
212,-1,0,-1,-4,-3,-1,-1,0,1.06
213,-2,-1,1,-3,-1,-4,-1,0,1.065
214,-1,-2,-2,0,1,-2,0,-2,1.07
215,0,-2,-2,-7,-4,-2,-1,-1,1.075
216,0,0,0,-1,1,1,-3,-1,1.08
217,-1,-1,0,1,1,0,0,0,1.085
218,-3,1,0,-3,1,-3,-1,0,1.09
219,-1,0,-1,-5,-1,-2,-1,-1,1.095
220,-2,-3,-1,-2,0,-2,1,-2,1.1
221,0,-2,2,1,-2,1,-1,-3,1.105
222,-1,2,-2,0,0,0,0,0,1.11
223,-4,-3,-2,0,-1,1,-2,-1,1.115
224,0,1,0,-1,-3,-2,-2,0,1.12
225,0,2,0,5,1,0,0,-1,1.125
226,-1,-1,-1,-2,-3,-2,-2,1,1.1300000000000001
227,0,-4,-3,-4,-3,-2,0,0,1.135
228,-4,-3,0,3,0,1,-1,-1,1.1400000000000001
229,0,0,1,-2,-2,-1,0,1,1.145
230,-1,-1,0,0,1,3,-1,-1,1.1500000000000001
231,2,0,1,3,0,-1,-2,0,1.155
232,1,3,0,-5,0,1,0,0,1.16
233,-1,-2,-2,2,1,-1,0,-2,1.165
234,0,0,0,1,-2,-1,-1,-1,1.17
235,-1,0,0,-3,-3,-1,-2,0,1.175
236,-1,-1,-1,0,-1,-2,0,-1,1.18
237,-2,-1,-1,-1,1,1,-2,-1,1.185
238,2,1,0,0,-2,-1,-1,-1,1.19
239,0,-1,-3,-5,-1,-2,-3,-3,1.195
240,2,0,-1,2,1,0,-1,1,1.2
241,-1,0,0,0,-1,-1,0,-2,1.205
242,-2,-1,2,7,2,1,0,1,1.21
243,0,5,0,-1,-2,0,0,2,1.215
244,-4,-6,0,0,0,-4,-1,-2,1.22
245,0,0,-3,-2,0,1,1,-1,1.225
246,-1,-1,1,0,-3,-1,0,-3,1.23
247,-2,-1,-2,-5,1,0,1,-1,1.235
248,5,7,3,3,-1,0,0,0,1.24
249,-2,-2,-6,-2,-1,-2,-1,0,1.245
250,-1,-1,0,2,-2,-1,-1,-1,1.25
251,0,-3,-1,-2,-1,1,0,0,1.2550000000000001
252,-6,-6,-6,-2,0,-1,-2,-3,1.26
253,-2,-3,1,-3,-2,-2,0,-1,1.2650000000000001
254,0,2,0,3,2,0,0,1,1.27
255,-1,-1,-3,-3,-3,-3,-3,-2,1.2750000000000001
256,2,2,-2,1,-1,1,0,1,1.28
257,0,-3,-2,0,-1,-1,-1,-1,1.285
258,1,-3,-4,-7,-2,-1,-1,1,1.29
259,-1,1,1,-1,0,0,0,-1,1.295
260,-1,-1,-5,-2,-3,-2,-2,-2,1.3
261,-1,2,-1,1,0,0,-1,-1,1.305
262,-2,1,2,1,0,-1,-1,-1,1.31
263,2,-1,-4,0,1,0,-2,0,1.315
264,-1,0,1,-2,-2,1,1,0,1.32
265,-3,-6,0,0,-2,-1,-3,-3,1.325
266,-2,0,0,-1,3,1,0,1,1.33
267,-1,-1,1,2,-2,-1,0,-2,1.335
268,0,-1,0,-2,1,-1,1,0,1.34
269,3,3,1,1,-2,0,0,2,1.345
270,-1,0,1,-4,-2,-3,0,-1,1.35
271,-2,-1,2,5,1,0,0,-3,1.355
272,0,1,3,0,-1,2,-1,-1,1.36
273,0,-2,-2,1,-1,-2,0,0,1.365
274,0,0,-3,-7,1,2,-1,0,1.37
275,-3,-4,-1,4,1,0,-1,0,1.375
276,0,-1,0,-1,-1,0,0,-1,1.3800000000000001
277,1,3,1,-2,-1,-1,0,1,1.385
278,-1,-1,-1,1,-2,-2,-1,-3,1.3900000000000001
279,-1,-2,-3,-4,-1,-2,0,0,1.395
280,0,-1,1,-1,0,0,-2,0,1.4000000000000001
281,0,-2,-4,-3,-2,-1,-1,0,1.405
282,1,-2,-2,-2,-3,0,1,1,1.41
283,0,1,-2,0,0,0,0,-1,1.415
284,-1,-3,-3,1,0,-4,-1,0,1.42
285,-1,2,0,-4,-3,-2,0,1,1.425
286,-2,-6,-3,0,-1,-1,-1,-1,1.43
287,-1,2,1,2,0,-2,-1,1,1.435
288,-1,0,-1,0,-1,-2,0,0,1.44
289,0,3,0,-4,0,-1,0,-1,1.445
290,-3,-2,1,4,2,-1,-1,-2,1.45
291,-1,-4,-2,-3,-2,-1,0,-2,1.455
292,2,1,0,-3,0,-1,-2,-1,1.46
293,0,1,1,1,0,2,-2,-1,1.465
294,0,-1,-1,-1,-1,0,-1,-1,1.47
295,0,1,-1,-12,-2,-1,0,0,1.475
296,-3,-5,0,7,-1,-2,-2,-2,1.48
297,2,0,-3,0,0,-2,1,-1,1.485
298,-5,-2,0,-2,-3,-1,-1,-1,1.49
299,-1,0,-2,-3,-4,-2,-1,-1,1.495
300,-1,0,-1,-4,-1,0,1,-1,1.5
301,-3,-4,-5,-3,0,-1,-2,-1,1.5050000000000001
302,3,0,0,0,-1,-2,0,-1,1.51
303,1,2,1,0,1,1,0,-1,1.5150000000000001
304,-1,-4,-1,-1,-2,-1,-2,-2,1.52
305,-1,-2,1,0,-1,0,-2,-2,1.5250000000000001
306,-1,-3,-3,-2,-2,-2,-1,1,1.53
307,-2,-1,1,-1,-1,0,-1,-2,1.5350000000000001
308,-1,0,-2,-1,-1,1,-1,-1,1.54
309,-2,-4,-2,1,0,-1,-2,-1,1.545
310,1,0,-1,3,0,-1,0,-1,1.55
311,-2,-3,-1,0,-1,0,-1,0,1.555
312,-1,-1,-4,-6,-3,-3,0,-2,1.56
313,0,0,1,-1,0,0,-1,0,1.565
314,0,0,0,-3,-2,-2,0,0,1.57
315,-1,-4,-7,-3,3,0,0,1,1.575
316,-1,3,1,0,0,1,-1,-1,1.58
317,-4,-5,-2,-2,-3,-2,-1,-1,1.585
318,4,2,1,3,-1,-1,-1,-1,1.59
319,-5,-1,-1,-2,1,-1,-1,-2,1.595
320,-1,-1,1,1,1,0,0,2,1.6
321,0,-2,0,-3,-1,-2,-1,-1,1.605
322,1,2,-2,-3,0,-2,-1,0,1.61
323,0,0,-1,2,-4,-1,1,-2,1.615
324,-1,-1,-1,-2,-1,-1,1,0,1.62
325,-1,-2,-2,2,-1,0,1,-1,1.625
326,0,2,0,-3,1,0,-1,0,1.6300000000000001
327,1,-1,1,1,-1,-2,-3,-1,1.635
328,-1,1,-5,0,2,0,1,-1,1.6400000000000001
329,0,2,1,-2,-3,1,0,0,1.645
330,-3,-3,-2,0,0,1,-1,-2,1.6500000000000001
331,-1,1,0,-1,-4,-1,-1,1,1.655
332,-1,0,1,-3,-2,-2,-1,-2,1.6600000000000001
333,-1,-2,-3,-2,0,-1,-2,-1,1.665
334,1,-1,1,2,0,1,1,0,1.67
335,-2,-5,-4,2,1,0,-1,-2,1.675
336,2,-1,0,-2,-1,0,-1,-1,1.68
337,0,3,1,1,0,-1,1,-1,1.685
338,-3,-1,0,-3,-3,-3,-2,0,1.69
339,2,-2,-1,2,1,0,1,-1,1.695
340,2,-2,-1,0,0,0,-1,3,1.7
341,-2,-1,2,3,0,-2,-2,-2,1.705
342,-1,-1,-4,-4,1,1,-1,0,1.71
343,-1,0,0,0,-2,-2,-1,-1,1.715
344,2,0,0,1,0,1,0,-1,1.72
345,1,2,-1,-6,-1,0,0,0,1.725
346,0,-3,-2,4,1,-3,-1,-3,1.73
347,-1,0,2,1,-2,-1,0,-1,1.735
348,-2,0,0,-1,-3,-1,-3,-1,1.74
349,-1,0,1,1,0,-2,-1,0,1.745
350,1,0,-2,6,3,1,1,0,1.75
351,-1,1,-2,-3,0,0,-1,-1,1.7550000000000001
352,-3,-1,-2,-2,-2,-4,1,-1,1.76
353,0,1,1,-4,-1,-1,-1,0,1.7650000000000001
354,-3,-3,-1,-3,-3,-2,-1,-1,1.77
355,0,1,2,2,0,0,0,-1,1.7750000000000001
356,-2,-3,-4,0,-2,-2,0,-2,1.78
357,2,1,0,0,2,0,1,-1,1.7850000000000001
358,-3,-3,-2,-4,-3,-2,-1,0,1.79
359,1,0,-1,-3,-2,-1,0,-1,1.795
360,-7,-4,-3,-1,-1,-1,-1,-3,1.8
361,-1,-2,-2,0,1,0,-2,-1,1.805
362,1,2,-1,-1,-3,0,0,0,1.81
363,1,0,1,-1,-2,0,-1,1,1.815
364,0,-1,-1,1,2,0,0,1,1.82
365,-3,-3,-1,2,-2,0,-2,-2,1.825
366,0,2,1,1,1,1,-1,-1,1.83
367,0,2,-2,-2,1,-1,-3,1,1.835
368,2,3,4,-2,-2,-1,-1,-2,1.84
369,-3,-5,-7,-4,-1,0,1,-1,1.845
370,-2,-4,0,-1,-1,-2,0,-3,1.85
371,0,-2,-2,-1,-2,-1,-2,0,1.855
372,-1,2,2,2,-1,0,-1,-1,1.86
373,-1,0,-1,0,-1,-1,0,0,1.865
374,-2,-1,-2,-4,-1,0,-1,-2,1.87
375,0,1,1,3,2,0,-1,0,1.875
376,0,-3,0,-2,-1,-1,-1,-1,1.8800000000000001
377,2,-2,-1,0,-1,-3,-1,0,1.885
378,-1,-1,-1,-3,-4,-1,-1,0,1.8900000000000001
379,-2,-2,-2,4,3,0,0,-1,1.895
380,1,2,-3,-2,0,-1,-1,-2,1.9000000000000001
381,-1,1,-1,0,0,0,-2,-1,1.905
382,-1,-3,0,-1,-4,0,-3,-1,1.9100000000000001
383,0,-1,-1,4,2,2,1,-1,1.915
384,-1,-3,-2,-5,-2,-3,-1,0,1.92
385,-1,-1,1,1,-2,-1,-1,-2,1.925
386,-1,1,-1,-1,-1,1,-1,-1,1.93
387,-3,-1,0,-3,-2,-3,-1,-2,1.935
388,-1,-1,-2,1,2,2,0,2,1.94
389,-1,0,3,2,-2,-1,-1,1,1.945
390,1,1,-3,-1,0,1,1,0,1.95
391,-2,-4,-1,-4,-3,-1,-3,-3,1.955
392,-2,-2,-3,-1,-1,-2,0,-1,1.96
393,-3,-3,0,3,0,0,-2,-1,1.965
394,1,0,0,-2,0,-2,0,-1,1.97
395,2,2,-3,-2,-1,0,-2,-1,1.975
396,-7,-3,1,-4,-4,-2,-1,-1,1.98
397,-1,-1,-1,-1,-3,-1,0,0,1.985
398,3,1,-3,-3,0,0,0,0,1.99
399,-1,-4,2,7,1,0,-1,-1,1.995
400,1,0,-1,1,-1,2,0,-1,2.0
401,-2,-4,0,-5,-2,-1,-1,0,2.005
402,-2,-2,-3,1,-1,0,-1,0,2.0100000000000002
403,2,2,-2,-2,-2,-3,-1,1,2.015
404,-1,-4,-2,-1,0,-1,-2,-1,2.02
405,0,2,0,-2,1,0,1,0,2.025
406,-2,-3,2,-5,-3,-2,0,-2,2.0300000000000002
407,-1,1,2,3,2,-1,1,0,2.035
408,0,-1,-6,-1,-2,1,-1,-1,2.04
409,1,2,-1,-1,-1,-1,0,-1,2.045
410,-3,-4,-1,1,0,-2,-3,-1,2.05
411,-3,0,0,0,2,-1,0,0,2.055
412,1,-1,1,-2,1,0,1,0,2.06
413,2,1,0,5,0,2,-2,-2,2.065
414,1,6,3,-1,-1,0,-1,0,2.07
415,-3,-5,-4,-1,0,0,0,-2,2.075
416,0,0,-1,2,-1,-1,-3,-1,2.08
417,2,1,-2,-5,-3,-4,-1,0,2.085
418,-2,-4,-1,0,0,-3,0,1,2.09
419,-4,-3,0,-4,-6,-2,-1,-2,2.095
420,1,0,1,2,4,0,1,0,2.1
421,-3,0,-1,-3,0,-1,0,-1,2.105
422,0,-2,1,8,-1,0,0,-1,2.11
423,2,-1,-6,-10,-3,-2,0,-1,2.115
424,0,0,2,2,-1,0,0,-1,2.12
425,-1,-2,-2,-1,0,0,0,0,2.125
426,0,2,1,-1,-1,-1,-1,1,2.13
427,1,-1,-4,-5,-2,0,-1,0,2.1350000000000002
428,0,0,1,1,-1,1,-2,-1,2.14
429,2,-2,-2,1,-2,-3,-2,-2,2.145
430,-2,0,-1,-1,-1,1,1,-2,2.15
431,0,1,2,0,-2,0,-1,1,2.1550000000000002
432,-2,-1,-3,-3,0,-3,-1,-2,2.16
433,-1,-2,-1,-3,-1,0,-3,-1,2.165
434,1,2,-3,-2,1,0,0,1,2.17
435,-3,0,2,-2,-3,-3,-1,-2,2.1750000000000003
436,-1,-1,0,4,-2,-2,1,-1,2.18
437,-2,-2,1,2,-1,2,-1,0,2.185
438,0,-1,-2,0,1,2,-1,-1,2.19
439,2,2,2,0,-1,-1,-2,-1,2.195
440,-2,-2,-4,-3,-2,-2,0,-2,2.2
441,-4,-4,-1,0,-1,-1,-1,-2,2.205
442,3,0,-4,-1,-2,-1,-2,1,2.21
443,-9,-4,-1,-1,1,1,0,-2,2.215
444,1,2,2,3,0,-1,0,0,2.22
445,-1,-1,-5,-6,0,-1,1,1,2.225
446,-1,-3,-1,1,-1,-1,-3,-1,2.23
447,1,-2,-2,0,-1,0,0,-1,2.235
448,-1,-4,0,-2,1,0,-1,-1,2.24
449,-1,-2,-2,-2,-2,-1,-1,-2,2.245
450,-2,0,1,2,2,0,-1,-2,2.25
451,2,3,0,3,-3,-1,-1,0,2.255
452,-2,-1,-2,-1,1,1,-1,0,2.2600000000000002
453,0,1,1,-1,0,-2,0,2,2.265
454,-2,-2,-1,-1,-1,-3,1,-1,2.27
455,0,-3,-2,1,2,0,1,-1,2.275
456,0,-1,0,-1,-3,-3,-2,0,2.2800000000000002
457,0,-2,-3,-4,-2,-1,-1,-2,2.285
458,-1,2,0,-1,-1,-1,0,2,2.29
459,0,-3,-3,1,0,-1,-1,-1,2.295
460,1,3,1,-3,-3,-2,0,1,2.3000000000000003
461,1,1,0,1,1,0,-1,-1,2.305
462,-1,-2,0,-5,-1,0,-1,-1,2.31
463,-7,-6,-1,5,-1,-2,-1,-2,2.315
464,-2,-1,1,-2,0,0,-2,-1,2.32
465,-2,-2,-3,-2,0,0,-1,-3,2.325
466,-1,-3,0,-12,-3,-1,-2,-2,2.33
467,0,3,0,6,0,0,-1,1,2.335
468,-1,0,-3,0,1,1,0,-2,2.34
469,0,5,2,1,-2,-1,0,0,2.345
470,-3,-3,-2,-3,-3,-1,-2,-3,2.35
471,3,1,-1,-5,0,0,1,0,2.355
472,-2,-4,-2,-2,-2,-1,-1,-1,2.36
473,-1,-2,-1,3,1,0,-1,0,2.365
474,-2,-1,3,0,-2,-2,0,0,2.37
475,-1,-1,-4,-2,-1,0,-2,-2,2.375
476,0,0,-1,4,-1,0,0,1,2.38
477,0,0,0,-1,-2,-1,-1,0,2.3850000000000002
478,-2,-3,-1,2,1,-1,-1,-1,2.39
479,0,0,2,-7,-1,1,-1,-1,2.395
480,0,-2,-5,-5,-1,-1,-1,-1,2.4
481,-2,-1,-1,-2,-2,-1,1,0,2.4050000000000002
482,-3,2,-3,6,2,1,0,0,2.41
483,2,0,-2,-4,-3,-2,0,-1,2.415
484,1,1,0,0,-3,-2,0,0,2.42
485,0,3,4,3,2,1,0,-1,2.4250000000000003
486,2,-1,-1,-2,-2,-1,-1,-1,2.43
487,-1,-5,-1,2,0,-1,-2,-1,2.435
488,-4,-1,-1,-4,-1,-3,-1,0,2.44
489,-1,-4,-3,-1,-1,-2,-1,-1,2.445
490,1,0,0,0,-2,-2,-2,-1,2.45
491,3,1,2,0,-3,-1,-2,1,2.455
492,1,1,-3,-4,0,-2,-4,-2,2.46
493,-3,-3,-4,0,-1,0,0,0,2.465
494,-1,-2,-1,2,1,-1,-1,0,2.47
495,-3,-4,-2,-1,-3,-1,-1,0,2.475
496,-2,-1,1,1,-1,2,0,-1,2.48
497,0,3,1,0,0,-1,-1,0,2.485
498,-3,-4,-3,-3,-2,0,-1,0,2.49
499,-1,1,0,1,2,-1,-1,-1,2.495
500,-2,-2,0,-3,-4,-2,2,-2,2.5
501,-1,0,2,4,0,0,-1,-1,2.505
502,-1,3,0,-1,-1,0,1,0,2.5100000000000002
503,0,0,2,3,1,0,-1,-1,2.515
504,1,-3,-1,-2,-3,-2,-3,-3,2.52
505,-1,-4,-3,3,-1,-3,-1,-1,2.525
506,0,1,-2,-6,-2,-1,0,0,2.5300000000000002
507,3,0,0,-2,-2,0,1,0,2.535
508,-2,2,0,4,3,0,1,-1,2.54
509,0,-2,-1,-1,-2,-1,-2,-1,2.545
510,-3,-2,-1,0,0,-1,-2,-1,2.5500000000000003
511,-3,-3,-3,-3,-2,-3,-1,-2,2.555
512,0,-2,2,0,-1,-1,0,-1,2.56
513,0,-1,-3,-4,-2,0,0,-1,2.565
514,0,1,-1,0,-1,0,-1,-2,2.57
515,-2,-1,-2,1,0,0,-1,-1,2.575
516,0,-1,-1,1,-1,0,-1,0,2.58
517,-5,-2,2,-3,-1,-1,-1,-2,2.585
518,1,-2,-2,1,0,0,-1,-1,2.59
519,0,3,0,-1,0,0,2,0,2.595
520,2,1,0,-1,0,0,0,0,2.6
521,0,0,1,-1,-2,1,-1,-1,2.605
522,-2,-1,-4,-3,1,0,-2,-1,2.61
523,-2,0,2,3,0,-1,0,1,2.615
524,-2,-1,-3,1,0,-1,-1,0,2.62
525,-1,3,1,-1,2,1,0,-2,2.625
526,1,2,2,3,-2,-2,0,-1,2.63
527,-2,-3,-2,-4,0,0,0,1,2.6350000000000002
528,1,2,3,0,0,-1,-1,0,2.64
529,2,-3,-4,-2,-2,-1,-2,0,2.645
530,-4,-2,0,2,-2,1,-2,-1,2.65
531,0,-1,0,-2,-2,0,-2,-3,2.6550000000000002
532,-3,-1,0,-2,-1,1,-1,-1,2.66
533,-1,-2,-1,-4,-2,-3,-1,-1,2.665
534,1,-1,2,1,1,-1,-1,1,2.67
535,0,-1,-4,-5,-3,-3,-1,-2,2.6750000000000003
536,-2,0,-2,-1,2,0,-1,-1,2.68
537,-1,-1,-1,0,0,0,-2,-1,2.685
538,-3,-2,-1,-9,-3,-1,1,-2,2.69
539,0,0,1,9,3,-1,-2,-1,2.695
540,0,-2,-2,-1,-1,0,-2,-1,2.7
541,-1,-4,-1,-1,0,-3,0,1,2.705
542,1,0,0,-1,-1,-1,-3,0,2.71
543,-2,0,1,-3,0,1,0,0,2.715
544,-1,-2,0,-2,-1,-2,-1,0,2.72
545,-6,-3,-4,0,2,3,-1,1,2.725
546,1,-1,-2,2,1,0,0,-1,2.73
547,2,2,-1,-2,0,-2,-1,-1,2.735
548,0,-1,-2,-3,-3,-1,-1,0,2.74
549,0,0,0,-1,-1,-1,0,-3,2.745
550,0,-1,1,0,-3,-2,-1,-1,2.75
551,-1,0,-2,0,0,1,-1,0,2.755
552,0,0,0,0,-2,-1,0,0,2.7600000000000002
553,0,3,-1,-2,-2,-1,0,-1,2.765
554,-5,-2,-1,0,-1,0,-1,-1,2.77
555,2,0,-1,-5,-4,-1,-1,0,2.775
556,0,-2,0,7,2,-2,-2,0,2.7800000000000002
557,2,4,1,-4,-3,-1,0,1,2.785
558,-1,-6,-4,-2,-1,-1,-1,-3,2.79
559,-4,1,0,-5,0,1,0,-2,2.795
560,-1,0,0,1,-2,-1,-2,-2,2.8000000000000003
561,1,0,1,3,0,-1,-1,-2,2.805
562,-1,-1,0,3,1,-1,0,0,2.81
563,1,2,-2,0,0,0,0,-1,2.815
564,-2,0,-4,-4,-2,-1,-2,-1,2.82
565,0,-1,-2,2,2,1,-1,0,2.825
566,-2,0,0,0,-3,-1,-1,1,2.83
567,-1,-4,-3,-2,-1,0,-3,-1,2.835
568,-1,-2,-3,-3,-1,-2,-3,-1,2.84
569,-6,-4,-1,-6,-4,-2,-1,-2,2.845
570,1,0,-2,2,2,0,-1,0,2.85
571,-1,-2,0,-1,-2,-3,0,0,2.855
572,-2,-2,-2,-6,-1,0,0,-1,2.86
573,-1,-3,0,1,-1,-1,-3,0,2.865
574,-1,1,-1,-1,0,-1,-2,-2,2.87
575,0,1,3,-2,-2,-1,0,-1,2.875
576,1,-2,1,1,0,1,0,0,2.88
577,0,0,-2,-4,-1,0,-1,-1,2.8850000000000002
578,-8,-7,2,-3,-4,-4,-1,-1,2.89
579,1,0,-5,3,-1,-1,-1,-2,2.895
580,-1,-1,0,-2,1,-1,1,-2,2.9
581,4,3,1,4,-1,-1,1,1,2.9050000000000002
582,1,1,-1,-1,-1,2,0,0,2.91
583,-3,-2,0,-4,-1,-2,0,-2,2.915
584,2,1,2,3,0,1,0,0,2.92
585,-1,-3,-2,0,1,-1,-1,0,2.9250000000000003
586,2,-1,-3,-2,-4,-1,-1,0,2.93
587,-2,-6,-2,-4,-2,-1,-1,0,2.935
588,0,2,-4,-1,-1,0,-1,0,2.94
589,-1,1,-1,2,3,-2,-1,-1,2.945
590,0,3,1,2,0,0,-1,1,2.95
591,1,1,1,-2,0,-2,-2,1,2.955
592,-2,-5,-2,-6,-2,-1,0,0,2.96
593,0,-2,-2,4,-3,-1,-1,-1,2.965
594,0,1,0,0,0,-2,0,-1,2.97
595,0,1,-1,-2,-2,-1,0,0,2.975
596,-1,1,2,0,-1,-2,1,0,2.98
597,-1,0,-2,-2,-2,-1,1,-3,2.985
598,1,-1,-2,-3,-1,-2,0,0,2.99
599,-1,-4,-2,0,-2,1,-1,-1,2.995
600,-1,-5,-4,1,-2,1,-2,-2,3.0
601,1,4,3,0,0,0,1,-1,3.005
602,-2,-2,1,-1,-1,0,0,-3,3.0100000000000002
603,-2,-1,0,4,0,-1,0,-1,3.015
604,0,0,0,-2,0,-1,-1,0,3.02
605,-1,0,-1,-5,-2,-1,-2,0,3.025
606,2,2,-3,-5,-2,-2,-1,0,3.0300000000000002
607,1,0,0,7,2,-1,-1,-1,3.035
608,-2,0,-1,0,-1,1,0,-2,3.04
609,-1,-1,-1,-3,-2,0,-1,0,3.045
610,1,1,-1,1,-1,-1,-2,-1,3.0500000000000003
611,-4,-6,-2,-7,-1,-2,-1,-3,3.055
612,1,3,0,3,-1,-2,0,-1,3.06
613,-1,0,0,2,3,-1,-2,0,3.065
614,2,0,1,0,3,0,0,-1,3.0700000000000003
615,-2,-2,0,-3,0,1,-1,0,3.075
616,-3,-3,1,2,-1,-1,-2,-1,3.08
617,-2,-3,-1,-4,-3,0,0,-1,3.085
618,-1,-4,-6,0,1,-1,0,-1,3.09
619,1,0,-1,2,1,1,1,-1,3.095
620,1,2,2,0,0,0,1,-1,3.1
621,-3,-4,-1,-1,0,-1,-1,-3,3.105
622,-2,0,-1,-3,0,-2,-1,0,3.11
623,-3,-2,-1,3,-1,-2,-2,-1,3.115
624,1,-1,-3,-3,-1,-1,0,-1,3.12
625,1,1,-1,-1,0,1,1,-1,3.125
626,-3,-3,-2,0,-2,-1,-3,-1,3.13
627,2,3,0,-7,-2,1,-1,0,3.1350000000000002
628,-1,-2,0,4,1,1,-2,0,3.14
629,-1,-2,-1,-1,-3,-3,-2,-1,3.145
630,2,4,2,4,3,1,0,0,3.15
631,-2,-1,2,-1,-1,-1,0,-1,3.1550000000000002
632,0,1,-2,-1,0,0,2,0,3.16
633,-3,-4,-2,-4,-3,-2,0,-1,3.165
634,-1,-1,0,-2,-2,0,1,-1,3.17
635,1,1,-1,0,0,-1,-1,0,3.1750000000000003
636,-1,1,-1,-5,0,-2,-1,0,3.18
637,-1,-4,-3,0,-1,-1,-3,-2,3.185
638,1,1,1,0,-2,0,0,0,3.19
639,0,1,-2,3,-1,-1,-1,1,3.1950000000000003
640,-3,-5,1,-3,-1,0,-1,-2,3.2
641,1,0,-2,2,-1,-2,-1,0,3.205
642,-2,-3,-2,-4,-2,1,1,0,3.21
643,-1,1,-3,2,2,-1,-1,-1,3.215
644,-3,-3,-3,-4,-3,-1,-1,-1,3.22
645,0,-2,0,-2,0,-1,-2,0,3.225
646,-1,-4,0,1,-2,-2,-2,-1,3.23
647,1,-2,-3,0,0,-2,1,1,3.235
648,-4,1,0,2,-2,0,0,-1,3.24
649,-1,-1,-2,0,2,1,1,-2,3.245
650,1,0,-2,0,0,0,0,0,3.25
651,-4,0,3,1,1,-1,-1,-2,3.255
652,1,0,2,3,0,0,-1,0,3.2600000000000002
653,-2,0,1,-2,0,-1,0,0,3.265
654,0,-1,-1,-3,-3,-2,0,0,3.27
655,3,0,1,-1,-3,-1,0,0,3.275
656,-3,0,0,-5,-1,-2,-1,0,3.2800000000000002
657,-2,-2,2,-1,0,1,0,-2,3.285
658,0,-1,1,4,2,-1,-4,-1,3.29
659,-1,-2,-1,-2,-2,0,0,-1,3.295
660,0,-2,0,-3,-2,-1,1,0,3.3000000000000003
661,1,0,-2,-2,-1,-2,0,1,3.305
662,-4,-5,-6,-6,-1,-1,0,-2,3.31
663,-1,0,1,-1,-1,0,-1,0,3.315
664,0,0,-2,4,2,0,0,-1,3.3200000000000003
665,1,0,0,-4,-1,-1,0,-1,3.325
666,-1,0,-4,0,-1,1,1,0,3.33
667,-2,-1,-1,0,-1,0,-3,0,3.335
668,0,0,-3,-2,-1,-3,-1,0,3.34
669,-1,0,-3,-1,-2,0,-1,-2,3.345
670,-1,0,-1,0,-1,-2,-1,-3,3.35
671,1,-2,-2,-3,0,0,1,1,3.355
672,-2,1,0,-4,-1,0,-2,-1,3.36
673,-3,-2,2,4,-1,-1,1,1,3.365
674,-1,1,-2,-2,2,1,0,0,3.37
675,1,-1,0,3,1,0,-1,-1,3.375
676,-1,-1,-2,-2,-1,-2,-3,0,3.38
677,0,-1,-2,-1,0,-1,-2,0,3.3850000000000002
678,3,4,4,1,-1,-1,-1,-1,3.39
679,-8,-6,-3,-5,-2,-2,-2,-3,3.395
680,0,1,-1,-4,-2,-1,0,1,3.4
681,-2,-2,-2,2,0,-1,1,0,3.4050000000000002
682,-2,-1,-2,-3,-3,-1,-1,0,3.41
683,2,1,-2,2,-2,-1,-1,-1,3.415
684,-1,-3,-1,0,0,0,-2,-1,3.42
685,-2,0,-2,-2,-2,-1,-1,-1,3.4250000000000003
686,-1,0,0,-5,-2,1,0,0,3.43
687,0,0,-1,1,-2,-2,0,-1,3.435
688,-2,-2,-2,1,-1,-1,-1,0,3.44
689,2,3,1,0,0,0,-1,-1,3.4450000000000003
690,-4,-5,-2,-4,-6,-2,0,-2,3.45
691,0,0,0,2,0,-1,0,0,3.455
692,-1,0,1,4,1,-2,1,-2,3.46
693,-2,-2,-4,-5,-3,-1,0,-1,3.465
694,-1,-2,1,3,0,-1,-1,-1,3.47
695,-1,0,0,-1,-1,1,0,-2,3.475
696,-6,-3,0,0,0,1,0,-1,3.48
697,0,0,-2,-1,-1,0,-1,0,3.485
698,-3,-5,0,2,-1,-1,-2,-2,3.49
699,1,-1,-1,-3,-2,-2,0,-1,3.495
700,3,0,-3,-3,-3,-1,-1,-2,3.5
701,-1,0,-2,0,-2,-1,-2,-1,3.505
702,-2,-2,-3,1,2,0,0,0,3.5100000000000002
703,-2,-3,0,-5,-3,-1,0,0,3.515
704,-1,1,-1,-1,0,0,-1,-1,3.52
705,-2,-3,-2,-7,-3,-3,-2,-2,3.525
706,2,1,-2,3,1,-1,-1,0,3.5300000000000002
707,-4,-3,-1,-1,0,-1,-1,-3,3.535
708,3,3,1,0,-1,-1,0,0,3.54
709,-5,-5,1,4,1,-1,1,-2,3.545
710,1,0,1,-2,-2,-2,-2,0,3.5500000000000003
711,-1,-2,-2,-3,-1,0,-2,-3,3.555
712,-1,0,0,0,-2,-1,-1,1,3.56
713,1,-1,1,0,-1,-1,-2,-3,3.565
714,1,5,3,8,3,1,0,0,3.5700000000000003
715,0,-2,-4,-1,-1,-2,0,0,3.575
716,-1,-4,-1,-2,0,0,0,-1,3.58
717,-3,1,1,-2,-1,-1,0,1,3.585
718,-1,-1,-3,-3,-3,-1,1,-1,3.59
719,-1,1,-1,-6,-2,-1,-3,1,3.595
720,1,1,-3,4,0,0,-1,-1,3.6
721,2,2,-1,-1,1,2,0,-1,3.605
722,-3,-6,-3,-5,-4,-1,-1,-2,3.61
723,1,-1,-1,-1,-2,-1,0,0,3.615
724,-3,0,-1,0,0,-3,1,-2,3.62
725,-2,0,-3,-2,0,-2,-1,0,3.625
726,-1,0,-2,1,-2,-1,-2,-1,3.63
727,1,3,2,1,1,0,0,0,3.6350000000000002
728,-1,-4,-1,3,1,0,-3,-1,3.64
729,1,1,-2,1,0,-1,0,1,3.645
730,-2,-2,-3,-3,-1,-2,-2,-1,3.65
731,-1,0,0,1,2,0,-1,0,3.6550000000000002
732,1,-1,-1,0,-1,0,1,0,3.66
733,-1,1,-1,-4,0,-1,0,0,3.665
734,0,0,4,0,-2,-3,-1,0,3.67
735,-4,-4,-7,-2,1,1,0,-1,3.6750000000000003
736,-1,0,1,-3,-2,-1,0,-1,3.68
737,0,-3,-3,-2,0,-1,-1,0,3.685
738,-1,-2,-2,0,0,0,1,0,3.69
739,0,0,1,2,1,-1,0,-1,3.6950000000000003
740,-1,-4,-4,-3,-2,-1,1,-1,3.7
741,1,-1,-2,0,-1,-1,-1,0,3.705
742,-4,1,0,-4,-2,-1,-1,0,3.71
743,-2,-2,1,-2,-2,0,0,-2,3.715
744,1,2,0,1,0,0,-1,0,3.72
745,2,0,-2,1,-1,0,-1,-1,3.725
746,-1,-3,-3,-4,-3,0,-2,0,3.73
747,2,-1,2,2,0,-1,-2,-1,3.735
748,-1,-1,3,6,2,0,0,-1,3.74
749,1,2,-2,-2,1,1,0,0,3.745
750,0,-2,-3,2,0,-2,0,-3,3.75
751,-4,-2,-3,-5,-3,0,-2,-1,3.755
752,0,-1,-1,-3,-3,0,-2,-2,3.7600000000000002
753,-1,0,0,-2,-3,-2,0,-1,3.765
754,1,2,-2,2,1,1,1,1,3.77
755,-1,0,1,0,-2,-1,0,0,3.775
756,0,-3,-4,-6,0,0,-2,1,3.7800000000000002
757,1,-2,0,1,-1,-1,0,0,3.785
758,-3,-6,-1,-1,-2,0,-2,-3,3.79
759,1,1,-1,-1,-2,-2,-1,0,3.795
760,-2,-1,1,-1,0,0,-1,0,3.8000000000000003
761,-1,-2,-3,-1,-2,1,0,-2,3.805
762,0,-1,-1,-2,0,-1,0,0,3.81
763,0,1,1,5,-3,-1,-1,-1,3.815
764,-2,0,-3,-6,-1,-1,0,-2,3.8200000000000003
765,-3,-2,-4,-1,-2,-2,-2,-2,3.825
766,1,-2,0,3,1,-1,0,-2,3.83
767,-1,-1,-2,-5,1,0,0,-2,3.835
768,0,-1,-1,-3,-5,-2,0,0,3.84
769,-6,-1,2,6,1,0,-2,0,3.845
770,-1,-2,-1,-4,-1,-1,-2,-2,3.85
771,-3,-4,-3,-1,-1,-2,-1,-1,3.855
772,2,-1,-2,-2,-3,-1,-2,0,3.86
773,1,6,4,0,0,0,0,1,3.865
774,0,-3,-1,-1,-4,0,-1,-1,3.87
775,-1,-2,-6,-3,4,2,-1,0,3.875
776,-1,0,-2,0,-2,-1,-1,-1,3.88
777,0,-2,1,5,-1,0,-1,-1,3.8850000000000002
778,-1,4,2,-2,0,-3,1,0,3.89
779,1,0,2,2,-3,-2,1,0,3.895
780,-1,0,1,1,0,-1,0,-1,3.9
781,1,-2,-3,-5,-1,-1,-1,-1,3.9050000000000002
782,1,3,1,1,0,-1,-2,2,3.91
783,0,-1,1,-1,0,0,-1,-1,3.915
784,-2,-1,-3,-3,0,0,-2,0,3.92
785,4,2,4,0,-1,-2,-1,-1,3.9250000000000003
786,0,0,-1,-3,1,-1,-2,0,3.93
787,-2,-1,-1,2,-1,-1,-1,0,3.935
788,0,0,-2,-1,-1,-1,-1,0,3.94
789,-1,-5,-3,-6,-3,-2,-1,-1,3.9450000000000003
790,2,2,1,-3,0,1,1,1,3.95
791,-1,1,0,0,-2,1,0,-1,3.955
792,2,-1,-1,-5,0,0,-2,0,3.96
793,-7,-3,-2,-6,-1,0,-2,-3,3.9650000000000003
794,-3,-2,-2,4,0,-1,0,0,3.97
795,2,-2,0,2,-1,-3,-2,-2,3.975
796,0,4,3,2,0,-1,-2,0,3.98
797,1,0,-1,-5,-2,-2,0,-1,3.985
798,0,-1,0,6,0,-1,-2,-2,3.99
799,-2,-1,-1,1,1,0,-2,0,3.995
800,-2,1,0,-2,-4,-2,1,-1,4.0
801,-3,-2,-1,0,0,-1,-1,0,4.005
802,0,-1,-2,-4,-2,0,-1,-2,4.01
803,-1,1,2,6,2,0,1,-1,4.015
804,-2,-3,-3,-5,-2,0,-2,-3,4.0200000000000005
805,0,0,0,4,1,0,-1,-1,4.025
806,-4,-5,-1,-1,-1,-2,0,-3,4.03
807,0,-1,-1,2,0,1,1,-1,4.035
808,-4,-2,-1,-1,0,-2,-1,0,4.04
809,0,0,0,-1,2,0,-2,-2,4.045
810,1,3,0,-1,0,0,0,0,4.05
811,-2,-2,-2,-2,-3,0,-1,-2,4.055
812,0,-2,-5,-5,-4,-3,0,0,4.0600000000000005
813,-5,-2,-1,3,-3,-1,0,0,4.065
814,0,-1,-1,-1,0,0,-1,0,4.07
815,-1,0,-2,-4,-1,-2,-1,-2,4.075
816,1,2,-1,2,-1,1,0,-1,4.08
817,2,-2,-2,-3,-2,-2,-1,1,4.085
818,-2,-6,-6,-5,-3,-2,-1,-3,4.09
819,-3,-2,-2,0,-1,0,0,0,4.095
820,2,-2,1,1,2,-2,1,-1,4.1
821,-1,-1,-4,-5,-3,-2,1,0,4.105
822,1,0,2,5,0,-1,0,0,4.11
823,-1,1,0,-5,-1,-2,-2,-1,4.115
824,-4,-5,-1,0,-1,-1,-1,0,4.12
825,0,0,1,7,2,-1,0,0,4.125
826,-1,0,-2,-3,-1,0,-1,1,4.13
827,0,-2,-2,-5,-1,0,1,-3,4.135
828,-1,2,1,5,2,0,-1,-1,4.14
829,-2,-3,-2,-3,-1,-1,0,0,4.1450000000000005
830,-2,0,-4,-3,-2,-1,-1,-2,4.15
831,1,-1,-1,3,0,-2,-2,0,4.155
832,0,-1,3,5,0,0,-3,-2,4.16
833,-3,-1,-1,-4,2,1,2,-2,4.165
834,-1,0,0,0,-3,0,0,-4,4.17
835,-1,0,-1,-5,-4,0,1,-1,4.175
836,-1,-1,-6,-1,-2,-2,0,-1,4.18
837,0,-2,-1,3,-1,-2,-3,1,4.1850000000000005
838,-1,-1,0,-1,1,1,-1,0,4.19
839,-2,-4,-2,-4,-1,-2,-1,0,4.195
840,-1,0,2,2,0,0,-1,-1,4.2
841,0,1,3,1,-1,1,-2,-1,4.205
842,-1,-4,-6,-4,-1,-1,0,-2,4.21
843,-2,-2,-1,0,-1,0,-1,-1,4.215
844,0,-2,-3,-5,-1,-2,0,-1,4.22
845,0,0,-2,3,-1,-1,-1,0,4.225
846,-1,0,0,-8,-5,-3,-2,1,4.23
847,0,-1,-2,5,4,0,-3,-1,4.235
848,-3,-4,-4,1,-1,0,0,-3,4.24
849,3,3,0,-3,-2,-1,0,2,4.245
850,-4,-2,0,0,-2,-2,0,-2,4.25
851,0,-1,-3,-2,-2,-4,0,0,4.255
852,-1,2,3,0,-1,0,0,0,4.26
853,-3,-7,-3,-1,0,0,-1,-3,4.265
854,3,0,1,-1,-1,0,0,0,4.2700000000000005
855,1,0,2,1,3,0,-1,0,4.275
856,-3,-5,-5,-4,-3,0,-2,-2,4.28
857,2,3,1,2,-2,0,-1,0,4.285
858,-2,-3,1,0,0,0,0,-1,4.29
859,-2,-2,-1,-2,-3,-2,-3,-1,4.295
860,1,0,-2,-4,-1,-2,0,1,4.3
861,0,-1,0,-11,-3,0,-1,0,4.305
862,1,1,1,14,5,1,0,0,4.3100000000000005
863,2,4,3,-2,-1,1,1,0,4.315
864,-3,-3,-2,0,-1,0,1,-2,4.32
865,-2,0,2,0,1,-1,0,-2,4.325
866,-1,-1,-1,-3,-1,-1,-1,0,4.33
867,-2,-1,0,-2,-3,-1,-1,-1,4.335
868,0,0,1,3,3,0,0,0,4.34
869,-4,-2,-3,0,-2,-3,-1,-2,4.345
870,0,-4,0,-3,-1,-1,-2,-1,4.3500000000000005
871,-2,2,-2,3,1,-1,-2,0,4.355
872,1,-1,1,-7,-4,-1,-1,0,4.36
873,0,-1,-5,2,5,-1,-1,-2,4.365
874,0,1,-1,-1,0,2,2,-2,4.37
875,-2,-4,-1,-3,-1,0,-2,-3,4.375
876,0,0,0,3,0,0,0,0,4.38
877,-3,-4,0,-2,-3,-2,-1,-1,4.385
878,0,-2,-1,-4,-1,-2,0,1,4.39
879,0,1,0,2,0,1,0,-1,4.3950000000000005
880,0,-1,0,3,-2,-1,-1,-1,4.4
881,-3,-1,-1,1,-2,-1,0,-1,4.405
882,0,-3,-5,-2,-1,-3,-1,1,4.41
883,-6,-5,-2,-4,0,0,-1,-1,4.415
884,1,5,1,1,1,0,0,0,4.42
885,0,-3,-1,-1,-1,-2,-1,-2,4.425
886,-2,0,-2,-3,-3,-1,-1,-2,4.43
887,1,-2,0,4,2,0,0,-2,4.4350000000000005
888,-2,0,-2,-1,-1,1,-1,-1,4.44
889,3,4,0,-5,0,1,0,0,4.445
890,-1,0,2,-1,-1,1,-1,-2,4.45
891,2,3,-1,-2,-2,0,-1,1,4.455
892,-5,-6,-1,-3,-2,-2,-1,-1,4.46
893,-1,-2,-2,3,0,1,-2,0,4.465
894,-2,0,-2,-2,-1,-1,-1,0,4.47
895,0,0,-1,0,-2,-1,-2,0,4.4750000000000005
896,1,-1,1,-2,-1,0,1,-2,4.48
897,-1,1,1,2,0,-1,-2,0,4.485
898,-3,-1,-3,-2,-1,0,-2,0,4.49
899,-2,0,-2,-5,-1,-3,-1,0,4.495
900,0,3,1,6,2,0,-1,0,4.5
901,-1,-2,0,0,-2,-1,0,0,4.505
902,-2,-1,-2,1,1,-1,0,1,4.51
903,1,1,-2,-5,-2,0,-1,-1,4.515
904,0,-1,-3,1,1,1,0,-1,4.5200000000000005
905,0,0,1,1,-2,-1,-1,-2,4.525
906,3,0,1,1,-1,-1,-1,0,4.53
907,-8,-8,-5,-2,-1,-1,-2,-3,4.535
908,-2,-1,-2,-1,-1,-1,-2,-1,4.54
909,1,0,-1,-2,-2,-2,-1,1,4.545
910,-4,1,0,-2,-2,-1,-1,0,4.55
911,1,0,0,-1,-2,1,0,0,4.555
912,-1,0,1,-1,-2,-2,0,0,4.5600000000000005
913,-2,-2,0,4,-2,1,-1,-1,4.565
914,-1,-2,-3,1,0,-1,0,-3,4.57
915,2,1,1,-1,-1,1,-1,-1,4.575
916,-1,-6,-5,-8,-5,-1,-2,-2,4.58
917,1,2,1,7,4,0,0,1,4.585
918,0,-3,0,-1,-3,-2,0,-1,4.59
919,-1,-3,1,-1,-2,-1,-1,-1,4.595
920,0,1,0,-4,-1,-3,-2,-1,4.6000000000000005
921,-3,-3,-3,-3,0,-2,-2,-2,4.605
922,-1,0,1,0,-2,1,-1,-1,4.61
923,2,0,-2,0,0,-2,0,-2,4.615
924,-1,-1,0,-1,-1,-1,-1,0,4.62
925,1,1,-2,-3,0,1,1,-1,4.625
926,-5,-5,-1,-3,-1,-1,-1,-2,4.63
927,3,1,4,5,-1,-1,0,-2,4.635
928,-2,-3,-3,1,1,0,1,0,4.64
929,-1,0,-2,-2,-1,0,1,1,4.6450000000000005
930,1,0,-1,-2,-2,-1,-2,0,4.65
931,1,-1,-3,-4,-1,-1,0,0,4.655
932,0,0,-1,-2,-2,-1,-2,-3,4.66
933,-1,-5,-5,-8,-2,-1,0,-1,4.665
934,0,3,3,0,0,1,0,1,4.67
935,1,1,1,3,0,0,0,-1,4.675
936,0,-2,0,1,1,0,-1,-2,4.68
937,1,0,-2,-2,-3,-3,-2,-2,4.6850000000000005
938,0,1,1,-1,-3,-2,0,0,4.69
939,0,0,-1,0,1,1,0,0,4.695
940,-1,1,0,-7,-1,-1,0,0,4.7
941,0,1,1,5,-1,-1,-1,-1,4.705
942,-1,-4,-4,-4,-1,-3,-3,-2,4.71
943,-2,1,1,0,-2,-2,-1,0,4.715
944,-2,-2,-1,0,0,0,1,2,4.72
945,-1,-2,2,-2,-1,-1,-2,0,4.7250000000000005
946,-1,-2,-2,3,1,0,1,0,4.73
947,-4,-3,-2,-6,-3,-2,-2,-2,4.735
948,2,3,-1,3,-2,-1,0,-1,4.74
949,-1,0,0,-1,-1,-1,-1,-2,4.745
950,0,1,-1,0,-1,-1,0,0,4.75
951,0,1,0,0,1,-2,1,-1,4.755
952,2,-2,-1,-2,-1,1,0,0,4.76
953,-3,-2,0,1,-2,0,0,-2,4.765
954,1,1,0,-2,-1,-1,-1,0,4.7700000000000005
955,-5,-5,-3,-3,-3,-1,-2,0,4.775
956,-1,-1,-1,0,-2,-2,-2,-2,4.78
957,1,-2,-1,0,0,-1,-1,0,4.785
958,-2,0,-1,2,1,2,1,-2,4.79
959,2,1,1,0,0,-1,-1,0,4.795
960,0,-1,-2,-4,-2,-2,1,-3,4.8
961,-5,-6,-4,-6,-3,-1,-3,-1,4.805
962,1,-1,0,7,2,-1,-1,0,4.8100000000000005
963,-2,-3,-2,-2,0,0,0,0,4.815
964,1,0,-2,3,0,0,0,-1,4.82
965,-1,0,-1,-4,-1,1,0,-1,4.825
966,0,3,2,-1,-3,0,0,-1,4.83
967,-1,-6,-4,-1,0,-1,-2,-2,4.835
968,-1,2,4,1,-3,-1,-1,-1,4.84
969,-1,-3,-4,-5,-1,-2,-1,-1,4.845
970,2,-1,0,-1,1,-1,-1,-1,4.8500000000000005
971,1,2,-1,-3,-1,1,-1,-2,4.855
972,1,1,0,5,0,1,-2,-1,4.86
973,-5,-2,-4,-1,-1,-4,1,-2,4.865
974,-2,0,0,-4,0,0,0,-1,4.87
975,1,-1,-1,0,0,-1,0,0,4.875
976,0,-2,-1,-5,-2,0,-1,1,4.88
977,1,0,1,6,3,1,0,0,4.885
978,-3,-1,-2,-2,-2,0,-1,0,4.89
979,0,0,1,1,-2,-1,-2,-2,4.8950000000000005
980,-2,-5,-1,-2,0,1,-2,-2,4.9
981,1,-1,1,0,-3,-2,-1,-1,4.905
982,-1,-2,-5,-3,-2,-1,0,0,4.91
983,-2,-1,-1,-2,0,0,-1,0,4.915
984,0,2,-1,-1,0,0,0,1,4.92
985,-4,-2,0,0,1,0,0,-1,4.925
986,-1,-2,0,-5,-3,-3,0,-1,4.93
987,1,0,-4,5,0,0,-1,0,4.9350000000000005
988,1,-1,0,2,0,0,-1,-1,4.94
989,1,1,1,-2,-1,0,0,-2,4.945
990,-1,-3,-2,-3,1,0,-1,-1,4.95
991,-4,-1,-3,-5,-2,-2,-1,-1,4.955
992,-3,-2,-2,-5,-2,-1,1,-2,4.96
993,1,0,0,1,0,-1,-1,1,4.965
994,0,0,0,-1,0,0,1,-2,4.97
995,-5,-3,-2,-2,-2,1,-1,-1,4.9750000000000005
996,-1,-1,-3,0,0,0,-1,2,4.98
997,-1,-1,0,-2,-2,1,-1,0,4.985
998,1,1,0,4,0,-1,-2,0,4.99
999,-2,-2,0,-1,-1,-1,0,-2,4.995
1000,-3,-3,0,-2,-3,-3,-1,-3,5.0
1001,-1,1,-3,-6,-1,0,1,0,5.005
1002,-2,-3,-2,7,2,-2,0,-2,5.01
1003,3,4,3,0,-2,-1,0,-1,5.015
1004,-3,-3,-3,1,-1,0,0,-1,5.0200000000000005
1005,-1,-1,-1,2,0,0,-1,-1,5.025
1006,-3,-3,-2,-2,-3,0,-2,-1,5.03
1007,-1,1,3,0,0,0,-1,-1,5.035
1008,1,1,-5,-7,0,-1,-2,-2,5.04
1009,1,2,-1,3,0,0,0,1,5.045
1010,-1,0,0,2,1,0,-1,-1,5.05
1011,-1,-4,-2,-3,-3,-3,0,0,5.055
1012,-2,0,0,1,-1,-1,2,0,5.0600000000000005
1013,0,1,-1,-3,-2,-1,1,-2,5.065
1014,1,0,-2,-3,-2,0,0,0,5.07
1015,1,1,0,-1,1,1,-1,1,5.075
1016,1,0,1,0,-1,-2,-1,0,5.08
1017,-3,-4,-2,2,-2,-4,-1,-2,5.085
1018,1,3,4,2,3,1,1,0,5.09
1019,0,-4,-5,0,0,1,0,-2,5.095
1020,-1,0,2,-2,0,0,-2,0,5.1000000000000005
1021,0,1,-1,-3,1,-1,1,0,5.105
1022,1,1,0,-1,-2,-1,0,-1,5.11
1023,-2,-2,-3,-2,0,1,0,0,5.115
1024,-2,-3,0,1,-1,0,-2,0,5.12
1025,1,2,-1,1,-1,-1,-1,1,5.125
1026,-1,0,-1,-1,-1,-2,-1,1,5.13
1027,-1,0,-2,2,1,-2,0,-1,5.135
1028,-1,0,-2,-5,-3,0,0,-1,5.14
1029,0,0,1,-1,-1,0,0,-1,5.1450000000000005
1030,-1,-1,-2,-3,-3,-1,0,1,5.15
1031,1,0,-4,-2,-3,-2,-1,-1,5.155
1032,-6,0,1,3,1,-1,0,-1,5.16
1033,1,-1,0,0,0,0,-2,0,5.165
1034,0,-2,0,0,-2,0,-1,-2,5.17
1035,2,0,0,-2,1,0,0,0,5.175
1036,0,1,1,0,-2,-1,0,0,5.18
1037,-1,-3,-2,-2,-2,1,-1,-1,5.1850000000000005
1038,0,-3,-2,3,2,1,1,0,5.19
1039,-4,-2,1,-4,-3,-3,0,1,5.195
1040,2,-2,-1,2,2,0,-1,1,5.2
1041,0,4,4,3,-1,-1,0,1,5.205
1042,-1,0,0,-5,-3,-2,-2,-1,5.21
1043,-1,-1,-2,2,0,1,0,-2,5.215
1044,-1,0,1,-3,1,0,-1,-3,5.22
1045,0,-1,-4,-2,-1,-3,-1,0,5.2250000000000005
1046,-2,0,-1,0,-2,-2,0,-2,5.23
1047,0,-1,1,1,-1,-3,-2,-2,5.235
1048,0,1,-3,-2,-1,-1,-2,1,5.24
1049,-3,-3,-2,-4,-1,0,0,-1,5.245
1050,-4,-5,-6,-4,-2,-3,-1,-1,5.25
1051,1,4,2,0,1,-1,-1,0,5.255
1052,0,-2,0,0,-1,-1,1,-1,5.26
1053,0,-1,-2,-1,-1,-1,-2,-3,5.265
1054,-1,-5,-4,-4,0,-1,-1,0,5.2700000000000005
1055,-1,-2,-2,0,-1,-1,-3,-2,5.275
1056,0,-1,-2,-1,0,0,-1,-1,5.28
1057,1,3,2,3,3,-2,-1,0,5.285
1058,-1,-1,2,1,0,0,-1,0,5.29
1059,2,0,0,-1,-3,-2,0,-1,5.295
1060,-9,-6,1,-2,-2,-2,-1,-3,5.3
1061,1,-2,-5,-4,1,-3,1,-1,5.305
1062,1,1,0,-1,-1,-1,-3,-2,5.3100000000000005
1063,-1,-1,-1,0,-1,-1,-1,1,5.315
1064,-1,-1,-3,-3,-1,-2,0,-1,5.32
1065,-2,-1,0,3,-2,1,-2,-1,5.325
1066,-1,1,-2,-1,-2,0,-1,-1,5.33
1067,1,1,1,-5,0,1,-1,2,5.335
1068,-4,-7,-2,5,-2,-3,-3,-2,5.34
1069,-1,-2,-2,-2,0,1,-1,-1,5.345
1070,-1,0,1,-1,-1,-1,-1,-1,5.3500000000000005
1071,-4,-6,-6,-2,0,0,-1,-3,5.355
1072,-1,-1,-2,0,-1,-1,-2,-1,5.36
1073,-2,-2,2,-3,-5,-2,-1,-1,5.365
1074,1,1,-3,1,0,0,-1,0,5.37
1075,0,0,0,2,0,0,0,-1,5.375
1076,1,1,0,-1,-1,0,0,-2,5.38
1077,-3,-4,-2,-6,-2,-2,-3,-1,5.385
1078,0,0,-2,-4,-4,-1,-1,-3,5.39
1079,0,0,1,2,1,0,0,0,5.3950000000000005
1080,1,-2,-2,-6,-1,1,-1,-1,5.4
1081,0,0,1,2,0,0,1,0,5.405
1082,-1,-2,0,2,-2,-1,0,0,5.41
1083,-1,1,-2,-1,-1,2,0,-1,5.415
1084,-3,-2,-2,-2,-2,-1,0,0,5.42
1085,-1,0,-1,-1,0,0,0,0,5.425
1086,1,-3,-4,-1,0,-2,-1,0,5.43
1087,0,2,1,-3,-2,-1,0,-1,5.4350000000000005
1088,-2,0,1,0,-2,-2,1,2,5.44
1089,-3,-1,-2,3,0,-1,-1,-2,5.445
1090,-1,-2,0,-1,1,-3,0,-2,5.45
1091,0,0,-2,-4,-1,-2,-2,0,5.455
1092,1,3,-1,2,4,0,1,0,5.46
1093,1,0,0,-1,-1,-2,0,-1,5.465
1094,-2,-1,3,6,1,-1,-1,-2,5.47
1095,-3,-7,-5,2,-1,-3,-1,-2,5.4750000000000005
1096,1,2,0,-3,0,0,0,-1,5.48
1097,-2,-2,-1,-3,-2,-2,-2,-2,5.485
1098,-1,-2,-2,-3,-3,-1,-2,-1,5.49
1099,-1,0,2,2,0,-1,0,1,5.495
1100,1,-1,-1,1,-2,0,-3,-1,5.5
1101,0,-3,-5,-1,-2,1,-1,-1,5.505
1102,-3,-2,-1,-4,1,-2,0,-2,5.51
1103,0,1,2,-1,-3,0,1,-1,5.515
1104,0,0,-1,-6,-2,-1,-1,-1,5.5200000000000005
1105,-1,0,3,7,1,-1,0,1,5.525
1106,-2,-2,1,3,2,1,-2,-1,5.53
1107,-1,0,0,1,2,-2,-1,-1,5.535
1108,1,0,-1,-2,-2,2,0,-1,5.54
1109,2,0,-2,-5,-3,-2,-1,0,5.545
1110,-1,-2,-3,-3,-2,0,0,0,5.55
1111,-6,-8,-2,-7,-5,-3,-3,-2,5.555
1112,1,-1,2,8,4,0,0,-1,5.5600000000000005
1113,-2,-3,-3,-4,1,-1,-2,-3,5.565
1114,2,3,1,0,-2,-1,1,1,5.57
1115,2,0,0,0,1,0,0,2,5.575
1116,-3,-2,-1,-6,-2,-1,1,-1,5.58
1117,-1,-1,2,-3,-2,1,0,0,5.585
1118,-1,-4,-4,2,0,-1,-2,-3,5.59
1119,1,-1,-2,0,0,0,-1,-1,5.595
1120,0,0,-2,-1,-3,-1,-2,0,5.6000000000000005
1121,2,1,-2,3,1,0,0,0,5.605
1122,-1,0,0,-5,-4,1,0,-1,5.61
1123,-1,0,-2,-1,-2,-1,1,-2,5.615
1124,1,0,-2,2,0,-1,-1,-1,5.62
1125,-1,-1,-2,3,1,-2,0,-2,5.625
1126,0,0,1,-1,-2,-1,0,-1,5.63
1127,0,2,-4,-4,2,0,-2,-1,5.635
1128,1,-1,2,-2,-1,-1,0,0,5.64
1129,-1,-2,-3,0,-2,-1,-2,-1,5.6450000000000005
1130,2,1,1,5,1,0,-2,1,5.65
1131,-3,-2,0,2,0,-1,0,-2,5.655
1132,-4,-5,-5,-5,-3,-3,-4,-2,5.66
1133,-1,-1,0,-5,-4,0,-1,-2,5.665
1134,1,2,0,5,1,-2,1,1,5.67
1135,1,3,3,1,0,1,1,2,5.675
1136,-3,-6,-1,-2,-2,-1,0,-4,5.68
1137,-4,-6,-5,-5,0,0,-1,-1,5.6850000000000005
1138,-2,-1,0,-2,-2,0,0,-2,5.69
1139,1,-4,-1,2,-1,-2,-1,-2,5.695
1140,2,2,-2,2,0,-3,0,2,5.7
1141,1,2,2,0,-1,-3,-2,0,5.705
1142,0,1,0,-5,-2,1,-1,-1,5.71
1143,-3,-5,-2,-3,-4,-2,-2,-1,5.715
1144,0,1,-2,2,0,1,1,1,5.72
1145,0,-1,0,0,1,0,-1,-2,5.7250000000000005
1146,0,0,0,-2,-1,0,0,0,5.73
1147,1,-1,1,1,0,-2,-2,-2,5.735
1148,1,-3,-1,-3,0,-2,-1,-1,5.74
1149,3,2,0,-3,1,0,-2,-1,5.745
1150,-3,-4,-2,0,0,-3,-2,-3,5.75
1151,0,0,0,6,4,2,0,-1,5.755
1152,0,1,-1,-3,-4,-3,-2,0,5.76
1153,-4,-4,1,4,1,0,0,1,5.765
1154,0,-3,-7,-9,-1,-1,-2,-1,5.7700000000000005
1155,-2,0,0,1,-1,-2,-1,0,5.775
1156,2,0,-1,2,2,0,0,1,5.78
1157,-6,-6,-1,-2,-3,-2,-2,-2,5.785
1158,1,1,-1,1,0,0,-2,0,5.79
1159,-1,1,-1,-3,1,0,-1,-2,5.795
1160,1,1,2,0,0,0,1,-1,5.8
1161,-1,2,-1,-6,0,-1,-1,-1,5.805
1162,-4,-5,-1,5,1,-2,-2,0,5.8100000000000005
1163,-4,-4,-3,-7,-3,-2,-2,-2,5.815
1164,1,0,0,5,2,1,0,-3,5.82
1165,0,2,0,4,0,-1,-1,0,5.825
1166,1,1,2,-2,-2,-1,0,0,5.83
1167,0,-1,-1,-7,-3,-1,-1,0,5.835
1168,-3,-4,-3,1,-1,-1,-2,-3,5.84
1169,1,2,-2,1,-1,-2,0,-2,5.845
1170,-3,0,-1,-3,-5,0,-1,-2,5.8500000000000005
1171,0,0,-2,-1,-1,-1,-1,1,5.855
1172,-1,-3,-2,-2,-1,-1,0,-1,5.86
1173,1,0,1,-1,0,0,-2,-1,5.865
1174,0,-2,-4,-3,-1,2,0,-1,5.87
1175,-3,-2,-2,0,-1,-2,-1,-1,5.875
1176,-1,-2,0,-1,-2,0,0,0,5.88
1177,2,0,-2,0,-1,0,1,-1,5.885
1178,1,1,-1,-2,0,1,0,-1,5.89
1179,-3,-4,-2,-2,-2,0,-1,-2,5.8950000000000005
1180,0,3,1,-1,-2,-2,-1,1,5.9
1181,0,-1,-5,5,2,-1,0,0,5.905
1182,-2,2,1,-4,-2,-2,0,0,5.91
1183,1,1,1,7,0,0,0,-1,5.915
1184,-1,-1,-1,-10,-2,-1,-2,-2,5.92
1185,-2,-2,-2,2,-3,-2,-2,-2,5.925
1186,-2,-3,-2,1,2,-2,-2,-1,5.93
1187,1,1,-1,-3,-3,-1,-1,0,5.9350000000000005
1188,-3,-1,0,-4,-2,-1,0,0,5.94
1189,0,1,-1,-1,-1,2,0,-1,5.945
1190,-1,-2,0,-1,0,0,1,-1,5.95
1191,-1,-1,-3,-3,-2,-1,-1,-1,5.955
1192,1,2,-3,1,2,0,1,1,5.96
1193,1,-1,-1,-5,-3,-1,0,-1,5.965
1194,-1,2,2,5,1,0,1,1,5.97
1195,-1,-2,0,-2,0,0,-1,0,5.9750000000000005
1196,-4,-6,-2,0,0,-2,-2,-3,5.98
1197,-1,-4,-3,-1,-2,-1,-1,-1,5.985
1198,2,1,2,0,-3,-1,-1,-3,5.99
1199,2,1,-2,-4,-1,-1,1,0,5.995
1200,2,2,2,1,2,0,0,1,6.0
1201,-1,-3,0,-3,-1,-1,1,1,6.005
1202,-2,-4,0,-6,-4,-1,-1,-2,6.01
1203,-1,-1,0,6,1,0,0,0,6.015000000000001
1204,0,2,-1,0,-1,-1,-1,-2,6.0200000000000005
1205,-2,-2,-3,-1,1,-1,-1,-1,6.025
1206,-2,0,-3,0,-1,-1,-3,0,6.03
1207,0,-2,1,0,-1,-2,-1,-2,6.035
1208,1,0,-1,-2,1,-2,-1,-1,6.04
1209,1,-1,1,-2,-1,-1,-3,1,6.045
1210,0,1,0,-2,0,0,0,-2,6.05
1211,-2,-1,-3,-1,-2,-1,-3,-1,6.055
1212,0,-1,-1,1,-1,-2,-1,0,6.0600000000000005
1213,0,0,-2,-3,1,-1,0,-1,6.065
1214,0,-1,0,-2,-1,-2,-2,0,6.07
1215,3,3,1,-2,-2,0,0,1,6.075
1216,-2,2,0,7,1,1,0,-1,6.08
1217,-4,-1,0,-3,-2,-3,-2,-1,6.085
1218,0,-3,-2,-1,-1,-1,0,-1,6.09
1219,0,1,2,1,0,0,-1,-1,6.095
1220,0,-2,-3,-2,-3,-4,-2,-2,6.1000000000000005
1221,-1,0,-2,-1,-1,0,1,-1,6.105
1222,-2,-2,-1,-2,0,0,-1,-1,6.11
1223,1,0,1,-1,0,0,-2,1,6.115
1224,-2,-2,-2,-7,-3,0,-1,-2,6.12
1225,0,-1,2,6,2,0,-1,-2,6.125
1226,0,0,-5,-7,2,1,0,-1,6.13
1227,-2,-3,-1,-1,-3,-1,-2,-2,6.135
1228,-2,-3,-2,-1,2,-1,-3,-1,6.140000000000001
1229,-2,-1,-1,-4,-3,-1,1,-1,6.1450000000000005
1230,-2,-3,1,2,-1,-1,-1,-1,6.15
1231,-1,1,-2,0,3,0,0,0,6.155
1232,0,1,0,-1,-2,0,0,0,6.16
1233,1,0,-1,0,-2,-2,-1,1,6.165
1234,0,-1,-1,0,1,0,1,0,6.17
1235,-1,1,-1,-1,-1,0,-1,-2,6.175
1236,-3,0,0,-3,-3,-3,-2,-2,6.18
1237,2,0,0,3,0,-1,-1,0,6.1850000000000005
1238,1,3,-3,-3,-1,-1,0,1,6.19
1239,-5,-4,-2,-3,-2,-2,1,-1,6.195
1240,0,-3,-2,2,1,1,0,-1,6.2
1241,-2,1,-2,-3,-1,0,-2,-1,6.205
1242,1,3,-2,-2,-3,0,-1,-2,6.21
1243,2,1,-1,-5,1,0,-3,-1,6.215
1244,-4,-5,-1,0,1,-1,-2,-1,6.22
1245,0,0,0,-4,-1,-2,0,0,6.2250000000000005
1246,-2,-2,1,2,1,-2,-3,-1,6.23
1247,-1,5,2,-5,-2,0,1,1,6.235
1248,0,-2,-1,2,-1,1,1,-1,6.24
1249,-1,-2,-2,-2,-1,0,-1,-1,6.245
1250,0,-1,2,0,0,0,0,-2,6.25
1251,-1,-1,-2,-8,-1,-2,-1,-1,6.255
1252,1,0,-1,6,1,0,-1,0,6.26
1253,1,3,0,-3,-4,-1,0,-1,6.265000000000001
1254,-3,-3,-1,2,-1,-1,0,-2,6.2700000000000005
1255,1,0,-2,1,1,-1,2,-1,6.275
1256,-3,-2,-1,-3,-2,-2,0,-1,6.28
1257,0,-1,0,-3,-2,-3,0,-1,6.285
1258,0,0,0,3,2,0,0,-1,6.29
1259,-2,-4,0,3,0,0,-1,-2,6.295
1260,2,2,0,-3,1,-1,0,1,6.3
1261,-2,2,-2,0,1,1,0,-1,6.305
1262,1,-1,-2,-3,-3,-3,-3,-1,6.3100000000000005
1263,-1,-4,0,1,0,-1,0,-1,6.315
1264,2,1,0,-2,-1,0,-1,-1,6.32
1265,0,1,2,0,-1,1,0,1,6.325
1266,-3,-1,-5,-3,-1,0,-1,-2,6.33
1267,-1,-3,-3,-4,-2,-1,-3,-1,6.335
1268,0,-1,-4,-3,-3,-1,-2,-2,6.34
1269,0,-5,-3,3,1,0,-3,-3,6.345
1270,0,0,3,-1,0,0,1,-1,6.3500000000000005
1271,-1,-2,-3,-1,-2,-2,-1,0,6.355
1272,-2,-1,1,4,2,1,1,0,6.36
1273,-3,-4,-1,-1,-1,0,-1,-1,6.365
1274,0,-1,-1,-3,0,-3,-1,0,6.37
1275,1,1,1,4,2,0,-1,-2,6.375
1276,-2,-1,0,-4,1,-2,0,-3,6.38
1277,0,-4,-2,-1,-1,0,-3,-1,6.385
1278,-2,-2,-1,0,-1,-1,-3,1,6.390000000000001
1279,-2,-1,-1,0,0,0,0,-1,6.3950000000000005
1280,1,1,-1,-2,-1,0,-1,0,6.4
1281,-1,2,0,-1,-1,-1,0,-2,6.405
1282,-2,-2,-3,-1,-3,-2,-2,-1,6.41
1283,0,-3,-1,1,0,0,-2,0,6.415
1284,-1,-3,-2,-8,-1,-1,0,-2,6.42
1285,-5,-4,-1,4,1,-2,0,0,6.425
1286,0,0,1,2,2,0,0,0,6.43
1287,0,3,3,4,-2,-1,-1,0,6.4350000000000005
1288,1,1,-2,-10,-2,1,-3,2,6.44
1289,3,1,1,-1,4,0,-1,-1,6.445
1290,0,2,2,1,0,-1,0,0,6.45
1291,0,0,-1,0,-1,0,0,-1,6.455
1292,-6,-5,-2,0,-4,-3,-2,-3,6.46
1293,-1,3,-2,-4,-2,-1,-2,-1,6.465
1294,-3,-4,-1,0,-2,1,-2,-2,6.47
1295,-1,-3,-3,1,-2,-2,0,-1,6.4750000000000005
1296,-2,1,-1,1,0,-1,0,1,6.48
1297,-2,-2,-4,-2,-1,-1,1,-1,6.485
1298,-2,-5,-3,1,0,-2,0,0,6.49
1299,-1,1,0,-1,-1,-2,-1,0,6.495
1300,1,2,0,3,0,-1,0,-1,6.5
1301,1,-1,1,1,-1,0,-2,0,6.505
1302,1,2,-1,-4,-2,1,-1,0,6.51
1303,-1,-2,-3,-1,-2,-1,-1,-2,6.515000000000001
1304,-1,0,3,6,2,0,-1,0,6.5200000000000005
1305,-1,-3,1,-1,-2,0,1,0,6.525
1306,3,4,0,0,-1,-1,-1,1,6.53
1307,-5,-4,-1,-3,-2,-3,-2,-1,6.535
1308,0,-2,-2,3,-1,-1,1,-2,6.54
1309,-2,-4,-2,-3,-1,0,-1,-1,6.545
1310,-1,0,-1,1,-1,-1,1,-2,6.55
1311,3,4,1,-1,3,2,0,3,6.555
1312,-1,-4,-2,-2,-1,-2,-2,-2,6.5600000000000005
1313,1,1,-1,-1,-2,-3,-2,0,6.565
1314,-3,-2,-2,-4,-1,-1,-3,-2,6.57
1315,0,0,2,0,0,-1,0,0,6.575
1316,-2,-1,3,-1,-1,0,2,1,6.58
1317,-3,0,0,2,1,-2,0,0,6.585
1318,0,-1,-1,-3,-3,-2,1,0,6.59
1319,2,0,-1,-1,0,-2,-1,-1,6.595
1320,0,0,0,4,2,-1,-1,-1,6.6000000000000005
1321,0,-1,-1,-4,-3,0,-1,0,6.605
1322,0,1,2,-2,-1,-1,-1,0,6.61
1323,-1,-2,-2,3,0,0,0,-1,6.615
1324,-2,-3,-4,-4,-4,0,-1,-2,6.62
1325,1,3,2,1,1,-1,0,-1,6.625
1326,-3,-3,-2,-3,2,0,0,-2,6.63
1327,1,0,2,1,1,-1,-1,0,6.635
1328,1,0,-5,-3,-4,0,-3,-2,6.640000000000001
1329,-8,-8,-2,-2,-4,-3,-3,-3,6.6450000000000005
1330,1,0,-2,-3,0,-1,0,0,6.65
1331,0,0,-2,-2,-2,-1,0,-2,6.655
1332,0,0,-1,1,0,-1,0,1,6.66
1333,0,-1,0,-2,-3,1,0,0,6.665
1334,-3,-1,-2,-6,-3,0,-2,-2,6.67
1335,-1,-1,1,6,2,0,-1,-2,6.675
1336,-1,0,3,-2,-1,-2,0,0,6.68
1337,1,-1,-2,1,-1,0,0,-1,6.6850000000000005
1338,0,-2,-1,3,1,-2,0,-1,6.69
1339,-2,0,0,-6,-3,0,0,-2,6.695
1340,-2,-2,0,-3,-2,-2,-1,-3,6.7
1341,2,2,-1,0,1,-1,-1,-1,6.705
1342,2,-2,0,-1,-3,0,0,-1,6.71
1343,0,-1,0,-1,1,2,-3,-1,6.715
1344,0,2,0,0,0,-1,0,-1,6.72
1345,-2,-2,1,2,-3,-1,-1,-2,6.7250000000000005
1346,1,-1,-5,-6,-1,-1,-2,-1,6.73
1347,-1,-2,-3,1,-1,0,-1,1,6.735
1348,0,-2,0,1,1,0,1,-1,6.74
1349,3,1,1,-3,1,0,1,0,6.745
1350,-2,0,-1,11,-1,-2,-2,-1,6.75
1351,-2,1,1,-3,-1,-1,-1,-1,6.755
1352,1,-2,-2,-4,-1,-2,-1,0,6.76
1353,-1,-1,-3,-6,-2,1,-1,-3,6.765000000000001
1354,1,0,2,5,0,-2,0,0,6.7700000000000005
1355,1,1,-1,-1,-1,0,-1,-2,6.775
1356,-4,-3,-4,-3,-2,1,-2,-1,6.78
1357,2,3,1,2,1,-2,0,0,6.785
1358,-2,-2,0,-2,-1,-1,0,0,6.79
1359,-1,0,0,0,-2,0,-1,-1,6.795
1360,-1,1,0,-2,-1,0,-2,0,6.8
1361,-1,0,0,-2,-2,0,-1,0,6.805
1362,-1,-1,-4,-3,2,-2,0,-1,6.8100000000000005
1363,-1,-1,-2,-2,-1,-2,0,-2,6.815
1364,-1,0,-1,1,0,-2,1,0,6.82
1365,-3,-2,-2,-2,0,1,-2,0,6.825
1366,0,2,1,3,1,0,-1,-2,6.83
1367,-1,-3,-4,-3,-2,-2,1,-3,6.835
1368,-1,0,-1,0,-1,2,0,-2,6.84
1369,-1,0,1,2,1,-1,1,0,6.845
1370,-5,-4,2,-1,-2,-1,-1,-2,6.8500000000000005
1371,0,-1,-1,0,-2,-3,0,3,6.855
1372,-2,1,0,-3,-2,-2,-1,0,6.86
1373,1,1,0,6,5,-1,0,-1,6.865
1374,-2,-4,-3,-4,-3,-3,-2,-1,6.87
1375,-3,1,3,6,0,0,0,-2,6.875
1376,1,-3,-5,-8,-2,0,-2,-1,6.88
1377,-4,-1,-2,0,0,1,-1,0,6.885
1378,-1,2,2,-2,-1,0,0,0,6.890000000000001
1379,-1,0,-2,-2,0,1,-2,-1,6.8950000000000005
1380,-1,-2,1,3,1,-1,-1,0,6.9
1381,0,0,-3,-4,-2,0,-3,-2,6.905
1382,-2,-2,1,-2,1,0,-1,-1,6.91
1383,1,-3,-5,-5,-5,-3,-1,0,6.915
1384,0,3,2,-3,-1,-1,-1,1,6.92
1385,-6,-5,-2,2,-1,-1,1,0,6.925
1386,-1,1,-2,-2,-1,0,0,0,6.93
1387,-4,-5,1,0,-2,-1,-1,-2,6.9350000000000005
1388,2,2,0,3,2,0,0,0,6.94
1389,1,-4,-6,-6,-2,0,-1,-1,6.945
1390,-1,0,-1,-1,-3,-1,0,0,6.95
1391,-1,0,0,0,1,-1,-1,-1,6.955
1392,0,-1,1,1,-2,-2,0,-1,6.96
1393,0,3,0,-2,-1,-1,-1,-1,6.965
1394,0,0,0,1,1,2,0,-1,6.97
1395,-1,0,0,-2,-1,-2,0,-3,6.9750000000000005
1396,-1,2,-1,2,-2,0,-1,-2,6.98
1397,-1,-1,-3,-4,-1,0,0,0,6.985
1398,-1,0,-1,0,1,-1,-1,-3,6.99
1399,3,4,2,4,0,0,1,2,6.995
1400,-6,-4,-5,-3,1,0,-2,-1,7.0
1401,1,-4,0,-7,-4,-2,-2,-1,7.005
1402,-1,-1,-1,6,2,0,0,-1,7.01
1403,2,3,-1,-5,0,0,0,-1,7.015000000000001
1404,2,-1,-1,-2,-2,-1,0,0,7.0200000000000005
1405,1,1,1,3,0,0,0,0,7.025
1406,-1,-5,-2,0,-3,-1,-1,-2,7.03
1407,0,-1,1,1,-2,0,-1,-1,7.035
1408,-5,-6,1,-1,-1,-1,1,-2,7.04
1409,-1,-1,-3,-3,-3,-2,-1,0,7.045
1410,3,3,0,-1,2,-1,-1,3,7.05
1411,-1,-3,-1,-8,-2,-2,0,-1,7.055
1412,-2,-6,0,6,0,0,-1,-1,7.0600000000000005
1413,-4,-4,-2,-1,1,-1,0,-2,7.065
1414,0,1,-1,-3,-1,0,-1,0,7.07
1415,-3,-3,-3,-1,-1,-1,-1,0,7.075
1416,1,0,-2,-1,0,-1,-1,-1,7.08
1417,1,1,2,4,-1,0,-1,-2,7.085
1418,-1,-2,-3,0,-2,-2,-1,1,7.09
1419,-4,-5,-1,2,-1,0,0,0,7.095
1420,1,2,0,0,-2,-1,-1,0,7.1000000000000005
1421,1,1,-1,-1,-1,0,0,-1,7.105
1422,-2,-3,-3,-5,-2,-2,-2,-1,7.11
1423,-1,1,0,1,-1,-2,-1,-1,7.115
1424,-1,-1,-1,0,-2,0,0,-1,7.12
1425,2,1,-1,-2,2,0,0,-1,7.125
1426,-2,-1,-1,-3,0,-2,0,-1,7.13
1427,-1,1,-2,-6,-2,0,-1,-1,7.135
1428,3,2,-1,4,-1,-2,-2,-1,7.140000000000001
1429,-4,-2,-3,-5,0,0,0,0,7.1450000000000005
1430,0,2,6,16,3,1,0,-2,7.15
1431,-2,0,-7,-4,-2,0,-2,0,7.155
1432,-1,-2,-1,0,-2,-2,0,-1,7.16
1433,1,-2,-3,-1,-2,-2,-3,-2,7.165
1434,-5,-6,-3,-4,-3,-2,0,-3,7.17
1435,-3,-7,-3,-7,-2,0,-1,-1,7.175
1436,-1,-4,0,-2,-1,-2,0,-1,7.18
1437,-1,1,-1,1,0,-1,-2,0,7.1850000000000005
1438,1,2,-2,-8,-3,0,0,1,7.19
1439,2,-3,2,13,4,-1,-1,-2,7.195
1440,0,4,-1,-3,-1,-1,0,-1,7.2
1441,0,-1,-1,0,-1,-2,-2,-3,7.205
1442,1,2,2,0,-1,0,1,0,7.21
1443,-3,-2,-4,-3,2,-1,-1,-2,7.215
1444,0,-1,0,3,0,-1,-1,0,7.22
1445,-1,1,2,0,0,0,-1,-1,7.2250000000000005
1446,-2,-1,-1,-8,-4,-2,-3,-1,7.23
1447,-1,3,0,6,2,0,0,-1,7.235
1448,-1,1,0,-4,-1,0,-3,1,7.24
1449,-1,1,-2,11,4,-1,1,-1,7.245
1450,0,0,-3,-4,-2,-3,-1,-1,7.25
1451,-1,-3,-4,-6,-4,0,-2,-1,7.255
1452,-1,0,1,-2,-2,-2,1,-1,7.26
1453,-3,-7,-3,-2,-1,-3,-2,0,7.265000000000001
1454,2,2,1,0,0,0,-3,1,7.2700000000000005
1455,2,2,1,2,-2,-3,-1,0,7.275
1456,-9,-2,-2,-4,-3,-2,-1,-4,7.28
1457,0,0,-1,-11,-4,0,-2,-1,7.285
1458,-3,-5,-2,15,3,-1,1,-2,7.29
1459,0,0,2,-2,-4,-1,-1,-2,7.295
1460,1,-1,-4,-5,2,0,-2,1,7.3
1461,-1,-1,0,-2,-2,1,1,-2,7.305
1462,1,-1,-2,-3,0,1,0,0,7.3100000000000005
1463,-1,3,2,-5,0,0,1,0,7.315
1464,-1,-5,-3,-2,-1,0,-1,-2,7.32
1465,0,-2,0,2,1,0,-1,-1,7.325
1466,1,-1,-1,-5,-3,2,0,0,7.33
1467,-1,-2,-2,7,3,0,0,-1,7.335
1468,-3,-3,0,-3,-2,1,0,0,7.34
1469,-1,0,0,2,-1,0,-1,1,7.345
1470,0,2,4,6,0,-1,-2,-2,7.3500000000000005
1471,0,0,2,-1,-2,-1,0,-1,7.355
1472,1,-1,-2,0,0,-1,0,1,7.36
1473,-1,-2,0,1,-1,-2,-2,1,7.365
1474,-8,-1,-3,-4,-1,-1,0,-7,7.37
1475,-12,0,-3,-3,-2,1,-1,-1,7.375
1476,20,0,-1,2,1,4,4,0,7.38
1477,-3,-2,-2,-1,-1,-3,0,0,7.385
1478,10,-2,-1,-2,1,2,-3,10,7.390000000000001
1479,-5,-3,-4,-2,-2,-1,-2,-2,7.3950000000000005
1480,-4,4,0,2,1,-1,1,1,7.4
1481,0,1,-1,1,-2,-1,0,-4,7.405
1482,9,-1,-1,-2,3,0,2,11,7.41
1483,-8,-2,-2,-3,-4,-4,-1,-8,7.415
1484,-12,-3,-1,-3,-3,-1,-3,-3,7.42
1485,5,0,-8,-2,0,-1,-1,-5,7.425
1486,-5,-1,4,-1,-2,-2,1,-1,7.43
1487,9,8,5,4,2,2,5,4,7.4350000000000005
1488,-5,-12,-2,-2,-3,1,-4,1,7.44
1489,-6,3,1,0,0,0,-2,0,7.445
1490,-3,-3,-5,-1,-1,0,3,-4,7.45
1491,6,-2,-5,-5,-2,-5,-16,-1,7.455
1492,-3,5,-2,-1,-3,-5,0,-2,7.46
1493,0,-4,-1,0,-1,0,2,1,7.465
1494,4,-1,-4,-2,-1,0,-4,0,7.47
1495,-11,-4,0,-3,-1,1,1,-6,7.4750000000000005
1496,-4,0,-1,2,1,-3,-1,2,7.48
1497,9,0,2,1,0,0,1,0,7.485
1498,-4,2,1,-1,0,-2,0,-11,7.49
1499,-6,-4,-3,-1,-1,1,2,7,7.495
1500,6,1,-2,0,1,-2,0,-7,7.5
1501,-3,2,1,0,-1,0,1,0,7.505
1502,0,1,0,0,0,1,0,-2,7.51
1503,-5,-2,-2,-2,-1,-2,0,-3,7.515000000000001
1504,-3,-2,0,-1,-1,0,-1,2,7.5200000000000005
1505,-3,-1,1,0,-2,0,-1,-1,7.525
1506,-9,2,0,-1,1,-2,-3,-9,7.53
1507,8,1,1,-1,-2,-2,2,14,7.535
1508,1,-2,-4,-4,-1,-1,-3,-2,7.54
1509,-1,-1,-1,0,-1,-2,-1,-1,7.545
1510,-1,-3,-1,-2,-1,-1,-3,-2,7.55
1511,3,0,1,1,-1,0,1,-4,7.555
1512,0,1,0,-1,-1,0,-1,0,7.5600000000000005
1513,-6,-3,-2,-2,-1,-1,0,1,7.565
1514,3,-2,1,0,-1,-1,-2,2,7.57
1515,3,0,-1,1,0,0,2,-3,7.575
1516,-3,0,1,0,0,-1,2,3,7.58
1517,2,1,-1,-1,1,-1,-1,-4,7.585
1518,1,0,-1,0,-1,0,-1,1,7.59
1519,1,-4,-2,-1,0,0,0,-4,7.595
1520,0,-4,-5,-1,-2,0,0,0,7.6000000000000005
1521,-3,-2,1,1,-1,-1,0,3,7.605
1522,-5,-3,-4,-3,-3,-3,-1,-1,7.61
1523,5,-1,-1,0,1,0,-2,2,7.615
1524,-6,-2,-1,0,-1,1,-1,-6,7.62
1525,1,1,0,-1,-1,-2,0,6,7.625
1526,-6,-5,-3,-2,-2,-1,-2,-12,7.63
1527,1,-2,0,0,-2,-2,0,7,7.635
1528,2,0,1,0,-1,1,-3,-3,7.640000000000001
1529,-9,-2,-5,0,-1,0,-2,0,7.6450000000000005
1530,18,4,1,-1,-1,-3,0,0,7.65
1531,-2,-2,0,0,2,-1,0,-4,7.655
1532,2,2,2,1,-1,0,2,0,7.66
1533,3,-2,-1,-1,-1,0,-1,1,7.665
1534,-10,1,0,-1,-2,0,-2,3,7.67
1535,1,3,0,-2,0,1,0,-3,7.675
1536,3,-4,-3,-2,-2,-2,-2,0,7.68
1537,-5,-2,-1,-1,-2,-3,-2,-4,7.6850000000000005
1538,2,4,0,-2,0,-1,1,3,7.69
1539,-1,-5,-4,0,-2,-1,-1,-4,7.695
1540,-7,-2,0,-2,1,0,0,-7,7.7
1541,10,-1,-2,-4,-1,0,0,9,7.705
1542,-5,-4,-2,-1,1,0,-2,2,7.71
1543,-2,2,0,-2,-2,0,-2,-2,7.715
1544,1,3,0,0,0,-1,-1,-1,7.72
1545,-3,-2,-1,-2,-1,-2,-1,-4,7.7250000000000005
1546,0,-4,-2,1,1,1,1,0,7.73
1547,-2,2,-1,-1,-1,-1,0,-3,7.735
1548,-4,-3,0,-1,-3,1,0,9,7.74
1549,-2,0,-2,-1,-1,-1,-1,-8,7.745
1550,3,-1,-1,-2,-2,-2,-5,4,7.75
1551,-12,-6,-4,-1,-2,-2,-3,-10,7.755
1552,0,4,1,0,1,1,0,-4,7.76
1553,6,2,0,3,2,-1,0,-1,7.765000000000001
1554,-7,-3,-3,-2,-2,-2,0,0,7.7700000000000005
1555,-4,-3,-1,-1,0,1,1,-2,7.775
1556,5,2,-1,0,-1,-1,-3,3,7.78
1557,-7,-1,-3,-3,-1,0,-1,-3,7.785
1558,-2,-4,-3,-3,-3,-2,2,-3,7.79
1559,7,-1,0,0,0,1,-1,7,7.795
1560,-1,0,-1,-1,-3,0,9,2,7.8
1561,4,0,0,-4,-4,-1,-9,4,7.805000000000001
1562,-5,-1,-1,1,0,1,-1,-3,7.8100000000000005
1563,1,0,-1,-3,-2,0,0,0,7.815
1564,-3,-3,-1,-2,-2,-1,-3,-9,7.82
1565,-5,-5,-4,-1,-1,-1,0,-12,7.825
1566,-12,-2,-2,1,0,0,2,21,7.83
1567,25,1,1,2,1,-2,-5,4,7.835
1568,-4,-1,-1,-1,0,-1,-4,-8,7.84
1569,2,3,2,0,0,-1,-8,3,7.845
1570,-7,-6,-3,-1,-1,0,0,-13,7.8500000000000005
1571,0,1,2,-2,0,1,2,-11,7.855
1572,-10,1,-2,0,0,-4,3,8,7.86
1573,7,2,-1,0,-1,0,-2,5,7.865
1574,-14,3,-2,-1,1,2,0,-3,7.87
1575,-12,-2,1,-1,-2,-3,3,3,7.875
1576,10,-5,-2,-2,-2,-2,-3,1,7.88
1577,-3,-6,-1,0,-2,-1,3,-1,7.885
1578,3,4,1,-4,0,0,-1,1,7.890000000000001
1579,-2,1,-2,0,-2,0,-1,-4,7.8950000000000005
1580,-9,-1,-2,0,-1,0,-4,-2,7.9
1581,-4,-1,-1,-2,-2,0,2,2,7.905
1582,5,-2,-2,1,-2,0,0,0,7.91
1583,1,-1,-1,-1,-1,0,-1,7,7.915
1584,16,1,-1,-2,-1,-1,-6,-21,7.92
1585,-15,0,0,0,1,0,6,5,7.925
1586,6,-4,-2,-1,-3,-3,3,7,7.930000000000001
1587,-7,5,-2,-3,-2,-1,-3,4,7.9350000000000005
1588,0,-1,2,0,-2,0,4,-1,7.94
1589,-9,0,2,0,1,1,-2,-13,7.945
1590,17,-6,1,0,1,2,5,-14,7.95
1591,-1,0,-3,2,-1,1,2,3,7.955
1592,-11,-2,2,-1,0,-2,-4,4,7.96
1593,4,1,-2,-3,-3,0,4,2,7.965
1594,11,-2,1,0,0,-1,0,5,7.97
1595,-1,-2,1,-2,0,-1,-2,-8,7.9750000000000005
1596,4,0,-2,-1,0,-2,-12,2,7.98
1597,-6,-5,-3,-1,-1,0,17,-1,7.985
1598,-7,2,3,2,-1,-1,-3,-5,7.99
1599,4,2,-3,0,0,1,2,-2,7.995
1600,-6,1,-2,0,-2,-1,-1,3,8.0
1601,4,-3,-8,-5,-2,-4,-9,3,8.005
1602,4,-1,0,-3,0,0,-5,0,8.01
1603,-8,-7,-2,-2,-3,-5,-1,-6,8.015
1604,-13,1,-2,-2,1,1,4,5,8.02
1605,29,1,2,2,-2,-1,-8,-9,8.025
1606,7,3,2,0,2,1,10,23,8.03
1607,-12,-2,-4,-2,-2,-2,-9,-8,8.035
1608,5,-5,-2,0,0,-1,-1,7,8.040000000000001
1609,-26,-1,2,2,3,-2,3,-5,8.045
1610,-5,-2,-6,-2,-2,-3,-18,-21,8.05
1611,5,0,6,4,3,3,12,11,8.055
1612,10,-4,3,1,-1,3,6,-9,8.06
1613,-10,1,3,2,2,1,5,3,8.065
1614,-4,-3,-2,-2,-1,-1,-4,-2,8.07
1615,-1,-1,-2,-3,0,-1,-5,-4,8.075
1616,-2,-1,-3,-3,-1,-2,0,-9,8.08
1617,1,-4,1,1,0,1,-2,10,8.085
1618,16,-2,-2,-3,-2,-1,-1,-5,8.09
1619,-1,0,-1,-1,-1,-1,-4,-9,8.095
1620,-2,-1,-2,0,-1,-1,0,5,8.1
1621,8,0,-2,-2,1,0,-5,-1,8.105
1622,-17,-2,-2,-1,-1,0,-1,-10,8.11
1623,7,1,0,-2,-2,-1,3,9,8.115
1624,4,0,-5,-5,-2,1,-2,6,8.120000000000001
1625,-5,3,-1,-2,-2,-2,-1,-8,8.125
1626,-4,2,1,-1,-3,-2,-1,-4,8.13
1627,4,4,0,-3,0,-2,2,1,8.135
1628,-8,-3,-1,5,-1,-1,-2,2,8.14
1629,10,-3,-1,-5,-5,-3,-2,-5,8.145
1630,-4,1,-2,-1,0,-1,2,20,8.15
1631,-13,-1,2,0,-2,0,-3,7,8.155
1632,-10,3,-4,-4,0,1,-3,-13,8.16
1633,3,0,-1,-1,0,0,0,3,8.165000000000001
1634,-7,-3,0,1,-3,0,-1,-5,8.17
1635,2,-2,-3,-1,-1,-2,-2,-2,8.175
1636,7,4,1,0,2,-1,3,2,8.18
1637,-2,0,3,1,0,0,-3,0,8.185
1638,-11,-3,-4,-3,-3,0,-1,-4,8.19
1639,20,-2,-3,0,-1,-1,-3,-5,8.195
1640,3,1,4,0,-1,-3,0,1,8.2
1641,0,1,0,1,1,2,-1,-1,8.205
1642,3,0,2,-2,-5,-3,0,-1,8.21
1643,-6,-4,-5,5,8,2,3,-1,8.215
1644,-1,-2,0,-11,-2,1,-1,1,8.22
1645,0,1,0,6,0,-3,-4,-2,8.225
1646,0,-1,2,3,2,-2,1,0,8.23
1647,1,1,2,-2,-1,-1,-1,5,8.235
1648,-1,-4,0,1,1,-1,0,0,8.24
1649,-3,-3,-6,-15,-2,-1,-2,0,8.245000000000001
1650,-5,-1,-1,1,-3,-2,0,-4,8.25
1651,-2,-1,5,-2,2,-1,-2,-4,8.255
1652,3,3,-3,-47,-26,-5,-3,0,8.26
1653,0,-2,3,86,46,10,3,0,8.265
1654,2,2,9,11,8,0,1,-1,8.27
1655,-3,0,-7,6,1,2,0,0,8.275
1656,0,-3,-2,9,8,0,1,1,8.28
1657,-2,4,11,-33,-20,-4,-3,-4,8.285
1658,0,-3,-8,-7,-2,0,-2,0,8.290000000000001
1659,-7,-7,0,-2,-1,-1,-1,-4,8.295
1660,-2,-3,-3,-3,-3,-1,-1,0,8.3
1661,0,-4,-9,-15,-8,-3,-2,1,8.305
1662,3,5,5,5,4,0,0,0,8.31
1663,-2,1,-1,-13,-7,-3,-2,-2,8.315
1664,-2,-2,-1,9,4,2,-1,0,8.32
1665,1,-1,0,-2,-4,0,0,2,8.325
1666,-1,-3,0,-2,-3,-1,-1,-2,8.33
1667,-3,-3,-4,-3,-3,-1,1,-2,8.335
1668,-1,1,2,11,5,0,2,-2,8.34
1669,0,1,0,-6,-4,-3,1,0,8.345
1670,-5,-5,-6,-9,-3,-1,-4,-4,8.35
1671,-2,-1,0,-8,-4,-2,-1,-1,8.355
1672,-2,-2,-1,4,1,0,0,-1,8.36
1673,-1,-4,-7,-8,-9,-4,-1,0,8.365
1674,-5,-2,1,10,7,1,2,-2,8.370000000000001
1675,0,4,2,-6,-1,2,-2,1,8.375
1676,-2,-4,0,-1,-1,1,-1,-1,8.38
1677,3,3,3,21,3,0,-2,-1,8.385
1678,1,1,-5,-8,-4,-2,-1,1,8.39
1679,1,-1,0,9,3,2,-1,-1,8.395
1680,0,4,1,-9,-4,-3,-1,-1,8.4
1681,-1,-1,0,-14,-5,-1,1,-2,8.405
1682,-2,-6,-11,-1,0,-2,0,0,8.41
1683,-1,-5,-3,-3,-5,-2,-1,-2,8.415000000000001
1684,4,7,-1,2,0,1,-1,1,8.42
1685,-5,-5,-3,-6,-2,-3,-1,-2,8.425
1686,1,2,3,0,-1,0,0,0,8.43
1687,-1,-1,-2,-3,-3,-1,-3,-2,8.435
1688,-3,-3,0,9,4,-1,-4,-2,8.44
1689,1,1,2,-2,1,1,3,2,8.445
1690,0,0,-1,-7,-4,-2,-2,1,8.45
1691,0,-2,-1,2,1,-1,0,-1,8.455
1692,-3,-2,3,5,3,0,-1,0,8.46
1693,-2,-3,-6,-14,-6,-3,-3,-1,8.465
1694,3,3,-2,-10,-1,0,-2,0,8.47
1695,-2,4,8,19,3,1,-1,0,8.475
1696,-2,-4,-7,2,-1,0,1,-2,8.48
1697,-4,-3,-4,-3,-2,0,0,0,8.485
1698,-1,-2,0,-1,-3,-1,-1,-1,8.49
1699,2,-1,-1,-10,-3,-2,-1,-1,8.495000000000001
1700,-1,-1,2,4,2,-1,-1,-1,8.5
1701,1,6,1,1,2,1,0,0,8.505
1702,-1,-5,-7,-3,-2,-2,0,-2,8.51
1703,-1,-1,-5,-5,0,0,-1,-1,8.515
1704,-1,-3,1,-2,-2,-1,-2,-2,8.52
1705,-1,-4,-5,-9,-3,-2,-1,-3,8.525
1706,-1,2,4,4,1,-1,-1,0,8.53
1707,-3,-3,-2,-3,-3,-2,0,0,8.535
1708,-1,-2,-3,2,3,1,1,2,8.540000000000001
1709,-1,1,2,4,1,-1,-1,0,8.545
1710,1,2,1,-3,-3,2,0,0,8.55
1711,-1,1,-4,-5,-1,-3,-2,-1,8.555
1712,-1,-2,4,3,3,0,-2,-1,8.56
1713,-3,-3,-4,-6,-3,1,0,-2,8.565
1714,-2,-3,0,6,-1,0,-1,-1,8.57
1715,-1,0,-1,3,1,0,0,-1,8.575000000000001
1716,-2,1,-1,1,0,-2,-5,-1,8.58
1717,0,-2,-2,-2,-3,0,2,0,8.585
1718,1,1,-1,-5,-3,0,-1,-1,8.59
1719,0,0,3,10,2,0,1,0,8.595
1720,1,-4,-4,-2,-4,-3,-1,0,8.6
1721,1,0,2,1,1,0,-2,-1,8.605
1722,-2,-4,-3,-2,-1,-2,-2,-2,8.61
1723,2,3,1,-3,0,0,0,0,8.615
1724,-4,-6,-4,-3,-3,-2,-1,-2,8.620000000000001
1725,0,1,1,-3,-1,-1,-1,-1,8.625
1726,1,3,5,2,-1,-1,3,-1,8.63
1727,-2,-1,-4,-7,0,0,-1,-2,8.635
1728,0,2,-2,3,-1,0,0,0,8.64
1729,-1,-3,-2,1,-1,0,0,-3,8.645
1730,-4,-4,-3,-4,-1,-3,-3,-3,8.65
1731,-1,-2,1,6,0,-2,0,1,8.655
1732,1,3,2,0,-2,-1,1,1,8.66
1733,-2,-2,-3,-5,-1,1,-1,-1,8.665000000000001
1734,-1,1,0,-1,-1,-1,-1,-2,8.67
1735,0,2,-1,-1,-2,0,0,-1,8.675
1736,1,0,-2,-4,-4,1,-1,0,8.68
1737,0,2,-2,0,-3,-3,-2,0,8.685
1738,0,-1,-2,5,2,-1,-1,0,8.69
1739,-3,-4,1,-3,0,0,-1,-2,8.695
1740,2,4,3,1,1,-1,0,0,8.700000000000001
1741,-2,-2,-1,-7,-2,-1,-1,-1,8.705
1742,-1,1,0,3,-5,1,-2,0,8.71
1743,-2,-5,-8,-6,-3,0,-2,0,8.715
1744,3,0,3,10,2,1,2,0,8.72
1745,-1,0,0,0,1,1,0,-1,8.725
1746,-3,2,0,-5,-2,-1,0,-1,8.73
1747,-2,-5,1,-3,-2,0,-3,-1,8.735
1748,-1,-3,-5,-9,-5,-3,-2,-3,8.74
1749,3,0,0,7,3,1,-1,-1,8.745000000000001
1750,1,2,1,-1,0,-1,2,0,8.75
1751,-2,-4,-4,1,-2,-3,-1,-4,8.755
1752,0,0,-1,-6,0,-1,0,-1,8.76
1753,-2,-4,1,-2,-3,-1,-1,-1,8.765
1754,0,-1,-1,-1,3,-1,0,1,8.77
1755,-1,3,1,-2,-2,-1,0,0,8.775
1756,-1,2,2,6,2,1,-1,-1,8.78
1757,-2,-3,-4,-3,-2,-2,1,1,8.785
1758,-1,-4,-3,-1,-1,1,0,-2,8.790000000000001
1759,-1,-2,-1,-3,-1,-2,-1,-1,8.795
1760,0,0,0,-2,-1,-2,0,-1,8.8
1761,-2,0,0,-2,-1,0,-1,0,8.805
1762,-2,2,-1,-1,-2,0,-1,0,8.81
1763,2,0,-2,2,1,-2,-1,-1,8.815
1764,-3,-2,-2,-3,-1,-1,-1,0,8.82
1765,-3,-2,-2,2,-1,0,0,-2,8.825000000000001
1766,-1,0,0,-4,0,0,-3,-1,8.83
1767,-2,-2,-2,1,-3,-1,-2,-1,8.835
1768,1,1,-1,3,1,-1,0,1,8.84
1769,3,4,4,-1,0,-1,0,0,8.845
1770,-4,-2,-3,0,-2,-2,-2,-3,8.85
1771,-2,-1,-2,5,2,0,0,-2,8.855
1772,0,-3,-3,-6,-2,1,-1,-2,8.86
1773,0,1,1,0,-1,-3,-2,0,8.865
1774,2,0,0,-1,1,-1,1,0,8.870000000000001
1775,-4,-7,0,-2,-3,-2,-2,-1,8.875
1776,-2,-2,-1,-3,1,-1,1,0,8.88
1777,0,0,0,-1,1,1,-1,-2,8.885
1778,1,-3,-3,-1,-1,0,-1,-1,8.89
1779,-1,1,1,-1,-1,0,1,0,8.895
1780,-2,-3,-1,-3,1,-1,-2,0,8.9
1781,0,-2,-1,2,-2,0,0,0,8.905
1782,1,1,2,-1,-1,-3,0,-1,8.91
1783,3,6,0,-1,-1,0,0,0,8.915000000000001
1784,-5,-1,-4,-3,-2,0,0,-1,8.92
1785,0,0,0,0,1,0,-1,1,8.925
1786,2,-2,0,0,-1,0,2,0,8.93
1787,0,0,0,-2,-2,-3,-1,-1,8.935
1788,1,1,-1,-2,-2,-3,0,-2,8.94
1789,-1,0,-2,-4,-3,-3,-1,0,8.945
1790,-1,2,0,3,4,1,0,-1,8.950000000000001
1791,-2,-4,-2,-4,0,1,-1,-2,8.955
1792,-2,-2,1,12,3,0,0,0,8.96
1793,-1,-3,-2,0,0,1,1,0,8.965
1794,3,1,1,-6,-2,-2,0,1,8.97
1795,1,-1,1,-1,-1,-1,-1,1,8.975
1796,-2,0,2,2,2,-1,-1,-1,8.98
1797,0,-2,-4,-1,-1,0,0,-1,8.985
1798,-7,-4,-2,0,-1,-2,-3,-1,8.99
1799,0,-3,-6,-6,-1,-2,-1,-1,8.995000000000001
1800,2,4,1,-4,-4,1,-1,-1,9.0
1801,-5,-5,-1,-1,0,-1,-2,-3,9.005
1802,-1,-3,-1,1,-2,-1,1,-1,9.01
1803,-1,0,2,4,0,-1,0,0,9.015
1804,1,-1,1,-2,-2,-3,-1,0,9.02
1805,1,0,-4,-1,-3,-1,-2,-2,9.025
1806,-1,-1,-1,1,-2,2,-1,0,9.03
1807,-2,-3,0,3,1,0,-1,-1,9.035
1808,0,-2,-4,-6,-3,1,0,1,9.040000000000001
1809,0,2,-1,-9,-7,-4,-1,1,9.045
1810,0,-1,2,25,14,2,1,0,9.05
1811,1,3,2,2,-2,1,-2,0,9.055
1812,-2,-1,1,-4,-3,-2,-1,-3,9.06
1813,0,-4,-3,-3,-2,0,-1,-1,9.065
1814,-8,-5,-3,-5,-7,-2,-3,-3,9.07
1815,1,0,-4,-4,1,0,1,-1,9.075000000000001
1816,-2,-2,0,0,-1,1,-1,-1,9.08
1817,-1,0,1,3,1,-1,-1,-1,9.085
1818,4,3,-1,-6,-1,-1,-1,-1,9.09
1819,-3,-1,0,3,-1,-2,0,-1,9.095
1820,-3,-4,-3,-5,-2,-2,-1,0,9.1
1821,0,0,-1,1,1,0,1,0,9.105
1822,0,0,-1,-3,-1,0,0,0,9.11
1823,0,1,0,-6,-4,-1,-1,0,9.115
1824,-1,-2,0,1,0,-1,-1,1,9.120000000000001
1825,-1,-2,1,3,2,-1,-1,-1,9.125
1826,1,1,-1,-6,-3,-2,0,1,9.13
1827,0,0,0,2,-2,-1,-1,-1,9.135
1828,1,4,-1,2,3,0,0,-2,9.14
1829,-4,-3,-2,3,0,-1,-1,0,9.145
1830,-2,-2,3,-8,-6,-3,-1,-3,9.15
1831,-2,-4,-3,3,3,0,0,-1,9.155
1832,-1,-5,-5,-3,-1,-1,-1,-1,9.16
1833,2,4,2,1,1,-1,1,0,9.165000000000001
1834,0,-2,-1,1,0,-1,0,-1,9.17
1835,1,1,1,-2,-2,0,0,1,9.175
1836,-2,1,0,3,0,0,-1,0,9.18
1837,2,0,-3,-3,-1,-1,0,-1,9.185
1838,0,-2,-2,-1,-1,-1,-1,0,9.19
1839,1,1,1,-3,0,0,-2,-1,9.195
1840,0,-1,-1,1,-1,1,1,0,9.200000000000001
1841,-3,-1,0,-5,-1,0,-2,-1,9.205
1842,1,0,0,-1,2,-1,-2,-1,9.21
1843,-2,-1,-3,1,0,-2,0,-4,9.215
1844,2,3,0,-6,-2,-2,1,0,9.22
1845,-1,0,-2,1,0,0,0,-1,9.225
1846,-4,-7,-6,-1,-3,-1,-1,-1,9.23
1847,-2,1,-3,-6,0,-1,0,-2,9.235
1848,-1,0,-2,-4,-3,-3,0,1,9.24
1849,-3,-2,-2,2,0,-2,-2,-1,9.245000000000001
1850,0,1,0,-3,-3,0,0,0,9.25
1851,0,-1,0,1,-2,0,0,0,9.255
1852,-3,-5,-1,2,0,-1,-1,-2,9.26
1853,-3,-1,-2,-4,-3,1,-2,0,9.265
1854,1,2,0,7,4,0,1,1,9.27
1855,2,-1,0,-4,-2,-3,0,-1,9.275
1856,-3,-2,2,8,3,-1,-1,0,9.28
1857,2,-4,0,4,1,-1,-1,-1,9.285
1858,-1,-1,1,-3,-1,0,-1,-2,9.290000000000001
1859,-1,-2,-1,-5,-2,0,0,-1,9.295
1860,1,1,1,1,-1,0,-2,-1,9.3
1861,-2,-2,-3,-3,-4,-2,-1,0,9.305
1862,-1,-1,-2,-4,1,0,-1,-1,9.31
1863,-2,-1,-2,-1,-2,-2,-1,0,9.315
1864,-1,1,-3,-1,-1,-1,0,-1,9.32
1865,2,2,1,2,0,0,0,-1,9.325000000000001
1866,0,2,-1,-2,-1,1,-1,0,9.33
1867,-1,0,1,3,1,-2,-1,1,9.335
1868,-3,-2,-4,-4,-2,-1,-1,-1,9.34
1869,-2,-2,0,-2,-1,-1,-1,0,9.345
1870,-1,1,-1,-2,0,-2,1,-2,9.35
1871,-2,-1,1,7,0,0,0,1,9.355
1872,0,2,2,-1,3,2,1,-2,9.36
1873,-1,1,-2,-7,-2,-2,-2,-1,9.365
1874,-4,-5,-6,1,-1,-2,-5,-1,9.370000000000001
1875,-2,-1,-1,1,0,0,-2,0,9.375
1876,0,-1,-1,-3,-2,-1,-1,0,9.38
1877,0,-1,0,2,0,-1,1,-1,9.385
1878,0,-1,-1,-6,0,0,2,-1,9.39
1879,3,0,0,1,2,-2,-1,-1,9.395
1880,0,1,1,1,-2,1,-1,0,9.4
1881,-5,-4,-2,-3,0,-1,-1,-2,9.405
1882,-1,-1,0,-1,-3,-2,-2,0,9.41
1883,-1,-2,-1,2,1,0,-1,-2,9.415000000000001
1884,0,-3,-2,-4,-2,-3,0,-1,9.42
1885,1,1,0,1,-2,0,0,0,9.425
1886,-1,0,0,1,-2,-1,0,0,9.43
1887,-2,-1,-4,-7,0,-2,-2,-1,9.435
1888,1,-1,0,6,0,-2,1,0,9.44
1889,1,2,1,-2,-3,0,0,-1,9.445
1890,-3,-4,-2,2,1,0,0,-3,9.450000000000001
1891,3,0,1,-2,-2,-1,-3,-1,9.455
1892,-6,-2,-1,-5,-4,-3,0,-3,9.46
1893,-1,-5,-5,-9,-2,-4,-1,-3,9.465
1894,0,1,1,3,-1,0,-1,-2,9.47
1895,1,1,2,0,1,0,0,0,9.475
1896,0,0,-2,-1,0,1,-1,-2,9.48
1897,0,0,0,0,0,-1,0,-2,9.485
1898,0,3,2,-4,-3,2,0,-2,9.49
1899,-3,-2,-2,0,-1,-2,0,-2,9.495000000000001
1900,1,-1,0,-1,-3,-2,-1,-1,9.5
1901,1,-1,-1,0,0,1,-1,1,9.505
1902,1,1,0,2,2,-1,0,2,9.51
1903,-2,-4,0,-2,-2,-1,-1,-3,9.515
1904,0,0,1,-4,-1,1,0,1,9.52
1905,-5,-6,-2,5,-2,-3,-3,-5,9.525
1906,2,-1,-1,-1,0,-1,1,0,9.53
1907,-4,1,1,-1,-1,0,-1,-2,9.535
1908,-1,-1,-2,-2,-1,0,-1,1,9.540000000000001
1909,2,4,2,-3,-1,1,-1,1,9.545
1910,-2,1,1,-1,0,-2,-3,-2,9.55
1911,0,-2,-5,-1,0,-2,1,0,9.555
1912,0,-2,-2,-2,0,-1,0,-1,9.56
1913,1,4,4,1,0,0,1,-3,9.565
1914,-5,-5,-2,-2,0,-1,-1,-2,9.57
1915,3,2,-1,-2,-2,1,-2,-1,9.575000000000001
1916,-2,-1,1,2,2,1,0,-1,9.58
1917,4,8,1,1,1,0,1,2,9.585
1918,-2,-6,-4,-3,-2,-2,0,-3,9.59
1919,-2,-2,0,-2,-2,-2,0,-2,9.595
1920,-1,-3,-1,-3,-3,-2,-1,-1,9.6
1921,1,2,1,-2,0,1,-1,1,9.605
1922,-1,-2,-1,-1,-1,-1,0,2,9.61
1923,-1,0,2,1,0,0,0,-1,9.615
1924,-2,-3,-3,-2,0,-1,-2,-1,9.620000000000001
1925,-3,-3,-3,1,0,-3,-1,-1,9.625
1926,0,1,-1,-2,-1,-1,-1,-1,9.63
1927,-1,-3,-1,-5,-4,-2,-2,-1,9.635
1928,2,0,-1,2,3,0,0,-1,9.64
1929,-3,-5,-3,-3,-1,0,-3,-2,9.645
1930,0,-2,-1,0,-1,-1,-2,-1,9.65
1931,1,3,3,3,1,-1,2,-1,9.655
1932,-1,-1,-3,-8,-2,-1,-1,-1,9.66
1933,-3,-4,-1,-1,-1,-2,0,1,9.665000000000001
1934,2,2,2,1,0,0,-2,0,9.67
1935,1,0,-1,-3,-1,-1,-1,0,9.675
1936,-4,-2,-4,-1,-3,0,0,-2,9.68
1937,-3,-1,-1,-3,-1,0,-1,-2,9.685
1938,-1,0,-1,5,-1,0,0,-2,9.69
1939,1,-2,-2,1,-1,0,0,-1,9.695
1940,0,2,1,-1,-1,0,-1,1,9.700000000000001
1941,0,-2,0,4,1,0,-1,-1,9.705
1942,2,4,-1,-1,-2,-1,0,-1,9.71
1943,-2,-3,-6,-5,-3,-1,-2,-1,9.715
1944,1,0,0,2,1,0,0,-1,9.72
1945,-3,-3,-3,-1,-2,-1,-1,-2,9.725
1946,0,1,-1,-4,-2,-1,0,1,9.73
1947,-2,-3,0,-1,0,-1,0,-2,9.735
1948,-1,-4,-4,-1,-3,-3,-2,-3,9.74
1949,-1,-3,-1,-1,1,-1,-1,-1,9.745000000000001
1950,-3,-3,-1,-3,-2,-2,-3,-2,9.75
1951,-3,-2,0,-1,-3,0,0,-1,9.755
1952,0,2,3,3,0,0,-1,-1,9.76
1953,2,3,-1,2,-1,-1,0,1,9.765
1954,-1,0,0,3,1,-1,0,-1,9.77
1955,-2,-2,-4,-4,1,-1,-1,-2,9.775
1956,-2,-1,-2,-3,-3,-2,-1,0,9.78
1957,2,-1,0,-3,-1,-2,0,0,9.785
1958,2,0,-2,2,1,-1,0,-2,9.790000000000001
1959,-6,-3,0,2,0,1,-1,-1,9.795
1960,-2,-1,0,0,0,0,1,0,9.8
1961,-2,0,-1,-1,-1,-1,-2,-1,9.805
1962,0,0,-1,-6,-3,-1,-1,-1,9.81
1963,2,-3,-2,-1,-4,-4,-1,-3,9.815
1964,-1,0,-1,-4,-1,-2,-1,-2,9.82
1965,-5,-4,-1,1,-2,0,-1,-3,9.825000000000001
1966,1,2,0,-3,-2,1,1,0,9.83
1967,-1,-1,-3,2,-1,-3,-1,0,9.835
1968,-2,-1,1,0,-2,-1,1,1,9.84
1969,0,-1,-1,-2,0,-1,1,-1,9.845
1970,-2,-1,-1,0,-1,0,-2,-2,9.85
1971,1,3,0,1,0,0,-1,0,9.855
1972,-1,-1,1,-2,-1,-1,-1,-2,9.86
1973,-1,-2,-2,-2,-3,-1,-1,-1,9.865
1974,-3,-1,2,-4,-3,-1,-2,-1,9.870000000000001
1975,1,0,-2,1,2,1,0,1,9.875
1976,-1,-2,-2,1,-1,-1,-2,-3,9.88
1977,-2,-2,0,1,0,0,3,-2,9.885
1978,0,1,-4,-7,-2,-1,-1,0,9.89
1979,-1,-1,2,9,6,2,0,-2,9.895
1980,-4,-2,0,-1,-1,0,0,0,9.9
1981,-2,-1,-3,-3,-1,-1,-2,0,9.905
1982,1,2,2,-1,-3,-2,-1,0,9.91
1983,2,3,0,-3,-2,-3,0,2,9.915000000000001
1984,1,-3,-5,-3,0,0,0,-2,9.92
1985,-2,0,1,2,1,-3,-1,0,9.925
1986,-1,-5,-3,-2,0,1,2,0,9.93
1987,-3,-1,-3,-3,0,0,-3,-2,9.935
1988,0,0,2,4,-1,-2,-2,0,9.94
1989,1,1,-3,-2,-3,-1,0,-2,9.945
1990,0,0,-2,2,2,-1,-1,0,9.950000000000001
1991,0,0,2,-1,-3,-1,-1,-2,9.955
1992,-1,-2,1,-1,-1,-1,0,0,9.96
1993,-2,1,-2,0,1,1,-1,-2,9.965
1994,-1,-2,-1,2,0,-1,-1,1,9.97
1995,1,-2,-1,-8,-2,0,2,0,9.975
1996,3,3,4,6,1,0,0,0,9.98
1997,0,2,1,-1,-2,-2,1,-1,9.985
1998,-3,-4,-4,3,3,0,-2,-1,9.99
1999,-3,0,1,-1,0,1,-2,0,9.995000000000001
2000,3,1,-4,-2,-1,0,-1,-1,10.0
2001,0,0,1,1,0,0,-1,-1,10.005
2002,-2,-3,-3,-3,-3,-2,0,-3,10.01
2003,1,0,1,1,-1,0,0,-3,10.015
2004,-2,-8,-2,-5,-2,-2,-1,-2,10.02
2005,1,-1,0,3,2,0,-2,-1,10.025
2006,-2,-3,-1,-1,-1,-2,-1,-1,10.03
2007,-2,-3,0,-1,-2,-3,0,1,10.035
2008,0,3,0,-4,0,0,-1,1,10.040000000000001
2009,2,-2,0,-1,-1,-2,-2,1,10.045
2010,0,-1,1,-2,0,0,-1,-2,10.05
2011,-1,2,0,0,1,-1,0,0,10.055
2012,0,0,0,-5,-3,-1,0,-2,10.06
2013,-1,-1,-2,0,-1,-1,0,1,10.065
2014,-1,0,0,-3,-2,-1,-3,-2,10.07
2015,-1,0,1,4,0,-2,-1,-1,10.075000000000001
2016,-2,-1,-3,-1,0,-1,-1,1,10.08
2017,0,0,-1,-4,-3,1,0,-2,10.085
2018,-1,-1,0,4,0,-1,0,1,10.09
2019,-1,-2,0,1,1,2,0,-1,10.095
2020,-2,-2,-1,0,0,-2,0,-2,10.1
2021,1,-1,-1,-2,-3,0,0,-1,10.105
2022,-1,-2,-2,-3,-1,-1,-2,0,10.11
2023,-1,-2,-1,-3,-1,-1,-1,-1,10.115
2024,-2,2,1,1,0,-1,1,0,10.120000000000001
2025,-1,-3,-4,-3,0,0,0,-1,10.125
2026,1,5,1,-2,-2,1,-1,0,10.13
2027,-1,-1,-2,-2,0,-1,-1,-2,10.135
2028,3,2,0,0,-1,0,-1,0,10.14
2029,0,1,-1,7,2,-1,0,1,10.145
2030,-3,-4,-3,-2,-3,-1,-2,-1,10.15
2031,-1,-1,-1,-2,0,1,-2,0,10.155
2032,1,4,0,-2,-1,2,-1,0,10.16
2033,-1,-1,3,2,1,-1,-1,1,10.165000000000001
2034,-1,-2,-3,-3,0,-1,0,-2,10.17
2035,-1,-2,-1,-2,-1,-3,-2,-2,10.175
2036,-1,0,3,4,2,0,0,-2,10.18
2037,0,-2,-4,-4,-2,-2,-1,1,10.185
2038,0,1,2,1,0,0,-2,1,10.19
2039,-1,0,-1,-3,-3,-1,-1,0,10.195
2040,-2,-4,-6,-3,-1,-1,0,0,10.200000000000001
2041,-6,-1,2,-2,-4,-1,-2,-3,10.205
2042,0,0,-1,3,2,1,1,0,10.21
2043,-1,-2,-2,-4,-1,-2,-1,1,10.215
2044,1,-4,-5,-3,0,-1,-2,-2,10.22
2045,1,-2,2,-2,-1,-1,0,0,10.225
2046,2,3,0,2,1,0,0,-1,10.23
2047,-3,-2,1,0,-2,-2,-1,-1,10.235
2048,-1,-1,-1,-5,-2,0,-1,0,10.24
2049,-1,-1,-2,2,1,-1,0,-1,10.245000000000001
2050,1,2,1,3,0,0,0,1,10.25
2051,-2,-3,-2,3,0,-1,1,-1,10.255
2052,-3,-3,1,-1,-1,-3,0,-1,10.26
2053,-3,-5,-7,-10,-3,-2,-2,-4,10.265
2054,1,-3,2,4,0,-2,-2,-1,10.27
2055,0,2,-4,0,-2,1,0,1,10.275
2056,0,2,1,4,2,0,-2,0,10.28
2057,0,-1,-1,-2,-1,-1,0,1,10.285
2058,2,0,-1,-3,-3,-1,1,-1,10.290000000000001
2059,-3,-1,0,-1,-2,-1,-1,-2,10.295
2060,-2,-3,-3,-1,-2,-2,0,-2,10.3
2061,2,1,2,0,-1,0,-1,0,10.305
2062,-3,-1,-1,1,0,0,1,-2,10.31
2063,3,0,-1,0,-1,0,1,0,10.315
2064,-2,-2,0,2,-2,-1,-1,1,10.32
2065,-3,-1,0,0,1,0,-1,0,10.325000000000001
2066,-3,-6,-4,-5,-3,-1,0,0,10.33
2067,1,1,-1,-5,-3,-1,-2,-2,10.335
2068,-2,-5,-4,2,1,-1,-1,-2,10.34
2069,2,0,0,0,-2,0,-1,0,10.345
2070,-4,-2,0,1,-1,0,-1,0,10.35
2071,-1,0,-2,-6,1,0,0,-1,10.355
2072,-1,-4,-3,-4,-2,-2,-1,-1,10.36
2073,0,1,-1,0,-2,-1,-1,-2,10.365
2074,0,-1,-1,-1,-1,-1,-1,-1,10.370000000000001
2075,-1,-2,0,0,-2,-1,-1,-1,10.375
2076,3,3,0,-4,-2,-2,-1,0,10.38
2077,-1,-3,-2,2,0,1,-2,-2,10.385
2078,-3,-1,0,-2,-3,-2,-1,-1,10.39
2079,-1,-2,-2,0,-1,0,0,0,10.395
2080,1,3,2,0,1,1,1,0,10.4
2081,-4,-1,0,-1,0,-1,3,-1,10.405
2082,-1,-3,-2,-2,-1,-2,-2,0,10.41
2083,-2,-3,-2,1,0,-1,-2,-3,10.415000000000001
2084,0,1,3,0,0,0,-1,-2,10.42
2085,1,2,0,-1,2,-1,-1,0,10.425
2086,0,2,1,-2,-2,-1,-1,-1,10.43
2087,0,-2,0,3,1,-1,2,-2,10.435
2088,-3,-2,0,0,-1,-1,-2,-2,10.44
2089,-2,-2,-4,-3,0,-1,-1,0,10.445
2090,1,-2,0,-1,-2,-1,-1,-1,10.450000000000001
2091,-4,-5,-5,-2,-2,-2,-2,-2,10.455
2092,-2,0,0,0,0,0,-1,0,10.46
2093,1,0,0,1,0,0,-1,0,10.465
2094,-2,-1,-2,-3,0,1,0,-2,10.47
2095,-2,-2,0,0,0,-1,-1,-1,10.475
2096,2,1,-2,-2,-1,0,0,-1,10.48
2097,-3,-1,0,-2,-4,-4,-2,-1,10.485
2098,1,-1,-1,-2,0,0,-1,-1,10.49
2099,3,3,-1,-3,-2,0,-2,0,10.495000000000001
2100,-1,-1,1,4,1,0,0,0,10.5
2101,4,3,4,3,2,2,-1,-1,10.505
2102,-2,-3,-1,-3,-1,-1,-2,-2,10.51
2103,-2,1,-1,0,-2,0,1,0,10.515
2104,-1,-1,1,0,-2,-1,-1,0,10.52
2105,2,3,-1,-5,-1,0,1,-1,10.525
2106,0,0,0,7,2,-1,-1,-2,10.53
2107,1,0,-4,-3,-1,0,0,0,10.535
2108,0,-3,-3,-4,-1,-1,-1,0,10.540000000000001
2109,-3,-2,-1,3,1,-1,-1,-2,10.545
2110,-1,-1,-2,-3,-2,-1,0,-1,10.55
2111,0,0,1,2,1,-1,-1,-1,10.555
2112,-2,-1,-2,0,-4,-2,-1,1,10.56
2113,1,-2,-2,-3,0,0,-1,0,10.565
2114,-1,3,-3,-2,-2,-1,-2,-1,10.57
2115,2,5,1,1,0,1,-2,-1,10.575000000000001
2116,-2,-4,-4,-2,0,-1,0,-1,10.58
2117,-1,-2,-2,-3,-3,0,-1,-2,10.585
2118,-2,-1,3,8,3,0,0,-1,10.59
2119,1,0,1,-1,-1,-2,1,-1,10.595
2120,0,5,2,0,-1,-1,-1,-2,10.6
2121,-2,-4,-8,-2,-2,-2,0,-1,10.605
2122,2,0,-3,-8,-2,-2,1,0,10.61
2123,-4,-2,-1,4,0,0,-2,-2,10.615
2124,-1,-3,-1,-4,-2,0,-2,-1,10.620000000000001
2125,-1,-4,-1,1,0,0,-1,-1,10.625
2126,1,2,1,-1,0,1,0,-1,10.63
2127,-1,-1,-5,-1,-1,1,1,0,10.635
2128,-2,1,0,-1,-2,-1,0,-1,10.64
2129,1,2,3,-1,1,-1,-1,-2,10.645
2130,2,1,-3,0,0,-3,0,-1,10.65
2131,-7,-5,-1,-4,-1,-3,-1,-1,10.655
2132,-1,-3,-1,-6,0,-1,-1,0,10.66
2133,-1,0,0,5,2,0,-1,0,10.665000000000001
2134,-1,-4,-2,-2,-1,-1,0,-1,10.67
2135,2,1,-2,-1,-1,-1,2,0,10.675
2136,-1,-2,-4,-3,2,0,-1,-2,10.68
2137,-2,-1,0,1,0,0,-1,-1,10.685
2138,-1,-1,-1,1,-2,-1,0,-1,10.69
2139,3,2,5,2,0,2,-2,1,10.695
2140,-4,-2,1,1,-2,0,-1,-2,10.700000000000001
2141,-2,1,-1,-3,0,-1,0,-1,10.705
2142,-2,-1,-2,-4,-1,0,-3,-1,10.71
2143,-1,-2,0,2,1,0,1,1,10.715
2144,2,3,-1,3,0,-2,-1,0,10.72
2145,-4,-5,-3,-7,-2,-1,-2,-1,10.725
2146,-1,-2,-2,2,-2,-2,-2,-1,10.73
2147,1,-1,-2,-6,0,0,0,-3,10.735
2148,0,0,2,0,-1,0,-1,-1,10.74
2149,0,1,0,3,-1,-1,1,0,10.745000000000001
2150,-2,0,-1,-1,0,-1,-1,0,10.75
2151,-2,0,-3,-2,-2,-2,-1,-1,10.755
2152,1,-1,-1,-2,-2,-1,-1,-1,10.76
2153,1,0,0,-4,-2,-3,-1,-1,10.765
2154,-1,-1,-1,-2,1,1,-1,-1,10.77
2155,0,0,0,0,-1,-1,-2,0,10.775
2156,-3,3,0,-3,1,-2,0,1,10.78
2157,-2,-3,-1,5,-1,0,-2,-1,10.785
2158,-1,0,2,-3,-2,-2,0,-3,10.790000000000001
2159,-1,0,2,3,-1,-1,-1,1,10.795
2160,-3,-5,-8,-6,-2,0,-3,-2,10.8
2161,0,-1,1,-2,-2,0,-3,-2,10.805
2162,2,4,-1,0,1,0,2,1,10.81
2163,-1,-4,-1,-1,-2,-2,-2,-3,10.815
2164,2,-1,0,4,0,0,0,0,10.82
2165,0,1,0,1,-1,-1,-1,-1,10.825000000000001
2166,-1,-1,0,-1,-1,-2,-1,-1,10.83
2167,-4,-6,-1,-1,0,0,1,-2,10.835
2168,-1,1,0,1,0,-2,-1,-2,10.84
2169,-2,-3,-4,-3,0,-2,0,-2,10.845
2170,0,-2,-2,-1,-2,0,0,-1,10.85
2171,3,3,-1,-1,-1,1,1,-1,10.855
2172,-1,-4,-2,0,-1,-1,0,-1,10.86
2173,1,-1,2,-1,-3,-2,1,2,10.865
2174,-2,-3,-2,0,-1,0,0,-2,10.870000000000001
2175,-1,-1,-3,-3,-2,-2,-1,0,10.875
2176,1,2,-2,3,2,-1,1,-1,10.88
2177,1,1,1,1,0,0,0,0,10.885
2178,-5,-2,-2,2,1,1,-2,-1,10.89
2179,-1,-1,-1,0,-1,0,-2,-2,10.895
2180,-1,-1,-2,-1,0,0,1,1,10.9
2181,0,3,2,1,-1,-2,-3,0,10.905
2182,-2,-2,-3,-5,-3,-2,-1,-1,10.91
2183,0,-1,-1,-1,-1,-1,-1,0,10.915000000000001
2184,-3,-5,-2,1,-1,-2,0,-2,10.92
2185,-1,1,-2,0,0,0,-2,-1,10.925
2186,0,3,2,-3,-3,0,0,0,10.93
2187,1,-3,-1,1,0,-2,-2,-2,10.935
2188,3,3,1,-5,-2,1,-1,-2,10.94
2189,-2,-3,-3,3,2,0,0,-3,10.945
2190,0,1,2,3,-3,0,-1,0,10.950000000000001
2191,-1,-2,-1,-3,0,0,0,1,10.955
2192,0,0,2,0,-2,0,-2,-1,10.96
2193,-2,-3,-3,-2,-2,0,1,-2,10.965
2194,-2,-4,-4,-2,-1,-2,-1,-3,10.97
2195,-2,-1,-1,-1,-1,-1,-1,1,10.975
2196,-1,2,3,-2,-2,-2,-2,-3,10.98
2197,-1,-2,-5,-2,0,-1,-2,0,10.985
2198,1,0,-2,0,1,0,0,1,10.99
2199,-2,-1,0,2,0,0,-1,0,10.995000000000001
2200,-2,-1,-1,-1,-2,-2,-2,1,11.0
2201,1,2,1,-3,-2,1,-1,-2,11.005
2202,0,-3,0,2,1,1,0,-1,11.01
2203,-4,0,-3,-2,-1,1,-1,0,11.015
2204,-3,-3,-3,-2,-2,-2,-2,-2,11.02
2205,-1,0,1,2,-1,0,1,0,11.025
2206,0,0,0,2,0,-1,-1,1,11.03
2207,1,0,1,1,-2,-1,0,-2,11.035
2208,3,5,2,1,0,0,1,-1,11.040000000000001
2209,-5,-9,-6,-3,-1,-2,-2,-1,11.045
2210,0,-1,-2,-2,0,-2,0,-1,11.05
2211,4,2,2,1,1,-2,-1,-2,11.055
2212,-2,-1,-2,1,-2,1,1,0,11.06
2213,0,2,2,-4,-2,-1,-1,-1,11.065
2214,0,-1,-1,-2,2,-1,-2,-1,11.07
2215,-4,-1,0,-3,-2,-2,0,-1,11.075000000000001
2216,3,-2,-1,5,1,1,0,1,11.08
2217,2,6,2,2,0,1,2,-1,11.085
2218,-2,-2,1,0,-1,-1,-3,-1,11.09
2219,1,1,2,-1,0,1,0,-1,11.095
2220,-2,-3,-3,-5,-3,-2,-2,-1,11.1
2221,-1,-2,-2,-6,-4,0,0,0,11.105
2222,0,1,0,0,0,0,1,0,11.11
2223,0,-1,1,2,-1,-1,-1,-2,11.115
2224,-2,-3,-2,-2,-2,-1,-1,0,11.120000000000001
2225,-1,-2,-3,-2,-2,0,0,-1,11.125
2226,4,6,2,-2,-1,0,1,0,11.13
2227,-9,-7,-2,1,-1,0,-1,-1,11.135
2228,-2,0,1,1,1,-2,0,-1,11.14
2229,0,0,0,-2,-1,0,-1,1,11.145
2230,-1,-2,-4,-3,-1,0,0,-1,11.15
2231,2,2,0,-1,-1,2,0,0,11.155
2232,0,-1,-4,-7,1,-1,0,0,11.16
2233,-1,-1,0,5,-1,-3,-1,-2,11.165000000000001
2234,-6,-3,-2,-3,-2,-1,0,-2,11.17
2235,0,-1,-6,0,-1,-2,0,-2,11.175
2236,-1,-3,0,-1,1,-1,0,1,11.18
2237,1,1,-2,-5,-2,0,0,0,11.185
2238,-2,-5,-2,-1,-1,-2,0,-2,11.19
2239,0,1,-1,0,0,-1,0,1,11.195
2240,2,3,1,0,-1,2,0,-1,11.200000000000001
2241,-3,-2,0,1,1,0,-2,-1,11.205
2242,0,-2,1,1,1,0,-2,1,11.21
2243,-1,0,-1,-2,-1,1,0,-1,11.215
2244,-1,-2,1,1,-2,-1,-1,-2,11.22
2245,-3,-4,-4,0,-1,-2,-1,0,11.225
2246,0,0,-5,-2,-2,-2,-3,-1,11.23
2247,4,3,2,2,2,-2,-1,1,11.235
2248,-2,-3,0,-2,-1,-1,-1,0,11.24
2249,0,1,2,0,1,-1,-1,1,11.245000000000001
2250,0,-1,-1,5,1,-1,-2,0,11.25
2251,-1,0,0,-2,-2,-3,-1,-1,11.255
2252,-2,-3,-3,0,-1,-3,-1,0,11.26
2253,-2,0,-1,-7,-3,-1,-3,-2,11.265
2254,0,1,2,8,3,2,0,-2,11.27
2255,-1,0,0,2,-1,1,-1,0,11.275
2256,1,0,0,0,-1,-2,-1,-2,11.28
2257,0,1,-2,-5,-3,-3,0,-1,11.285
2258,0,1,-1,-2,-1,1,0,0,11.290000000000001
2259,-3,-3,-4,-2,-3,1,-1,-1,11.295
2260,-1,-2,0,-3,-1,0,0,-1,11.3
2261,-5,-4,4,6,1,-1,1,0,11.305
2262,0,2,-2,-5,-2,1,0,-1,11.31
2263,1,-2,-2,-1,1,-2,-2,0,11.315
2264,-2,0,-1,1,-2,-1,0,0,11.32
2265,1,-2,-2,1,2,2,-1,0,11.325000000000001
2266,-3,-3,0,3,-3,-2,-2,0,11.33
2267,0,-4,1,-4,-2,-2,-1,-1,11.335
2268,0,1,0,2,2,1,0,0,11.34
2269,0,1,0,1,2,1,-1,-2,11.345
2270,0,2,0,-5,-2,-2,-1,-1,11.35
2271,0,-3,-3,-2,-2,-1,-1,-3,11.355
2272,-2,-2,-2,-1,0,-2,-1,0,11.36
2273,-1,1,-2,2,-1,0,-2,-1,11.365
2274,-1,-3,-3,-4,-2,-1,-2,1,11.370000000000001
2275,-1,2,0,-2,-2,-2,-2,0,11.375
2276,-2,-2,-1,-1,-1,-1,-1,1,11.38
2277,1,-2,-1,1,-2,-2,-1,1,11.385
2278,0,1,2,2,0,0,1,0,11.39
2279,-2,-4,-3,-3,-1,1,-1,-1,11.395
2280,-4,-4,-4,-1,-2,0,-2,-2,11.4
2281,0,0,1,-3,-1,-1,0,-1,11.405
2282,-2,-5,-4,-4,-3,-2,-1,-1,11.41
2283,0,0,-3,1,-2,-2,-1,-1,11.415000000000001
2284,1,1,-1,2,0,-1,-2,-2,11.42
2285,0,0,-1,-4,-2,-2,-1,-1,11.425
2286,0,-1,1,-1,1,-1,-2,-1,11.43
2287,-5,-4,-3,-4,-2,-2,-1,-2,11.435
2288,1,0,0,3,0,0,-1,0,11.44
2289,-5,-5,-2,-4,-2,-1,-2,0,11.445
2290,0,-2,0,1,-2,-2,-2,0,11.450000000000001
2291,1,4,3,7,3,1,0,0,11.455
2292,-2,-6,-1,-2,-4,-4,-1,-3,11.46
2293,-1,-3,-4,-3,-1,0,0,1,11.465
2294,2,5,2,-2,0,1,1,0,11.47
2295,0,-2,-2,0,-3,-2,0,1,11.475
2296,-2,-1,-1,-2,-1,-1,-1,0,11.48
2297,1,0,1,1,-1,-1,0,-1,11.485
2298,-5,-2,-5,-8,-2,-1,-2,0,11.49
2299,0,2,2,8,0,-2,-1,-1,11.495000000000001
2300,2,3,3,-1,-2,0,-1,1,11.5
2301,-1,-1,-4,-2,-2,0,0,0,11.505
2302,-2,-1,1,6,1,0,0,-1,11.51
2303,-1,-2,-1,-5,-1,-1,-1,-1,11.515
2304,2,2,1,-3,-1,-1,0,1,11.52
2305,1,2,-3,-1,0,0,-1,1,11.525
2306,-1,-1,0,2,-2,-2,1,0,11.53
2307,0,-3,-4,-5,-1,0,-1,0,11.535
2308,-4,-1,-2,-2,-1,0,-1,-1,11.540000000000001
2309,0,1,3,-1,-1,0,-1,-1,11.545
2310,0,-1,-5,-6,-1,-2,-2,-1,11.55
2311,3,6,1,-1,-1,0,0,1,11.555
2312,-8,-5,-2,-5,-3,1,0,-2,11.56
2313,-2,-2,3,8,5,-1,-2,-2,11.565
2314,-1,0,1,-4,-1,-2,0,-1,11.57
2315,-1,1,0,-2,1,-1,0,-2,11.575000000000001
2316,2,2,-2,-2,1,1,1,-1,11.58
2317,-3,-6,-4,-1,-5,-2,0,0,11.585
2318,-1,-1,0,5,2,-1,-1,1,11.59
2319,-2,0,2,-1,0,0,-1,-1,11.595
2320,1,2,1,-1,0,-1,0,1,11.6
2321,0,-1,-2,-2,-3,0,1,-1,11.605
2322,2,1,0,-2,0,1,0,0,11.61
2323,-4,-4,-1,-3,0,-1,0,-2,11.615
2324,3,-1,-1,-1,-2,-2,0,-1,11.620000000000001
2325,-3,1,-2,-3,-1,-2,0,-2,11.625
2326,-3,-4,-2,3,-1,-2,-2,-2,11.63
2327,-1,-4,0,-4,-3,-1,-1,-1,11.635
2328,-3,-7,-5,-7,-2,-1,1,-2,11.64
2329,1,4,3,11,6,1,0,2,11.645
2330,0,-1,1,-3,-2,1,1,-1,11.65
2331,-1,0,1,1,-2,-2,-2,-1,11.655
2332,3,5,-2,0,-1,-3,-2,0,11.66
2333,0,1,6,-3,-1,-1,1,-2,11.665000000000001
2334,-9,-2,-2,-2,-1,-1,-3,1,11.67
2335,11,3,1,0,-1,1,0,-2,11.675
2336,-1,0,-2,3,0,0,-2,8,11.68
2337,5,2,-4,-3,-1,-2,-1,3,11.685
2338,-6,-5,0,0,0,-2,-3,2,11.69
2339,-4,-2,-5,-4,-2,2,-1,-6,11.695
2340,0,0,2,3,1,-2,-2,-3,11.700000000000001
2341,-3,-5,-4,-4,-3,-1,1,-3,11.705
2342,0,0,1,-2,-1,-1,-1,0,11.71
2343,-3,-1,0,1,-2,-1,0,0,11.715
2344,0,0,0,1,1,1,-1,-2,11.72
2345,-1,0,0,0,-1,0,-2,-1,11.725
2346,3,0,1,0,-1,0,0,-3,11.73
2347,-1,-3,-2,-3,0,-2,-5,-1,11.735
2348,-1,0,2,0,-1,0,3,-2,11.74
2349,-1,0,-1,-4,-2,-2,-2,-1,11.745000000000001
2350,3,2,-1,-1,-1,2,4,-2,11.75
2351,-3,-2,2,4,1,0,0,-1,11.755
2352,-2,-1,1,-1,-1,-2,-2,0,11.76
2353,-4,-6,-10,-5,-4,-1,-1,-2,11.765
2354,0,-4,-1,0,0,-3,-1,-1,11.77
2355,-3,-1,-1,-1,-1,-3,-2,1,11.775
2356,1,3,-2,-2,-1,0,1,0,11.78
2357,-1,-3,0,-2,0,-1,0,-1,11.785
2358,2,3,0,1,1,-1,-1,-2,11.790000000000001
2359,-8,-1,-7,-3,-1,-1,1,1,11.795
2360,9,-1,4,-1,-1,-2,-1,0,11.8
2361,-12,0,3,-1,-1,0,-1,-9,11.805
2362,17,5,2,-2,-1,1,2,11,11.81
2363,-8,-9,-10,0,-1,1,-1,-4,11.815
2364,-10,1,1,-1,0,-1,-2,2,11.82
2365,8,4,-1,1,0,0,0,2,11.825000000000001
2366,-2,0,0,-1,0,-1,-2,2,11.83
2367,8,0,0,-1,0,0,0,-16,11.835
2368,-5,0,-6,1,0,0,0,5,11.84
2369,-18,-7,0,0,-4,-4,-5,-24,11.845
2370,6,-2,-5,-3,-3,-2,-2,3,11.85
2371,15,6,5,0,0,0,2,31,11.855
2372,-3,-2,-3,0,0,0,0,-1,11.86
2373,6,-4,1,0,1,0,-5,0,11.865
2374,9,-1,-1,0,-2,-1,-2,-3,11.870000000000001
2375,-17,-2,2,-1,0,-3,2,-9,11.875
2376,9,1,-1,-2,-3,-2,0,-3,11.88
2377,1,4,1,1,1,2,0,10,11.885
2378,-10,-6,-4,-2,-2,-1,-1,-6,11.89
2379,6,0,0,-3,-2,-3,-2,2,11.895
2380,0,-4,-3,-2,-1,-1,-2,14,11.9
2381,6,1,-3,-3,-2,-1,1,-14,11.905
2382,-9,-1,-1,-3,-1,-1,-2,-6,11.91
2383,-5,0,2,0,0,0,-1,-6,11.915000000000001
2384,-5,-2,1,-1,-1,0,0,-4,11.92
2385,0,0,-1,-1,0,-2,-2,0,11.925
2386,0,-1,3,-1,-2,-1,3,7,11.93
2387,2,1,0,2,-2,0,-1,1,11.935
2388,1,1,0,3,0,0,-3,-4,11.94
2389,8,-3,-2,1,1,-1,0,0,11.945
2390,-4,0,-3,-1,1,-1,-1,-9,11.950000000000001
2391,3,-3,0,0,-2,0,1,27,11.955
2392,19,0,-3,-3,-2,-1,0,4,11.96
2393,-5,-1,-2,-1,-2,-1,-1,7,11.965
2394,4,-2,1,1,-1,0,0,4,11.97
2395,-5,-2,2,-1,0,1,-2,-12,11.975
2396,-5,0,-1,-3,-2,-2,-2,-2,11.98
2397,-4,2,0,-2,0,-1,1,5,11.985
2398,3,-1,-1,0,0,0,-3,-14,11.99
2399,1,2,0,-1,-1,1,0,0,11.995000000000001
2400,-11,-2,-1,3,0,-1,-1,-10,12.0
2401,3,-4,-2,-2,-2,-1,0,-10,12.005
2402,-6,0,-1,1,-1,-2,-2,0,12.01
2403,-1,0,-2,-1,-3,-1,-1,4,12.015
2404,2,1,2,0,2,1,-1,0,12.02
2405,0,2,-3,-2,-3,0,0,4,12.025
2406,-7,-7,-5,-2,-1,-1,0,3,12.030000000000001
2407,2,1,0,-1,-2,-2,-1,-14,12.035
2408,2,4,1,-4,-1,0,-1,4,12.040000000000001
2409,1,-3,-3,-1,0,0,1,10,12.045
2410,-10,0,0,-1,-1,-1,-1,-4,12.05
2411,-2,-1,-6,-1,-1,0,1,-5,12.055
2412,-4,-3,2,0,-1,-2,-2,-5,12.06
2413,-7,-2,-1,-1,0,0,-2,-3,12.065
2414,7,6,7,1,-1,-1,1,12,12.07
2415,-12,-7,-3,0,1,-1,-1,-7,12.075000000000001
2416,1,2,-1,1,0,0,-3,-13,12.08
2417,-2,-1,0,1,1,3,1,1,12.085
2418,-13,-3,-3,-2,-3,-1,-1,-19,12.09
2419,-4,0,1,-1,-1,0,-2,-4,12.095
2420,7,-3,-5,-1,-3,0,4,10,12.1
2421,1,1,1,0,0,-2,0,0,12.105
2422,-1,0,-3,-2,-2,1,-2,6,12.11
2423,-4,-2,0,-1,2,1,-1,-12,12.115
2424,-2,-4,0,1,0,1,-1,-5,12.120000000000001
2425,-1,-2,1,-1,-2,0,2,8,12.125
2426,1,-2,2,0,0,-2,-1,-4,12.13
2427,-4,-1,-3,-4,-3,-2,-2,-1,12.135
2428,-1,0,0,3,2,2,0,0,12.14
2429,3,1,0,-1,-3,-2,-1,10,12.145
2430,-6,-5,-11,-2,0,-1,-3,-15,12.15
2431,0,0,10,3,1,0,1,4,12.155000000000001
2432,-6,-4,-2,0,-2,0,1,2,12.16
2433,-4,1,0,-1,-2,-2,-4,-13,12.165000000000001
2434,10,-2,-3,-3,-1,1,0,-1,12.17
2435,-13,2,1,0,-1,0,-2,-9,12.175
2436,-13,0,-2,-4,-4,-4,-3,-8,12.18
2437,7,2,-3,2,4,2,2,5,12.185
2438,4,1,2,-1,0,-2,-2,8,12.19
2439,6,-1,-1,1,0,0,-1,5,12.195
2440,-10,-5,-1,-3,-1,0,0,-5,12.200000000000001
2441,-6,-2,-2,0,-2,-2,-4,-8,12.205
2442,8,6,2,-2,0,2,1,14,12.21
2443,19,-5,-1,0,-1,-2,1,3,12.215
2444,-23,-5,-6,-4,-1,-2,0,-6,12.22
2445,8,-2,-1,-3,-2,-2,0,8,12.225
2446,9,0,2,0,-1,-1,-3,-5,12.23
2447,1,3,-1,-1,1,-2,0,-6,12.235
2448,7,-1,-1,1,0,-3,-3,12,12.24
2449,1,2,-1,-5,-2,0,-1,-6,12.245000000000001
2450,-11,-3,-3,-2,0,1,2,10,12.25
2451,0,-4,-5,-1,0,-1,-3,-3,12.255
2452,3,0,-1,-1,0,0,0,-4,12.26
2453,-1,-2,2,3,2,0,2,1,12.265
2454,-5,0,1,2,-3,-2,-1,-5,12.27
2455,8,3,2,-1,-2,0,-3,0,12.275
2456,7,-1,0,-1,-1,1,2,5,12.280000000000001
2457,-5,-6,1,-1,0,-2,-4,-8,12.285
2458,-3,-2,-3,-2,-2,-1,0,3,12.290000000000001
2459,0,0,-2,0,1,-1,-2,-7,12.295
2460,1,1,1,-1,-1,-1,2,2,12.3
2461,1,0,-1,0,0,2,-3,6,12.305
2462,-16,-2,-3,-2,1,-1,-1,-9,12.31
2463,-6,-2,-1,0,-2,-1,-1,-6,12.315
2464,7,-1,0,-1,-1,0,0,11,12.32
2465,-8,-1,1,-1,-1,-1,-3,-9,12.325000000000001
2466,4,2,3,4,2,4,-1,-4,12.33
2467,-5,0,-1,-4,-5,-2,0,9,12.335
2468,0,-6,-1,0,0,0,-3,-17,12.34
2469,7,5,-3,-3,-1,-1,3,10,12.345
2470,-7,-2,3,3,1,0,-4,-22,12.35
2471,-2,-3,-7,-4,1,0,2,19,12.355
2472,22,-1,-2,0,-1,-2,-1,8,12.36
2473,6,0,0,2,1,0,1,-7,12.365
2474,-7,-1,-1,-2,-1,-2,0,-8,12.370000000000001
2475,-7,-2,1,-1,1,1,0,-9,12.375
2476,8,0,0,1,-2,-1,-1,15,12.38
2477,4,-3,-3,0,-1,-1,-2,7,12.385
2478,0,-2,-4,-3,-2,-4,0,8,12.39
2479,-1,-7,-3,-4,-2,-1,0,5,12.395
2480,-14,1,0,-1,1,0,-3,-19,12.4
2481,6,-5,-2,-2,-3,-2,-2,4,12.405000000000001
2482,-2,-1,-1,-2,-4,-1,-1,1,12.41
2483,7,3,1,1,-1,-2,0,0,12.415000000000001
2484,-11,-3,-4,-1,1,-1,-2,-7,12.42
2485,-2,3,0,-1,-1,-2,0,0,12.425
2486,6,1,1,-1,-1,-1,0,1,12.43
2487,-2,-1,1,2,1,0,-1,0,12.435
2488,-1,-1,-1,-2,-1,0,0,4,12.44
2489,-6,4,1,-2,0,-2,-1,-6,12.445
2490,1,-1,-2,-1,-1,-3,0,5,12.450000000000001
2491,0,3,0,0,0,1,1,0,12.455
2492,-14,-3,-6,-2,-2,-1,-2,-9,12.46
2493,5,-1,-6,-1,-2,0,2,3,12.465
2494,-1,2,4,0,0,0,-1,7,12.47
2495,6,2,1,1,-1,0,1,-1,12.475
2496,-6,-2,2,1,-2,-1,-1,-5,12.48
2497,-11,-5,-4,-4,1,-1,-2,-2,12.485
2498,3,-1,-3,0,-2,0,-1,2,12.49
2499,-5,-4,2,3,0,1,-2,-3,12.495000000000001
2500,3,1,-3,-3,-1,-1,0,2,12.5
2501,-5,0,3,-1,-1,1,1,-1,12.505
2502,3,-4,-4,-3,-1,0,-1,0,12.51
2503,-2,0,3,1,-1,1,-1,-3,12.515
2504,-1,0,-1,0,0,-1,0,-2,12.52
2505,-6,-2,-5,-17,-8,-1,-1,-3,12.525
2506,-1,-3,6,27,11,1,0,-5,12.530000000000001
2507,1,1,-5,0,-1,-2,0,3,12.535
2508,-4,-2,5,4,0,-1,1,-3,12.540000000000001
2509,-4,1,3,-1,-3,-1,-2,-3,12.545
2510,2,1,-6,-15,-5,-1,-1,3,12.55
2511,-3,-6,-3,1,-1,-3,-1,-1,12.555
2512,0,0,-2,-1,3,1,0,0,12.56
2513,-2,2,-2,7,-1,-2,1,0,12.565
2514,-2,-4,-7,-27,-12,-3,-2,-1,12.57
2515,-4,-4,-1,-1,-3,-1,-2,-1,12.575000000000001
2516,0,3,1,3,4,2,0,-1,12.58
2517,-1,-3,0,2,-1,0,-1,-1,12.585
2518,3,3,0,1,2,-2,1,2,12.59
2519,1,-1,-4,-19,-7,-3,0,-1,12.595
2520,-8,-7,1,4,-5,-3,-1,0,12.6
2521,2,1,4,12,7,1,1,-2,12.605
2522,-2,-1,-1,-3,-2,-2,-2,-3,12.61
2523,2,0,-3,-2,0,-1,-1,-1,12.615
2524,2,5,1,-1,1,1,0,0,12.620000000000001
2525,-2,-3,-2,1,-3,-2,-2,0,12.625
2526,-3,-4,-1,1,0,0,0,-2,12.63
2527,-1,0,-1,0,0,-1,0,0,12.635
2528,1,-1,-3,0,-3,-2,-2,-1,12.64
2529,-2,-4,-5,-5,-2,-1,-2,-1,12.645
2530,1,2,2,4,1,1,0,-1,12.65
2531,-2,-3,-2,1,0,0,0,0,12.655000000000001
2532,0,-2,2,-3,-2,0,-2,0,12.66
2533,1,1,1,-2,0,-1,0,-1,12.665000000000001
2534,1,3,4,4,2,1,1,0,12.67
2535,-2,-2,-6,-3,-1,-1,-2,-2,12.675
2536,1,1,-3,-4,-1,-2,-1,-1,12.68
2537,1,-2,0,-2,-1,-1,-1,-3,12.685
2538,0,3,0,2,-1,0,0,1,12.69
2539,0,-1,-1,-2,-1,0,-1,0,12.695
2540,0,0,-1,-4,2,0,-1,0,12.700000000000001
2541,-2,0,-1,-2,-2,-1,-1,-2,12.705
2542,0,0,0,8,1,0,-1,0,12.71
2543,0,-3,0,7,0,-1,-1,-1,12.715
2544,1,2,-3,-1,-3,0,0,0,12.72
2545,3,1,2,2,2,1,0,0,12.725
2546,-11,-9,-5,-4,-2,-2,-2,-4,12.73
2547,0,0,-1,-2,1,-1,0,-1,12.735
2548,3,4,0,-1,-1,-1,-1,0,12.74
2549,0,-1,-2,-1,-3,-2,1,-1,12.745000000000001
2550,0,-1,-1,-6,-1,-2,-1,-2,12.75
2551,-2,0,-1,6,0,0,0,-1,12.755
2552,-2,1,1,-1,-2,-1,2,2,12.76
2553,-1,-4,1,-3,-3,-3,-1,0,12.765
2554,3,-2,-3,3,0,0,0,-1,12.77
2555,-1,1,4,1,-3,-1,-1,0,12.775
2556,0,-3,-6,-10,-1,-2,-3,-2,12.780000000000001
2557,-2,1,0,10,1,-2,-1,1,12.785
2558,0,-2,-2,-1,-1,0,-3,-1,12.790000000000001
2559,-2,-2,-5,-8,-3,-1,-3,-1,12.795
2560,-1,-2,-2,3,-1,-1,0,-1,12.8
2561,-1,-2,-2,-7,-2,0,-2,-1,12.805
2562,2,1,3,3,1,-1,1,1,12.81
2563,1,2,-1,0,1,-1,-1,-1,12.815
2564,-4,-3,-2,-2,-3,-1,-3,-2,12.82
2565,0,1,-3,-5,-2,1,-1,-1,12.825000000000001
2566,2,2,0,-2,-3,0,-1,-1,12.83
2567,-4,-3,-2,-1,1,-3,-1,-2,12.835
2568,1,-2,-1,3,2,-1,1,-1,12.84
2569,1,0,1,0,-1,0,-2,-1,12.845
2570,0,-2,-1,-4,1,0,-3,0,12.85
2571,-1,0,-1,4,0,1,1,-1,12.855
2572,-1,0,-2,0,-5,-2,-1,-2,12.86
2573,-3,-2,-5,-5,-1,-2,-2,-2,12.865
2574,2,3,3,6,0,0,1,-1,12.870000000000001
2575,-1,-7,-5,1,2,-1,-2,-1,12.875
2576,-1,-1,0,-7,-2,-1,0,-2,12.88
2577,1,-4,-1,8,4,0,0,0,12.885
2578,-5,-3,-3,-5,-4,-1,0,-1,12.89
2579,0,2,3,-2,-1,0,-1,0,12.895
2580,1,0,0,0,-3,-1,-2,-1,12.9
2581,0,-3,-2,-4,-2,0,1,0,12.905000000000001
2582,-3,-4,-4,-5,-5,-2,-1,0,12.91
2583,1,0,-2,-1,-4,0,1,0,12.915000000000001
2584,-2,-2,-1,-2,1,0,-1,1,12.92
2585,-1,1,0,-3,-4,-3,-1,-2,12.925
2586,1,1,-3,5,-1,-1,-2,-1,12.93
2587,-1,-3,-1,-4,-1,0,-2,-2,12.935
2588,2,1,2,2,1,0,0,-1,12.94
2589,-3,-4,-4,-3,-2,0,-3,-1,12.945
2590,0,-1,-2,-4,-2,0,-1,-1,12.950000000000001
2591,1,1,-1,-1,-1,-1,-2,-2,12.955
2592,0,-3,-3,-5,-1,0,-1,0,12.96
2593,-1,1,1,3,1,-1,-1,-1,12.965
2594,-2,-2,-1,-4,0,0,0,0,12.97
2595,0,1,2,-2,-1,-1,1,0,12.975
2596,-1,-1,1,1,0,-1,-2,-2,12.98
2597,0,0,-2,-1,-2,-1,0,-1,12.985
2598,-2,-4,-1,0,0,0,-2,-3,12.99
2599,0,2,0,-1,0,0,0,0,12.995000000000001
2600,-1,0,-2,1,1,-1,1,0,13.0
2601,-1,0,0,-2,-1,-2,-1,-1,13.005
2602,0,3,1,3,0,0,1,0,13.01
2603,-5,-3,-1,-1,-1,2,0,-1,13.015
2604,-2,-7,-2,2,-1,-1,0,-3,13.02
2605,-2,-4,-2,-4,-3,-2,-2,0,13.025
2606,-3,-5,-2,6,2,0,-1,0,13.030000000000001
2607,1,1,0,-1,0,-2,-2,0,13.035
2608,0,1,-2,-1,-2,-3,-3,0,13.040000000000001
2609,-1,-2,0,-4,3,2,-1,-2,13.045
2610,-3,-4,-1,1,-2,-2,1,0,13.05
2611,0,3,-5,-11,-2,0,0,0,13.055
2612,-3,0,2,14,2,-2,0,-3,13.06
2613,-1,0,-2,1,0,0,0,0,13.065
2614,-1,0,-2,-7,-2,-1,-1,0,13.07
2615,1,-2,0,-2,-2,-1,-2,-1,13.075000000000001
2616,2,4,1,8,1,2,-1,1,13.08
2617,-2,0,-1,-1,0,-2,-1,0,13.085
2618,-1,-1,-1,-1,0,-1,0,-2,13.09
2619,-1,-1,-2,-2,-1,-1,-1,1,13.095
2620,-3,-2,-1,-6,-2,0,-2,-2,13.1
2621,0,1,0,6,0,1,1,0,13.105
2622,3,3,0,-4,0,-1,0,-1,13.11
2623,-6,-5,-4,-6,-4,-3,-2,-3,13.115
2624,0,-2,-2,0,1,-3,0,0,13.120000000000001
2625,-3,-3,2,-1,-2,-2,-1,-1,13.125
2626,-1,-1,-4,-4,-3,-2,0,0,13.13
2627,2,7,2,5,1,-1,0,1,13.135
2628,-1,-1,-2,-2,-1,-1,-1,0,13.14
2629,-1,1,1,-4,-2,-1,1,0,13.145
2630,0,1,2,2,-1,-2,-2,0,13.15
2631,-1,-5,-5,-3,-2,-1,0,-1,13.155000000000001
2632,0,-1,-3,1,0,-2,0,0,13.16
2633,0,-1,0,-4,0,-1,-1,0,13.165000000000001
2634,-1,3,2,6,0,0,-1,0,13.17
2635,-1,-2,-2,4,0,-2,-2,-1,13.175
2636,1,1,1,-4,-1,0,0,-2,13.18
2637,0,0,-1,1,0,0,0,-1,13.185
2638,-1,0,0,-3,-1,-2,0,-1,13.19
2639,0,-2,0,2,-1,-3,-1,1,13.195
2640,2,0,0,-4,-2,-1,1,0,13.200000000000001
2641,0,3,2,-1,-2,-1,-1,1,13.205
2642,-1,-4,-4,4,3,-1,-2,-3,13.21
2643,3,3,2,1,-1,-2,1,0,13.215
2644,-5,-9,-5,-4,-1,0,0,-2,13.22
2645,-1,0,-3,-1,0,-1,-2,-1,13.225
2646,0,0,0,-2,-1,-2,-1,-1,13.23
2647,-2,2,2,0,1,0,-1,-2,13.235
2648,3,2,1,-1,-2,-1,-2,1,13.24
2649,-4,-3,-3,-1,0,-1,-1,-4,13.245000000000001
2650,0,-6,-3,-2,0,-1,-1,0,13.25
2651,0,-2,-2,0,-1,0,1,0,13.255
2652,-1,1,0,-4,-3,-1,-1,0,13.26
2653,-1,-2,1,1,-1,-2,-1,-1,13.265
2654,-1,0,-1,-6,-2,0,0,-3,13.27
2655,-3,-1,-2,1,0,-2,0,-2,13.275
2656,-1,-1,-3,-2,1,-1,-2,0,13.280000000000001
2657,3,1,-1,0,-3,-1,-1,3,13.285
2658,-2,-2,0,1,-2,-2,-1,-1,13.290000000000001
2659,-1,-2,-2,4,2,-1,0,-2,13.295
2660,-2,-1,-1,-1,-1,0,-1,-1,13.3
2661,0,-2,-1,0,-1,0,-2,-2,13.305
2662,0,1,1,-10,-4,-2,-1,0,13.31
2663,1,1,-1,2,1,2,1,0,13.315
2664,0,-2,-2,0,-1,-2,-2,1,13.32
2665,-1,-1,-1,3,0,-1,0,1,13.325000000000001
2666,0,1,0,-2,-2,0,-1,1,13.33
2667,-1,-2,2,-3,-1,1,-2,-2,13.335
2668,-1,1,-3,-2,-1,0,0,-1,13.34
2669,-1,-1,-1,-2,-1,2,0,-1,13.345
2670,2,2,0,3,1,-2,0,-1,13.35
2671,-2,-1,-2,-1,-1,-1,-2,1,13.355
2672,0,-2,0,2,0,0,-3,-1,13.36
2673,2,3,1,0,2,-2,0,0,13.365
2674,-4,-3,-6,-2,0,2,0,-2,13.370000000000001
2675,-1,-3,-1,0,0,0,-1,-2,13.375
2676,4,4,1,-2,-3,-2,-1,-1,13.38
2677,-2,-3,-1,-2,0,0,0,-1,13.385
2678,0,1,0,-3,-2,-1,-1,-2,13.39
2679,0,0,1,2,0,0,-1,-1,13.395
2680,-3,-3,-1,-4,-3,-1,-1,-2,13.4
2681,2,1,-1,3,0,-1,0,-2,13.405000000000001
2682,-1,-1,-1,3,0,-1,0,-2,13.41
2683,1,1,-1,-3,-2,-1,0,-1,13.415000000000001
2684,-1,4,2,-1,-1,-1,-1,2,13.42
2685,-4,-5,-5,-8,-1,-1,-2,-1,13.425
2686,0,0,1,1,1,1,1,-1,13.43
2687,0,0,-1,0,-1,-1,0,-1,13.435
2688,-1,-4,-2,0,0,0,0,-1,13.44
2689,-4,-3,-3,-1,-2,-1,-2,-2,13.445
2690,1,0,-3,-2,-1,-2,-2,0,13.450000000000001
2691,-1,-3,-2,-1,-3,-1,-1,-1,13.455
2692,-3,0,1,6,2,0,0,-2,13.46
2693,-1,-2,-1,1,0,0,-1,1,13.465
2694,-1,0,0,-1,0,-1,-1,1,13.47
2695,-3,0,-1,-4,-4,-1,-2,-1,13.475
2696,-4,-4,-2,-2,-3,0,-1,-2,13.48
2697,-1,-4,0,1,1,0,-1,-2,13.485
2698,3,3,3,0,-1,-1,1,0,13.49
2699,-4,-5,-2,-2,-2,0,-1,-1,13.495000000000001
2700,-1,-2,-3,6,2,0,-1,0,13.5
2701,6,3,0,-1,-1,-2,-1,0,13.505
2702,-4,-3,1,0,-1,0,-1,-1,13.51
2703,-2,-4,-4,-9,-4,-2,-1,-1,13.515
2704,-5,-4,-4,2,-2,0,-3,-1,13.52
2705,0,0,2,1,0,1,0,-1,13.525
2706,3,3,-1,2,2,0,0,1,13.530000000000001
2707,3,1,3,1,1,1,-1,-1,13.535
2708,-1,-2,2,-4,-4,-2,-2,-1,13.540000000000001
2709,-1,-2,-4,0,0,-1,-2,0,13.545
2710,-1,0,0,-2,-1,0,-1,-3,13.55
2711,0,2,0,0,-2,-1,0,0,13.555
2712,-2,-4,-1,-4,0,-1,0,0,13.56
2713,-1,1,1,-3,-3,-1,0,0,13.565
2714,-2,-2,-1,2,0,1,0,-1,13.57
2715,0,0,0,1,-1,0,0,-1,13.575000000000001
2716,3,2,-1,-3,-1,-1,-1,-1,13.58
2717,-4,-3,-2,-3,-3,-2,-1,-3,13.585
2718,-1,-1,-2,-3,0,-1,0,0,13.59
2719,0,0,-1,0,1,-1,-3,0,13.595
2720,0,1,-2,-2,-2,0,0,-2,13.6
2721,0,5,1,0,2,1,0,-1,13.605
2722,-2,-6,-2,1,-5,-2,-2,-4,13.61
2723,-1,-3,-3,-5,1,0,-1,0,13.615
2724,-1,-1,-2,-3,0,0,1,0,13.620000000000001
2725,-2,-1,-1,0,-1,-1,-1,-1,13.625
2726,1,3,1,-3,-2,1,-3,2,13.63
2727,-3,-1,2,11,2,1,-1,-1,13.635
2728,3,-3,-5,-6,-2,-1,0,1,13.64
2729,-5,-1,1,0,0,0,1,-3,13.645
2730,1,-1,-4,-2,0,-1,0,1,13.65
2731,1,0,1,-2,-4,-1,-1,0,13.655000000000001
2732,-4,2,1,0,-2,-2,0,0,13.66
2733,3,2,3,3,-2,-1,-1,-1,13.665000000000001
2734,-3,-5,-3,-4,-2,-2,-1,-1,13.67
2735,-2,-2,0,-1,1,-1,0,1,13.675
2736,2,1,-1,-1,-2,-1,-1,-3,13.68
2737,-1,-2,-3,-3,-1,-2,-1,1,13.685
2738,-3,0,-2,1,-2,0,-1,-2,13.69
2739,-2,-6,-1,0,-1,0,0,-2,13.695
2740,-2,1,0,-2,0,0,-1,0,13.700000000000001
2741,-1,-1,-2,-2,-1,1,-2,0,13.705
2742,3,5,2,0,0,0,0,0,13.71
2743,0,0,0,-2,-1,-1,0,0,13.715
2744,-3,-2,0,2,1,0,1,0,13.72
2745,-1,-2,-3,0,-2,-1,-1,-1,13.725
2746,-3,-1,-2,-2,0,-1,-1,-1,13.73
2747,-1,1,-1,-2,-1,0,-2,-1,13.735
2748,-1,0,-1,2,0,0,-2,0,13.74
2749,2,1,1,-1,0,0,-1,0,13.745000000000001
2750,-1,-5,-3,1,-1,0,-1,-3,13.75
2751,-3,-3,-3,-12,-2,-2,-1,-1,13.755
2752,-1,-6,-2,8,0,0,-1,-1,13.76
2753,0,-2,-2,4,1,-1,0,0,13.765
2754,-2,-2,0,-6,-3,-1,-1,1,13.77
2755,-2,-2,-1,8,2,0,-2,-2,13.775
2756,1,2,1,-2,-3,-2,1,1,13.780000000000001
2757,-2,-2,-3,-5,-2,1,0,1,13.785
2758,-1,-1,-2,2,-2,-1,0,1,13.790000000000001
2759,2,6,1,-2,-1,1,0,-1,13.795
2760,-2,-1,0,1,1,0,-1,-2,13.8
2761,0,-1,-1,0,-1,0,-1,-3,13.805
2762,-2,0,-1,-3,-1,-1,-1,0,13.81
2763,0,1,-3,1,0,-1,0,1,13.815
2764,-2,-3,-2,-4,-2,-1,0,0,13.82
2765,-3,-4,1,0,-1,-2,0,-3,13.825000000000001
2766,0,-1,-3,1,-1,-2,0,-1,13.83
2767,0,-3,-2,1,-1,0,-2,-1,13.835
2768,-1,-1,0,-2,0,1,-1,-3,13.84
2769,1,0,-4,-2,-2,-1,-2,1,13.845
2770,-1,-3,-1,1,0,0,-1,-2,13.85
2771,-2,-1,-2,-1,-2,-2,-1,0,13.855
2772,-2,-2,1,-2,-1,-1,-1,0,13.86
2773,-2,-1,0,-2,-1,0,0,0,13.865
2774,-1,-1,2,-4,-1,-4,-1,-2,13.870000000000001
2775,2,0,-4,1,2,-1,-1,1,13.875
2776,2,-1,0,-1,0,-1,-1,-1,13.88
2777,-2,-1,-1,-1,-1,0,-1,1,13.885
2778,4,1,0,-2,-1,0,0,-1,13.89
2779,-2,-2,0,0,-1,1,1,0,13.895
2780,0,1,1,-2,-1,0,-1,-1,13.9
2781,-1,-4,-3,-1,0,-2,-2,-2,13.905000000000001
2782,-1,1,1,3,1,1,0,-1,13.91
2783,2,0,-1,1,-1,-1,-2,-2,13.915000000000001
2784,-2,2,0,4,4,1,1,0,13.92
2785,-1,-1,2,1,-1,-3,-2,0,13.925
2786,0,-2,-3,-1,-1,-1,0,-1,13.93
2787,-2,1,0,-1,-1,-1,1,-1,13.935
2788,1,1,-2,-3,-2,0,-2,0,13.94
2789,-2,3,1,0,1,1,0,-2,13.945
2790,0,-2,-3,0,-1,-1,0,0,13.950000000000001
2791,-5,-3,1,-2,-1,-2,-2,-2,13.955
2792,0,-1,0,-3,-2,-3,-2,-3,13.96
2793,0,0,-4,-2,-1,-2,-2,-1,13.965
2794,-2,-2,-1,-4,-1,0,-1,-1,13.97
2795,2,0,1,4,-1,0,0,1,13.975
2796,-1,-2,-2,-4,-1,-1,1,-1,13.98
2797,0,-2,-1,-3,-2,0,0,0,13.985
2798,-2,-3,-2,-1,0,-1,-2,0,13.99
2799,0,0,0,5,1,0,0,-1,13.995000000000001
2800,-4,-3,-2,1,-2,-1,-1,-2,14.0
2801,1,1,1,-2,0,0,1,1,14.005
2802,-4,-1,-2,0,-2,-2,-1,1,14.01
2803,1,-2,-2,-4,2,-1,1,1,14.015
2804,-4,-3,-3,-1,0,0,-2,0,14.02
2805,-2,-3,-1,0,-1,-1,0,-3,14.025
2806,1,1,-1,-1,0,0,-1,0,14.030000000000001
2807,-1,-1,-2,-3,-1,0,-1,0,14.035
2808,0,2,5,5,-2,-1,1,-2,14.040000000000001
2809,1,-1,-3,-7,0,0,-1,-1,14.045
2810,-2,-1,-1,2,-2,-1,-1,-1,14.05
2811,0,1,0,-6,-3,-1,-1,-1,14.055
2812,-2,-6,-3,-5,-2,-1,0,-2,14.06
2813,-2,1,4,11,3,-1,1,1,14.065
2814,-1,1,0,1,-1,1,1,-2,14.07
2815,-2,-1,-2,-2,0,-2,0,-3,14.075000000000001
2816,2,1,-1,-3,-2,-2,-1,1,14.08
2817,2,2,2,-1,-2,1,0,0,14.085
2818,-2,-3,-3,1,2,0,-1,-2,14.09
2819,2,0,0,-2,-1,-1,-1,-1,14.095
2820,-2,-2,-3,-1,-1,-1,-1,-3,14.1
2821,-1,-1,-3,-6,-2,-1,0,-2,14.105
2822,2,4,0,5,1,-1,0,1,14.11
2823,2,1,-1,-2,-1,-2,1,2,14.115
2824,0,3,0,1,0,-1,-1,1,14.120000000000001
2825,-1,-2,-3,1,-3,-1,0,0,14.125
2826,-4,-4,-1,-4,-2,0,-1,0,14.13
2827,-1,-1,-4,-1,-1,1,-3,-3,14.135
2828,0,1,0,0,1,0,1,0,14.14
2829,0,0,-1,-2,-2,-1,-1,-2,14.145
2830,-3,-2,-1,-5,-1,0,-1,0,14.15
2831,-4,-2,0,4,0,-1,-2,-1,14.155000000000001
2832,0,-4,-4,-2,0,-2,-3,-1,14.16
2833,-3,-4,-2,-1,0,-3,-2,-2,14.165000000000001
2834,1,1,1,1,-1,-1,1,-1,14.17
2835,-2,-1,-1,-4,-2,-1,1,0,14.175
2836,-2,-2,1,1,2,2,0,0,14.18
2837,0,0,0,0,0,0,-1,-2,14.185
2838,2,5,0,0,-1,-1,0,1,14.19
2839,-4,-6,-1,-2,-1,-2,-1,-2,14.195
2840,0,1,-3,-1,-2,-2,-5,-1,14.200000000000001
2841,-1,-2,-2,0,0,1,-1,-1,14.205
2842,0,-2,-1,1,-2,-1,-1,-2,14.21
2843,1,-1,-1,-2,-2,-2,0,-2,14.215
2844,-2,-3,-2,-7,-2,-3,-1,-1,14.22
2845,0,4,1,6,-1,-2,0,0,14.225
2846,-1,-2,-3,-7,-1,-1,-1,-3,14.23
2847,-1,-2,-1,5,0,0,-2,-1,14.235
2848,2,0,0,-3,1,-1,0,0,14.24
2849,0,-3,-3,-2,0,0,0,-1,14.245000000000001
2850,0,1,0,-1,-1,0,-1,-2,14.25
2851,-1,-2,0,0,-1,0,0,1,14.255
2852,-1,1,0,1,-1,1,1,-2,14.26
2853,-2,-2,0,-2,-3,0,-1,0,14.265
2854,-2,-2,0,4,2,0,-1,-1,14.27
2855,1,0,-2,-4,-2,0,-2,-2,14.275
2856,3,6,2,2,-2,-1,1,-1,14.280000000000001
2857,-4,-8,-5,-7,-1,-3,-2,-1,14.285
2858,2,-2,-5,-2,-1,-2,-1,0,14.290000000000001
2859,-1,1,-2,2,1,0,0,0,14.295
2860,1,1,-2,-1,-2,0,-2,0,14.3
2861,-1,1,1,0,1,0,0,-1,14.305
2862,1,0,0,-1,-1,0,-3,-2,14.31
2863,0,-1,-2,-2,-1,0,-1,-1,14.315
2864,-3,-3,-3,-2,-2,0,-1,-2,14.32
2865,0,4,1,2,-2,-1,-1,0,14.325000000000001
2866,-3,-6,-2,-1,0,-1,1,-1,14.33
2867,0,-1,-1,-2,-2,0,-1,0,14.335
2868,0,0,0,-1,0,0,-1,0,14.34
2869,0,0,2,1,-1,-1,0,-1,14.345
2870,-2,-1,-2,-3,-1,-2,1,-3,14.35
2871,-2,2,-1,-4,-1,-2,-1,-2,14.355
2872,-4,-4,1,3,0,-2,-1,-2,14.36
2873,-4,-5,-1,-1,-1,0,-1,-2,14.365
2874,1,2,0,-2,-3,0,0,0,14.370000000000001
2875,-1,-2,-2,-2,-2,0,-1,-1,14.375
2876,-1,-1,-1,-2,-2,-1,0,-1,14.38
2877,3,-1,-2,-2,0,-1,0,-2,14.385
2878,-2,-2,-2,-4,-3,-1,-2,-3,14.39
2879,-1,-2,1,1,-3,-2,-1,0,14.395
2880,0,-2,-3,1,1,0,1,0,14.4
2881,0,-2,-1,0,0,0,-1,-3,14.405000000000001
2882,-2,-1,0,-1,-1,-1,-1,-1,14.41
2883,0,1,1,0,-1,0,-1,1,14.415000000000001
2884,3,0,1,-1,-2,-2,-1,0,14.42
2885,-7,2,1,-2,-1,-5,0,-1,14.425
2886,0,-1,-4,1,-1,-2,0,0,14.43
2887,-2,-2,-4,-3,0,-1,-2,-1,14.435
2888,-2,-2,0,0,-1,0,1,0,14.44
2889,2,3,-1,-1,0,2,-1,1,14.445
2890,0,-1,1,3,-1,-1,-2,1,14.450000000000001
2891,-2,1,1,-1,0,-1,1,0,14.455
2892,2,3,-3,4,2,-1,0,0,14.46
2893,-2,-4,1,-6,-5,-1,-1,-2,14.465
2894,-2,-6,-3,4,2,0,0,0,14.47
2895,-1,-2,-1,0,-1,-1,0,0,14.475
2896,-4,-2,-2,-1,-2,-2,0,-4,14.48
2897,0,0,-1,0,-2,0,0,-1,14.485
2898,0,1,0,-2,0,-1,2,-1,14.49
2899,0,0,-1,-1,-1,-1,-1,-2,14.495000000000001
2900,0,-1,0,-5,-1,-2,-2,0,14.5
2901,2,3,0,6,0,-1,-2,0,14.505
2902,-1,-1,1,2,0,1,0,0,14.51
2903,-1,-2,-3,-1,2,1,-1,-1,14.515
2904,-2,-3,-1,-1,1,0,-1,-1,14.52
2905,1,-1,-2,-4,-2,0,-1,-1,14.525
2906,0,0,0,-3,-2,-2,-2,-1,14.530000000000001
2907,-1,1,1,4,-1,0,0,0,14.535
2908,-1,-2,-2,1,1,-1,0,-2,14.540000000000001
2909,-1,-2,0,-1,-1,-1,-1,-2,14.545
2910,5,3,2,0,-2,-1,-1,0,14.55
2911,-9,-5,-3,-3,-3,-3,0,-1,14.555
2912,-1,0,0,-3,-2,0,-1,-1,14.56
2913,-1,-1,-2,-3,-2,0,2,0,14.565
2914,0,1,-1,-1,0,-2,-1,-1,14.57
2915,4,3,1,-1,-2,-1,-2,-1,14.575000000000001
2916,-1,1,1,0,-2,1,-2,0,14.58
2917,0,-2,-2,-3,-1,-1,-1,-1,14.585
2918,-2,0,-2,-1,0,-2,-1,-2,14.59
2919,3,1,-1,0,1,0,1,1,14.595
2920,-1,-1,-2,0,-1,-2,-1,0,14.6
2921,0,-1,0,2,-2,-1,0,-1,14.605
2922,0,2,-2,-2,1,-1,-1,1,14.61
2923,0,-3,2,3,-2,0,-1,-2,14.615
2924,1,0,0,0,-2,0,-1,1,14.620000000000001
2925,0,4,1,-1,0,0,1,-1,14.625
2926,-5,-6,-4,-1,-2,0,-1,-4,14.63
2927,0,1,-1,-4,-1,-1,-1,-1,14.635
2928,-1,-2,-1,-2,-1,0,0,0,14.64
2929,-1,-1,-3,-4,-3,0,-2,1,14.645
2930,-1,0,0,0,0,0,1,1,14.65
2931,0,0,-1,1,1,-2,-2,0,14.655000000000001
2932,-2,-2,-1,-3,-2,-2,-1,0,14.66
2933,-1,-2,-4,1,0,0,-2,-2,14.665000000000001
2934,2,0,-1,-2,-4,-1,-2,0,14.67
2935,2,3,2,3,3,1,0,-1,14.675
2936,-5,-4,-3,-1,0,0,0,-2,14.68
2937,1,-1,-1,-1,-1,-1,-1,0,14.685
2938,-1,0,-1,-1,-3,0,1,0,14.69
2939,-1,-2,1,0,-2,-2,-1,-2,14.695
2940,1,-1,-3,-4,0,-1,0,-2,14.700000000000001
2941,-1,-3,-4,-2,0,-2,0,-1,14.705
2942,0,-1,0,-1,-2,0,0,1,14.71
2943,-1,0,-2,-8,0,0,0,0,14.715
2944,-1,0,2,8,-1,0,1,-1,14.72
2945,-1,-3,0,0,-2,-3,0,-1,14.725
2946,-2,2,1,2,0,0,1,-2,14.73
2947,-3,-3,-3,-4,-1,-1,0,-1,14.735
2948,0,0,-1,-7,-2,0,0,0,14.74
2949,0,-2,-2,0,2,0,0,2,14.745000000000001
2950,-1,-2,-1,-2,-2,-1,0,-1,14.75
2951,1,2,2,-3,-3,-2,0,-1,14.755
2952,-2,-5,-1,-2,-3,-2,1,-1,14.76
2953,-1,-2,-2,1,1,1,0,0,14.765
2954,-2,-3,0,-3,-1,-2,-2,-1,14.77
2955,-2,-1,-5,-3,-1,-1,-1,-2,14.775
2956,1,3,0,3,-2,-2,-1,0,14.780000000000001
2957,-2,2,-1,-1,-1,-1,2,0,14.785
2958,-2,-4,0,-2,3,-1,-1,-1,14.790000000000001
2959,-1,-1,-3,1,-3,-1,1,0,14.795
2960,2,0,-1,1,0,0,-2,-1,14.8
2961,0,5,5,1,-1,0,-2,-1,14.805
2962,-1,0,-2,-3,-1,0,-1,-2,14.81
2963,-7,-4,-1,6,-1,-1,-1,-1,14.815
2964,0,-1,-1,-4,-1,-2,-2,-2,14.82
2965,2,0,0,-4,0,0,-2,-1,14.825000000000001
2966,-1,1,1,3,2,0,-1,0,14.83
2967,6,-1,-2,-8,-4,-1,-1,-2,14.835
2968,-4,1,0,12,4,1,0,0,14.84
2969,-2,-3,-3,-10,-6,-2,-1,1,14.845
2970,0,-2,0,-1,3,-1,-1,-1,14.85
2971,-2,-2,0,10,1,-2,-1,-1,14.855
2972,3,5,-1,-29,-9,-2,0,0,14.86
2973,-3,-3,-1,11,3,0,0,-2,14.865
2974,1,2,2,16,3,1,1,2,14.870000000000001
2975,-2,-1,-1,-8,-2,-1,-1,1,14.875
2976,0,0,1,17,7,0,0,0,14.88
2977,-2,-2,-3,-5,-3,-2,-3,-2,14.885
2978,0,3,1,-5,-5,-1,-2,-1,14.89
2979,1,-2,1,-3,0,-1,0,-2,14.895
2980,-3,-6,-3,-9,-7,-3,-2,-2,14.9
2981,0,-2,-4,-2,0,-1,1,0,14.905000000000001
2982,0,-1,-3,1,-3,-1,-2,-1,14.91
2983,0,1,1,0,-1,0,-2,-1,14.915000000000001
2984,-1,-2,-5,-2,-2,0,-2,0,14.92
2985,-1,-3,1,4,0,0,0,-1,14.925
2986,-4,-4,-6,-5,-3,-1,-1,-1,14.93
2987,-3,-1,-1,0,-2,0,0,1,14.935
2988,-1,-3,1,2,0,-2,-3,-1,14.94
2989,4,3,0,0,-1,-2,0,-1,14.945
2990,-5,-4,-2,-5,0,-1,0,-1,14.950000000000001
2991,-1,2,-1,0,0,-2,-1,0,14.955
2992,0,0,-1,2,1,-1,1,-1,14.96
2993,-1,1,3,-2,-1,0,0,1,14.965
2994,3,0,-3,-3,0,-1,-1,0,14.97
2995,-2,-1,-2,-2,-1,-2,0,0,14.975
2996,-5,-2,3,3,2,0,-1,0,14.98
2997,1,1,0,-3,-2,-2,-1,0,14.985
2998,-1,2,6,8,1,2,1,0,14.99
2999,-1,-3,-4,-8,1,0,1,0,14.995000000000001
3000,0,0,-1,-1,0,0,1,-3,15.0
3001,-2,-4,-5,-2,0,-1,0,0,15.005
3002,-1,-6,-3,-3,-4,-1,-3,0,15.01
3003,1,2,-1,1,-2,0,-1,-1,15.015
3004,1,1,0,1,-2,0,0,0,15.02
3005,-3,-1,-1,2,0,1,-2,0,15.025
3006,0,-4,-2,-4,-2,-4,-2,-3,15.030000000000001
3007,-3,-2,-1,0,0,1,0,-1,15.035
3008,0,-1,-3,-3,-2,-2,-1,-1,15.040000000000001
3009,-1,0,-2,2,1,2,0,-3,15.045
3010,-2,-2,-1,-1,0,-2,-2,-2,15.05
3011,0,-4,-1,-3,-3,-1,-4,-2,15.055
3012,-3,-3,0,5,1,-2,1,-2,15.06
3013,1,3,1,-2,-1,-3,-2,0,15.065
3014,0,1,-3,5,2,2,1,1,15.07
3015,3,1,0,-2,-1,-1,0,-1,15.075000000000001
3016,-7,-3,0,2,-2,-1,-2,-3,15.08
3017,-2,-7,-3,-6,-1,-1,-1,-1,15.085
3018,1,0,1,-4,-2,0,1,0,15.09
3019,1,0,-1,3,1,-1,-1,0,15.095
3020,1,2,0,-4,-2,1,0,-1,15.1
3021,-1,1,0,0,-1,-2,0,0,15.105
3022,3,-1,1,-2,0,-2,0,-2,15.11
3023,-4,-2,0,-1,-2,-1,-2,-2,15.115
3024,1,1,-1,-5,-2,0,-1,-2,15.120000000000001
3025,0,3,0,3,3,1,1,-1,15.125
3026,-2,-3,-2,-3,-1,-2,-1,0,15.13
3027,-1,-1,-1,1,1,0,0,-1,15.135
3028,0,0,1,0,-1,-2,1,0,15.14
3029,-1,0,0,-2,-3,-1,-2,0,15.145
3030,0,2,0,3,1,0,0,-1,15.15
3031,-7,-3,-2,1,0,-1,-1,-2,15.155000000000001
3032,0,-2,-2,-2,0,-1,-2,0,15.16
3033,0,-1,-2,-4,-2,-1,-1,-2,15.165000000000001
3034,-1,0,0,1,-1,0,2,0,15.17
3035,2,1,-2,-2,-3,-1,-1,1,15.175
3036,0,2,-2,0,-1,-1,0,-1,15.18
3037,0,-1,0,-1,-2,-4,-2,-2,15.185
3038,-5,-5,-3,-4,-4,-3,-2,-1,15.19
3039,2,-2,3,0,2,-1,1,-2,15.195
3040,2,2,0,-1,0,-1,-1,1,15.200000000000001
3041,-3,-6,-4,-1,-1,-2,-2,-2,15.205
3042,1,1,-1,-1,-2,-1,0,-1,15.21
3043,2,-1,-2,-1,0,0,0,-1,15.215
3044,-1,0,0,-5,-9,0,0,0,15.22
3045,1,1,2,6,6,0,-1,0,15.225
3046,-2,-4,-1,0,1,1,-1,-1,15.23
3047,-3,-4,-1,2,1,-1,-1,-2,15.235
3048,0,1,-3,-2,3,-2,-1,-1,15.24
3049,0,-3,-1,-3,-7,-1,-1,-1,15.245000000000001
3050,-1,-2,-4,-3,0,-1,-2,0,15.25
3051,-2,3,0,-7,-3,-1,-1,0,15.255
3052,-1,-2,1,12,2,-1,-1,1,15.26
3053,-2,-3,-2,-3,-1,-1,0,-1,15.265
3054,1,0,2,1,-1,-2,-3,-1,15.27
3055,2,4,-1,-1,0,1,0,0,15.275
3056,-3,-5,-2,-5,0,-1,0,-3,15.280000000000001
3057,-1,-1,-1,0,0,-1,-1,1,15.285
3058,-1,0,0,-4,-2,-1,-1,-1,15.290000000000001
3059,-2,-4,0,1,0,-1,-2,-2,15.295
3060,1,1,-1,-5,-3,-1,-1,0,15.3
3061,-2,0,-1,4,0,-1,1,-1,15.305
3062,0,3,-2,-3,-2,0,0,0,15.31
3063,2,0,2,3,-1,-1,-1,-1,15.315
3064,-4,-7,-5,-6,3,-1,-2,-2,15.32
3065,0,-2,-1,-1,-3,0,-1,-2,15.325000000000001
3066,-2,-3,-3,0,-1,0,-1,1,15.33
3067,-1,-1,0,0,0,0,1,-1,15.335
3068,4,3,-1,0,0,0,-1,-1,15.34
3069,-1,-1,-2,-4,-3,0,0,-2,15.345
3070,-1,-2,-4,-1,2,0,-1,-2,15.35
3071,-3,-2,-2,1,0,-2,-3,0,15.355
3072,2,0,1,1,-2,-1,1,1,15.36
3073,0,0,0,3,2,0,0,0,15.365
3074,-2,1,1,-2,0,-1,1,-1,15.370000000000001
3075,0,0,-3,-2,-1,-1,0,0,15.375
3076,1,2,1,0,-1,0,-1,-1,15.38
3077,-4,-5,-1,-4,-1,-2,0,0,15.385
3078,3,2,1,1,0,-2,0,1,15.39
3079,-2,-3,-4,-2,0,0,1,-1,15.395
3080,-6,-9,-4,0,-4,-2,-2,-3,15.4
3081,1,-1,1,0,-3,0,0,-1,15.405000000000001
3082,-1,-2,-2,-5,-2,-2,0,-1,15.41
3083,1,3,3,1,-1,-1,-1,1,15.415000000000001
3084,1,1,-1,-1,-3,2,-1,1,15.42
3085,-3,-2,0,-1,2,1,0,-1,15.425
3086,-1,-3,-3,-1,-1,-2,-1,-3,15.43
3087,-2,-3,-1,0,-1,-1,0,-1,15.435
3088,-2,-3,-2,-1,0,-1,1,0,15.44
3089,-1,1,-1,-5,-6,-1,-3,1,15.445
3090,0,-1,1,9,2,0,2,-2,15.450000000000001
3091,-1,-4,-3,-1,-4,-1,-1,-2,15.455
3092,-1,1,3,0,0,-1,-1,0,15.46
3093,1,1,-2,1,-1,-1,1,-1,15.465
3094,-1,1,2,-4,-3,-2,-1,0,15.47
3095,-3,-1,-3,-2,-1,0,-2,-1,15.475
3096,1,1,-1,0,-1,-1,0,1,15.48
3097,0,-1,0,-2,-2,0,0,0,15.485000000000001
3098,-1,-2,-1,-4,-3,-1,-3,-1,15.49
3099,-1,1,0,2,-1,-2,0,1,15.495000000000001
3100,-2,-4,-5,-7,0,-2,-1,-1,15.5
3101,0,4,2,0,1,-1,-1,-1,15.505
3102,-1,-4,-5,-2,-2,1,-1,0,15.51
3103,-1,-1,-1,0,0,-1,-1,-1,15.515
3104,0,1,-1,2,-1,0,-1,1,15.52
3105,-3,0,-2,-1,-2,0,0,-2,15.525
3106,-1,-3,-1,-3,-1,-2,-2,-1,15.530000000000001
3107,-1,2,1,-3,-2,0,-1,-1,15.535
3108,1,1,-1,0,-1,0,1,-2,15.540000000000001
3109,-2,-3,-4,-4,-3,-3,-1,-1,15.545
3110,-1,1,4,11,5,1,1,1,15.55
3111,0,-3,-1,0,-2,-1,0,-1,15.555
3112,-2,-1,1,3,2,1,-1,0,15.56
3113,0,-2,-2,-3,-1,0,-1,-1,15.565
3114,1,1,-2,-4,-3,1,-1,-1,15.57
3115,-4,-2,2,1,-2,0,-3,-3,15.575000000000001
3116,1,-1,-4,-3,0,0,0,1,15.58
3117,2,0,-3,-2,-1,-2,-2,-1,15.585
3118,-3,-5,-1,2,2,1,0,-2,15.59
3119,-5,-3,-2,1,2,-1,0,-1,15.595
3120,-1,-1,-1,-2,-1,-1,-1,-2,15.6
3121,-5,-2,0,1,1,0,-2,-1,15.605
3122,4,1,0,-3,-2,-2,0,1,15.610000000000001
3123,3,2,-4,-3,-2,-1,0,0,15.615
3124,-3,-1,-1,1,1,-1,0,0,15.620000000000001
3125,1,3,2,1,-1,-1,0,0,15.625
3126,-1,-3,-7,-6,-3,-2,0,-1,15.63
3127,0,0,2,1,-1,-2,-1,0,15.635
3128,2,1,0,-1,0,-1,-2,-2,15.64
3129,-1,-2,0,-1,1,1,-1,-1,15.645
3130,0,2,1,-4,-3,-1,-2,-1,15.65
3131,1,2,3,3,1,-1,0,-1,15.655000000000001
3132,-1,-5,-6,6,0,-1,1,-2,15.66
3133,0,0,-2,-1,1,1,-1,-1,15.665000000000001
3134,-1,-2,0,-2,-1,-1,-1,-1,15.67
3135,2,0,-3,-4,-2,0,-1,2,15.675
3136,-1,0,3,-1,-1,-1,-1,-2,15.68
3137,0,-1,0,-1,-2,0,0,-2,15.685
3138,-1,0,-3,1,-1,-1,1,-1,15.69
3139,1,-3,-5,-3,0,-1,0,0,15.695
3140,-1,1,2,-1,-1,2,0,-1,15.700000000000001
3141,2,-2,-2,-2,-2,-2,-2,-1,15.705
3142,0,0,0,3,0,0,-2,-1,15.71
3143,1,2,0,0,-1,-2,-2,0,15.715
3144,1,-3,-2,-3,-2,-2,-2,0,15.72
3145,-1,1,2,1,1,1,1,-1,15.725
3146,-3,-4,-5,-6,-2,-3,-1,-1,15.73
3147,-1,-2,-2,-1,-1,1,-1,-1,15.735000000000001
3148,-2,0,1,2,-3,-1,1,-1,15.74
3149,-2,-2,-1,2,2,0,1,-3,15.745000000000001
3150,2,2,2,-2,-1,-1,0,0,15.75
3151,-2,-3,-3,-2,-1,-1,-1,-1,15.755
3152,-2,-2,-1,-5,-1,0,-1,-2,15.76
3153,-2,-3,-2,-3,-3,-2,-3,0,15.765
3154,2,0,0,4,2,0,1,-1,15.77
3155,0,0,0,-5,0,0,-1,0,15.775
3156,-1,-4,-2,3,-1,-3,0,-1,15.780000000000001
3157,0,-1,0,0,-1,-1,0,1,15.785
3158,-1,0,0,1,0,2,-2,0,15.790000000000001
3159,2,1,-2,-1,0,-1,-2,0,15.795
3160,0,0,1,-3,-2,-1,-1,-1,15.8
3161,1,-2,-2,1,0,-1,0,-1,15.805
3162,-1,-1,1,-3,-2,1,0,-1,15.81
3163,-2,-2,0,-2,-1,0,-1,-2,15.815
3164,-2,-1,-2,-2,-2,0,-1,-1,15.82
3165,1,-2,-6,-3,-2,0,-1,1,15.825000000000001
3166,-5,-1,-3,-5,-3,-1,-1,-3,15.83
3167,0,1,2,4,-1,-2,0,-2,15.835
3168,-3,1,-3,-5,-3,-2,0,0,15.84
3169,0,-3,-1,0,-1,-1,-1,-1,15.845
3170,3,2,0,-1,-1,-2,0,1,15.85
3171,-2,-6,-3,-3,-2,-1,-1,-2,15.855
3172,-1,3,-1,0,-2,-2,-2,1,15.860000000000001
3173,-1,-1,0,3,1,-2,-2,-3,15.865
3174,-2,-1,-3,0,-1,-1,-2,0,15.870000000000001
3175,0,0,2,-2,-1,0,1,-2,15.875
3176,0,-1,0,3,2,1,-1,-1,15.88
3177,-2,1,2,-1,0,1,1,-2,15.885
3178,1,-3,0,-2,-1,-1,-1,-2,15.89
3179,-1,-1,-2,-1,-1,-4,-1,0,15.895
3180,1,-1,0,3,3,-2,1,0,15.9
3181,0,2,2,3,-1,0,-2,0,15.905000000000001
3182,-1,0,-2,-5,1,-2,-1,0,15.91
3183,1,-3,-1,-3,-1,1,0,-2,15.915000000000001
3184,0,-3,-3,3,-2,-1,-2,-2,15.92
3185,-2,1,0,-3,-2,-1,-2,-1,15.925
3186,-1,0,0,-1,-3,1,-1,0,15.93
3187,-1,0,1,0,0,-1,0,1,15.935
3188,-3,-3,-2,-5,-1,-2,-1,-1,15.94
3189,-2,-1,-2,-2,-1,-2,0,0,15.945
3190,-1,-2,0,2,0,0,0,-2,15.950000000000001
3191,1,0,-4,-2,-2,1,1,-1,15.955
3192,3,2,2,-2,0,2,-1,1,15.96
3193,-5,0,2,3,2,1,-1,-2,15.965
3194,-6,-7,-3,-2,-1,-1,-2,-2,15.97
3195,-1,1,-3,-2,-2,0,-1,-1,15.975
3196,0,4,1,-4,-5,-2,-1,-1,15.98
3197,-1,-4,-2,14,6,0,-1,-1,15.985000000000001
3198,1,0,-1,0,1,0,-1,1,15.99
3199,-2,-1,0,5,1,2,0,-2,15.995000000000001
3200,2,-3,-3,-8,-5,-2,-2,-1,16.0
3201,0,-1,-2,-9,-2,-2,-1,0,16.005
3202,-1,1,-1,1,0,-3,-1,-2,16.01
3203,-2,-2,-2,-2,-1,-2,-1,0,16.015
3204,-2,0,-1,-1,0,0,2,-1,16.02
3205,-2,-1,-1,-4,-2,-3,0,1,16.025
3206,1,-1,0,2,0,-1,1,1,16.03
3207,-4,-1,2,0,0,0,-1,-3,16.035
3208,-2,-1,0,1,1,-1,-1,1,16.04
3209,3,2,-2,-2,-1,-1,0,1,16.045
3210,-1,-4,-1,-6,-2,1,-1,0,16.05
3211,2,3,0,0,-2,-1,-1,1,16.055
3212,-1,-3,1,10,2,0,-3,0,16.06
3213,-3,-10,-8,-9,-6,-4,0,-3,16.065
3214,-2,-1,-1,3,0,-1,1,-1,16.07
3215,-1,0,0,-4,-3,-2,0,0,16.075
3216,-2,-2,-3,-1,1,1,-1,-1,16.080000000000002
3217,0,2,2,-1,0,0,0,-1,16.085
3218,0,0,-1,-3,-1,-1,0,0,16.09
3219,-3,-2,-4,2,0,-1,0,-1,16.095
3220,-6,0,0,-6,-3,-1,-4,-7,16.1
3221,6,-2,3,-2,-3,-1,1,5,16.105
3222,-2,0,-2,2,0,-2,-2,0,16.11
3223,4,1,2,1,1,0,-1,3,16.115000000000002
3224,-10,-3,-3,-3,0,1,1,-7,16.12
3225,-6,1,-1,1,1,0,0,-1,16.125
3226,1,-4,1,-3,-3,-2,-3,-6,16.13
3227,2,0,-2,-1,1,0,0,1,16.135
3228,3,-1,0,-1,0,-2,0,3,16.14
3229,-10,-3,-2,1,-1,-1,-1,4,16.145
3230,15,2,0,1,-2,-1,0,-8,16.15
3231,-1,-1,-4,-2,-1,-2,-2,-4,16.155
3232,5,-2,-3,-1,-1,-3,-2,2,16.16
3233,-5,0,-1,-1,-1,-2,0,-5,16.165
3234,-4,4,1,1,1,-2,0,5,16.17
3235,-4,-6,-4,-3,-2,-2,-2,-2,16.175
3236,5,2,1,0,0,0,1,1,16.18
3237,1,0,-2,1,0,1,-1,-1,16.185
3238,-7,0,-1,0,-1,-2,-1,-8,16.19
3239,20,3,1,1,0,0,1,12,16.195
3240,-17,-3,-3,1,-2,0,-1,-4,16.2
3241,2,-1,-2,-3,0,0,-3,1,16.205000000000002
3242,-1,1,-1,-1,-2,0,0,-10,16.21
3243,-3,0,1,0,0,0,2,9,16.215
3244,6,-1,0,-1,0,-3,-1,1,16.22
3245,-10,-2,0,-2,-1,0,1,-7,16.225
3246,-4,0,0,2,3,2,2,10,16.23
3247,0,-2,-2,-1,-5,-3,-3,-7,16.235
3248,2,1,0,-1,-1,0,-2,1,16.240000000000002
3249,-1,0,3,-1,1,-1,1,-2,16.245
3250,-4,-1,-1,0,0,-1,-1,1,16.25
3251,-9,-3,-3,-2,-1,-2,1,0,16.255
3252,-7,2,-2,0,-2,0,0,2,16.26
3253,2,1,0,0,-2,0,-1,-5,16.265
3254,2,1,0,0,-1,-1,-1,2,16.27
3255,3,3,3,1,1,1,0,4,16.275
3256,2,-8,-4,2,0,-1,0,4,16.28
3257,1,-5,-3,-2,-3,-2,-2,1,16.285
3258,1,-2,-1,0,-2,1,0,0,16.29
3259,-12,1,-1,-2,-1,-2,-2,-10,16.295
3260,2,3,2,-2,-2,-2,-2,0,16.3
3261,3,-1,-1,0,-2,-1,-1,6,16.305
3262,6,-3,0,-2,0,0,-3,-4,16.31
3263,-6,-7,-1,0,0,0,-2,-9,16.315
3264,-4,-1,-2,0,-2,-1,0,-6,16.32
3265,2,1,-2,0,0,-1,-2,1,16.325
3266,-14,-1,-1,-2,0,1,-2,3,16.330000000000002
3267,3,3,5,3,0,0,-1,1,16.335
3268,5,-3,-5,-2,1,0,1,0,16.34
3269,0,2,-1,0,-1,-1,0,0,16.345
3270,-10,-3,-2,-2,-3,-2,-1,-2,16.35
3271,-6,-1,-2,0,0,-1,-2,-18,16.355
3272,-6,0,-1,-4,-3,-2,-1,10,16.36
3273,-2,-2,-1,0,0,0,-2,-16,16.365000000000002
3274,1,2,1,0,0,-2,1,22,16.37
3275,8,-2,-1,-2,-3,-1,-3,0,16.375
3276,2,0,2,-2,-1,-2,-1,-8,16.38
3277,1,-1,-1,-1,0,0,-3,1,16.385
3278,2,-1,-1,1,0,-2,-3,-3,16.39
3279,-4,-2,-3,-2,-1,0,2,2,16.395
3280,11,1,-2,-3,-1,-2,4,1,16.4
3281,15,2,1,1,2,3,-6,11,16.405
3282,-12,-5,-5,-3,-2,-2,0,-13,16.41
3283,-5,-1,-2,-2,0,0,-1,0,16.415
3284,-2,1,1,0,0,1,-3,-7,16.42
3285,1,0,0,-2,0,-1,2,3,16.425
3286,0,-3,-3,-3,-2,0,-2,-4,16.43
3287,-2,2,1,2,1,-1,2,4,16.435
3288,-5,1,1,0,-1,-1,-3,-5,16.44
3289,5,-2,2,1,-1,-1,1,5,16.445
3290,4,1,0,1,0,-2,-1,1,16.45
3291,-2,0,2,-1,0,-2,-2,-1,16.455000000000002
3292,-1,-2,-1,-2,-1,1,0,-1,16.46
3293,-14,-2,-5,-2,-2,-1,-1,-7,16.465
3294,3,1,2,0,0,1,-2,-24,16.47
3295,7,-3,-2,-2,-1,-1,3,15,16.475
3296,5,0,1,2,0,1,-1,9,16.48
3297,-8,2,5,0,-1,-1,-1,-17,16.485
3298,6,-6,-5,-2,0,-1,1,19,16.490000000000002
3299,-6,-1,0,-1,1,1,-3,-17,16.495
3300,-6,-4,-2,0,-2,-1,0,-4,16.5
3301,3,1,-2,-2,-3,-1,-3,-11,16.505
3302,0,4,3,0,3,0,2,11,16.51
3303,-13,-7,-6,-3,-2,0,-3,-12,16.515
3304,10,-2,0,-1,-1,-1,3,12,16.52
3305,3,-2,-1,1,-1,-1,1,11,16.525
3306,-1,-3,-2,-2,-3,-2,-4,-7,16.53
3307,4,1,0,1,-1,-1,-6,7,16.535
3308,-2,-5,-3,-2,-2,-1,1,-16,16.54
3309,5,0,1,-1,-4,-1,3,4,16.545
3310,0,0,-2,0,-1,-1,0,-1,16.55
3311,7,0,-2,-3,-2,-1,2,4,16.555
3312,-7,1,0,1,-1,-2,-5,-9,16.56
3313,-4,-3,-1,2,0,-2,0,2,16.565
3314,-2,0,0,0,-1,-2,-1,-6,16.57
3315,3,2,1,0,0,1,-2,4,16.575
3316,-8,-3,-3,-2,-1,-3,-1,1,16.580000000000002
3317,0,-2,-3,-1,2,1,-1,4,16.585
3318,-2,5,0,-1,-2,-1,-2,-11,16.59
3319,5,-5,3,1,0,-1,1,2,16.595
3320,-10,-2,-3,-1,1,-1,-2,1,16.6
3321,-8,-5,0,-4,1,-3,-2,-14,16.605
3322,2,7,1,0,-1,-1,-1,5,16.61
3323,-4,-2,-2,-4,-3,-2,0,0,16.615000000000002
3324,-1,-2,-1,-2,-1,0,0,-7,16.62
3325,-8,0,-2,-1,0,-2,-2,-7,16.625
3326,-9,-3,-3,-2,-4,0,1,8,16.63
3327,12,4,1,-1,-1,-1,0,1,16.635
3328,-5,-1,1,-1,1,0,-2,-8,16.64
3329,2,1,-1,0,-1,1,0,0,16.645
3330,7,-1,1,-1,-2,0,0,0,16.65
3331,-18,-3,-4,0,0,0,2,-1,16.655
3332,9,0,1,1,0,1,-1,0,16.66
3333,-4,-1,3,-1,-3,-2,-2,6,16.665
3334,-1,-5,1,2,1,-1,1,-9,16.67
3335,4,3,-1,-3,-3,-2,-4,-10,16.675
3336,6,2,-2,0,0,1,-5,20,16.68
3337,3,0,-7,-3,-2,0,2,0,16.685
3338,3,-1,0,-4,-1,-2,-2,3,16.69
3339,-6,-1,0,1,1,0,2,-5,16.695
3340,-5,-4,1,-2,-1,-2,0,-1,16.7
3341,-8,1,-3,-1,-2,-1,-4,-1,16.705000000000002
3342,1,-1,-7,0,-1,1,2,0,16.71
3343,13,2,2,0,0,-1,3,11,16.715
3344,-11,1,3,1,-1,-1,-2,-13,16.72
3345,-3,0,-2,-2,-3,-2,-2,-1,16.725
3346,4,0,1,-2,-2,-2,0,-1,16.73
3347,13,-1,-4,-1,-3,-1,-4,-1,16.735
3348,2,2,0,-3,0,0,3,1,16.740000000000002
3349,4,0,-1,-1,-3,-2,-3,-3,16.745
3350,2,-4,-4,-1,-1,1,-2,6,16.75
3351,-9,1,5,0,0,-2,-2,-4,16.755
3352,5,0,0,-2,-1,-3,1,2,16.76
3353,1,0,0,3,1,1,-1,-10,16.765
3354,2,1,-1,-2,-2,-2,0,7,16.77
3355,-4,-5,-1,0,0,1,-3,13,16.775
3356,2,2,-2,-2,-1,0,2,5,16.78
3357,1,-2,-2,-3,1,0,2,1,16.785
3358,-20,0,1,-2,-2,-1,-3,-15,16.79
3359,-3,-4,-2,1,-1,1,-2,-4,16.795
3360,2,0,-4,1,0,-1,2,-4,16.8
3361,13,-2,-1,-3,0,0,-5,6,16.805
3362,2,2,1,2,1,0,-2,2,16.81
3363,-4,-1,-1,-1,-1,-1,1,-5,16.815
3364,2,2,10,2,-2,0,-2,-1,16.82
3365,-5,0,0,1,-1,0,2,-2,16.825
3366,0,-3,4,2,2,1,0,1,16.830000000000002
3367,-4,-2,-5,-2,-1,0,-1,-13,16.835
3368,12,3,-3,-1,-1,0,1,6,16.84
3369,-7,-3,0,0,-2,-3,1,-1,16.845
3370,-8,-1,-1,0,-2,-3,-2,-17,16.85
3371,-4,-4,-5,1,-1,-2,2,10,16.855
3372,-11,-1,-1,0,-2,0,1,-6,16.86
3373,5,-1,0,0,-1,0,1,11,16.865000000000002
3374,-1,-1,-2,-2,0,-1,4,3,16.87
3375,-5,4,2,1,2,0,-1,-8,16.875
3376,-4,-4,-2,-3,0,0,-2,2,16.88
3377,-4,-4,-2,-2,-2,-2,0,0,16.885
3378,0,-1,0,1,-1,0,-1,-14,16.89
3379,9,4,1,-3,-3,0,-1,27,16.895
3380,-13,-4,-4,-4,-3,0,-2,-18,16.9
3381,1,-1,0,0,2,0,2,11,16.905
3382,9,-1,-3,-3,-2,-2,-2,4,16.91
3383,-2,0,0,-1,0,-1,-1,-9,16.915
3384,0,-1,-2,-3,-4,-2,-2,-3,16.92
3385,-3,-1,1,4,2,-1,-2,-1,16.925
3386,-2,0,2,-4,-3,-1,-2,2,16.93
3387,-1,-1,-8,-19,-6,-2,-3,-7,16.935
3388,5,-2,-1,12,2,-1,-2,4,16.94
3389,-5,-3,0,12,3,0,-1,-8,16.945
3390,1,-3,-4,-5,-5,-1,0,7,16.95
3391,-3,0,3,6,5,0,-1,-8,16.955000000000002
3392,0,-2,-1,-13,-4,0,-1,2,16.96
3393,5,-1,-7,-9,-5,-2,-3,0,16.965
3394,-2,-2,-2,-3,-3,-2,0,-1,16.97
3395,0,2,4,15,8,2,3,-1,16.975
3396,-1,-2,2,2,1,1,-2,-2,16.98
3397,1,0,0,5,1,1,0,-1,16.985
3398,2,0,2,-7,-1,-2,-1,2,16.990000000000002
3399,-6,-4,-4,-7,-6,-3,-3,-7,16.995
3400,-4,0,2,4,2,0,0,3,17.0
3401,-3,-4,-4,-13,-6,-1,-1,-6,17.005
3402,1,0,-4,5,4,2,-2,1,17.01
3403,-1,-3,1,3,1,-2,0,-1,17.015
3404,2,1,-2,3,1,0,0,0,17.02
3405,-1,2,-2,-19,-7,-1,0,0,17.025
3406,-2,-1,4,16,3,2,1,0,17.03
3407,-2,-2,-2,-1,-2,-1,-2,-2,17.035
3408,-1,-1,-3,-4,-2,-2,-2,1,17.04
3409,-1,-1,2,4,3,-1,1,-1,17.045
3410,0,0,0,5,2,0,0,0,17.05
3411,2,0,1,-2,-4,0,-2,0,17.055
3412,0,-1,-4,-6,-3,-1,0,-1,17.06
3413,3,6,3,-1,-2,0,-1,0,17.065
3414,-1,0,-1,-4,0,-2,-1,1,17.07
3415,-5,-7,-4,-5,-5,-1,-1,-2,17.075
3416,0,1,-1,-4,-1,-1,-1,0,17.080000000000002
3417,0,2,1,5,2,-1,0,-2,17.085
3418,1,-1,-1,1,0,0,-2,-2,17.09
3419,1,2,1,-1,-2,-2,0,-2,17.095
3420,0,-3,2,2,1,-1,-2,1,17.1
3421,-1,-3,-5,-3,-1,0,1,0,17.105
3422,-2,-1,0,-5,-1,0,-1,1,17.11
3423,-1,-1,-1,4,-1,-1,1,-1,17.115000000000002
3424,3,2,1,2,1,0,0,0,17.12
3425,0,1,-2,-9,-6,-4,-1,-1,17.125
3426,-3,-4,0,7,1,-3,-1,0,17.13
3427,3,1,-2,-4,1,1,0,0,17.135
3428,0,2,-1,0,0,-1,-1,-1,17.14
3429,0,-1,-1,-1,-1,1,0,-2,17.145
3430,2,4,-1,-7,-3,-1,0,0,17.150000000000002
3431,-4,-5,-2,0,0,-1,-1,-3,17.155
3432,1,0,2,1,0,1,-1,0,17.16
3433,-1,-2,-2,-1,1,-1,-2,1,17.165
3434,-4,-5,-3,-2,-2,0,-2,-3,17.17
3435,0,2,3,3,2,0,0,1,17.175
3436,-3,-1,-2,-7,-3,-1,0,-2,17.18
3437,-5,-5,-6,2,1,2,-1,-3,17.185
3438,-2,-5,-3,-3,-1,2,1,-4,17.19
3439,-1,-2,-1,-5,-1,-2,0,-1,17.195
3440,-2,-5,-5,-6,-2,-1,-2,-2,17.2
3441,-1,1,6,6,-1,-1,-1,0,17.205000000000002
3442,1,0,-5,-8,-1,-3,0,-1,17.21
3443,-4,0,-1,-1,1,-2,-2,1,17.215
3444,2,0,-1,0,-1,-3,-1,-1,17.22
3445,1,-1,4,6,0,0,1,-1,17.225
3446,-3,-4,1,-2,-1,-1,-2,1,17.23
3447,0,-3,-4,-4,-2,-2,-1,0,17.235
3448,-1,2,-1,8,3,0,0,0,17.240000000000002
3449,0,-1,-2,-5,-2,-1,1,0,17.245
3450,3,2,5,7,0,-1,-2,1,17.25
3451,-2,-1,1,4,-1,0,-2,-1,17.255
3452,1,-4,-1,-3,-2,0,0,0,17.26
3453,2,0,-3,-1,3,-1,0,-1,17.265
3454,1,0,0,-1,0,0,0,0,17.27
3455,-1,1,-2,-5,-2,-3,-1,-1,17.275000000000002
3456,-1,-1,0,-1,-2,-2,-1,-1,17.28
3457,0,2,0,0,-3,-1,-2,-1,17.285
3458,-1,0,-3,-3,-1,-1,-3,1,17.29
3459,0,2,2,1,1,0,2,-2,17.295
3460,0,0,-1,-5,-3,-1,0,1,17.3
3461,-2,-3,-1,6,5,1,-2,0,17.305
3462,-2,-1,-1,-5,-3,-2,-1,-2,17.31
3463,0,0,0,5,3,0,-2,-2,17.315
3464,-2,0,1,-1,-1,1,1,2,17.32
3465,0,0,-3,-5,-2,-1,0,-3,17.325
3466,-3,0,-1,2,-1,0,0,-1,17.330000000000002
3467,-1,-2,-1,-2,-2,-1,1,-1,17.335
3468,0,-2,-2,-1,-1,-1,-1,-1,17.34
3469,-4,-2,-1,0,-1,-2,-2,0,17.345
3470,0,2,-3,-1,-1,0,-2,-2,17.35
3471,-1,1,-3,-10,-6,-2,-1,-1,17.355
3472,0,0,-2,6,1,-2,-1,0,17.36
3473,-2,-1,-1,1,0,0,-1,-1,17.365000000000002
3474,0,0,0,-1,-2,-1,-1,0,17.37
3475,0,1,-1,-1,0,-2,0,1,17.375
3476,-2,-5,-8,-8,-5,-2,0,-1,17.38
3477,4,3,-1,-9,-1,0,0,0,17.385
3478,-8,-4,2,11,0,-1,-1,-2,17.39
3479,1,-1,-4,1,1,0,-1,0,17.395
3480,-2,1,5,2,2,2,0,-2,17.400000000000002
3481,-1,-6,-3,-1,-3,-3,-1,0,17.405
3482,1,1,-1,-8,-1,-1,-1,-1,17.41
3483,0,-1,2,1,-4,1,-1,1,17.415
3484,1,2,0,-2,0,0,-2,-2,17.42
3485,1,-1,0,2,1,-1,1,-1,17.425
3486,0,1,3,-1,0,1,-1,-1,17.43
3487,-3,-7,-4,4,0,-2,-1,-2,17.435
3488,0,-3,-3,-2,0,0,0,-2,17.44
3489,-3,0,1,-1,-4,-1,1,0,17.445
3490,1,-1,-3,-4,-1,-3,-1,1,17.45
3491,-1,1,-1,0,0,-1,0,1,17.455000000000002
3492,-1,-2,1,-4,0,-1,-2,-2,17.46
3493,-2,1,-2,3,-3,0,-3,-1,17.465
3494,1,-1,-2,-4,-3,-2,1,-1,17.47
3495,2,1,-1,1,-2,0,-1,-1,17.475
3496,-3,-2,-1,3,2,-1,0,1,17.48
3497,0,0,-1,-1,0,0,0,-3,17.485
3498,1,1,-2,-9,-3,-1,1,-2,17.490000000000002
3499,-1,0,1,5,1,-2,-1,-2,17.495
3500,-1,-1,1,1,-3,-1,-1,-1,17.5
3501,-2,1,1,1,-1,1,1,-1,17.505
3502,-1,1,-2,-4,-2,-1,-1,1,17.51
3503,0,0,1,1,2,1,0,-2,17.515
3504,-4,-3,-4,0,-1,0,-3,-2,17.52
3505,0,0,0,-1,-1,-1,-1,0,17.525000000000002
3506,-3,-5,-4,-1,-1,0,-2,-2,17.53
3507,-1,1,1,-6,-3,0,1,-1,17.535
3508,-1,-4,-3,-1,-1,-3,-2,-1,17.54
3509,0,0,0,2,-1,-1,-1,-1,17.545
3510,-1,-1,0,2,1,-1,-1,1,17.55
3511,-5,-6,-4,-5,-4,-1,-2,-4,17.555
3512,-1,1,-2,-10,-3,-2,-2,-2,17.56
3513,-1,-1,1,7,1,-2,-1,0,17.565
3514,2,-1,0,1,0,-1,1,0,17.57
3515,2,2,2,-1,1,0,-1,0,17.575
3516,-1,2,-1,-1,1,0,1,2,17.580000000000002
3517,4,0,0,-4,-1,-1,-2,1,17.585
3518,-7,-6,1,2,-1,0,1,-3,17.59
3519,0,3,1,4,1,-1,-1,-1,17.595
3520,1,2,2,-1,1,0,0,-1,17.6
3521,2,3,-1,-3,-1,-1,-1,1,17.605
3522,0,-1,-3,-5,-1,0,-1,-1,17.61
3523,0,-2,-3,-1,-1,-2,1,0,17.615000000000002
3524,3,5,5,3,-1,-1,-2,1,17.62
3525,-8,-8,-2,-1,0,-1,-2,-2,17.625
3526,1,-1,-1,2,-1,-1,-1,-1,17.63
3527,-2,-6,-2,-6,-2,0,-3,-3,17.635
3528,1,-1,0,0,-2,1,0,-1,17.64
3529,0,3,3,3,0,1,0,0,17.645
3530,-3,-1,-2,-5,-2,-2,-1,-1,17.650000000000002
3531,-2,-5,-1,-2,0,-3,-1,-1,17.655
3532,-1,-2,1,-2,-1,-2,0,-1,17.66
3533,-3,-2,-4,-4,-4,-1,-2,-2,17.665
3534,0,-2,1,7,0,-1,-1,-1,17.67
3535,1,1,-3,-5,0,1,-1,1,17.675
3536,-1,-2,-1,8,1,0,-1,-1,17.68
