slno,emg1,emg2,emg3,emg4,emg5,emg6,emg7,emg8,Time
0,-2,-1,-3,-4,-4,-1,-3,-1,0.0
1,0,0,-3,-8,-3,-1,-2,0,0.005
2,0,0,1,8,5,1,-1,0,0.01
3,-2,-1,-3,-12,-9,-1,-2,-1,0.015
4,0,-2,-6,1,3,-2,-1,0,0.02
5,-1,1,-1,-4,0,-1,-1,-1,0.025
6,0,-1,3,8,-3,-1,1,1,0.03
7,-1,-1,-1,-3,-4,-2,-2,-2,0.035
8,-1,0,-4,-4,-3,-3,-2,-2,0.04
9,3,0,1,5,-3,0,1,-1,0.045
10,-1,0,0,-6,-2,0,1,-1,0.05
11,0,-2,-6,-6,-1,-1,0,0,0.055
12,-2,-2,6,9,-1,-1,-1,-1,0.06
13,-1,-2,-5,-2,-1,-1,-1,-1,0.065
14,0,-1,0,1,-2,0,1,0,0.07
15,0,-1,-3,0,-1,-1,-2,-2,0.075
16,-1,-2,-3,-5,-1,-1,-1,-1,0.08
17,1,0,1,1,2,2,0,1,0.085
18,-2,-2,-3,-3,-4,0,0,-2,0.09
19,-1,0,2,5,5,-1,-1,0,0.095
20,-3,0,-3,-6,-3,-3,0,-1,0.1
21,-2,0,2,7,-5,-1,-1,-1,0.105
22,0,0,2,3,7,2,-2,-2,0.11
23,-2,-1,-4,-10,-7,-3,-4,-3,0.115
24,0,0,-7,-11,1,-1,-1,-1,0.12
25,1,0,8,14,2,3,2,1,0.125
26,-1,-1,-2,3,-6,-2,-1,1,0.13
27,-1,-1,-4,-5,-5,-3,-3,-2,0.135
28,-1,1,1,0,-2,-2,0,-1,0.14
29,2,0,-7,-6,2,0,0,-1,0.145
30,-3,-2,0,-4,-10,-3,-1,-1,0.15
31,-1,-1,-3,4,7,3,1,1,0.155
32,0,-1,-1,-2,-4,-1,-1,-1,0.16
33,0,-2,-1,1,3,1,1,0,0.165
34,-2,-1,-3,-6,-7,-3,-2,-2,0.17
35,0,-2,0,-1,-3,-3,-3,-2,0.17500000000000002
36,0,-2,2,5,3,-1,0,0,0.18
37,0,0,0,-5,-4,-1,0,-1,0.185
38,0,0,-2,2,5,2,0,0,0.19
39,-1,0,0,-2,-6,0,-1,-1,0.195
40,-1,0,0,4,0,-1,-1,-1,0.2
41,-1,0,-4,-10,-4,-1,-3,0,0.20500000000000002
42,0,-1,-9,-8,6,2,0,2,0.21
43,-1,0,14,26,-6,-2,1,-1,0.215
44,0,0,-1,-2,-5,1,1,0,0.22
45,-2,0,-1,-3,-3,-2,1,-2,0.225
46,-2,0,-1,-2,-3,-3,-1,-1,0.23
47,-3,0,-9,-26,-3,-2,-1,-2,0.23500000000000001
48,-2,-1,-1,12,2,-2,-3,-1,0.24
49,0,0,3,12,15,4,2,-2,0.245
50,1,-1,-1,-5,-1,-1,-1,-1,0.25
51,0,-1,-1,2,2,-1,1,-1,0.255
52,-1,-1,-2,-11,-10,-2,-2,-1,0.26
53,-1,0,-1,1,-1,-2,-3,-1,0.265
54,-1,-2,1,4,-2,-3,-1,-2,0.27
55,-2,-3,0,-2,4,-1,-2,-1,0.275
56,0,-1,-1,-9,-8,-1,-1,-2,0.28
57,1,-1,1,8,10,2,0,1,0.28500000000000003
58,-3,-1,-2,-6,1,0,-1,-2,0.29
59,-1,-1,-1,11,-2,-1,-2,-1,0.295
60,0,-1,3,0,5,2,0,-1,0.3
61,0,-1,2,-3,-9,-4,-1,-1,0.305
62,0,-1,-3,-4,-2,-1,1,0,0.31
63,-1,-2,-3,-5,2,0,0,-1,0.315
64,0,0,-1,-1,0,1,-1,0,0.32
65,-1,0,-3,-2,0,0,-2,-1,0.325
66,0,0,-3,1,-1,-1,0,-2,0.33
67,-2,-2,3,-3,-2,0,-2,-2,0.335
68,0,-1,1,6,6,1,0,0,0.34
69,-1,-1,1,-2,-8,-3,0,0,0.34500000000000003
70,-2,-1,-4,-3,3,0,-1,-1,0.35000000000000003
71,0,-1,-7,-16,-6,-3,-1,0,0.355
72,0,-1,3,5,2,0,-1,1,0.36
73,0,-1,0,3,6,4,1,1,0.365
74,-2,-1,3,3,-2,-1,0,-2,0.37
75,-1,1,0,1,4,-1,-2,0,0.375
76,-2,-4,-4,-9,-7,-2,0,-1,0.38
77,0,-2,0,-4,-8,-1,0,0,0.385
78,0,-3,4,-1,-3,-2,-1,-1,0.39
79,-1,-1,-2,-4,-1,-1,2,1,0.395
80,0,-1,-2,-2,1,-1,0,0,0.4
81,0,1,-1,12,10,0,-2,1,0.405
82,-1,-1,1,4,-2,1,-1,0,0.41000000000000003
83,1,0,-2,-12,-5,-2,-1,0,0.41500000000000004
84,-2,1,1,6,7,1,0,-1,0.42
85,-2,-1,-4,-9,-5,-2,-1,-1,0.425
86,1,0,1,-1,-1,-2,-2,0,0.43
87,1,0,1,8,2,-1,0,-1,0.435
88,2,1,-3,-6,-4,-3,-1,0,0.44
89,-1,-1,0,-6,-5,-3,-2,-3,0.445
90,-1,-1,-1,2,5,-1,0,-3,0.45
91,-1,-2,1,1,-2,1,0,-3,0.455
92,-2,1,-2,8,1,-2,0,-1,0.46
93,-3,-2,1,0,0,-1,0,-3,0.465
94,-1,-1,-1,-3,-6,-2,-1,0,0.47000000000000003
95,1,-1,0,5,4,-1,-1,1,0.47500000000000003
96,-1,-1,1,-6,-2,0,-1,-3,0.48
97,-2,0,-2,-9,-3,-2,-1,-1,0.485
98,-2,-1,-1,4,-1,1,0,-2,0.49
99,-1,0,0,7,4,0,-2,1,0.495
100,0,-1,-1,-5,-4,-1,0,0,0.5
101,0,0,-3,6,5,-1,0,-1,0.505
102,0,2,2,-5,-1,-1,-2,-1,0.51
103,-2,-1,-2,-2,-11,-4,-1,-2,0.515
104,-3,-1,-1,3,2,0,0,0,0.52
105,-1,0,-2,-11,-7,-3,-3,-1,0.525
106,-2,-1,-1,9,2,0,-1,-2,0.53
107,1,0,0,4,3,1,-1,1,0.535
108,1,0,0,-2,0,-1,1,-1,0.54
109,-2,0,-2,-8,-10,-3,-2,-1,0.545
110,-1,0,0,6,11,2,1,1,0.55
111,-2,0,-1,-7,-6,-3,0,-1,0.555
112,0,0,0,2,6,0,-2,-1,0.56
113,-1,-3,-1,1,-5,-1,0,-1,0.5650000000000001
114,-1,0,-1,-4,-4,-1,-2,-1,0.5700000000000001
115,-2,0,-1,-3,-1,-2,-2,-3,0.5750000000000001
116,0,-1,1,3,0,1,1,-1,0.58
117,-1,-1,1,-4,-6,-2,-2,-2,0.585
118,0,-1,-1,3,-1,-2,-2,0,0.59
119,1,0,0,-4,2,0,1,-1,0.595
120,-2,-1,-2,-4,-6,-2,-2,0,0.6
121,0,-1,-1,-3,1,0,-2,-1,0.605
122,-2,-2,-1,-1,2,0,1,0,0.61
123,1,0,0,3,2,1,0,1,0.615
124,0,0,0,1,-1,0,-1,-2,0.62
125,-1,1,-1,-4,0,-1,-2,0,0.625
126,0,2,-1,4,-2,-3,-2,-2,0.63
127,0,0,-2,2,0,0,-1,0,0.635
128,-1,0,0,-2,1,2,0,-2,0.64
129,-2,-3,-4,-6,-5,-3,0,-2,0.645
130,1,-1,2,1,1,0,0,0,0.65
131,-3,-1,-1,-3,-4,-1,-2,1,0.655
132,0,-2,-1,3,0,-1,-1,-1,0.66
133,-2,-1,0,2,5,1,-1,0,0.665
134,-2,-1,-3,-10,-2,-3,-4,-2,0.67
135,-3,-1,-1,2,-7,-1,-1,0,0.675
136,0,0,0,5,6,1,-1,0,0.68
137,1,-2,-2,5,-2,-1,1,-1,0.685
138,-1,-1,0,-6,-3,-2,1,-1,0.6900000000000001
139,1,0,1,3,5,2,0,-1,0.6950000000000001
140,-1,-1,0,-6,-5,-2,-1,0,0.7000000000000001
141,0,0,-2,1,-2,0,-2,0,0.705
142,0,-1,-1,-2,1,-1,-1,0,0.71
143,-1,-1,-2,-14,-3,-2,-2,-2,0.715
144,-2,0,1,12,5,0,0,-1,0.72
145,0,-1,0,-3,-1,-1,0,-1,0.725
146,-1,0,-1,-4,-3,0,-1,0,0.73
147,-2,-4,-2,2,2,2,1,0,0.735
148,-2,0,-1,-4,0,0,-1,1,0.74
149,0,1,0,3,0,-1,-2,-2,0.745
150,-1,-1,-2,-4,-6,-2,-1,-2,0.75
151,-1,-1,-1,4,2,-1,-1,0,0.755
152,0,-1,-1,-10,-3,-3,-1,0,0.76
153,-1,-2,0,4,-8,-3,-2,-1,0.765
154,-1,1,1,3,5,1,0,0,0.77
155,1,-1,-2,-7,-2,-1,-1,-1,0.775
156,-1,-1,0,7,0,0,1,0,0.78
157,-4,0,-2,-10,-9,-3,-1,-3,0.785
158,0,-1,-1,-10,-2,-1,1,1,0.79
159,0,0,0,14,4,-1,0,0,0.795
160,-1,-1,-3,-6,-3,-2,-3,-1,0.8
161,-1,-1,0,2,2,0,-1,0,0.805
162,0,1,-2,-6,-7,-1,-1,-1,0.81
163,0,-1,1,-4,2,0,-1,0,0.8150000000000001
164,2,0,-2,-4,-4,0,0,-2,0.8200000000000001
165,-2,-1,1,-4,2,-1,1,-2,0.8250000000000001
166,-2,-1,0,-4,1,1,1,-1,0.8300000000000001
167,0,-1,2,9,6,1,-1,0,0.835
168,0,-1,-2,1,0,-1,1,-1,0.84
169,-1,-2,-4,-6,-3,-1,-2,0,0.845
170,0,-1,-2,3,0,0,-1,-2,0.85
171,-1,1,2,9,1,-1,-1,-1,0.855
172,-2,-1,1,1,1,-1,-1,0,0.86
173,-1,0,0,1,3,0,0,-1,0.865
174,-2,-1,-4,-13,-14,-6,-4,-1,0.87
175,2,-1,2,5,13,3,2,0,0.875
176,-1,-1,-1,-2,-1,0,-1,-1,0.88
177,-2,-1,-1,2,0,-1,-1,-2,0.885
178,0,-1,0,-2,-5,-2,0,-2,0.89
179,-2,-1,-3,-15,-8,-3,-2,-2,0.895
180,-1,-1,2,11,9,4,1,1,0.9
181,1,-1,-2,-1,-1,0,-2,-2,0.905
182,-1,-1,-2,5,-2,-3,-2,-3,0.91
183,-2,1,0,-5,-1,0,-1,-2,0.915
184,0,0,-2,-5,-6,-2,-3,0,0.92
185,-1,0,-1,-1,0,-1,-1,1,0.925
186,-1,0,2,1,2,1,1,-1,0.93
187,-1,0,-2,-2,-3,-3,0,-1,0.935
188,-1,1,0,-2,-2,-2,-1,-2,0.9400000000000001
189,1,1,-2,-5,-5,-1,-1,-1,0.9450000000000001
190,-1,-2,-1,10,4,1,0,1,0.9500000000000001
191,0,0,-2,-10,-7,-2,-3,-1,0.9550000000000001
192,0,-1,-1,1,6,0,0,0,0.96
193,0,-1,2,2,-1,0,1,2,0.965
194,0,-1,-3,-8,-2,-2,-2,-2,0.97
195,0,0,0,10,6,1,0,0,0.975
196,0,-2,-2,-7,-7,-2,-1,-2,0.98
197,-1,-1,-1,-3,-4,-4,-1,-1,0.985
198,-2,-2,0,6,5,1,-2,-1,0.99
199,0,1,-1,-12,-5,0,1,0,0.995
200,-2,-1,0,7,-3,-1,0,0,1.0
201,0,0,0,3,5,1,0,-1,1.0050000000000001
202,-1,-2,-2,-8,-3,-3,-1,-1,1.01
203,-1,-1,1,12,-4,-1,-1,0,1.0150000000000001
204,-1,0,-2,-4,1,-1,-2,-1,1.02
205,-2,-1,-3,4,-2,-2,-2,-2,1.025
206,0,0,-4,-2,3,0,0,-1,1.03
207,-1,-1,-3,-4,-4,-1,-1,-1,1.035
208,-1,1,0,-15,-5,-1,-1,-2,1.04
209,-2,-2,0,10,-2,0,0,0,1.045
210,2,1,1,0,0,-1,1,0,1.05
211,-2,0,1,3,2,0,0,0,1.055
212,-1,0,-2,2,0,0,0,0,1.06
213,1,-1,-3,-10,2,-1,0,-2,1.065
214,-2,-2,0,-3,-5,-2,0,-1,1.07
215,0,-2,-3,3,-2,0,0,-1,1.075
216,-1,-1,-1,-2,-1,-1,-2,-1,1.08
217,-2,-1,-1,-2,1,0,-1,0,1.085
218,0,0,-2,6,2,0,-2,0,1.09
219,1,0,-1,-3,-5,-1,-2,-2,1.095
220,0,-3,-1,0,-3,-3,-1,0,1.1
221,0,-1,-1,1,3,1,-1,-2,1.105
222,-1,-1,2,-1,-3,-1,-2,1,1.11
223,-2,-2,-4,-4,-2,0,-1,-1,1.115
224,-1,-3,0,4,6,0,0,0,1.12
225,-1,-1,-2,-7,-4,-3,-1,0,1.125
226,-1,-3,-2,-12,-4,0,2,0,1.1300000000000001
227,0,-1,5,21,11,3,1,1,1.135
228,-1,-1,-2,1,-2,0,1,-1,1.1400000000000001
229,0,-2,-3,0,-2,-3,-1,-1,1.145
230,0,0,-4,-10,-3,-2,-2,-2,1.1500000000000001
231,0,-1,0,-3,2,-1,-1,-1,1.155
232,0,-1,0,-5,-3,-2,-1,0,1.16
233,0,-1,1,3,11,0,0,-1,1.165
234,0,0,0,-4,-5,1,0,1,1.17
235,-1,-1,0,9,-2,-1,-1,0,1.175
236,0,0,0,0,-5,-1,-2,-2,1.18
237,0,0,-1,-2,7,2,-1,0,1.185
238,0,0,0,4,2,-1,1,0,1.19
239,0,-1,-1,-6,-2,-2,-2,0,1.195
240,-2,-1,-2,-12,-1,-2,-2,-1,1.2
241,-2,0,1,14,0,-1,-2,0,1.205
242,-1,-2,-2,7,2,1,1,-1,1.21
243,-2,1,0,-6,-1,0,0,-1,1.215
244,-1,-1,-3,-10,-12,-5,-2,0,1.22
245,0,1,2,12,3,0,1,-1,1.225
246,-1,0,2,4,2,-1,-1,0,1.23
247,1,0,-1,-5,-3,0,0,-1,1.235
248,-2,-3,-4,-4,-3,-2,0,-3,1.24
249,-2,-2,-2,-7,-8,-2,-1,-1,1.245
250,0,1,2,6,3,0,-1,-1,1.25
251,0,-1,-1,-8,-5,-2,0,-1,1.2550000000000001
252,-2,1,0,0,4,1,-2,-2,1.26
253,0,-1,-2,-6,-5,-2,-2,-2,1.2650000000000001
254,0,2,-1,4,6,1,0,0,1.27
255,-1,-2,-3,-9,-4,-3,-1,-1,1.2750000000000001
256,0,-3,-2,8,0,-2,-2,0,1.28
257,-1,-1,0,-1,14,4,0,0,1.285
258,-1,-2,0,-2,-7,-2,-2,-1,1.29
259,0,-1,0,-8,-4,0,0,1,1.295
260,-1,-1,1,11,4,2,0,1,1.3
261,-2,-1,-4,-16,-14,-3,-3,0,1.305
262,-2,-3,1,10,2,1,-1,-1,1.31
263,0,0,-1,4,8,2,0,0,1.315
264,-1,0,-3,-4,-2,-2,-1,-2,1.32
265,-3,-1,1,1,-8,-2,-2,-1,1.325
266,0,-1,-3,-11,-6,-2,-1,-1,1.33
267,-2,-1,-2,1,-1,-2,1,0,1.335
268,-2,-1,0,1,3,-1,-1,-1,1.34
269,0,0,-3,-5,0,-1,0,-2,1.345
270,-2,0,0,-1,-1,-1,-2,-1,1.35
271,0,-1,-1,1,0,-2,-1,-2,1.355
272,-1,0,0,2,-7,-1,-1,-1,1.36
273,0,-1,-1,1,6,1,1,0,1.365
274,-1,-1,-2,1,-1,-1,-1,2,1.37
275,0,-1,1,0,0,0,-1,-1,1.375
276,0,1,0,-4,-2,-1,-1,-1,1.3800000000000001
277,-1,-2,-3,-2,-6,-1,-2,-2,1.385
278,-1,-1,1,4,3,2,2,0,1.3900000000000001
279,-2,-2,-3,11,-2,-2,-1,-1,1.395
280,-1,-2,-1,-6,-1,-1,-2,0,1.4000000000000001
281,-1,0,2,6,4,-1,-1,-1,1.405
282,-1,-1,-5,-6,-1,1,-1,0,1.41
283,1,0,-3,-6,-6,-3,-2,-1,1.415
284,-1,-2,-3,-1,1,0,-1,-1,1.42
285,-1,0,-3,-14,-6,-2,-1,1,1.425
286,-1,0,1,16,-1,-2,-2,0,1.43
287,-1,0,1,2,2,0,0,1,1.435
288,-1,-1,0,0,-2,0,-1,0,1.44
289,0,1,-3,-3,-2,-1,-1,-2,1.445
290,1,-1,2,-6,-3,0,0,-2,1.45
291,0,1,1,-4,-1,0,-3,-1,1.455
292,0,0,0,0,2,0,0,0,1.46
293,-1,-2,-2,-3,-7,-3,-1,-1,1.465
294,2,0,0,-3,8,2,3,-2,1.47
295,-1,0,0,-1,0,-2,-1,-2,1.475
296,-1,-1,-3,-5,-4,-2,-2,-1,1.48
297,1,-2,-2,1,-1,1,0,-1,1.485
298,1,0,-1,1,-5,-4,0,0,1.49
299,0,-1,-3,-12,-1,-3,-3,-1,1.495
300,-1,-1,0,13,-6,0,0,-2,1.5
301,-1,-1,1,8,10,1,-2,1,1.5050000000000001
302,0,0,-2,2,-2,1,-2,0,1.51
303,-2,-2,0,-4,-4,0,-1,-2,1.5150000000000001
304,-1,-1,-2,-9,-3,-1,1,-2,1.52
305,-2,1,0,-1,1,0,-1,-3,1.5250000000000001
306,-1,-1,-1,-5,-1,1,1,0,1.53
307,-1,-1,-2,-13,-3,0,-1,0,1.5350000000000001
308,-2,0,0,11,2,0,1,0,1.54
309,-2,-1,2,7,4,2,1,-1,1.545
310,-1,0,0,-5,0,-2,-3,-1,1.55
311,0,-2,-1,5,-2,1,1,-1,1.555
312,-1,-1,-1,-6,1,-1,-1,0,1.56
313,-3,-1,-1,-7,-6,-4,0,-2,1.565
314,-1,-1,-2,4,-2,-2,-3,-2,1.57
315,-1,1,0,2,7,2,0,0,1.575
316,-1,-1,-5,-19,-14,-5,-2,-2,1.58
317,0,-2,3,19,16,4,-1,0,1.585
318,-1,-1,-3,-15,-5,-2,-1,-1,1.59
319,-1,-2,-2,11,-3,-1,0,-2,1.595
320,-1,0,0,4,9,1,-1,0,1.6
321,-1,-1,-3,-11,-10,-4,-2,-1,1.605
322,0,-1,-2,1,-1,0,-1,-1,1.61
323,-1,0,3,2,-2,-1,0,0,1.615
324,-2,0,-2,1,-1,-2,-1,-1,1.62
325,0,0,-4,-6,-4,0,2,-2,1.625
326,-1,-2,2,2,2,0,-1,0,1.6300000000000001
327,-1,-1,0,-2,3,1,0,-1,1.635
328,0,-2,0,-2,1,-1,-1,-2,1.6400000000000001
329,0,0,0,1,3,-2,-1,0,1.645
330,0,2,-1,-2,-1,-1,0,-1,1.6500000000000001
331,0,0,-4,2,0,-1,-1,-1,1.655
332,-2,-3,-1,-4,-4,-4,-2,0,1.6600000000000001
333,-1,-2,-3,-17,-12,-3,-2,1,1.665
334,-2,-1,2,18,10,1,-1,0,1.67
335,0,-1,3,2,1,-1,0,1,1.675
336,-1,1,-6,-10,-3,-1,-3,-2,1.68
337,-1,-1,-1,14,-6,-1,-1,0,1.685
338,-1,2,-1,-8,-5,-2,0,-1,1.69
339,-1,-1,-2,0,-1,-1,0,-1,1.695
340,0,-2,-2,-2,2,-2,-3,-1,1.7
341,0,0,1,-3,-5,-1,-2,-1,1.705
342,-1,-2,-5,-9,-7,0,0,-2,1.71
343,-2,-1,0,0,0,0,-1,-1,1.715
344,-2,-1,2,2,1,1,1,-2,1.72
345,0,-1,1,-3,1,-3,-2,-2,1.725
346,1,-2,-1,1,-6,-1,1,0,1.73
347,-2,-1,-3,-3,0,0,-1,-1,1.735
348,-1,0,0,-4,-4,-1,-1,1,1.74
349,-2,-3,1,6,6,1,0,-1,1.745
350,0,-1,0,-2,1,0,-1,-1,1.75
351,0,-1,-1,-2,-1,0,0,-1,1.7550000000000001
352,-3,-2,-2,-1,1,0,1,0,1.76
353,0,1,-3,-14,-13,-5,-3,0,1.7650000000000001
354,0,0,1,14,13,3,0,0,1.77
355,0,-1,1,-4,-2,-1,-1,0,1.7750000000000001
356,-1,-2,-1,15,1,1,0,-1,1.78
357,-1,-1,-1,-3,-3,0,0,-1,1.7850000000000001
358,0,-2,-1,-14,-12,-2,-2,-2,1.79
359,-1,0,-1,-4,-2,-1,-1,1,1.795
360,-1,1,3,0,2,1,1,-1,1.8
361,-3,-2,-5,0,1,2,-1,-1,1.805
362,-2,-1,2,-1,0,-1,0,-1,1.81
363,-2,-1,-2,0,-3,-1,-2,-2,1.815
364,-1,0,-1,-4,-3,1,-1,-1,1.82
365,0,0,-1,3,5,1,0,0,1.825
366,-1,-1,-2,-2,3,0,-1,-2,1.83
367,1,-2,-2,2,-2,-2,1,-1,1.835
368,-1,-1,-1,1,-2,-2,0,-1,1.84
369,1,1,2,2,6,0,-1,0,1.845
370,-2,-2,0,-4,-3,-2,-3,1,1.85
371,-1,0,1,13,19,3,1,0,1.855
372,-1,-1,-5,-4,1,0,-2,-3,1.86
373,-2,0,3,2,-7,-1,-1,1,1.865
374,0,-1,0,-1,7,1,1,0,1.87
375,-1,-2,-3,-12,-10,-2,-2,0,1.875
376,1,0,3,7,5,-1,0,0,1.8800000000000001
377,-2,-3,-2,-4,0,-1,-1,-3,1.885
378,-1,1,0,0,-9,-5,-2,-1,1.8900000000000001
379,-2,-3,-4,-11,-5,-2,0,0,1.895
380,-1,0,0,-8,4,-1,-3,-2,1.9000000000000001
381,0,0,-1,13,-6,0,-1,-1,1.905
382,-1,-2,2,0,-2,2,0,0,1.9100000000000001
383,0,-1,0,-1,-3,-2,-1,-2,1.915
384,1,-1,3,1,-1,-2,-3,0,1.92
385,1,-2,-2,-5,0,-4,0,-1,1.925
386,0,-1,-2,-1,-2,-1,1,-1,1.93
387,-1,-2,-1,6,2,2,0,0,1.935
388,-1,-1,1,-5,-6,-3,-2,-1,1.94
389,0,0,2,1,8,0,0,0,1.945
390,0,0,-3,1,-1,-2,0,0,1.95
391,0,-2,1,-9,-3,-1,0,0,1.955
392,-3,-3,-2,5,-6,-2,-3,-1,1.96
393,0,-3,-2,-9,-3,0,-1,-1,1.965
394,-1,0,1,0,0,-1,-1,1,1.97
395,0,0,0,2,-1,-3,-3,-2,1.975
396,-2,-1,-2,-10,-6,0,0,-1,1.98
397,0,1,1,2,6,1,0,-1,1.985
398,-1,-1,-5,-3,0,0,0,-1,1.99
399,-1,0,1,-3,-4,1,0,1,1.995
400,0,-1,-4,-7,-12,-4,0,-2,2.0
401,-2,0,3,2,7,3,-2,-1,2.005
402,0,-1,-2,-5,3,2,0,1,2.0100000000000002
403,-1,-1,0,-2,5,-1,-2,-2,2.015
404,0,-3,-2,4,-6,-3,-2,-3,2.02
405,0,0,1,8,3,0,2,-2,2.025
406,1,0,-2,1,-6,-4,-1,-1,2.0300000000000002
407,-2,-3,1,-1,0,-2,-1,1,2.035
408,-1,1,-1,-5,2,3,1,0,2.04
409,-1,-1,-5,-11,-3,-1,-1,0,2.045
410,-3,0,2,10,-1,-1,-1,-2,2.05
411,-3,0,-3,-5,-10,-4,0,-1,2.055
412,-1,0,-3,-6,6,-1,-1,0,2.06
413,0,-1,4,5,-8,-1,1,0,2.065
414,0,1,0,-8,-1,0,2,-1,2.07
415,-4,-6,-1,11,-1,0,-2,-3,2.075
416,0,-1,0,7,5,1,-1,1,2.08
417,0,0,-3,-10,-6,-2,0,-1,2.085
418,-1,-3,0,2,2,0,-2,1,2.09
419,1,4,-3,-7,-9,-4,-2,0,2.095
420,-1,-1,1,4,4,1,1,-1,2.1
421,1,-2,-2,-3,-4,-2,-1,-1,2.105
422,0,1,0,-1,0,-1,-1,-1,2.11
423,0,-1,2,-3,-6,-2,-1,-2,2.115
424,0,-1,-2,4,3,0,-2,-1,2.12
425,-1,0,-1,-4,-4,-1,-2,-1,2.125
426,0,1,0,1,2,-1,0,0,2.13
427,-2,-1,-5,-2,5,2,-2,-1,2.1350000000000002
428,0,-1,-2,-3,-7,-4,-2,-1,2.14
429,-1,-1,1,4,-1,-2,0,0,2.145
430,-1,-1,0,-1,3,-1,-1,-1,2.15
431,-3,-3,-1,-20,-2,0,3,-1,2.1550000000000002
432,0,-1,3,25,8,2,2,0,2.16
433,-2,-3,-2,6,-1,1,-1,-1,2.165
434,-2,-1,-2,7,2,0,0,-2,2.17
435,3,0,0,0,1,-2,-2,-1,2.1750000000000003
436,-1,3,-5,-21,-11,-7,-3,-2,2.18
437,0,-2,1,2,7,4,2,1,2.185
438,0,0,2,5,-1,1,-1,0,2.19
439,-1,1,-4,2,-4,0,0,-1,2.195
440,-3,0,-3,-6,-4,-3,-2,-1,2.2
441,-1,1,-1,-1,-2,-2,0,1,2.205
442,-1,-1,-1,-9,-3,0,-1,-1,2.21
443,2,3,-2,1,0,-1,0,-1,2.215
444,-1,-1,3,7,4,2,-1,-1,2.22
445,0,-1,-4,-7,-4,-2,-1,-1,2.225
446,-1,-3,0,-5,0,-1,2,0,2.23
447,0,-2,-1,9,-3,-2,-2,-2,2.235
448,-1,-1,1,4,1,0,-1,0,2.24
449,-1,-1,-2,-14,-7,-3,-1,-1,2.245
450,2,0,-1,0,-6,-3,-2,-2,2.25
451,0,1,2,23,11,0,-2,0,2.255
452,1,-2,-1,0,-4,1,0,-1,2.2600000000000002
453,-4,-3,-2,-3,4,0,0,0,2.265
454,-2,0,-2,-5,-5,-1,-1,0,2.27
455,-1,-1,-1,-6,-2,-2,0,-1,2.275
456,0,0,-1,0,1,0,-2,-2,2.2800000000000002
457,0,0,-1,-1,-5,-3,0,-1,2.285
458,0,0,-1,0,0,0,0,-1,2.29
459,-3,-3,-2,-4,-3,-2,-1,-1,2.295
460,-1,-1,-4,-9,-1,-1,1,0,2.3000000000000003
461,0,-1,2,4,-1,0,-1,-1,2.305
462,-1,-2,-1,-2,2,-1,1,-3,2.31
463,0,1,-2,-7,-1,-2,-2,-1,2.315
464,-3,-5,7,4,1,-1,-2,0,2.32
465,0,0,-3,-8,2,-2,1,0,2.325
466,0,0,3,15,5,0,2,0,2.33
467,0,0,-1,-7,-7,0,-3,-2,2.335
468,-1,-1,-4,-4,6,1,1,-1,2.34
469,1,0,1,0,-6,-1,0,0,2.345
470,0,1,-1,-4,2,-1,-2,0,2.35
471,0,-1,-3,-12,-5,-2,1,0,2.355
472,-2,1,0,5,3,-1,0,-1,2.36
473,0,0,3,3,0,0,-1,0,2.365
474,0,-1,-1,-1,2,1,1,-1,2.37
475,-1,-2,-2,-1,-2,-1,-2,-2,2.375
476,3,1,-2,-2,0,-1,1,0,2.38
477,-3,-1,-5,-3,1,-2,-2,-3,2.3850000000000002
478,-3,-2,0,-3,-5,-1,-2,-1,2.39
479,-2,1,0,-6,0,-1,-1,1,2.395
480,-2,0,1,20,3,-2,-1,-1,2.4
481,-1,1,-2,3,-2,-3,0,0,2.4050000000000002
482,0,-1,-7,-8,-3,-3,-2,0,2.41
483,1,0,3,9,2,3,0,0,2.415
484,-2,-2,-2,-12,-7,-3,-2,-1,2.42
485,1,-1,-1,0,0,0,-1,0,2.4250000000000003
486,-1,-1,0,-3,-4,-3,0,-1,2.43
487,1,-1,-2,-3,4,-2,0,-2,2.435
488,-1,-1,0,-2,-8,-2,-2,-3,2.44
489,0,-1,3,9,5,1,1,1,2.445
490,0,-1,-2,-3,-1,-1,-1,1,2.45
491,-1,-1,-3,0,-5,-2,0,-1,2.455
492,0,0,0,-13,-2,0,0,-2,2.46
493,0,1,0,4,-2,-2,-2,-1,2.465
494,1,1,-1,2,3,-1,-1,-2,2.47
495,0,-1,-2,-7,-6,-4,-1,0,2.475
496,-2,0,-2,6,-1,-1,-1,0,2.48
497,0,0,-4,-16,-8,-2,-1,-3,2.485
498,-1,1,1,11,7,3,0,-1,2.49
499,0,0,-2,3,1,0,-2,-1,2.495
500,-2,-3,-2,-13,-5,-2,1,-1,2.5
501,-2,0,2,4,6,0,-2,0,2.505
502,0,1,-3,-3,-3,-2,1,0,2.5100000000000002
503,-3,-1,-2,-1,-1,-2,-1,-3,2.515
504,2,0,-1,3,6,2,0,1,2.52
505,-2,-2,-3,-8,-2,-1,-1,-1,2.525
506,-1,-1,3,5,-2,1,-2,0,2.5300000000000002
507,-1,-1,-2,0,-4,-3,-2,0,2.535
508,-2,0,4,6,0,1,1,0,2.54
509,0,-1,-6,-15,-7,-3,-2,-1,2.545
510,-2,-3,-1,10,-1,-2,-1,0,2.5500000000000003
511,-3,-3,2,3,4,0,0,-1,2.555
512,-1,-1,-4,0,1,-1,-2,-1,2.56
513,0,0,1,2,4,1,1,-1,2.565
514,-1,-3,-3,-16,-22,-6,-2,-2,2.57
515,-1,-2,1,9,11,0,1,-1,2.575
516,-1,-1,-2,-8,-3,-1,-1,-2,2.58
517,-2,-1,1,10,1,3,-1,-1,2.585
518,0,0,-3,-11,-2,-2,-1,-1,2.59
519,-1,-3,-1,1,-2,-2,-1,-2,2.595
520,-1,-2,-5,-12,-7,-5,-2,-2,2.6
521,0,1,0,0,5,2,0,0,2.605
522,-1,-1,3,6,2,1,-1,-1,2.61
523,-1,0,-1,1,0,1,-1,1,2.615
524,-2,-2,-1,-5,-7,-5,-1,-2,2.62
525,1,-2,2,4,0,0,2,1,2.625
526,1,0,-2,-4,2,-3,-1,0,2.63
527,-1,-1,-3,-8,-15,-1,-1,0,2.6350000000000002
528,1,0,-2,6,6,1,-1,-1,2.64
529,-2,-1,-2,-10,-12,-3,-2,-1,2.645
530,0,-1,2,-4,10,3,0,0,2.65
531,0,-2,-1,5,0,-1,1,-1,2.6550000000000002
532,-3,-2,2,3,-2,0,0,0,2.66
533,-1,0,-2,-2,-3,-2,0,-1,2.665
534,-2,-3,2,-2,5,2,0,-1,2.67
535,1,0,-1,-2,1,0,-1,0,2.6750000000000003
536,0,-2,-3,-4,-3,-1,-2,-1,2.68
537,0,0,1,16,7,0,0,-1,2.685
538,0,-2,-4,-5,-8,-2,0,-2,2.69
539,-1,-1,0,2,1,0,-1,0,2.695
540,0,0,-1,1,0,-1,-1,-1,2.7
541,0,0,-1,-5,3,-2,0,-2,2.705
542,0,-1,0,13,5,0,-2,0,2.71
543,-1,-2,-1,-3,-2,-2,0,-2,2.715
544,-1,1,-2,-1,1,0,-2,1,2.72
545,0,-1,-3,-3,-2,-1,-2,-1,2.725
546,0,2,-3,-7,-7,-2,-1,-1,2.73
547,-1,0,0,0,4,-1,-3,-1,2.735
548,-1,0,-1,8,8,0,-1,-1,2.74
549,0,-2,-2,1,-5,-3,-1,-2,2.745
550,-1,0,4,4,6,2,-2,0,2.75
551,-2,-1,-3,-24,-9,-5,-2,-1,2.755
552,-1,-2,0,26,6,1,0,-2,2.7600000000000002
553,-2,-2,-3,-4,-5,-1,1,1,2.765
554,0,0,-1,7,1,-1,0,0,2.77
555,-1,0,0,-1,-2,0,1,-2,2.775
556,1,-1,-2,-13,-4,-2,-3,-1,2.7800000000000002
557,-1,-2,1,-2,-2,0,0,-1,2.785
558,1,0,-1,-1,-2,-1,0,1,2.79
559,-3,0,0,-7,-3,-2,-1,-2,2.795
560,-2,0,-1,-3,-4,-2,-1,-1,2.8000000000000003
561,-1,-1,1,8,6,2,1,0,2.805
562,-1,-4,-2,-6,-7,-2,-1,-1,2.81
563,-1,-3,1,9,3,2,-1,-1,2.815
564,0,2,-4,-6,-4,0,-1,1,2.82
565,0,0,0,-10,-9,-2,-2,-2,2.825
566,-1,0,-2,9,12,3,1,1,2.83
567,2,0,-2,3,-1,-2,-2,-1,2.835
568,-2,-3,0,-4,-3,-3,-1,-2,2.84
569,0,-1,0,0,6,2,0,0,2.845
570,1,-1,-4,-10,-8,-3,-1,-1,2.85
571,-1,-1,-4,0,-3,-1,-1,0,2.855
572,-1,0,4,7,9,3,0,0,2.86
573,0,-2,-2,-8,-11,-6,-3,-1,2.865
574,1,0,1,17,11,1,1,0,2.87
575,-1,-1,1,5,-1,-1,-2,-2,2.875
576,0,0,-5,-14,-8,-2,-2,0,2.88
577,-3,0,4,13,6,3,0,0,2.8850000000000002
578,0,0,-2,-10,-7,-2,-2,-3,2.89
579,-1,-1,0,-2,0,0,0,0,2.895
580,0,0,0,-1,-2,-1,0,-1,2.9
581,0,-1,-3,-4,-1,-1,-1,-1,2.9050000000000002
582,-2,-2,-1,-10,-9,-5,-2,-1,2.91
583,-1,0,1,10,8,3,-1,0,2.915
584,0,-2,-1,-8,-5,-1,0,-2,2.92
585,1,-2,-2,4,3,-1,0,1,2.9250000000000003
586,-1,-4,-3,-9,-9,-2,0,-1,2.93
587,-1,-2,-2,-11,-4,-5,-2,-2,2.935
588,-2,-1,3,8,4,3,1,0,2.94
589,-1,0,-3,2,2,-1,-1,-1,2.945
590,0,1,-1,-4,2,2,-1,-3,2.95
591,-1,-1,-3,6,-1,-3,0,0,2.955
592,-2,-1,-2,-18,-8,-2,0,0,2.96
593,0,0,4,24,7,3,0,0,2.965
594,-1,-1,1,-2,1,0,-3,1,2.97
595,-1,0,-1,2,3,0,-1,-1,2.975
596,1,-2,-3,-10,-3,-3,-1,0,2.98
597,-2,0,1,-4,3,3,1,0,2.985
598,-2,0,-2,2,-2,-2,-1,0,2.99
599,0,-1,-1,0,-1,1,-2,-2,2.995
600,-2,-3,0,4,1,2,-1,1,3.0
601,0,-1,-1,-9,-3,-1,-1,0,3.005
602,-1,1,-1,5,-2,-3,-1,0,3.0100000000000002
603,-2,-2,-1,-6,-1,-1,-1,-1,3.015
604,-1,-1,-3,1,0,-3,-1,-1,3.02
605,0,0,1,3,-4,-2,0,-1,3.025
606,0,-1,-3,0,-2,0,-2,-2,3.0300000000000002
607,-2,-1,0,-2,-3,-3,-3,0,3.035
608,0,-1,0,0,-4,-2,-2,-2,3.04
609,1,0,-1,-4,2,2,-1,0,3.045
610,0,-2,1,-4,-1,0,2,-1,3.0500000000000003
611,-2,0,0,-13,-2,-1,0,-1,3.055
612,-1,-1,0,17,10,-1,1,0,3.06
613,-1,-2,-2,3,5,-1,-2,0,3.065
614,-1,-1,0,0,1,1,-1,-1,3.0700000000000003
615,1,0,-1,-14,-3,-1,-2,-1,3.075
616,-1,0,2,12,3,1,-1,0,3.08
617,0,-1,-3,-5,-2,-3,-1,-2,3.085
618,-1,-1,2,3,0,0,0,-1,3.09
619,-1,-2,-2,0,-3,-1,-1,-1,3.095
620,-1,-2,1,-8,-6,0,-2,-1,3.1
621,-1,0,-1,-3,-6,-4,-1,-2,3.105
622,-2,-1,-1,-2,3,-1,-1,0,3.11
623,-2,-2,-3,6,-4,-2,0,-2,3.115
624,-2,0,4,0,2,1,-1,-1,3.12
625,-1,0,0,-2,-2,0,1,0,3.125
626,-2,-3,-1,-4,-5,-1,-1,-1,3.13
627,0,-1,-2,1,-2,-3,-1,1,3.1350000000000002
628,1,-1,-2,-1,1,3,0,-1,3.14
629,0,0,0,-2,-1,0,-1,0,3.145
630,-1,-1,-1,-2,-1,-1,0,-1,3.15
631,-1,-1,1,5,1,0,-1,-1,3.1550000000000002
632,0,-1,-5,-18,-11,-3,-1,0,3.16
633,1,0,2,11,15,3,1,0,3.165
634,0,-2,1,5,-2,-1,0,0,3.17
635,-2,-2,-2,-14,-6,0,1,-1,3.1750000000000003
636,1,1,1,18,13,1,0,0,3.18
637,-1,-2,0,-6,-5,-2,-1,-1,3.185
638,-1,-2,-3,-4,-2,-3,-2,-2,3.19
639,-1,0,-1,-1,-1,-1,0,0,3.1950000000000003
640,-3,-2,-4,-4,-7,-3,-2,-3,3.2
641,0,0,0,7,2,0,-1,0,3.205
642,0,0,-5,3,1,-2,1,-1,3.21
643,-1,-2,2,4,-3,-1,-2,-2,3.215
644,0,0,-2,-9,-2,-1,1,-1,3.22
645,-1,-1,0,-4,-4,0,-1,0,3.225
646,-3,2,1,-4,-4,0,0,-1,3.23
647,1,1,-2,1,1,0,-2,0,3.235
648,0,0,-1,-2,-1,-3,-1,-1,3.24
649,-2,-1,-1,-10,-5,0,0,-2,3.245
650,-1,-2,-1,3,4,-2,-1,-1,3.25
651,-1,-1,1,-3,0,-1,1,-2,3.255
652,0,-1,-1,5,4,0,1,1,3.2600000000000002
653,-1,-2,-2,-13,-14,-3,1,-2,3.265
654,1,-1,1,11,4,1,0,-2,3.27
655,-2,-1,1,5,7,-1,-2,-1,3.275
656,2,-2,0,-1,-6,1,0,0,3.2800000000000002
657,-1,-1,2,-2,-2,-2,-2,0,3.285
658,0,-1,-1,-7,-5,-3,-2,-1,3.29
659,-1,-3,-3,-4,-6,-3,0,-1,3.295
660,-1,0,1,3,1,0,0,0,3.3000000000000003
661,1,-1,-4,-5,-6,-2,0,-1,3.305
662,-1,-1,-1,-5,1,1,-2,0,3.31
663,0,-1,-1,-3,1,2,0,0,3.315
664,-1,0,1,6,5,0,0,-1,3.3200000000000003
665,-2,0,0,5,3,0,-2,-2,3.325
666,-3,-2,-3,-4,-3,-2,-1,-1,3.33
667,-1,-1,-2,-5,3,0,1,-2,3.335
668,-2,-2,-1,-4,-5,-1,-2,0,3.34
669,-1,-1,-4,-11,-3,-2,-2,-1,3.345
670,0,1,2,13,3,0,1,0,3.35
671,-1,0,0,9,1,-1,-2,-1,3.355
672,0,-2,-2,-1,-6,-1,0,0,3.36
673,0,-2,-1,3,4,-2,0,0,3.365
674,-3,-2,-3,-12,-10,-1,-1,-1,3.37
675,0,-2,-5,-4,-8,-3,-3,-1,3.375
676,-1,3,6,3,4,1,0,-2,3.38
677,0,-2,0,-3,-4,-1,0,-2,3.3850000000000002
678,-1,-1,-3,1,3,0,-3,0,3.39
679,0,-2,0,0,-3,0,0,-1,3.395
680,1,-2,-5,-7,-5,-2,-2,0,3.4
681,-1,0,0,3,2,1,1,0,3.4050000000000002
682,-1,-2,-1,-7,-3,-1,-1,-2,3.41
683,-1,-1,1,1,0,-4,-1,-1,3.415
684,0,0,1,2,3,2,-2,-2,3.42
685,-2,-2,-4,5,0,-2,-2,0,3.4250000000000003
686,-1,-1,-2,-6,-4,-3,-1,-1,3.43
687,-1,-1,1,16,5,-1,-1,0,3.435
688,-2,-1,0,-1,-5,-3,-1,-2,3.44
689,0,-1,-2,-6,-4,-1,-1,-2,3.4450000000000003
690,0,2,-4,3,4,-2,-1,-2,3.45
691,-1,0,0,0,0,-2,-1,-1,3.455
692,0,0,-3,-10,-7,-2,0,0,3.46
693,-1,-1,-1,-5,-1,0,-1,-1,3.465
694,0,-1,0,0,4,2,0,0,3.47
695,0,0,-1,-1,-1,-1,-1,1,3.475
696,1,0,-2,-2,1,0,1,-1,3.48
697,0,-2,-1,-2,-5,-2,-1,0,3.485
698,1,0,2,2,5,0,0,-1,3.49
699,-1,0,2,-1,2,-1,0,0,3.495
700,-3,-2,-1,1,3,0,0,1,3.5
701,0,-1,0,2,0,2,-1,1,3.505
702,-3,-1,-1,5,-3,-2,-1,-2,3.5100000000000002
703,0,-1,-2,0,0,-1,-2,-1,3.515
704,-1,-1,-3,-5,-3,-3,-1,-2,3.52
705,0,-1,4,9,5,1,0,-2,3.525
706,-1,-1,0,0,-2,0,-2,0,3.5300000000000002
707,-2,-1,-4,-5,-1,-1,1,-1,3.535
708,-2,-2,-4,5,-8,-3,-1,0,3.54
709,-3,0,-4,-21,-5,-3,0,0,3.545
710,0,-1,2,20,10,3,0,0,3.5500000000000003
711,1,-1,0,6,-1,2,-1,0,3.555
712,-3,0,-1,-5,-3,-1,-2,0,3.56
713,-1,1,0,1,-1,0,0,-2,3.565
714,-1,-2,-3,-17,-8,-5,-2,-1,3.5700000000000003
715,-1,-2,-4,-1,-1,1,0,-2,3.575
716,0,0,0,-4,0,0,-1,0,3.58
717,-1,0,2,11,7,3,0,0,3.585
718,-2,-3,-2,-6,-4,-4,-2,-1,3.59
719,-1,-1,0,1,1,0,0,1,3.595
720,-1,-2,-2,-4,-2,-1,-1,-3,3.6
721,-1,-2,0,6,4,1,0,1,3.605
722,0,-1,-4,-4,-10,-1,-1,-2,3.61
723,-3,-1,0,-5,-3,-2,-3,0,3.615
724,-2,-2,1,4,5,0,0,-1,3.62
725,-2,-1,-1,-3,-4,-1,1,1,3.625
726,-1,-1,-1,0,1,1,0,0,3.63
727,-3,-1,-3,-19,-10,-4,-1,-2,3.6350000000000002
728,-1,1,3,14,10,2,-1,-1,3.64
729,0,0,-1,4,4,1,0,-1,3.645
730,-1,-2,-1,-8,-7,-1,-1,-1,3.65
731,1,-2,-2,2,2,1,1,-1,3.6550000000000002
732,-1,0,-1,-1,3,2,0,-1,3.66
733,-1,-2,1,-1,-2,-2,0,-2,3.665
734,-2,0,-2,-14,-6,-2,-1,-1,3.67
735,1,-1,1,-2,4,1,1,-1,3.6750000000000003
736,-1,-3,1,0,-14,-3,0,1,3.68
737,1,0,-1,4,1,-1,-1,-1,3.685
738,-1,0,2,0,2,0,0,1,3.69
739,0,0,-2,4,-4,-1,-1,-2,3.6950000000000003
740,1,1,-1,-3,1,-1,1,-1,3.7
741,0,-2,-1,-3,-3,-3,-3,0,3.705
742,-1,-1,0,1,-7,-1,-2,-3,3.71
743,-1,-2,0,5,9,0,-2,-2,3.715
744,1,2,1,8,1,-1,-1,1,3.72
745,-2,0,-1,-9,-9,-2,-4,-1,3.725
746,-2,-3,-4,-5,1,1,1,-1,3.73
747,-1,-1,2,6,2,1,1,-1,3.735
748,0,-1,-3,-6,0,-3,-1,-1,3.74
749,-1,-3,-1,4,3,-1,-2,-1,3.745
750,-1,-2,-2,-4,-5,-4,-1,-1,3.75
751,-1,0,2,-1,-3,0,-1,-1,3.755
752,1,0,-2,-4,2,1,1,-1,3.7600000000000002
753,-1,0,-3,-15,-4,-1,0,-1,3.765
754,-1,-2,3,23,9,3,0,0,3.77
755,0,0,-2,-2,-1,-3,-1,-1,3.775
756,0,0,0,-3,1,-1,-2,-1,3.7800000000000002
757,-2,0,-1,1,0,0,-1,-1,3.785
758,-1,0,-2,-8,0,-2,-2,-2,3.79
759,0,0,1,3,5,2,0,1,3.795
760,-2,-3,2,11,-6,-1,-3,-1,3.8000000000000003
761,1,-1,-1,-5,-5,-1,-1,-2,3.805
762,0,-1,-1,12,9,0,2,-2,3.81
763,-2,0,-1,-4,-6,-3,-2,0,3.815
764,-2,-2,-2,-12,-1,-1,0,0,3.8200000000000003
765,-1,1,0,1,-1,1,1,-3,3.825
766,-2,-1,-2,-6,-7,-4,-4,-1,3.83
767,1,0,-1,1,-2,2,2,1,3.835
768,1,2,1,3,7,3,0,0,3.84
769,-1,-2,-3,0,0,-2,0,-1,3.845
770,0,0,1,-5,-5,-2,-1,-1,3.85
771,-2,-1,-4,-6,-4,-1,-1,-1,3.855
772,-2,-1,-1,-4,0,0,-2,1,3.86
773,-2,-1,1,2,1,0,-2,-2,3.865
774,-1,0,0,-3,0,1,1,-1,3.87
775,-1,-3,-2,-9,2,-1,-1,0,3.875
776,1,-1,1,15,-4,-1,1,-1,3.88
777,-1,-2,-1,2,1,0,1,1,3.8850000000000002
778,0,0,-2,-8,-7,-3,-1,-1,3.89
779,0,0,1,-4,-3,-1,-1,-1,3.895
780,-3,-1,-1,0,2,-2,-1,-2,3.9
781,-1,-1,-1,2,-6,-2,-1,0,3.9050000000000002
782,-1,-2,1,-1,6,0,-3,0,3.91
783,-1,-1,-4,-12,-4,0,0,-1,3.915
784,-1,0,2,13,1,-1,0,-2,3.92
785,-1,-1,-1,-1,-1,1,0,-1,3.9250000000000003
786,0,1,-1,5,2,1,0,-2,3.93
787,-2,-1,0,-3,-3,-2,-1,-2,3.935
788,-1,1,0,-5,5,1,0,1,3.94
789,-3,1,-4,-3,0,-2,-2,-3,3.9450000000000003
790,-2,-2,-1,-4,-7,-2,-2,-2,3.95
791,0,0,2,5,0,0,-1,0,3.955
792,0,-1,-3,2,-1,1,0,-1,3.96
793,-1,-1,2,2,1,-2,-2,1,3.9650000000000003
794,-1,-2,-3,-10,-7,-4,0,0,3.97
795,-3,-1,1,9,1,-1,1,-1,3.975
796,-2,-2,-4,-13,-3,-3,-1,-2,3.98
797,-1,-2,-1,-6,-10,-2,0,-3,3.985
798,-2,-2,-2,12,11,3,0,1,3.99
799,0,-1,0,-8,-3,-2,-1,-2,3.995
800,-1,-3,3,5,5,2,2,1,4.0
801,-3,-4,0,-2,-4,-2,-3,-1,4.005
802,0,1,0,0,-4,-3,-1,1,4.01
803,0,0,1,5,5,0,0,-1,4.015
804,1,-2,-4,-14,-6,-1,-1,0,4.0200000000000005
805,1,-2,-1,1,1,-2,-1,-1,4.025
806,-1,-1,-1,-2,-1,1,-2,-1,4.03
807,-1,-1,-3,0,-5,-1,-2,-2,4.035
808,-1,1,0,-12,-6,-1,-3,-4,4.04
809,-2,-1,3,20,9,5,1,0,4.045
810,-1,0,-4,-2,-7,-2,-2,-1,4.05
811,1,1,1,3,1,2,0,1,4.055
812,-1,-2,-3,-2,-6,-2,-1,1,4.0600000000000005
813,-1,1,-1,-1,1,-1,-1,-1,4.065
814,-1,-4,-2,-4,-3,-4,-2,-2,4.07
815,-2,-1,-1,0,0,0,0,-1,4.075
816,-2,0,-3,-11,0,-1,-1,0,4.08
817,0,0,2,16,4,0,0,0,4.085
818,1,0,2,2,0,-2,-2,-1,4.09
819,-2,-2,-2,-1,-1,-1,-2,0,4.095
820,0,-1,0,0,0,2,-1,-1,4.1
821,-1,0,-5,-12,-4,-3,-1,-1,4.105
822,0,1,1,-2,-1,-1,-1,-1,4.11
823,1,0,-1,0,-2,-2,0,-1,4.115
824,-1,1,1,3,0,-1,-1,1,4.12
825,-1,-3,-2,-5,-6,0,-2,-2,4.125
826,-2,1,1,2,2,3,1,0,4.13
827,-2,-1,-2,-1,-1,-1,-1,0,4.135
828,-1,-3,0,2,0,0,0,-1,4.14
829,0,-1,-2,-23,-10,-6,-2,-1,4.1450000000000005
830,0,0,1,24,11,1,-2,-1,4.15
831,1,-1,0,-2,-8,-4,-2,-2,4.155
832,-2,-1,-1,0,4,0,-3,-2,4.16
833,-1,0,-3,-13,-14,-4,-2,0,4.165
834,0,2,0,19,9,2,0,0,4.17
835,-1,-1,-2,-1,-2,-1,1,0,4.175
836,-1,-2,0,4,-3,-2,0,-2,4.18
837,-1,1,-3,-18,0,-2,-2,1,4.1850000000000005
838,-1,-1,-3,-1,-3,-1,-2,0,4.19
839,-2,-1,-1,6,1,-1,1,0,4.195
840,1,0,0,-4,-2,-1,0,1,4.2
841,-1,-3,-4,6,5,0,0,0,4.205
842,-1,-2,0,-21,-10,-2,-2,-3,4.21
843,-1,0,2,9,9,2,-2,-1,4.215
844,0,0,-2,-3,-1,-1,0,-1,4.22
845,-1,0,-2,5,0,0,0,-1,4.225
846,-2,-1,-4,-15,-9,-3,-1,-3,4.23
847,0,0,3,6,8,3,-1,0,4.235
848,-1,-1,-3,-1,-2,0,0,0,4.24
849,1,-2,5,12,0,0,0,0,4.245
850,-2,-1,-3,-9,0,-2,-1,0,4.25
851,0,1,1,-4,0,-1,0,0,4.255
852,-2,-1,-2,-1,-1,-1,0,-1,4.26
853,0,-2,3,8,6,1,0,0,4.265
854,0,-1,0,-14,-11,-4,-1,-1,4.2700000000000005
855,-2,-1,-1,15,6,-1,-1,-1,4.275
856,0,-1,1,2,0,1,-1,1,4.28
857,-2,0,-2,-3,0,-1,-2,-2,4.285
858,1,0,-1,0,-2,-2,0,-2,4.29
859,-2,-1,-4,-4,-10,-3,-2,-1,4.295
860,0,0,0,1,6,2,-1,1,4.3
861,-1,-1,-5,-13,-3,0,-1,-2,4.305
862,0,-1,2,18,10,4,1,-1,4.3100000000000005
863,-1,-3,-1,-8,-5,0,0,0,4.315
864,-1,0,-1,1,0,-2,-1,-3,4.32
865,-2,-3,0,-2,-3,-4,-1,0,4.325
866,2,0,-4,-7,-1,0,0,-2,4.33
867,1,-1,1,-4,-2,0,0,0,4.335
868,-2,0,-2,-2,-2,-2,-1,-1,4.34
869,-1,0,-1,-5,-7,-5,-2,-3,4.345
870,0,-1,-2,12,11,1,-2,1,4.3500000000000005
871,-1,-1,-1,0,1,0,0,0,4.355
872,0,-1,-1,-3,-5,-2,0,-1,4.36
873,0,-1,-2,2,-2,0,-1,-2,4.365
874,0,-1,0,-1,-2,-1,-1,-1,4.37
875,-1,0,-1,-6,-2,-3,-1,-1,4.375
876,0,-1,1,3,2,0,0,-1,4.38
877,-2,-1,-3,-1,-3,-2,-2,0,4.385
878,-1,-1,0,10,-9,-2,-1,-1,4.39
879,-1,1,-4,1,2,0,0,-1,4.3950000000000005
880,0,-1,3,1,0,-3,2,0,4.4
881,-2,0,-1,3,-1,0,-1,-1,4.405
882,-1,0,-1,-2,-5,-2,-1,-1,4.41
883,-1,-1,0,-2,-1,0,0,0,4.415
884,-2,-1,-2,2,0,0,-1,0,4.42
885,-1,0,0,-5,2,0,1,1,4.425
886,-3,-1,0,-3,4,0,0,0,4.43
887,-1,-1,-4,-4,-7,-2,0,0,4.4350000000000005
888,-2,-3,-2,-10,-11,-2,-2,-1,4.44
889,-1,-1,0,10,16,3,0,-2,4.445
890,-2,-1,-2,-10,-6,-2,-1,-2,4.45
891,2,-1,1,4,3,1,0,0,4.455
892,-2,-1,-4,-11,-12,-4,-4,-1,4.46
893,0,0,0,1,4,1,0,1,4.465
894,0,-4,-1,4,-1,-1,0,1,4.47
895,0,0,1,-5,-3,-1,-2,-1,4.4750000000000005
896,1,-1,-1,-2,0,0,1,-1,4.48
897,-1,-1,2,12,-3,-3,-2,-3,4.485
898,0,-1,-3,-11,-7,0,-1,-1,4.49
899,0,0,2,-2,-1,-1,-2,-1,4.495
900,0,0,1,6,4,1,-1,0,4.5
901,-2,-1,-4,-11,-5,-2,0,-1,4.505
902,-1,-1,1,12,-2,-1,1,-1,4.51
903,-1,-1,-1,-1,-1,0,0,0,4.515
904,-1,1,-1,-1,-1,0,0,-1,4.5200000000000005
905,-1,-2,-1,0,1,-1,0,0,4.525
906,0,-2,-2,-15,1,-2,-1,-2,4.53
907,-1,-1,2,5,1,1,1,-1,4.535
908,0,-1,-3,-14,-7,-3,-1,0,4.54
909,0,1,4,14,6,1,0,1,4.545
910,-2,1,0,-3,3,-1,0,0,4.55
911,-1,0,-2,1,-4,-2,-1,-2,4.555
912,1,0,-2,0,0,0,1,-1,4.5600000000000005
913,0,-4,-2,-2,-5,-2,-1,-3,4.565
914,-1,-2,-2,-2,0,0,0,0,4.57
915,1,0,0,-5,0,-3,-2,-1,4.575
916,-1,-1,-2,-9,4,2,0,-1,4.58
917,-1,-1,-1,18,3,0,0,-1,4.585
918,-2,0,-1,-1,0,-1,0,1,4.59
919,-2,-1,-1,-7,-4,-2,0,-1,4.595
920,0,-1,1,8,6,0,-1,-1,4.6000000000000005
921,-2,0,0,-7,-4,-1,-1,0,4.605
922,0,-2,-1,-10,-1,1,-2,-2,4.61
923,-1,-2,-3,-1,-10,-3,-2,-1,4.615
924,-1,2,4,23,14,4,0,0,4.62
925,-1,-1,-4,-9,-4,-2,-1,-1,4.625
926,0,-2,-1,4,-1,0,1,-2,4.63
927,-1,-1,-1,-8,0,-1,1,0,4.635
928,0,-1,-3,-3,-5,-3,-2,-1,4.64
929,-2,-1,-4,-10,-5,-1,-1,0,4.6450000000000005
930,-2,2,2,1,2,2,-1,0,4.65
931,1,-1,-1,4,7,2,-2,0,4.655
932,-3,-2,-2,-1,-4,-3,-1,-2,4.66
933,-1,-1,-2,-4,-3,-3,-1,-2,4.665
934,-2,-2,-2,-5,-8,-5,-2,0,4.67
935,2,0,-1,-6,4,2,0,1,4.675
936,-1,-1,2,17,0,-1,0,-2,4.68
937,0,0,-2,-9,-5,-2,-3,-2,4.6850000000000005
938,0,-1,1,3,2,3,2,-1,4.69
939,-1,0,-1,4,1,0,-1,-2,4.695
940,-2,0,-1,-8,-4,-1,0,0,4.7
941,-3,-1,-1,-3,-4,-2,-2,0,4.705
942,0,-1,-1,1,-2,0,-1,0,4.71
943,-2,0,1,-1,2,1,0,0,4.715
944,-1,-1,-2,-4,-2,0,-2,-3,4.72
945,0,0,-1,1,-2,0,0,-1,4.7250000000000005
946,-2,-1,-2,-8,0,-3,-1,-2,4.73
947,-2,0,0,12,9,2,0,0,4.735
948,-2,0,-1,-3,-3,-1,0,0,4.74
949,-2,-3,-1,-4,-5,-3,-3,-2,4.745
950,2,0,-1,7,11,2,0,0,4.75
951,0,-1,-2,-3,-4,-1,1,0,4.755
952,0,-1,0,4,-2,-1,-2,1,4.76
953,-2,1,-2,1,-2,-1,0,-1,4.765
954,0,-1,-3,-18,-3,-1,-1,-1,4.7700000000000005
955,-3,0,4,22,6,-1,1,-2,4.775
956,-1,-1,-2,-2,-5,-3,-1,0,4.78
957,0,-1,-1,-8,1,1,0,0,4.785
958,-1,0,1,0,-1,1,-1,-2,4.79
959,0,-1,-1,3,-1,0,-1,1,4.795
960,1,-1,-2,-8,-7,-3,-2,-2,4.8
961,1,-1,0,4,4,1,2,2,4.805
962,-2,-1,-1,2,-1,-1,0,-1,4.8100000000000005
963,-1,-1,-3,-12,-5,0,-1,0,4.815
964,-2,-2,3,-1,-2,0,-1,-2,4.82
965,1,1,-2,5,0,-1,-3,-3,4.825
966,-2,-1,-1,5,5,0,-2,0,4.83
967,1,-1,-1,0,-5,-1,0,0,4.835
968,0,-1,-2,-3,4,-1,0,0,4.84
969,-2,-1,2,7,2,0,0,-1,4.845
970,-1,-1,-3,-2,-5,-3,-1,1,4.8500000000000005
971,-1,0,0,-3,-2,0,-1,-2,4.855
972,-1,-1,-5,-7,0,-1,0,-1,4.86
973,-2,-2,1,6,-6,-1,-2,-1,4.865
974,-1,1,0,-5,-2,0,1,-1,4.87
975,-2,-1,-1,3,-2,-1,-1,-1,4.875
976,-1,0,2,9,6,-1,2,0,4.88
977,-2,-1,-3,-8,-2,-2,-1,-1,4.885
978,0,-1,0,-10,-3,-1,-1,-1,4.89
979,-1,-1,1,-1,-3,0,0,-1,4.8950000000000005
980,-2,-3,-2,-5,4,0,-3,-2,4.9
981,1,0,1,4,4,0,-1,0,4.905
982,-1,-1,-2,-4,-4,-2,0,-1,4.91
983,0,-2,-5,-7,-1,-2,-3,-2,4.915
984,0,-1,2,8,4,1,1,-1,4.92
985,0,-1,-2,-6,-4,-2,0,-2,4.925
986,0,-1,0,9,3,0,0,-1,4.93
987,-1,-1,-2,-11,-8,-3,-2,0,4.9350000000000005
988,-2,1,-1,-5,0,0,-1,0,4.94
989,-1,1,3,9,5,2,1,0,4.945
990,0,1,1,-3,-6,-1,-2,-1,4.95
991,-1,-1,1,0,0,-2,-3,-1,4.955
992,-1,-2,-2,-9,-5,-2,-1,0,4.96
993,-2,-1,-2,-5,1,-1,0,0,4.965
994,-1,-2,-1,4,-2,-1,0,0,4.97
995,-2,0,-1,-3,3,1,1,-1,4.9750000000000005
996,0,-1,-2,2,0,-1,-2,-1,4.98
997,-1,-2,-3,-5,-5,-1,-1,-1,4.985
998,0,0,1,7,2,1,-1,0,4.99
999,0,-2,1,-2,-1,-1,0,0,4.995
1000,-2,-1,-2,-2,-5,-4,-1,-1,5.0
1001,-3,-1,-2,-3,1,-1,-1,0,5.005
1002,0,-2,-1,-3,-2,-1,0,-1,5.01
1003,0,-2,0,-1,1,1,0,-1,5.015
1004,0,0,-1,0,-2,-2,-2,-2,5.0200000000000005
1005,-1,-1,-2,-2,-1,-2,-2,-1,5.025
1006,0,0,-3,1,2,0,-1,1,5.03
1007,0,1,-2,-14,-5,-3,-1,0,5.035
1008,0,-1,2,15,4,3,0,-1,5.04
1009,-1,0,1,0,-2,-2,-2,-1,5.045
1010,-2,-2,-2,-3,-4,-2,-1,-2,5.05
1011,1,-1,-2,-9,-1,-2,-1,-2,5.055
1012,-1,-1,0,-11,-9,-2,-2,-1,5.0600000000000005
1013,0,0,1,13,7,2,-1,-2,5.065
1014,0,0,1,4,2,1,-1,-1,5.07
1015,-1,-1,-2,2,-3,-2,-2,-1,5.075
1016,-2,-2,-3,-5,-8,-4,-2,-2,5.08
1017,-2,-2,-2,-7,3,-1,-1,-2,5.085
1018,-1,0,0,-1,-4,-2,-1,-1,5.09
1019,0,0,1,1,2,0,-1,0,5.095
1020,-2,-2,-2,-4,-2,-1,-3,-1,5.1000000000000005
1021,-1,0,1,0,-2,-3,-1,-1,5.105
1022,-3,0,-1,2,4,-2,0,0,5.11
1023,-1,0,-2,-1,-4,2,-1,0,5.115
1024,-2,-2,-2,-15,-8,-5,-1,0,5.12
1025,0,0,1,14,12,3,0,-1,5.125
1026,0,1,1,-9,-5,-1,1,-1,5.13
1027,1,-2,2,14,8,0,1,-1,5.135
1028,-1,-1,-2,-3,-2,-1,-1,-1,5.14
1029,0,-2,-3,-13,-5,-2,-1,-1,5.1450000000000005
1030,-1,0,1,-2,-3,-2,-1,0,5.15
1031,-1,-2,-1,-1,0,0,-2,-1,5.155
1032,0,0,0,2,1,2,1,-1,5.16
1033,0,-2,-3,-12,-5,-3,-2,0,5.165
1034,-1,-3,-1,10,0,0,-1,-1,5.17
1035,-1,1,0,-10,9,1,2,0,5.175
1036,-2,-1,0,20,4,0,1,1,5.18
1037,-1,-1,-3,-7,-3,-1,0,-1,5.1850000000000005
1038,1,0,-1,2,-4,-2,1,1,5.19
1039,-1,-1,-1,-1,-1,-1,-1,0,5.195
1040,0,0,-1,-5,1,0,1,0,5.2
1041,-1,0,-2,-6,-6,-3,-2,0,5.205
1042,0,1,0,-3,2,1,-2,-2,5.21
1043,1,-1,2,8,2,1,0,0,5.215
1044,-1,1,-2,-1,-1,-1,-1,-1,5.22
1045,0,-3,-2,-6,-1,0,-1,0,5.2250000000000005
1046,1,0,-1,-4,-6,-2,0,0,5.23
1047,0,0,0,8,0,-2,0,-1,5.235
1048,-1,0,-1,-2,3,0,-1,-1,5.24
1049,0,-2,1,-1,0,-1,0,-2,5.245
1050,-3,-2,-2,-4,-2,0,-1,-2,5.25
1051,-1,-2,-2,-2,-3,0,-1,-1,5.255
1052,1,-1,0,6,-2,-2,-3,-2,5.26
1053,-1,0,0,-1,-2,-3,-1,-1,5.265
1054,1,1,-1,-2,2,0,-1,-1,5.2700000000000005
1055,-2,-1,1,4,-1,-2,-1,-2,5.275
1056,-1,-2,-2,-4,4,1,0,1,5.28
1057,-1,-1,0,3,-12,-1,-1,-1,5.285
1058,-2,-3,0,-2,6,0,0,-1,5.29
1059,-1,0,-3,4,3,0,-1,-1,5.295
1060,-2,0,0,-4,-1,-1,0,-2,5.3
1061,-2,-1,0,7,-3,-1,-2,-1,5.305
1062,-1,-1,-1,1,-2,-1,-1,0,5.3100000000000005
1063,-1,-2,0,-7,-7,-2,0,-1,5.315
1064,-1,-2,-3,-3,1,-1,0,-3,5.32
1065,-1,-1,-2,6,-1,-1,0,0,5.325
1066,-1,-2,0,-13,-4,-3,0,-1,5.33
1067,-1,0,2,10,-1,0,0,2,5.335
1068,-2,-1,0,-5,-2,-2,-3,0,5.34
1069,-2,1,-2,-7,0,0,1,-2,5.345
1070,2,-1,1,5,5,2,2,0,5.3500000000000005
1071,0,-2,-2,-8,-2,-1,-1,-1,5.355
1072,-2,-1,0,2,-1,-1,-2,-1,5.36
1073,0,0,-2,-4,2,-1,-1,0,5.365
1074,-1,-1,1,-3,-4,-1,-1,-1,5.37
1075,-2,-1,0,0,1,1,-1,-2,5.375
1076,0,-1,-1,-6,-7,-3,-1,-2,5.38
1077,0,0,1,8,8,2,-1,0,5.385
1078,-1,1,0,-4,-3,0,0,-2,5.39
1079,-1,-1,-2,-5,-8,-4,-3,-2,5.3950000000000005
1080,-1,-1,0,3,-4,-2,-3,-1,5.4
1081,1,-2,-1,-3,5,2,2,0,5.405
1082,-1,0,-1,4,-2,-1,0,-2,5.41
1083,-2,-1,-4,-17,-5,-2,0,-2,5.415
1084,-1,0,1,19,2,0,-2,-2,5.42
1085,1,-2,-3,-4,-5,-1,-1,0,5.425
1086,-1,0,-1,4,2,-1,-1,0,5.43
1087,-1,-1,-2,-13,-1,-1,-1,-1,5.4350000000000005
1088,-1,-3,0,10,2,0,1,1,5.44
1089,-2,0,-2,-3,-2,-1,-2,0,5.445
1090,-1,-3,-5,-4,-3,-1,0,0,5.45
1091,-1,0,2,4,3,2,3,-1,5.455
1092,-2,-1,-3,-9,-1,0,0,-2,5.46
1093,-2,-2,-3,1,0,-2,-1,-2,5.465
1094,0,-2,-1,-1,-2,-1,-2,-2,5.47
1095,1,-1,-2,2,0,0,-3,0,5.4750000000000005
1096,0,-1,-3,-6,-3,-2,-1,0,5.48
1097,-2,0,0,0,0,0,1,-2,5.485
1098,-1,-1,-2,-2,0,-2,-1,-2,5.49
1099,-1,-1,0,2,-1,-1,-1,1,5.495
1100,-1,-1,-2,-15,-4,-2,-2,0,5.5
1101,-2,-2,-1,10,1,-1,-1,-1,5.505
1102,0,0,3,12,11,5,2,2,5.51
1103,0,-1,0,4,-5,-1,0,-2,5.515
1104,-2,-3,-4,-7,6,2,1,0,5.5200000000000005
1105,0,-1,-4,-17,-10,-4,-2,1,5.525
1106,-1,-1,3,10,0,-1,-1,-1,5.53
1107,-1,-2,-1,0,0,-1,-2,-1,5.535
1108,0,-1,0,6,-6,0,-2,-2,5.54
1109,0,-1,1,1,3,1,0,-1,5.545
1110,-1,-1,-3,-4,2,-1,-2,-1,5.55
1111,-1,0,-1,-2,-3,-3,-1,-1,5.555
1112,-2,-1,-2,-12,-3,-4,-1,-2,5.5600000000000005
1113,0,0,0,-2,-1,0,0,0,5.565
1114,0,-1,-1,-3,-3,0,-1,1,5.57
1115,1,0,-2,-4,1,1,1,-2,5.575
1116,-2,0,0,2,0,0,-1,-1,5.58
1117,1,-1,0,2,0,0,-1,-1,5.585
1118,1,-1,1,-2,-3,-1,-2,-1,5.59
1119,-2,-1,-3,-2,-2,0,0,0,5.595
1120,0,0,0,2,1,0,-1,-2,5.6000000000000005
1121,-2,-2,-1,1,-2,-3,0,-1,5.605
1122,0,-1,0,-2,-1,0,0,-1,5.61
1123,0,-1,0,2,0,-2,-1,0,5.615
1124,0,-1,-4,-13,-11,-3,-1,-1,5.62
1125,1,1,2,10,10,3,-1,-1,5.625
1126,-1,0,-1,2,-1,0,1,-1,5.63
1127,-1,-1,0,2,0,1,0,-1,5.635
1128,-1,-2,-3,-11,-5,-3,-1,-2,5.64
1129,0,0,1,-5,4,1,-1,-1,5.6450000000000005
1130,0,0,2,7,1,0,-1,1,5.65
1131,0,-1,-1,3,0,-1,1,-1,5.655
1132,-1,-1,-3,1,2,0,0,0,5.66
1133,-1,-1,2,-5,-8,-4,1,0,5.665
1134,-2,-2,-4,-19,-2,-3,-2,-1,5.67
1135,-1,-4,1,24,-3,-3,-2,-2,5.675
1136,-1,-1,2,10,9,2,-1,-1,5.68
1137,-1,-1,-1,-6,-7,-3,0,-1,5.6850000000000005
1138,-1,0,1,2,4,1,2,1,5.69
1139,0,-2,-1,-11,-1,-3,-2,-2,5.695
1140,-1,0,0,2,1,-1,-2,-2,5.7
1141,-1,0,1,-1,-6,1,-2,0,5.705
1142,-1,-3,-1,-7,-7,-2,-1,0,5.71
1143,-1,0,-1,-5,3,0,-1,0,5.715
1144,1,-1,0,7,4,0,1,-1,5.72
1145,-2,-1,2,-1,-3,0,1,-1,5.7250000000000005
1146,-2,-2,-2,1,-1,-2,0,-2,5.73
1147,-2,-1,-2,-8,-1,-1,0,-2,5.735
1148,-1,-1,2,-7,-5,-3,-1,0,5.74
1149,0,1,1,12,4,0,-1,-2,5.745
1150,-1,0,-2,3,-9,-3,-1,-1,5.75
1151,-1,-3,-2,3,11,3,0,-2,5.755
1152,-2,-1,-1,-7,-6,-2,0,1,5.76
1153,-1,0,-1,-1,-4,-1,-1,-2,5.765
1154,2,-1,2,2,0,-2,0,0,5.7700000000000005
1155,-1,0,-2,-7,-4,-3,-3,0,5.775
1156,-1,-2,-3,-5,-6,-2,0,-1,5.78
1157,1,-1,1,6,15,5,1,0,5.785
1158,0,-2,-5,-17,-11,-3,-1,-2,5.79
1159,0,-1,1,6,1,1,0,-2,5.795
1160,-2,0,-1,-2,0,-1,-1,-1,5.8
1161,-2,-2,-1,4,-2,-3,0,-1,5.805
1162,-1,-1,-3,-7,0,-1,-3,-2,5.8100000000000005
1163,-1,-1,-2,-3,-4,-1,-1,0,5.815
1164,-2,-2,4,7,0,-1,-2,-1,5.82
1165,0,-3,-3,-10,-2,0,-1,1,5.825
1166,1,1,0,5,3,1,0,0,5.83
1167,-1,-2,-2,-6,-7,-3,-2,-1,5.835
1168,1,2,-1,5,2,-1,-1,-1,5.84
1169,-1,0,-2,-3,-2,-1,0,0,5.845
1170,-2,0,-1,0,3,1,-1,-1,5.8500000000000005
1171,-1,-2,-1,-2,-3,-2,0,0,5.855
1172,0,0,0,0,0,-1,-1,0,5.86
1173,-1,-1,-4,-13,-3,-1,-1,0,5.865
1174,-2,-1,0,14,3,1,1,-2,5.87
1175,-3,-1,-2,-5,-13,-5,-3,-2,5.875
1176,0,-2,-1,7,19,4,1,-1,5.88
1177,1,-3,-1,-25,-13,-4,-1,-2,5.885
1178,0,-1,5,30,16,4,1,1,5.89
1179,-3,0,0,-4,-6,-2,-1,-2,5.8950000000000005
1180,-2,-1,-2,-4,-7,-4,-1,-1,5.9
1181,0,1,-3,-1,3,1,-2,-1,5.905
1182,-2,-1,-2,-13,-7,-2,-2,0,5.91
1183,2,-1,-3,-8,2,0,-1,-1,5.915
1184,-1,-1,3,12,1,-1,0,0,5.92
1185,-2,1,1,7,1,0,1,-1,5.925
1186,-2,-1,-3,-8,-7,-1,-1,0,5.93
1187,0,0,-1,1,7,2,-1,0,5.9350000000000005
1188,0,-1,-2,-6,-4,-2,-1,-2,5.94
1189,0,-1,1,5,0,-2,-2,-1,5.945
1190,0,-2,-2,-9,-1,1,0,0,5.95
1191,0,-1,-3,-1,-3,1,0,-2,5.955
1192,-1,-1,0,-3,-6,-1,0,-3,5.96
1193,-2,-1,-2,4,-1,1,1,0,5.965
1194,1,1,1,0,2,0,0,0,5.97
1195,-1,-2,0,5,-3,-3,-1,-2,5.9750000000000005
1196,0,-3,-5,-4,-3,0,-1,-1,5.98
1197,-1,0,-2,-6,-3,-3,1,-1,5.985
1198,0,0,-2,6,-1,0,-1,-2,5.99
1199,-4,-1,-1,-8,-2,-3,-1,-1,5.995
1200,-1,-1,-2,7,-7,-1,-1,-1,6.0
1201,1,0,3,3,1,-1,-2,-1,6.005
1202,-2,-1,-2,-7,-3,-3,-1,-1,6.01
1203,-2,-1,0,3,2,1,-1,-1,6.015000000000001
1204,-1,0,-4,-6,-1,-1,-1,-1,6.0200000000000005
1205,0,-2,2,2,-3,-1,-1,0,6.025
1206,0,-1,0,3,0,0,0,0,6.03
1207,1,0,0,0,2,0,-1,0,6.035
1208,0,-1,-1,-1,2,0,-1,1,6.04
1209,-1,-1,-1,-1,-1,-2,1,-2,6.045
1210,1,-2,0,-2,0,1,1,0,6.05
1211,-1,-1,-2,-3,-5,0,0,0,6.055
1212,-2,-1,0,-6,3,-1,-1,-1,6.0600000000000005
1213,0,0,0,6,2,3,-1,0,6.065
1214,-2,-1,-2,-12,-6,-1,-1,-1,6.07
1215,2,1,3,12,8,1,0,-1,6.075
1216,1,0,-4,-13,-4,1,-1,1,6.08
1217,-3,0,0,12,-4,-2,-1,-1,6.085
1218,0,0,1,1,9,3,2,-1,6.09
1219,-1,1,-3,-18,-8,-3,-1,0,6.095
1220,-1,-3,-1,14,2,-3,-1,-1,6.1000000000000005
1221,1,0,-2,-6,4,0,0,0,6.105
1222,-1,-1,-2,-1,-1,-1,-2,-1,6.11
1223,-2,-2,-1,-1,-7,-4,0,-2,6.115
1224,-1,1,1,4,4,0,0,-1,6.12
1225,0,-2,-5,-9,-4,-3,0,-1,6.125
1226,-1,1,1,5,2,0,0,0,6.13
1227,0,0,-2,-2,-2,1,-1,-1,6.135
1228,-2,0,-2,-8,-6,0,-2,-2,6.140000000000001
1229,-1,0,2,6,6,2,-1,0,6.1450000000000005
1230,0,-2,-2,-2,-3,-2,-1,-1,6.15
1231,-2,-1,1,2,1,-1,-1,0,6.155
1232,-2,0,2,8,3,-2,-1,0,6.16
1233,1,0,-3,-3,-2,0,-1,1,6.165
1234,0,1,2,-1,-2,-2,-2,-2,6.17
1235,0,-1,-3,-1,0,-2,-2,-1,6.175
1236,1,0,2,0,2,1,-1,0,6.18
1237,0,-2,-1,-3,-8,-2,0,-2,6.1850000000000005
1238,1,1,-1,8,10,4,1,0,6.19
1239,0,0,-1,-1,-2,-2,0,-1,6.195
1240,-1,-1,0,-17,-5,-1,-2,-2,6.2
1241,-1,-1,1,21,8,3,0,-1,6.205
1242,-1,-2,-1,-2,-6,-2,-1,-1,6.21
1243,-1,-1,-2,-1,3,-1,0,-1,6.215
1244,-1,-1,0,-2,-6,-2,0,0,6.22
1245,1,0,0,-3,2,1,-1,0,6.2250000000000005
1246,0,-2,0,-2,-4,-3,-2,-2,6.23
1247,-1,0,0,6,5,0,-3,-1,6.235
1248,-2,-1,-4,-8,-7,-4,0,0,6.24
1249,-1,-1,-2,-8,-5,-2,-1,-1,6.245
1250,0,0,0,5,0,0,2,-1,6.25
1251,-1,0,-1,-6,-4,-1,1,-2,6.255
1252,1,-1,1,10,2,1,-2,-1,6.26
1253,-2,0,-1,-3,-1,-2,-1,-1,6.265000000000001
1254,-2,0,-2,-3,1,0,-2,1,6.2700000000000005
1255,-1,-2,-3,-5,-8,-2,-1,-1,6.275
1256,0,1,1,10,2,1,-2,0,6.28
1257,-2,-1,1,-2,1,-1,1,1,6.285
1258,0,-1,-2,-7,0,-3,-1,-1,6.29
1259,0,-1,1,-8,-4,-2,-2,-1,6.295
1260,-1,-2,-4,-4,-3,-1,0,0,6.3
1261,0,0,2,8,3,-2,-1,-1,6.305
1262,0,0,0,1,-3,-1,-1,0,6.3100000000000005
1263,-4,0,-1,-1,1,1,1,-1,6.315
1264,-1,-1,-2,-6,-5,-2,-1,-1,6.32
1265,0,-1,0,0,-3,1,0,0,6.325
1266,-2,-1,-1,-5,-5,-3,0,-1,6.33
1267,0,-2,-2,1,2,-1,-1,-2,6.335
1268,-1,0,1,-2,-3,-1,-1,-2,6.34
1269,-1,-1,-1,-2,2,1,-1,-2,6.345
1270,-2,0,0,2,-3,-1,0,0,6.3500000000000005
1271,-1,-1,-4,-3,-5,-3,-1,-1,6.355
1272,1,-1,1,4,3,1,-1,-1,6.36
1273,1,-1,-1,-5,-1,-1,-1,0,6.365
1274,-2,-2,0,-4,1,-1,-1,-1,6.37
1275,-1,0,1,6,-3,1,-2,-1,6.375
1276,-1,1,-1,0,4,-1,2,0,6.38
1277,-1,0,1,-5,-1,1,1,-1,6.385
1278,0,0,-2,1,-3,-1,-3,-2,6.390000000000001
1279,0,-1,-1,-6,-5,-3,-1,0,6.3950000000000005
1280,0,-2,0,8,5,-1,-1,0,6.4
1281,0,0,-2,-3,-1,-1,-2,0,6.405
1282,-1,-2,-2,-1,-2,-1,-1,-2,6.41
1283,-1,-2,0,-2,-5,-2,-2,-2,6.415
1284,-1,0,-2,-6,8,2,-1,-1,6.42
1285,-1,-1,-1,6,-7,-2,-1,-1,6.425
1286,-2,-1,-3,-6,0,0,0,0,6.43
1287,-1,2,1,13,0,-2,-1,0,6.4350000000000005
1288,-2,-3,1,-5,-1,-2,-1,-2,6.44
1289,0,1,2,-2,-4,-1,-2,-1,6.445
1290,-1,-2,-1,-2,-3,-1,-2,0,6.45
1291,0,-1,-1,-1,1,1,-4,0,6.455
1292,0,0,-3,-4,-4,-2,1,1,6.46
1293,-2,-1,-2,-10,-3,-1,0,-1,6.465
1294,1,-1,0,4,2,0,1,-1,6.47
1295,-1,1,1,9,8,0,2,0,6.4750000000000005
1296,0,1,1,2,0,0,0,0,6.48
1297,1,-1,-2,-3,-1,0,0,1,6.485
1298,1,1,0,1,-2,-1,1,-2,6.49
1299,-1,-1,-1,-2,0,-3,-1,-1,6.495
1300,-1,-1,-1,0,-5,-1,0,-1,6.5
1301,-1,-2,-5,0,-1,-1,-1,-1,6.505
1302,-3,-1,-2,0,-2,-1,-3,1,6.51
1303,-1,0,2,0,2,2,-1,-1,6.515000000000001
1304,-3,-1,1,-5,-9,-3,-2,-1,6.5200000000000005
1305,-2,0,-1,-8,-2,-1,-1,-3,6.525
1306,0,1,0,-9,0,0,0,-1,6.53
1307,-1,-2,1,18,10,2,0,-1,6.535
1308,-1,-1,-4,-1,-1,0,-1,-1,6.54
1309,-2,-2,0,-3,-2,-1,0,-1,6.545
1310,-1,-2,-2,-3,-4,-3,-2,-2,6.55
1311,-2,0,-5,-19,-18,-5,-1,-4,6.555
1312,1,1,2,9,12,4,0,-1,6.5600000000000005
1313,0,0,0,-2,2,0,-1,-1,6.565
1314,-1,-1,0,1,-5,-1,-2,-1,6.57
1315,-1,-2,-3,-9,-4,-2,0,0,6.575
1316,-1,0,-2,-2,-2,-2,-2,-1,6.58
1317,0,-2,-4,0,0,1,-1,-3,6.585
1318,-2,-2,-1,-1,-4,-1,0,-1,6.59
1319,0,-2,0,3,4,-1,-1,-1,6.595
1320,-3,-1,-1,-4,-3,-2,0,-2,6.6000000000000005
1321,-1,0,1,5,3,0,1,2,6.605
1322,-1,-2,-1,1,-1,0,-1,-1,6.61
1323,-1,-1,-3,-7,-6,-2,-2,-2,6.615
1324,-1,-2,0,3,4,2,1,0,6.62
1325,0,1,1,2,0,0,1,0,6.625
1326,-1,0,-3,-18,-6,-1,-3,-2,6.63
1327,0,0,0,21,15,5,-1,1,6.635
1328,1,-1,1,4,4,-1,0,-1,6.640000000000001
1329,-2,-3,-2,-3,-9,-3,-1,-2,6.6450000000000005
1330,0,0,5,7,3,1,2,-1,6.65
1331,0,0,-1,-13,-7,-1,0,-2,6.655
1332,-2,-1,-2,-3,-9,-4,-1,0,6.66
1333,0,2,-4,1,-4,1,0,0,6.665
1334,0,0,-4,-2,-1,-3,0,0,6.67
1335,-2,-2,-3,-5,-1,-1,0,-2,6.675
1336,0,-1,-1,-5,-3,0,-1,-1,6.68
1337,-2,0,1,2,3,-1,0,-1,6.6850000000000005
1338,0,-1,1,4,-1,-1,-1,-2,6.69
1339,-3,1,1,-1,1,-1,1,-1,6.695
1340,0,-1,-3,-7,-8,-2,-1,0,6.7
1341,-1,-2,1,-2,2,0,-1,0,6.705
1342,0,-1,-3,-4,-9,-2,0,-1,6.71
1343,-1,-1,-1,4,0,0,-2,-1,6.715
1344,-2,1,2,13,4,1,-1,0,6.72
1345,-1,0,0,1,-1,-2,0,-1,6.7250000000000005
1346,0,-1,0,-4,-2,0,-1,0,6.73
1347,-1,-1,-3,-15,-5,-1,-2,-1,6.735
1348,-1,0,-1,-8,-1,-2,1,-1,6.74
1349,0,0,2,7,0,0,0,0,6.745
1350,-3,-2,-3,-2,5,-2,-1,-1,6.75
1351,0,1,-1,-3,-1,-1,0,-2,6.755
1352,0,0,2,3,1,0,0,-2,6.76
1353,-1,-1,-2,-1,5,2,0,-1,6.765000000000001
1354,-2,-1,-1,-1,-5,-3,-2,-3,6.7700000000000005
1355,-1,-1,-1,6,4,-1,0,1,6.775
1356,0,1,0,-3,-2,-2,0,-1,6.78
1357,0,0,0,-5,-5,-1,-1,0,6.785
1358,-2,-1,-3,-7,-3,-1,-2,0,6.79
1359,0,-2,1,1,5,-1,-2,-1,6.795
1360,-1,0,-2,3,1,-2,-1,-1,6.8
1361,0,-2,1,1,0,0,-1,0,6.805
1362,0,0,1,3,2,1,-1,-1,6.8100000000000005
1363,-1,-1,-2,-11,-1,0,0,-1,6.815
1364,-2,0,2,15,3,2,0,0,6.82
1365,-1,-2,-1,-8,1,-1,-2,-2,6.825
1366,-1,-1,-1,13,4,1,0,-1,6.83
1367,0,-2,-2,-10,-9,-4,-3,-2,6.835
1368,-1,-1,-3,-9,-7,-1,-2,-3,6.84
1369,-2,-2,-4,-26,-2,-3,-3,-1,6.845
1370,-1,1,9,39,13,3,0,0,6.8500000000000005
1371,-2,-1,-2,-4,-5,-1,1,-1,6.855
1372,-4,-4,-5,-8,-13,-7,-5,-4,6.86
1373,3,0,3,12,12,5,2,1,6.865
1374,-3,-3,-9,-60,-22,-14,-7,-3,6.87
1375,-12,-3,-1,-34,36,6,0,-2,6.875
1376,3,0,12,69,27,17,10,2,6.88
1377,14,8,8,12,6,4,5,6,6.885
1378,0,-7,-17,-6,7,-8,-11,-2,6.890000000000001
1379,1,-8,-13,1,-7,-3,-3,0,6.8950000000000005
1380,-6,-3,-13,-86,-2,-12,-7,-6,6.9
1381,-23,-18,7,48,-38,1,5,-6,6.905
1382,1,8,7,-64,-45,-6,-3,-11,6.91
1383,11,7,2,46,27,0,5,-15,6.915
1384,4,-20,-33,13,62,14,-2,2,6.92
1385,-13,-15,-22,-74,-92,-32,38,29,6.925
1386,-10,9,76,79,105,65,-21,-11,6.93
1387,-1,15,44,-15,-20,-15,-18,40,6.9350000000000005
1388,8,-3,-9,-19,-106,-16,6,-39,6.94
1389,-10,-9,-6,-60,94,18,14,54,6.945
1390,6,-9,-78,12,-64,-48,-18,17,6.95
1391,-9,-21,2,81,-17,7,-24,-62,6.955
1392,-11,5,3,-55,-62,0,-10,-16,6.96
1393,48,41,33,21,6,-5,19,64,6.965
1394,27,-7,-30,-71,-46,-4,61,-37,6.97
1395,-23,21,23,2,-74,-8,12,87,6.9750000000000005
1396,1,-13,-23,-19,35,-3,-31,40,6.98
1397,-4,9,-25,-25,-28,-14,-44,-64,6.985
1398,-25,-4,-23,-73,0,-3,-34,8,6.99
1399,24,-14,-29,-12,65,11,-8,-50,6.995
1400,-13,-18,7,-24,-7,5,13,-16,7.0
1401,-38,9,73,52,-35,-15,-16,-61,7.005
1402,32,11,-19,51,31,14,32,8,7.01
1403,-29,35,-68,-43,4,7,37,-25,7.015000000000001
1404,9,32,90,127,46,5,-32,37,7.0200000000000005
1405,16,-39,-67,-66,3,-3,-20,-19,7.025
1406,-26,-38,-21,-66,-95,-20,-3,-14,7.03
1407,-23,46,66,70,47,26,4,22,7.035
1408,39,75,-45,-68,-5,3,31,-60,7.04
1409,-1,61,42,7,-4,-12,-8,-6,7.045
1410,-20,-5,-46,57,38,0,-20,87,7.05
1411,25,-20,-30,58,41,-8,-43,-57,7.055
1412,-28,-59,38,7,-20,6,36,62,7.0600000000000005
1413,16,-80,-46,57,-19,1,25,-69,7.065
1414,24,-7,34,-39,-73,-44,-26,16,7.07
1415,45,-43,13,57,27,19,-16,43,7.075
1416,-28,-15,-6,-31,10,-2,-9,-106,7.08
1417,-75,-35,-11,-22,-51,-5,16,-14,7.085
1418,-32,-8,12,33,23,18,25,36,7.09
1419,43,9,-26,-128,-128,-54,6,40,7.095
1420,55,10,87,119,93,29,-28,0,7.1000000000000005
1421,13,-2,-45,-113,-7,4,-12,-21,7.105
1422,-28,-5,36,54,-67,-17,-3,3,7.11
1423,-1,27,9,-34,67,21,8,-51,7.115
1424,-36,-8,-26,73,-49,-13,-1,-63,7.12
1425,10,1,-15,-61,-31,-10,-18,120,7.125
1426,6,30,11,-104,27,15,49,30,7.13
1427,-2,1,-4,-21,-66,-6,-8,-27,7.135
1428,-29,-8,60,8,51,21,26,-62,7.140000000000001
1429,-37,3,-36,-82,-35,-19,6,16,7.1450000000000005
1430,12,-5,-21,64,95,6,-53,16,7.15
1431,60,14,37,-109,-27,-10,1,10,7.155
1432,37,35,-5,6,-36,-37,-58,3,7.16
1433,13,18,32,122,87,49,47,42,7.165
1434,-25,-43,-89,-78,6,12,48,23,7.17
1435,-30,-9,86,26,49,12,12,-83,7.175
1436,-22,-5,36,29,15,0,24,49,7.18
1437,60,27,-21,-38,35,16,-31,56,7.1850000000000005
1438,3,12,10,-17,-6,-7,-31,-47,7.19
1439,-44,-55,-116,12,9,-2,-13,-33,7.195
1440,16,0,-4,-2,37,17,72,1,7.2
1441,-30,8,-43,16,-101,-42,-2,-34,7.205
1442,17,11,79,-53,72,22,-1,-66,7.21
1443,14,-15,-12,-31,-27,-22,-39,41,7.215
1444,-23,-11,-49,-83,-51,-21,-34,30,7.22
1445,-14,-2,4,-65,76,25,28,-5,7.2250000000000005
1446,63,14,67,24,74,7,12,5,7.23
1447,9,23,-14,-49,-20,-1,30,93,7.235
1448,9,6,16,22,57,22,-15,0,7.24
1449,10,-2,-39,-30,-6,8,0,-72,7.245
1450,-69,-13,12,-11,-57,-13,-7,-52,7.25
1451,21,26,6,-3,19,-8,-11,7,7.255
1452,-3,-15,-26,67,28,0,-7,37,7.26
1453,-6,16,74,-73,-52,-12,-15,-40,7.265000000000001
1454,15,8,16,65,41,28,26,-6,7.2700000000000005
1455,-8,18,31,90,8,-1,13,37,7.275
1456,-17,-15,-66,-77,-67,-9,-4,-27,7.28
1457,-6,7,47,100,24,10,2,-27,7.285
1458,60,9,-99,-28,-56,-28,-18,101,7.29
1459,-21,-23,30,-55,-2,0,1,-22,7.295
1460,-47,-24,-38,-107,-84,-20,1,-64,7.3
1461,10,4,22,81,121,37,30,25,7.305
1462,16,-3,-4,94,-25,-6,-50,69,7.3100000000000005
1463,-59,-37,-46,-76,-21,-20,-67,-77,7.315
1464,3,35,-1,47,59,15,7,-53,7.32
1465,61,-24,-34,52,-2,3,3,70,7.325
1466,11,28,30,-58,-71,-31,21,56,7.33
1467,-55,-25,-92,-63,-20,-4,15,-63,7.335
1468,33,18,-55,-29,36,-4,43,127,7.34
1469,49,23,123,64,81,48,9,32,7.345
1470,-12,-15,-33,43,32,14,4,-116,7.3500000000000005
1471,-20,-12,-11,-50,-17,20,8,-40,7.355
1472,-42,-10,-22,-128,-102,-53,-65,-67,7.36
1473,9,-6,-19,113,10,-16,-7,2,7.365
1474,-23,-9,23,-79,19,8,7,-38,7.37
1475,-11,2,3,78,-67,-13,-1,-55,7.375
1476,34,1,-12,65,-31,4,4,69,7.38
1477,-3,6,59,86,7,0,5,20,7.385
1478,-4,-19,58,-31,-18,5,-38,-12,7.390000000000001
1479,17,-7,-78,69,-11,9,55,25,7.3950000000000005
1480,8,-2,102,-64,-89,-31,-5,71,7.4
1481,-28,-23,-43,31,60,2,-27,-61,7.405
1482,-26,5,-9,-79,35,5,-9,-85,7.41
1483,10,15,9,-21,-40,-11,23,94,7.415
1484,50,-12,-26,-96,51,19,-11,58,7.42
1485,-76,3,-27,-127,14,2,-21,-126,7.425
1486,4,4,52,76,-75,9,36,71,7.43
1487,81,8,60,-35,28,1,-7,77,7.4350000000000005
1488,-16,-3,-49,-27,-9,-11,-15,-52,7.44
1489,-21,-18,1,-9,-37,-19,16,-51,7.445
1490,-23,-12,-77,-88,0,-17,-57,-63,7.45
1491,20,28,80,117,2,2,9,33,7.455
1492,-52,-27,-44,-80,-53,-4,6,-85,7.46
1493,46,-4,83,53,44,31,16,91,7.465
1494,21,6,-104,-63,18,9,14,59,7.47
1495,-5,2,16,92,44,20,43,-16,7.4750000000000005
1496,16,8,39,-81,-4,-13,-69,2,7.48
1497,-10,21,-74,-8,-1,-14,-18,-30,7.485
1498,-33,-42,69,57,66,16,5,-54,7.49
1499,-37,-26,-28,32,42,28,6,-15,7.495
1500,17,25,21,26,-51,-5,33,5,7.5
1501,-35,-21,-14,-5,-15,-11,-28,-36,7.505
1502,70,24,-6,78,34,17,50,106,7.51
1503,-46,-32,-55,-128,-38,-30,-33,-66,7.515000000000001
1504,13,16,26,127,57,33,45,-42,7.5200000000000005
1505,-10,0,-35,25,33,-13,-29,-30,7.525
1506,-19,-4,-7,-14,11,-8,50,51,7.53
1507,47,30,33,-20,31,16,-32,2,7.535
1508,-24,-35,-15,71,64,10,-5,42,7.54
1509,45,-31,51,-128,-111,-32,-33,74,7.545
1510,-24,6,1,114,99,31,2,-96,7.55
1511,-14,3,-3,-113,-34,-21,8,8,7.555
1512,-35,-28,52,76,39,6,-4,-69,7.5600000000000005
1513,5,16,-66,44,51,26,19,-14,7.565
1514,-14,1,14,-3,-124,-34,-12,-12,7.57
1515,0,10,-53,-60,-23,-1,-6,-33,7.575
1516,33,16,-2,-33,44,3,3,24,7.58
1517,-26,17,-35,-113,-108,-27,-28,-51,7.585
1518,1,-1,60,76,-8,4,16,66,7.59
1519,7,-13,-109,-11,24,16,84,89,7.595
1520,-12,1,11,94,41,12,-32,-29,7.6000000000000005
1521,34,-3,19,-25,-74,-16,-2,-9,7.605
1522,15,18,-43,-69,0,-20,-44,1,7.61
1523,8,-23,49,-35,-40,-23,-62,11,7.615
1524,-29,-18,-113,-117,-6,-9,41,28,7.62
1525,-26,-8,49,22,85,23,0,-39,7.625
1526,35,34,28,114,74,41,32,-37,7.63
1527,-13,9,-6,-24,-43,-20,-12,-22,7.635
1528,-1,11,-40,6,13,18,5,43,7.640000000000001
1529,-7,-7,-6,70,-54,-18,-13,-16,7.6450000000000005
1530,-23,-8,-9,-87,-38,-7,-1,-37,7.65
1531,-9,-3,-12,-34,47,12,-23,-64,7.655
1532,-44,-31,6,-113,-44,-19,46,43,7.66
1533,27,13,-9,38,2,-11,-41,19,7.665
1534,96,40,-29,56,29,-1,0,57,7.67
1535,19,-2,70,47,22,9,-45,101,7.675
1536,-37,-23,-95,-116,-93,-29,-44,-109,7.68
1537,0,3,10,52,51,28,50,124,7.6850000000000005
1538,-24,-13,43,-17,-35,-26,-20,-25,7.69
1539,-12,23,5,-36,-39,-32,-12,-54,7.695
1540,33,27,-6,127,80,37,30,-13,7.7
1541,-26,3,47,2,3,-7,-6,-53,7.705
1542,-16,12,-62,-37,-19,2,-6,-16,7.71
1543,-17,-9,80,17,-55,-5,-8,-60,7.715
1544,6,1,26,-19,18,3,44,-13,7.72
1545,53,9,-87,-35,6,6,2,105,7.7250000000000005
1546,0,-7,-8,9,-7,-5,-16,-48,7.73
1547,-22,-23,-33,-38,-26,-1,54,-58,7.735
1548,90,68,17,39,-3,-14,-79,90,7.74
1549,-25,-31,-10,-55,-29,-2,2,-25,7.745
1550,-39,-24,-26,-90,-33,-28,-32,-21,7.75
1551,-36,-20,-22,40,13,22,32,-10,7.755
1552,72,26,-19,-53,-17,-8,28,76,7.76
1553,4,28,65,59,28,28,12,-1,7.765000000000001
1554,-37,-15,55,-74,26,5,-6,-6,7.7700000000000005
1555,-9,10,-32,-15,41,13,-3,-28,7.775
1556,-10,-5,-16,-58,8,1,1,-16,7.78
1557,9,1,-66,17,29,1,-5,-1,7.785
1558,-12,-20,0,25,-26,4,16,-33,7.79
1559,2,-4,104,63,35,8,18,0,7.795
1560,19,0,4,-31,-56,-10,-2,67,7.8
1561,9,-11,11,-56,-27,-12,25,59,7.805000000000001
1562,9,2,-30,24,-4,-7,-38,-54,7.8100000000000005
1563,28,-18,-30,35,40,13,23,98,7.815
1564,-11,-8,35,38,-11,-2,8,-25,7.82
1565,-32,4,-13,-23,-25,-7,14,-55,7.825
1566,-13,11,-11,-3,2,7,10,-17,7.83
1567,16,29,-11,8,-19,-11,-21,11,7.835
1568,-22,2,38,9,-6,-1,-10,-32,7.84
1569,-9,6,-42,-45,-15,-6,-4,-16,7.845
1570,-1,33,-11,-34,-18,-7,4,10,7.8500000000000005
1571,13,30,-5,-20,2,-2,-16,11,7.855
1572,-7,17,62,127,10,14,9,-7,7.86
1573,-7,-7,-48,-35,-50,-23,-13,-20,7.865
1574,4,-14,45,36,7,8,5,17,7.87
1575,-2,-34,-52,24,12,1,-1,5,7.875
1576,-9,-25,-1,-35,-3,-1,-8,-17,7.88
1577,-2,-22,10,-62,-32,-11,-5,-7,7.885
1578,-12,-30,-42,-17,-20,-9,4,-2,7.890000000000001
1579,49,-11,-17,-6,2,-6,-13,5,7.8950000000000005
1580,-10,-16,36,15,3,3,-31,-6,7.9
1581,-62,-12,11,-24,-1,-10,1,-31,7.905
1582,2,-8,-26,-1,-1,8,-4,19,7.91
1583,69,2,29,26,22,7,37,27,7.915
1584,-42,-14,-21,-15,-1,12,3,-2,7.92
1585,7,2,18,13,7,4,15,3,7.925
1586,-29,3,-5,-1,-4,-5,1,-11,7.930000000000001
1587,-17,19,-7,-9,-8,-12,-23,-6,7.9350000000000005
1588,29,45,20,17,2,-6,-6,-1,7.94
1589,3,40,-9,-10,3,-3,-9,-7,7.945
1590,-1,32,17,-10,-13,-7,-2,-2,7.95
1591,0,6,9,17,13,5,-5,4,7.955
1592,-3,-27,-32,-19,-1,-1,5,-6,7.96
1593,-4,-75,11,14,7,2,-6,-3,7.965
1594,20,-100,-4,-11,-10,0,-1,5,7.97
1595,-15,-69,17,19,4,3,-3,-5,7.9750000000000005
1596,-12,-38,-10,0,2,-1,3,-9,7.98
1597,14,16,-10,-14,-8,-4,-7,2,7.985
1598,8,34,-9,-17,-6,-2,3,1,7.99
1599,-27,23,-10,15,6,0,-1,-4,7.995
1600,-2,0,4,-12,-7,-2,3,-3,8.0
1601,16,-3,-5,-11,3,2,-2,5,8.005
1602,-4,16,19,17,0,1,4,-3,8.01
1603,-19,22,-4,0,3,-1,-1,-4,8.015
1604,13,17,-11,-5,-1,0,0,1,8.02
1605,5,19,7,5,0,-2,-3,-2,8.025
1606,-2,21,3,2,0,1,1,-3,8.03
1607,-5,21,0,-4,-3,-1,-4,-2,8.035
1608,4,18,-4,-1,-1,-2,0,0,8.040000000000001
1609,-1,25,0,-8,0,0,-2,-2,8.045
1610,-2,15,-1,-8,-4,-3,0,1,8.05
1611,-4,9,-8,-10,-1,-2,-1,-2,8.055
1612,-1,-1,2,13,3,-1,1,-2,8.06
1613,-3,-1,4,5,-1,0,0,-1,8.065
1614,3,1,2,-4,0,1,1,1,8.07
1615,-4,-3,15,23,4,3,0,2,8.075
1616,-7,-6,-13,-4,-2,-2,-2,-5,8.08
1617,5,2,-10,-19,-6,-2,-3,0,8.085
1618,-1,-4,6,-17,-13,-5,-2,-2,8.09
1619,-6,0,2,0,3,-2,0,-1,8.095
1620,-2,-4,-4,0,-1,-2,1,-2,8.1
1621,4,-4,-3,2,0,0,-1,0,8.105
1622,-2,-3,0,3,1,1,0,-1,8.11
1623,-3,-1,-5,-4,2,-1,-2,-2,8.115
1624,3,-4,-2,-2,-2,-2,-1,-2,8.120000000000001
1625,-2,-5,-4,-7,-1,-2,-1,-1,8.125
1626,0,-1,8,13,3,2,1,-1,8.13
1627,-1,-2,-6,-5,-4,-3,-1,-1,8.135
1628,3,2,-9,-14,0,-1,-1,1,8.14
1629,0,-3,5,-1,1,0,0,0,8.145
1630,-2,0,19,27,5,1,-1,-1,8.15
1631,-1,1,5,-1,-2,0,-1,-2,8.155
1632,-1,-3,-3,-5,-2,-3,0,-1,8.16
1633,0,-1,-20,-29,-7,-2,1,-1,8.165000000000001
1634,1,0,30,46,7,2,2,1,8.17
1635,-3,-6,-23,-19,-4,-4,-1,-1,8.175
1636,-2,-2,4,5,-3,-1,0,-1,8.18
1637,-2,-1,3,8,3,-1,-2,-1,8.185
1638,0,0,-9,-12,-3,-1,1,1,8.19
1639,-1,-1,8,2,0,0,0,0,8.195
1640,1,-4,0,4,-1,0,-1,0,8.2
1641,1,-3,0,-1,-5,-3,-1,-1,8.205
1642,-2,-2,-22,-24,-3,-2,-3,-2,8.21
1643,1,0,28,26,4,3,-1,-2,8.215
1644,-1,-2,-14,-10,-2,-1,0,-2,8.22
1645,0,-3,9,13,1,-1,-2,-1,8.225
1646,-1,-3,-18,-20,-5,-1,0,0,8.23
1647,-1,1,1,-2,-1,0,-2,0,8.235
1648,0,1,9,10,2,0,0,-2,8.24
1649,0,0,2,5,0,-2,0,-4,8.245000000000001
1650,1,1,-11,-7,-2,-1,-1,-1,8.25
1651,0,-1,-7,-6,0,-1,0,-1,8.255
1652,-1,-3,1,-2,-2,1,-1,1,8.26
1653,0,-1,3,6,0,-1,-1,-1,8.265
1654,-2,-3,-3,-7,-2,-1,-1,-1,8.27
1655,-1,-1,-3,0,2,0,0,-2,8.275
1656,-1,-1,0,-1,0,-1,-1,-1,8.28
1657,-1,-1,0,-4,-4,-2,-2,1,8.285
1658,0,-1,-1,-2,1,-1,-1,-2,8.290000000000001
1659,-1,3,-1,-7,-7,-2,-3,-1,8.295
1660,-1,2,-6,4,9,1,0,-1,8.3
1661,-1,2,12,9,1,0,-1,0,8.305
1662,1,0,-1,-3,-2,0,-1,-1,8.31
1663,0,-1,-5,-2,1,0,0,-1,8.315
1664,0,1,0,-6,-6,-2,-3,-1,8.32
1665,-1,-1,-2,-4,-2,0,-2,-1,8.325
1666,-1,1,-2,-2,-2,-1,1,0,8.33
1667,-1,1,0,-1,-3,0,0,0,8.335
1668,-2,-1,1,1,-2,1,0,0,8.34
1669,-2,-2,-4,-5,0,-1,0,-3,8.345
1670,-1,0,-1,2,-1,-1,0,-2,8.35
1671,0,1,-3,-2,4,2,1,0,8.355
1672,-2,-2,3,0,-3,-1,-1,0,8.36
1673,-2,-1,-4,-5,-2,-1,-2,1,8.365
1674,1,-1,-2,-7,-4,-2,-1,0,8.370000000000001
1675,-1,-2,0,-1,-1,-2,0,-1,8.375
1676,0,-1,-2,0,0,-3,-2,0,8.38
1677,1,-1,-3,-1,-3,-2,-1,-2,8.385
1678,-1,-2,-2,0,-1,-1,0,0,8.39
1679,-1,-1,1,1,0,0,0,0,8.395
1680,0,-1,-2,-3,-1,-1,-1,-2,8.4
1681,-1,-2,1,1,-1,-2,-2,-2,8.405
1682,2,-1,-1,1,1,1,0,-1,8.41
1683,-1,-3,0,0,0,-1,-1,0,8.415000000000001
1684,-1,0,-1,-4,-3,-1,-1,-3,8.42
1685,-1,1,-2,0,0,-1,-1,0,8.425
1686,-1,0,-1,-1,0,1,0,-1,8.43
1687,1,-1,0,1,-3,-1,-2,-2,8.435
1688,-1,-2,-1,-1,-3,-2,-3,-3,8.44
1689,-1,-1,-3,-7,-4,-1,-1,-2,8.445
1690,-2,-2,0,1,5,-1,0,-2,8.45
1691,-2,-3,-5,-3,-4,-2,0,-1,8.455
1692,-3,-5,-2,2,-1,-2,-2,-1,8.46
1693,-1,-2,-4,0,-4,-1,-2,0,8.465
1694,-1,-2,-1,-3,-4,-2,-2,-1,8.47
1695,-1,-1,-1,-1,1,-1,-2,-3,8.475
1696,-1,0,0,-2,-4,-2,-2,-2,8.48
1697,0,0,-4,0,0,2,0,-1,8.485
1698,-1,-2,-2,-2,-2,-1,-1,-2,8.49
1699,0,-1,-1,1,0,-2,-1,-1,8.495000000000001
1700,-2,-2,-3,-8,-1,-2,-1,-1,8.5
1701,-2,2,0,9,2,0,3,-1,8.505
1702,0,-1,0,0,0,-1,-2,0,8.51
1703,-1,-1,-1,-2,-4,-2,-1,0,8.515
1704,0,0,0,1,2,0,-1,-1,8.52
1705,-2,-3,-3,-3,-1,-2,-1,-1,8.525
1706,0,-1,-1,-1,-4,-2,0,-2,8.53
1707,-2,-1,1,-2,3,1,-1,-1,8.535
1708,1,-1,-2,2,-3,-1,1,-1,8.540000000000001
1709,0,-1,0,-1,-1,-1,-2,-2,8.545
1710,1,-1,0,1,0,0,-1,-2,8.55
1711,0,0,0,-1,-3,-1,0,1,8.555
1712,-1,-1,1,2,-2,-2,-1,-2,8.56
1713,-1,0,-1,-1,1,-1,-2,-3,8.565
1714,-2,-2,-2,-6,-5,-2,0,1,8.57
1715,-2,1,-2,6,-1,-1,-1,-1,8.575000000000001
1716,-1,-2,-1,-2,-3,-1,-2,-2,8.58
1717,-1,-1,-1,-3,-3,-1,-3,-2,8.585
1718,-1,-2,1,2,3,-1,0,0,8.59
1719,1,-3,-1,-4,-1,-1,0,0,8.595
1720,-2,0,-1,-1,2,-1,-1,0,8.6
1721,-1,-1,-2,-1,-2,-2,1,-1,8.605
1722,0,0,-1,2,3,1,-1,-1,8.61
1723,-1,0,-1,-2,-2,0,0,-2,8.615
1724,0,-2,-2,1,0,0,-1,1,8.620000000000001
1725,-3,0,-1,-1,1,0,0,0,8.625
1726,-1,-1,0,-1,-4,-3,-1,-2,8.63
1727,1,-1,-1,0,-1,0,-2,-1,8.635
1728,0,0,0,0,1,-1,0,-1,8.64
1729,-1,0,-2,-2,-1,-1,-2,-1,8.645
1730,-1,-1,-2,0,0,2,-1,0,8.65
1731,-1,-1,-1,0,1,-1,-1,-1,8.655
1732,-1,1,-1,-1,-3,-1,-1,-1,8.66
1733,0,-3,-2,-3,-2,-2,-2,-1,8.665000000000001
1734,0,1,0,2,-1,-2,-1,0,8.67
1735,1,0,0,2,3,0,0,0,8.675
1736,-1,0,0,-2,-1,0,-1,0,8.68
1737,2,-1,0,1,1,-1,-2,0,8.685
1738,-1,1,-1,-2,-2,0,0,0,8.69
1739,-1,0,-1,-2,-5,-2,0,-1,8.695
1740,-1,0,-1,3,1,-1,-1,0,8.700000000000001
1741,-1,-1,-3,-4,-3,-1,0,0,8.705
1742,0,-1,-2,-1,0,-2,0,0,8.71
1743,0,0,0,-1,0,1,-2,-1,8.715
1744,-2,-1,-1,-2,-1,0,-1,0,8.72
1745,0,0,1,2,-1,-2,-1,0,8.725
1746,-1,0,-2,-1,1,-1,-1,0,8.73
1747,-2,-1,0,-1,-1,-2,0,-1,8.735
1748,-1,-1,-1,-3,-2,-2,-2,-2,8.74
1749,0,-2,-1,0,0,0,-1,-2,8.745000000000001
1750,-2,0,-1,-4,-2,-1,-1,0,8.75
1751,0,0,1,5,2,1,1,0,8.755
1752,0,-2,-2,-1,0,-2,-1,-1,8.76
1753,0,-1,1,0,-1,0,0,0,8.765
1754,-1,1,0,1,1,-1,0,1,8.77
1755,-1,-1,-1,-2,-1,-1,-2,0,8.775
1756,-2,-3,-1,0,-1,0,-3,-1,8.78
1757,-2,0,-2,-3,-2,1,0,0,8.785
1758,1,0,1,-1,0,-1,-1,-1,8.790000000000001
1759,0,0,-1,1,1,0,1,0,8.795
1760,-1,-2,-2,-2,0,-1,0,-2,8.8
1761,0,0,-1,-2,-1,0,-1,0,8.805
1762,0,-2,-1,1,-1,1,-1,-1,8.81
1763,0,-1,-2,-1,-6,-2,-4,-2,8.815
1764,-1,0,0,0,0,0,0,0,8.82
1765,0,-1,0,-1,0,-1,0,0,8.825000000000001
1766,-1,-1,-2,-2,-1,1,1,-1,8.83
1767,-1,-1,-3,-3,-3,-2,-1,-1,8.835
1768,-1,-2,-2,0,-2,0,-1,-1,8.84
1769,0,0,-1,-2,0,-1,-2,-2,8.845
1770,0,-2,1,-1,1,0,-1,-1,8.85
1771,-1,0,-1,-4,0,1,-2,-1,8.855
1772,-1,0,-1,-1,-2,-1,-1,-1,8.86
1773,1,0,-1,0,1,-3,2,0,8.865
1774,-1,-1,-1,0,-1,1,-1,0,8.870000000000001
1775,-1,-1,0,-1,-1,-1,0,0,8.875
1776,-1,-1,-1,-1,-1,-2,0,0,8.88
1777,-1,-1,0,-1,-1,-1,-2,-1,8.885
1778,0,0,-1,0,0,-1,0,-2,8.89
1779,0,-1,-2,-2,1,0,0,0,8.895
1780,-1,-1,-1,-3,-3,-1,-1,-1,8.9
1781,-2,0,-2,0,-1,0,-2,-1,8.905
1782,-1,-1,1,1,0,-1,0,0,8.91
1783,0,-1,-1,-2,0,-1,1,0,8.915000000000001
1784,-2,-1,0,1,-2,0,0,-1,8.92
1785,0,-2,-2,-1,-1,0,-1,-1,8.925
1786,0,0,0,-2,0,0,-2,0,8.93
1787,-1,0,-1,-1,0,0,-1,1,8.935
1788,-2,-1,-1,-2,-2,-2,-1,-1,8.94
1789,-1,-1,2,0,-3,1,-1,1,8.945
1790,0,0,0,1,-1,-1,0,-1,8.950000000000001
1791,1,-2,0,-3,-2,-2,0,-1,8.955
1792,0,0,-3,-2,0,-1,-1,-1,8.96
1793,-2,0,-2,0,0,-1,0,-1,8.965
1794,0,0,-2,-2,-1,-2,-2,0,8.97
1795,-2,-2,0,2,-1,-1,-2,-2,8.975
1796,1,-2,0,-1,0,-2,1,-1,8.98
1797,-1,-2,1,-1,-1,0,-2,-2,8.985
1798,0,-1,-1,0,-1,0,1,0,8.99
1799,-2,0,0,-1,-1,0,-1,-1,8.995000000000001
1800,0,-2,-1,-1,0,-1,-1,-2,9.0
1801,-1,-2,-1,-1,-1,-1,-1,-1,9.005
1802,-2,-2,0,-1,-1,0,-1,-2,9.01
1803,-1,-2,-1,0,0,-1,-3,-1,9.015
1804,0,0,-1,0,0,-2,-1,0,9.02
1805,0,-1,-1,-3,-2,-2,0,0,9.025
1806,-1,1,-2,-2,0,0,0,-1,9.03
1807,-1,-1,0,-2,-3,-1,0,-1,9.035
1808,1,-1,-1,-1,-2,-1,-2,-1,9.040000000000001
1809,0,1,0,0,-1,-1,-1,1,9.045
1810,-1,-2,-3,0,-1,-1,-2,0,9.05
1811,0,0,0,-1,-1,0,0,-1,9.055
1812,0,-1,-2,0,0,0,0,-1,9.06
1813,0,-1,0,-3,0,0,1,-1,9.065
1814,0,0,-1,0,-1,-1,-2,1,9.07
1815,0,0,-2,-4,-2,-1,-1,-1,9.075000000000001
1816,-1,-2,0,8,4,-1,-2,-2,9.08
1817,-2,-2,-2,1,0,0,0,-1,9.085
1818,0,-3,0,0,-1,-1,0,0,9.09
1819,0,-2,0,1,1,-1,0,-1,9.095
1820,-2,0,-1,-6,-3,-1,-2,0,9.1
1821,0,0,-1,0,0,0,0,1,9.105
1822,-1,-1,-1,2,1,-1,-1,0,9.11
1823,-2,-1,-2,-4,-4,-2,-1,0,9.115
1824,-2,1,-1,-2,-3,-1,-1,-1,9.120000000000001
1825,-1,0,0,1,1,-2,-1,-2,9.125
1826,-1,0,1,-2,-2,1,0,0,9.13
1827,1,-1,-1,1,0,0,-2,-1,9.135
1828,-1,-1,-2,-4,0,-1,-2,0,9.14
1829,0,-2,0,0,-1,-1,0,-1,9.145
1830,0,0,-1,-1,-1,-1,-2,-1,9.15
1831,-1,-3,-2,0,-1,0,-3,-2,9.155
1832,-2,-2,-2,-2,-1,0,0,0,9.16
1833,0,-1,-3,-1,-3,-1,-1,-1,9.165000000000001
1834,0,0,0,-2,0,-1,0,-2,9.17
1835,-2,0,0,0,0,-1,0,-1,9.175
1836,-1,0,-1,1,-2,0,-1,-1,9.18
1837,-1,-1,0,-1,0,-1,-1,-2,9.185
1838,-1,-2,-2,1,-4,-3,-2,1,9.19
1839,0,-1,0,4,5,0,0,-2,9.195
1840,0,0,-2,-2,-1,-1,-1,-2,9.200000000000001
1841,-1,-1,0,-9,-7,-2,-2,0,9.205
1842,-1,-1,0,4,-1,-1,-1,-1,9.21
1843,-2,-1,1,11,1,2,1,1,9.215
1844,-1,-1,-1,2,2,0,0,0,9.22
1845,-2,0,-2,-6,-5,-1,-1,-1,9.225
1846,0,-1,1,-1,4,2,0,-1,9.23
1847,-2,-3,-4,-10,-6,-2,-3,-1,9.235
1848,-1,-1,1,-1,-1,0,-1,-3,9.24
1849,-1,-1,-3,-8,-9,-1,-1,1,9.245000000000001
1850,2,0,1,2,11,1,1,1,9.25
1851,0,0,-1,2,1,0,0,0,9.255
1852,-2,0,2,-6,-2,0,-1,-1,9.26
1853,-1,-1,2,5,6,2,0,-1,9.265
1854,-1,-1,-2,-2,-2,-1,0,-1,9.27
1855,1,0,-1,0,0,0,0,0,9.275
1856,0,-1,-2,-2,-2,-3,-1,0,9.28
1857,0,-2,0,3,1,1,0,0,9.285
1858,-1,-1,-3,-2,-1,0,-1,-1,9.290000000000001
1859,-2,-1,0,0,-2,-1,-3,0,9.295
1860,-1,0,-2,-3,-4,-3,-1,-1,9.3
1861,0,0,0,3,3,1,-1,-1,9.305
1862,-2,0,1,0,-2,0,0,0,9.31
1863,-1,-2,-2,-6,-2,-2,-1,-1,9.315
1864,0,-2,-1,-1,-2,-1,0,0,9.32
1865,-1,-1,-1,3,2,1,-1,-2,9.325000000000001
1866,-1,-1,0,-3,-1,-2,-1,-2,9.33
1867,-1,0,-2,-3,-4,-2,-2,0,9.335
1868,-1,-1,-1,2,-3,-2,-2,-2,9.34
1869,-2,-1,-2,4,1,0,-3,-1,9.345
1870,0,-2,0,-2,-2,-1,-2,-1,9.35
1871,-1,-1,-3,-4,0,-1,-3,-1,9.355
1872,-1,-3,-1,2,-1,-2,-1,0,9.36
1873,-1,0,-1,-5,-8,-3,-1,-1,9.365
1874,-3,0,1,3,10,3,1,0,9.370000000000001
1875,0,-1,-1,0,-2,-1,0,-1,9.375
1876,0,0,-2,-5,-4,-1,-2,0,9.38
1877,0,0,-1,-1,3,-2,-1,0,9.385
1878,1,-2,0,-1,-6,-1,0,0,9.39
1879,-3,-2,-1,-3,-1,1,-1,-1,9.395
1880,1,-2,1,-2,1,-1,0,0,9.4
1881,0,0,1,1,2,1,2,0,9.405
1882,1,-1,-2,-2,-1,-1,-1,-1,9.41
1883,0,0,-1,-1,-2,-1,-2,1,9.415000000000001
1884,-1,-1,0,2,0,0,-1,0,9.42
1885,-2,-2,-1,-2,-1,-1,0,1,9.425
1886,0,0,-1,-1,-3,-2,-2,1,9.43
1887,-1,-2,0,-2,-3,-2,-2,-1,9.435
1888,0,0,0,1,1,0,-1,-2,9.44
1889,0,-2,-2,0,0,0,-2,0,9.445
1890,0,-1,-2,-1,-2,0,-3,-2,9.450000000000001
1891,-1,-2,0,0,0,-1,-2,-2,9.455
1892,0,0,-1,-1,-2,0,1,0,9.46
1893,1,-1,0,3,0,-1,2,-1,9.465
1894,-1,-1,-1,0,-2,1,-1,-1,9.47
1895,0,0,-1,-1,0,-2,1,-2,9.475
1896,0,-3,-1,-3,-4,-1,-1,-2,9.48
1897,-1,-1,-1,1,3,0,0,0,9.485
1898,-1,0,0,-2,-2,-1,1,0,9.49
1899,0,-1,-1,0,-2,0,0,-2,9.495000000000001
1900,-1,0,-1,-4,-3,-1,-2,0,9.5
1901,0,0,0,-1,0,0,0,2,9.505
1902,-1,-1,0,0,-2,-1,0,1,9.51
1903,-3,0,-1,0,0,-1,1,0,9.515
1904,-2,-1,-1,-1,1,-1,-1,-2,9.52
1905,-3,-1,1,1,1,0,-2,-1,9.525
1906,-1,-1,0,0,1,-1,-3,-1,9.53
1907,0,-3,-3,-2,-2,-1,-2,-1,9.535
1908,-1,-2,-2,1,-1,1,0,-3,9.540000000000001
1909,-1,-1,0,1,0,-1,0,0,9.545
1910,0,-1,1,-3,-5,-3,0,0,9.55
1911,0,0,0,0,-1,0,-1,-2,9.555
1912,0,0,-2,1,-1,-1,0,-1,9.56
1913,-1,0,-2,-2,-3,0,0,0,9.565
1914,-1,-2,-3,-2,1,-1,-1,0,9.57
1915,-1,-1,-2,-1,-1,0,0,-1,9.575000000000001
1916,-1,-2,-1,-1,0,0,-1,0,9.58
1917,-1,0,0,-1,-5,0,-2,-2,9.585
1918,-2,0,-1,5,1,-2,0,0,9.59
1919,0,-1,-1,-2,-2,0,0,0,9.595
1920,-1,-1,0,0,0,-1,0,-1,9.6
1921,-1,-1,0,0,0,0,0,0,9.605
1922,-1,-1,-1,-3,-4,-1,-1,-1,9.61
1923,0,0,0,-2,-1,-3,-2,-2,9.615
1924,0,0,-1,0,3,0,1,0,9.620000000000001
1925,-1,-1,-2,-2,-2,-2,2,-1,9.625
1926,1,0,-1,-3,0,1,-1,-1,9.63
1927,0,-1,-1,0,0,0,-1,-1,9.635
1928,0,0,-1,-2,-2,-1,-1,2,9.64
1929,-1,-1,0,1,0,-2,-2,-1,9.645
1930,0,-2,-1,-1,-3,-1,0,-2,9.65
1931,-1,-1,-1,0,0,-2,-1,0,9.655
1932,-1,-2,-2,-2,-3,-2,-2,1,9.66
1933,-1,-1,1,3,2,2,1,-1,9.665000000000001
1934,-2,0,-1,-2,-2,0,-1,-1,9.67
1935,-1,-1,0,-3,-2,0,0,-1,9.675
1936,-1,-1,1,-1,-2,-1,-1,1,9.68
1937,-1,-1,0,0,-1,-3,-1,-2,9.685
1938,-1,-1,-1,0,0,-1,0,-1,9.69
1939,0,-2,-2,-2,-2,-1,-2,-2,9.695
1940,-2,-1,-2,-4,-2,-1,-1,-2,9.700000000000001
1941,1,0,2,1,4,4,0,0,9.705
1942,-1,-1,0,-3,-2,-1,-1,-2,9.71
1943,-1,-1,-2,4,-1,-2,0,0,9.715
1944,1,-1,-2,-3,-3,-1,-1,-1,9.72
1945,0,0,-2,-1,-2,-1,-1,-2,9.725
1946,0,-2,-2,-1,-1,0,0,1,9.73
1947,-2,-1,-1,-3,0,-1,-2,-1,9.735
1948,-2,-1,-1,-1,1,0,-2,-1,9.74
1949,1,-1,-1,-3,-1,-1,0,0,9.745000000000001
1950,-1,-1,0,0,0,1,0,0,9.75
1951,-2,-2,-2,-1,-2,-1,-1,-1,9.755
1952,-1,-2,-1,2,0,-1,0,-1,9.76
1953,1,-2,-2,-1,-1,0,0,-1,9.765
1954,0,0,-1,-2,-2,1,-2,-1,9.77
1955,-1,0,-1,-2,0,0,-1,-2,9.775
1956,-1,0,0,2,2,1,-1,-1,9.78
1957,0,1,-3,-3,-3,-2,0,1,9.785
1958,0,-3,0,1,-2,0,-1,0,9.790000000000001
1959,0,-1,-1,-2,-2,-3,1,-1,9.795
1960,-1,0,0,0,-1,1,0,0,9.8
1961,1,0,-1,-2,0,0,0,-2,9.805
1962,-1,0,-1,0,0,-1,0,0,9.81
1963,0,1,-2,0,0,0,-1,-1,9.815
1964,-1,-1,2,3,1,-1,-1,-1,9.82
1965,-2,-1,-3,-6,-3,-2,0,1,9.825000000000001
1966,-1,-1,-2,-1,-4,-3,-1,-1,9.83
1967,0,-2,-1,0,-2,-3,-2,-3,9.835
1968,1,0,1,2,-1,1,1,-1,9.84
1969,0,-1,0,3,1,1,0,1,9.845
1970,1,-3,-1,-2,-2,-1,0,-1,9.85
1971,-2,-1,-2,0,-3,0,-2,1,9.855
1972,-3,-1,0,-1,-1,-1,1,0,9.86
1973,-1,-2,1,-1,-1,0,-2,-1,9.865
1974,-1,0,-2,-4,2,-1,0,-1,9.870000000000001
1975,0,-1,0,-1,-2,0,-1,-1,9.875
1976,1,0,-1,-1,-1,-1,1,0,9.88
1977,-2,-1,-1,0,-1,-1,-2,-1,9.885
1978,-1,0,0,1,1,-1,1,-1,9.89
1979,-1,0,0,-1,0,-1,1,0,9.895
1980,0,0,-1,-3,-2,0,-2,0,9.9
1981,0,-1,-1,-1,0,1,0,-1,9.905
1982,0,-1,-2,2,-1,-1,0,-2,9.91
1983,-3,-2,-2,-4,-3,-4,0,-1,9.915000000000001
1984,0,1,-1,0,1,-2,0,0,9.92
1985,0,-1,-1,-6,-8,-1,-1,0,9.925
1986,-1,0,-1,8,8,2,-2,-1,9.93
1987,0,0,-2,-2,-1,-2,-2,0,9.935
1988,0,-2,-2,0,0,-1,-1,0,9.94
1989,-1,1,3,1,0,0,0,-1,9.945
1990,-2,-3,-2,-5,-4,-2,-1,1,9.950000000000001
1991,-1,-1,-2,-2,-4,0,-1,-2,9.955
1992,0,0,-2,0,1,-1,0,1,9.96
1993,-4,-1,-2,-1,-1,-2,-2,1,9.965
1994,0,0,0,-2,-4,-2,-2,-1,9.97
1995,-2,-2,1,1,0,1,0,-2,9.975
1996,-1,-1,-2,-3,-2,-1,0,0,9.98
1997,0,-1,0,2,2,-2,0,-1,9.985
1998,-1,0,-1,-3,-1,-2,-1,-2,9.99
1999,-1,0,-1,-2,1,-2,-3,-1,9.995000000000001
2000,0,-2,-1,0,0,-1,-2,-3,10.0
2001,0,0,0,0,-1,1,-1,-2,10.005
2002,0,-1,1,-1,-1,0,1,-1,10.01
2003,-1,0,-1,-2,-1,-2,0,0,10.015
2004,0,-1,0,-2,-1,0,-2,-2,10.02
2005,-1,-1,-1,-2,1,-1,-1,1,10.025
2006,-1,0,-1,-1,0,-1,0,-1,10.03
2007,-2,-2,2,0,0,-1,-1,-1,10.035
2008,-2,-1,2,-6,-5,1,-1,-1,10.040000000000001
2009,1,0,0,9,7,1,0,-1,10.045
2010,-3,0,-3,-2,-2,-1,-1,-1,10.05
2011,0,-1,-3,-2,-1,-1,-1,0,10.055
2012,-2,-2,-4,-2,-1,0,1,1,10.06
2013,-1,-1,-2,-2,-3,-3,0,-1,10.065
2014,-2,-1,-3,-2,-2,-1,-1,0,10.07
2015,-1,-1,-2,2,3,-2,-1,-1,10.075000000000001
2016,1,1,-3,0,-2,-1,-2,-3,10.08
2017,1,-2,-1,-2,-2,0,0,-1,10.085
2018,0,-3,0,-1,-1,-2,-3,-2,10.09
2019,-2,-1,-2,-5,-3,0,-1,-2,10.095
2020,2,-1,-2,0,-1,-1,-1,-1,10.1
2021,-2,1,-1,1,0,-1,1,-2,10.105
2022,0,0,-1,-1,-1,-2,0,-1,10.11
2023,1,-2,-1,0,0,0,-1,0,10.115
2024,-1,0,0,-2,-3,-1,-1,0,10.120000000000001
2025,0,1,0,-6,-1,-1,-1,0,10.125
2026,-1,-3,0,6,1,-1,-3,0,10.13
2027,-1,-1,0,-1,-3,-1,0,-2,10.135
2028,-3,-1,1,3,2,0,0,0,10.14
2029,-1,-2,-4,-8,-5,-1,-1,-1,10.145
2030,-1,-1,0,6,10,0,1,0,10.15
2031,0,-1,-1,-2,-4,-2,0,-1,10.155
2032,0,-2,0,2,1,0,-1,-1,10.16
2033,0,-1,0,-2,-2,-1,0,-1,10.165000000000001
2034,-3,-1,0,-5,-4,-1,-1,-2,10.17
2035,-1,-2,-2,0,0,0,-1,-1,10.175
2036,-1,1,-1,-1,-1,-1,0,0,10.18
2037,-1,-1,-1,0,-1,-1,0,-1,10.185
2038,1,-1,-2,-3,-6,-1,-1,0,10.19
2039,-1,-1,1,0,0,0,0,1,10.195
2040,0,1,-1,-2,-3,-1,0,-2,10.200000000000001
2041,-1,-1,-1,2,3,0,-1,-1,10.205
2042,0,1,-1,-5,-4,0,1,-1,10.21
2043,0,-1,-1,-3,-1,-1,-2,-2,10.215
2044,1,0,0,-1,3,1,-1,0,10.22
2045,1,-1,0,1,1,0,0,-1,10.225
2046,-3,-1,0,-1,-2,-3,-1,-1,10.23
2047,-1,0,0,0,1,-1,-1,-2,10.235
2048,-1,-1,-2,-2,0,0,0,1,10.24
2049,-1,0,-1,-1,1,1,0,-1,10.245000000000001
2050,-1,-2,0,-3,-2,0,-1,-1,10.25
2051,0,0,-2,-1,-3,0,-1,0,10.255
2052,-2,-2,-2,-1,-2,-2,0,0,10.26
2053,-1,0,0,3,6,2,-1,-1,10.265
2054,0,0,-2,-2,-3,-2,-1,0,10.27
2055,-1,-1,0,0,1,0,-2,-1,10.275
2056,-1,0,-1,-2,-6,-1,0,-1,10.28
2057,0,1,0,-1,-3,-2,-1,1,10.285
2058,0,0,-1,0,2,0,0,0,10.290000000000001
2059,-1,1,-1,-3,0,0,-1,0,10.295
2060,-2,0,1,1,2,1,1,1,10.3
2061,-1,-1,0,0,-2,0,-1,-2,10.305
2062,-2,1,-1,-1,-3,-1,-3,-1,10.31
2063,0,0,-1,2,2,1,2,0,10.315
2064,1,-1,-1,-1,0,-1,-2,0,10.32
2065,0,-1,-1,1,0,-1,0,1,10.325000000000001
2066,0,-2,-1,-6,-6,-2,0,-2,10.33
2067,-1,1,-1,-1,-2,-1,-2,0,10.335
2068,0,1,0,0,0,-1,-1,0,10.34
2069,0,0,-1,0,-2,0,-2,-1,10.345
2070,-1,-1,-2,-1,-1,0,-2,-1,10.35
2071,-1,-2,-3,-2,3,-1,1,0,10.355
2072,2,1,-1,0,1,-2,1,-2,10.36
2073,-2,-3,0,-2,-2,1,-1,-1,10.365
2074,-2,-1,-2,0,0,-1,-1,-1,10.370000000000001
2075,-2,-1,-1,0,-1,-2,-1,-2,10.375
2076,-1,-2,-1,-1,1,1,-1,0,10.38
2077,-2,-1,-2,-2,1,-2,0,-1,10.385
2078,-1,-1,0,-2,-1,-1,-1,-1,10.39
2079,-1,-1,-1,0,-3,0,-1,0,10.395
2080,-1,0,-2,-1,-4,-3,-2,-1,10.4
2081,-2,0,0,2,2,1,0,0,10.405
2082,-1,-2,-1,-3,-1,1,0,-1,10.41
2083,-2,0,-1,2,-3,-1,-1,-1,10.415000000000001
2084,0,-1,-1,-1,-1,0,-2,0,10.42
2085,-1,0,-1,-2,-1,-2,0,0,10.425
2086,-2,-1,-3,0,0,-2,-2,-2,10.43
2087,-2,-1,0,-6,-1,-1,0,0,10.435
2088,-3,-2,0,0,0,1,2,0,10.44
2089,-2,0,0,-1,-2,-2,0,-1,10.445
2090,1,-1,0,2,-1,0,0,0,10.450000000000001
2091,0,-1,-1,-4,-5,-2,-2,-1,10.455
2092,0,-1,0,3,5,1,-1,0,10.46
2093,1,-1,1,0,0,-1,-1,0,10.465
2094,-3,-1,-2,-1,-2,-3,0,0,10.47
2095,0,0,1,2,1,0,0,-1,10.475
2096,0,0,-2,-2,-2,-1,0,-1,10.48
2097,0,1,-1,-2,-3,1,-2,-1,10.485
2098,1,-2,0,-2,-1,0,-1,-1,10.49
2099,0,-2,-2,0,-1,0,-2,1,10.495000000000001
2100,-4,-2,-1,-6,-4,-1,-1,-1,10.5
2101,-1,-1,0,10,10,1,1,0,10.505
2102,-1,1,-1,-1,-2,0,-3,-1,10.51
2103,-2,-1,-2,-1,-1,1,-1,-2,10.515
2104,-1,-1,-2,-2,1,-3,-1,-1,10.52
2105,0,-2,-2,-5,-5,-1,-1,-1,10.525
2106,-2,2,-2,-4,-1,-3,-1,1,10.53
2107,1,0,-1,4,1,1,3,-1,10.535
2108,0,-2,-1,0,0,0,-1,-2,10.540000000000001
2109,-2,0,-1,1,-4,-2,-1,0,10.545
2110,-1,-1,0,0,-1,-1,-1,-1,10.55
2111,0,-1,-1,-1,0,-1,-1,-1,10.555
2112,0,-1,0,1,0,-1,-1,0,10.56
2113,0,1,-3,-3,-3,0,-3,-1,10.565
2114,-2,-3,2,1,0,-1,-1,-1,10.57
2115,-2,-1,0,-1,2,-2,-3,1,10.575000000000001
2116,0,0,-1,2,2,0,-1,0,10.58
2117,-1,0,-2,-2,-3,-2,0,1,10.585
2118,0,-1,-4,-2,0,-2,-1,-2,10.59
2119,-3,0,-1,-4,-6,-2,-3,-1,10.595
2120,0,2,1,5,4,0,-1,0,10.6
2121,0,-1,-1,-3,-2,-3,0,-1,10.605
2122,-2,-1,-1,0,2,-1,-1,-1,10.61
2123,0,-2,-3,-3,0,0,2,-2,10.615
2124,2,-1,0,-11,-8,-1,-1,0,10.620000000000001
2125,0,0,2,8,7,2,-2,-1,10.625
2126,-1,-1,-1,-1,0,0,-2,-2,10.63
2127,0,-1,-2,-1,-2,0,-2,0,10.635
2128,0,1,-1,-2,-1,1,-1,-1,10.64
2129,-1,0,-2,-4,-2,-2,0,1,10.645
2130,-1,-1,-2,1,1,1,0,-2,10.65
2131,-2,-1,1,0,3,0,0,1,10.655
2132,0,-2,-2,1,-2,0,1,-2,10.66
2133,-2,0,-1,-4,-5,-1,0,0,10.665000000000001
2134,-1,-1,0,-1,-3,0,-1,0,10.67
2135,0,-1,-2,-2,-1,-1,-1,-1,10.675
2136,-2,-2,1,1,0,0,0,0,10.68
2137,-1,-1,-1,-1,2,0,-2,-1,10.685
2138,-1,-1,-1,-2,-3,-1,-1,-1,10.69
2139,-2,-1,-1,1,0,-3,0,0,10.695
2140,-1,-1,0,-1,2,-2,-2,-2,10.700000000000001
2141,-1,-2,0,-3,-4,1,-1,0,10.705
2142,-1,-1,-3,-1,0,-1,-1,-2,10.71
2143,1,0,0,-2,-5,1,0,1,10.715
2144,-1,-1,-1,3,3,2,1,0,10.72
2145,-1,-1,-3,-9,-6,-2,0,-2,10.725
2146,0,1,4,7,6,-1,-2,-1,10.73
2147,-3,-1,-2,-4,-3,0,0,-3,10.735
2148,-1,0,-1,-2,1,0,0,0,10.74
2149,-1,-1,-2,-2,-2,-1,0,-2,10.745000000000001
2150,0,0,-1,-2,-4,-3,0,0,10.75
2151,0,0,1,0,0,-2,-2,-2,10.755
2152,-1,-1,-1,0,0,-2,-1,0,10.76
2153,-1,-2,0,1,-1,-4,-1,-2,10.765
2154,-2,-1,-3,-2,-3,-4,-1,-2,10.77
2155,-1,0,0,3,2,1,0,0,10.775
2156,0,-2,-2,-4,-4,1,-1,0,10.78
2157,0,0,1,0,-1,2,-2,-1,10.785
2158,-2,-1,-3,-1,0,-1,-1,-1,10.790000000000001
2159,0,0,-1,0,-2,1,0,-1,10.795
2160,0,-1,1,1,0,0,1,0,10.8
2161,-2,-2,0,0,2,-1,0,-1,10.805
2162,-2,-2,-2,-3,-4,-1,-1,0,10.81
2163,-2,1,1,1,0,-2,0,-1,10.815
2164,-2,0,0,1,0,-2,0,-1,10.82
2165,-1,0,-2,1,-1,0,-1,-1,10.825000000000001
2166,-1,-1,-2,-6,-6,-2,1,-1,10.83
2167,1,0,1,9,6,0,1,0,10.835
2168,0,-1,-2,0,1,2,-1,-1,10.84
2169,0,-1,0,-1,-2,-1,-2,-1,10.845
2170,-1,-1,-2,-3,-1,-1,-2,-1,10.85
2171,-2,1,-2,-9,-6,-2,-3,-1,10.855
2172,0,-1,2,2,1,-1,-2,-1,10.86
2173,-2,-1,-2,4,-2,-2,0,0,10.865
2174,0,-2,-1,-2,-2,-1,-1,-1,10.870000000000001
2175,-1,-2,-1,-4,0,-2,-2,-2,10.875
2176,-1,0,-1,-2,-2,-2,0,-1,10.88
2177,-1,0,-3,-4,-1,-1,-1,1,10.885
2178,-3,-1,1,2,1,0,-1,-2,10.89
2179,-1,0,0,1,-1,-2,1,-1,10.895
2180,0,-1,-1,-3,-2,-4,0,-1,10.9
2181,-1,-1,-1,-1,-1,1,0,-1,10.905
2182,-1,-1,-2,1,0,1,-1,0,10.91
2183,-1,-2,-2,-3,-1,1,1,0,10.915000000000001
2184,1,0,0,-1,-3,-2,-2,0,10.92
2185,-2,-1,1,-1,-1,-1,-1,0,10.925
2186,0,0,-2,1,-1,-1,-1,-1,10.93
2187,-1,-2,-2,-6,-4,-2,-2,-1,10.935
2188,-1,0,-1,7,2,0,-1,0,10.94
2189,0,-1,0,1,-2,0,0,0,10.945
2190,-1,-1,-1,-1,0,-1,1,-1,10.950000000000001
2191,-1,-2,0,1,0,-1,1,1,10.955
2192,0,-1,0,-8,-4,-2,-1,-2,10.96
2193,0,1,-1,-4,-2,1,-1,-1,10.965
2194,-1,0,-1,3,0,0,-2,0,10.97
2195,-1,-2,0,-4,-2,-3,0,0,10.975
2196,1,0,0,4,4,2,0,-1,10.98
2197,-1,-2,-2,-1,0,-3,-1,-1,10.985
2198,-1,1,0,-1,0,0,1,-1,10.99
2199,0,-1,-2,-2,-1,2,-1,-1,10.995000000000001
2200,-2,0,-1,0,0,-2,-1,0,11.0
2201,1,-2,-1,-3,1,-3,-3,-2,11.005
2202,-1,0,1,2,1,0,0,-1,11.01
2203,-2,-1,-2,-3,-1,-1,-2,1,11.015
2204,-2,-1,-4,-8,-13,-3,-1,0,11.02
2205,-1,-1,0,11,9,3,0,0,11.025
2206,-1,-1,-3,-7,-12,-4,-2,0,11.03
2207,3,3,3,13,10,1,2,0,11.035
2208,-1,-2,-3,-8,1,0,-1,0,11.040000000000001
2209,-1,-2,-4,-1,-6,-2,-1,-1,11.045
2210,-1,-2,1,-10,-7,-3,-1,-2,11.05
2211,-3,-3,-11,-14,-10,-5,-1,-2,11.055
2212,0,5,7,3,18,4,1,-2,11.06
2213,-3,-5,-2,7,3,-4,-4,-2,11.065
2214,-3,-6,21,42,23,8,4,1,11.07
2215,-5,-7,-6,-13,-12,-4,-3,-3,11.075000000000001
2216,3,2,-3,-3,0,0,0,1,11.08
2217,-6,4,3,-2,-2,-4,-2,-3,11.085
2218,-14,-7,-18,-46,-14,-8,-4,-7,11.09
2219,10,2,-13,-8,-50,-4,2,3,11.095
2220,21,11,-1,17,26,3,-1,5,11.1
2221,-9,-7,-5,-7,8,0,0,-3,11.105
2222,5,8,24,0,27,8,4,-1,11.11
2223,15,14,7,11,3,-1,5,11,11.115
2224,-6,-4,-33,-27,11,0,-1,-1,11.120000000000001
2225,9,0,14,4,-46,-6,-6,-2,11.125
2226,-17,4,27,-5,39,7,-1,-13,11.13
2227,-21,-24,6,35,41,12,16,-10,11.135
2228,10,1,12,-4,16,10,1,20,11.14
2229,4,7,-11,-8,39,-1,12,-5,11.145
2230,-13,-20,-74,-18,-73,-16,-21,-46,11.15
2231,24,23,72,104,38,16,-5,61,11.155
2232,3,1,-21,-51,-96,-26,-1,3,11.16
2233,16,39,-1,-18,38,6,-16,-5,11.165000000000001
2234,-9,-6,14,51,19,5,17,-57,11.17
2235,-20,-12,-10,-100,-33,-8,3,-10,11.175
2236,15,8,11,-2,-27,-9,-2,76,11.18
2237,9,4,7,-112,5,1,3,6,11.185
2238,-3,-13,-38,-45,14,-7,-5,4,11.19
2239,3,21,23,102,60,30,-4,-11,11.195
2240,-4,-10,48,-1,64,15,-14,-10,11.200000000000001
2241,1,6,40,-4,-58,-27,-3,-19,11.205
2242,-22,-19,-84,-106,10,-8,-5,9,11.21
2243,4,-34,-19,-128,-84,-39,-21,-47,11.215
2244,-16,-5,31,81,90,62,31,31,11.22
2245,-11,25,-5,-19,-64,0,-7,-9,11.225
2246,25,-1,26,110,-1,7,29,50,11.23
2247,-1,6,-13,-128,-76,-32,-11,-50,11.235
2248,-20,31,28,-42,-113,-53,-18,-16,11.24
2249,-2,-37,-109,-55,47,36,23,10,11.245000000000001
2250,25,64,108,-29,-1,5,-16,-18,11.25
2251,-10,-11,-53,-45,0,-9,-11,39,11.255
2252,-58,-13,25,4,51,2,-10,-108,11.26
2253,-13,53,-52,-25,-68,-17,-16,-46,11.265
2254,43,36,8,0,55,2,-16,117,11.27
2255,66,11,-36,103,84,20,2,97,11.275
2256,-28,-56,-18,1,-22,-1,13,-11,11.28
2257,-68,-96,11,-102,-51,-35,-18,-46,11.285
2258,51,-18,26,99,75,45,12,-57,11.290000000000001
2259,-31,-19,-3,-71,-13,13,16,-68,11.295
2260,31,-11,-74,21,-67,-28,-3,50,11.3
2261,10,-10,-21,30,78,22,22,22,11.305
2262,-74,-106,-116,-128,-128,-74,-62,-39,11.31
2263,33,41,101,116,19,30,39,40,11.315
2264,11,-28,-19,-11,26,-2,-31,-40,11.32
2265,2,0,23,15,-100,-28,-28,-27,11.325000000000001
2266,18,8,-62,0,-45,-6,37,48,11.33
2267,-39,-63,-8,-120,-33,-32,-30,-58,11.335
2268,-25,1,7,-35,-54,-14,56,38,11.34
2269,19,8,21,-16,25,6,-6,79,11.345
2270,27,25,-83,-38,65,17,7,20,11.35
2271,-50,43,51,127,-6,17,9,-32,11.355
2272,58,43,-64,-88,10,7,-18,-34,11.36
2273,-13,8,10,24,26,-10,-32,-3,11.365
2274,-36,41,100,-26,-2,11,-10,-48,11.370000000000001
2275,-2,-7,-69,-72,53,3,9,28,11.375
2276,-18,14,101,96,3,5,-13,-55,11.38
2277,4,-4,-84,-40,14,13,20,28,11.385
2278,27,1,109,99,22,24,11,13,11.39
2279,32,18,-44,40,34,15,23,55,11.395
2280,-19,-12,-36,-29,15,-6,12,25,11.4
2281,18,1,19,-19,20,11,-7,15,11.405
2282,-33,-8,45,-102,-57,-36,-38,-32,11.41
2283,32,-5,-72,50,66,30,20,-2,11.415000000000001
2284,-12,-6,80,-38,-25,-21,-31,-8,11.42
2285,10,15,-26,39,-2,-3,47,-31,11.425
2286,-37,12,70,71,17,11,3,-41,11.43
2287,14,-1,-26,-77,-35,-16,-32,6,11.435
2288,52,27,-87,-113,-43,1,13,26,11.44
2289,-59,-23,127,127,22,-9,10,-9,11.445
2290,14,-5,-52,39,17,17,16,38,11.450000000000001
2291,43,41,27,-49,-79,-19,-6,81,11.455
2292,-16,-21,0,127,127,38,-1,-29,11.46
2293,6,26,-36,-95,-45,-15,-17,-15,11.465
2294,-40,-40,31,127,19,0,5,-81,11.47
2295,18,-3,0,-37,-106,-34,16,-2,11.475
2296,-9,-21,-39,-53,14,-23,-58,17,11.48
2297,-42,-53,-123,-38,-48,15,5,-26,11.485
2298,79,57,103,-117,-38,-16,1,37,11.49
2299,-61,-19,-62,-120,53,-26,-45,-64,11.495000000000001
2300,20,7,-27,100,75,61,87,75,11.5
2301,30,5,31,12,37,18,-6,-31,11.505
2302,-49,-32,-66,6,12,-28,-60,23,11.51
2303,-9,36,-30,-20,8,18,2,-40,11.515
2304,-15,-14,-33,-115,-128,-23,23,-13,11.52
2305,18,-9,43,82,6,-21,-24,35,11.525
2306,59,-1,34,-128,-50,-13,8,30,11.53
2307,-28,0,-63,-54,-24,-8,-20,-33,11.535
2308,-38,-24,-43,94,-32,9,48,-23,11.540000000000001
2309,41,21,80,46,-17,5,-26,63,11.545
2310,-32,-50,-110,-102,-69,-33,-32,-56,11.55
2311,-71,-26,110,79,84,8,-33,-27,11.555
2312,-12,4,-72,42,47,29,5,-6,11.56
2313,73,13,14,-111,-59,-37,21,44,11.565
2314,-14,-31,-78,-20,66,30,12,15,11.57
2315,24,28,127,113,66,28,22,-9,11.575000000000001
2316,-8,12,-3,-81,7,-18,-40,-79,11.58
2317,-19,-7,-20,-87,16,-5,23,7,11.585
2318,-29,-18,-75,47,127,50,64,23,11.59
2319,19,-1,59,87,-6,33,19,46,11.595
2320,18,8,71,10,-72,-42,-51,52,11.6
2321,-7,-6,17,79,76,21,-48,-56,11.605
2322,-2,30,74,61,-19,19,32,-38,11.61
2323,10,2,-50,-26,-12,4,35,51,11.615
2324,-29,-5,13,-59,-81,-56,-32,-34,11.620000000000001
2325,-7,-19,-31,-72,-29,-8,-19,-10,11.625
2326,11,30,-12,124,-50,11,24,-90,11.63
2327,2,-35,74,-75,-54,-7,1,-12,11.635
2328,61,9,-1,-49,27,-4,-25,127,11.64
2329,-59,-13,-104,-73,-57,-18,8,-65,11.645
2330,0,-1,67,63,-60,-2,58,86,11.65
2331,17,9,-56,-36,27,-22,-41,-21,11.655
2332,-20,5,14,20,1,7,18,-80,11.66
2333,-54,-48,-29,86,39,21,-26,19,11.665000000000001
2334,22,44,62,60,-8,4,50,4,11.67
2335,79,-2,-95,-81,-53,-11,-10,21,11.675
2336,-10,2,109,21,45,5,-37,-3,11.68
2337,-13,10,-10,82,74,13,-8,-52,11.685
2338,-34,-16,-17,-47,-18,-2,-19,21,11.69
2339,2,10,-68,63,-41,-11,16,-30,11.695
2340,6,4,-82,-128,-67,-6,28,-4,11.700000000000001
2341,-12,9,7,10,34,7,-16,-1,11.705
2342,-15,-34,14,-9,51,7,8,1,11.71
2343,-3,-16,14,-43,-34,-24,-8,18,11.715
2344,-36,-19,-93,-71,-46,1,9,-101,11.72
2345,37,9,-30,75,30,9,22,127,11.725
2346,34,35,-1,22,10,-25,-58,43,11.73
2347,45,10,-31,63,33,9,-11,27,11.735
2348,-24,-13,62,-54,-1,5,-6,-74,11.74
2349,-26,-13,-2,9,-98,-28,25,34,11.745000000000001
2350,25,32,-37,-6,38,25,6,38,11.75
2351,-58,-38,-33,-68,-65,-13,-23,-44,11.755
2352,-42,-9,12,1,-16,-14,-14,-84,11.76
2353,61,30,16,85,89,62,69,41,11.765
2354,13,-2,80,-95,-50,-6,-34,58,11.77
2355,-2,7,-50,-75,3,-8,3,-11,11.775
2356,-7,-29,-35,82,98,60,36,-6,11.78
2357,2,28,114,46,-86,-30,7,-23,11.785
2358,20,-18,-32,-57,0,-13,-69,-10,11.790000000000001
2359,-23,-11,-15,-12,-14,-6,13,13,11.795
2360,17,-1,5,127,54,8,-44,-29,11.8
2361,-33,-25,-1,-123,-75,-37,-1,18,11.805
2362,10,11,-2,123,60,12,15,4,11.81
2363,-48,-17,-14,11,-105,-30,-10,11,11.815
2364,38,48,4,-34,-21,10,44,83,11.82
2365,31,-12,62,45,74,12,-12,-25,11.825000000000001
2366,-24,-4,-73,-70,0,-5,2,-49,11.83
2367,-45,-32,46,97,35,8,8,-44,11.835
2368,40,38,127,114,21,-7,-6,35,11.84
2369,16,-5,-45,-96,-16,-19,-18,-23,11.845
2370,-32,-29,-100,-103,-65,1,31,-102,11.85
2371,-57,-40,-3,-73,-13,-13,-20,-94,11.855
2372,88,52,-41,-27,-7,-21,-14,126,11.86
2373,31,1,80,47,78,15,35,96,11.865
2374,-21,8,-93,-6,-23,-23,-24,-44,11.870000000000001
2375,2,10,110,88,-22,26,-18,-24,11.875
2376,-27,-59,-128,-31,-89,-25,-3,-50,11.88
2377,19,55,54,-69,-87,-20,-30,-11,11.885
2378,-1,10,-23,-20,-10,1,57,35,11.89
2379,-19,-14,-60,-31,34,-4,2,6,11.895
2380,3,23,22,-89,29,3,-35,-5,11.9
2381,-2,-7,-1,127,44,11,0,-41,11.905
2382,4,3,-36,-46,-10,-4,5,5,11.91
2383,30,28,127,115,122,40,24,24,11.915000000000001
2384,-18,-10,-74,-103,-106,-29,-8,6,11.92
2385,-54,-40,-39,-111,-21,-4,10,-86,11.925
2386,29,1,54,-22,-20,0,40,96,11.93
2387,50,37,-30,41,58,4,-28,67,11.935
2388,-14,-20,-36,-57,13,4,59,-52,11.94
2389,4,18,7,68,80,-8,-52,44,11.945
2390,29,-5,16,31,15,0,-70,74,11.950000000000001
2391,10,0,-9,-102,-54,-9,-12,-9,11.955
2392,-5,6,-19,127,82,11,-13,-12,11.96
2393,-31,-4,-65,-128,-128,-18,18,-104,11.965
2394,-33,12,79,63,30,-13,0,-70,11.97
2395,1,-4,-98,-45,-3,1,32,32,11.975
2396,-26,-22,43,-90,-61,-22,-28,-28,11.98
2397,-12,-29,-79,-8,-31,13,27,-13,11.985
2398,-5,-20,-53,11,34,-3,-16,11,11.99
2399,15,15,84,75,11,-1,12,-22,11.995000000000001
2400,-10,-13,56,3,-12,7,-34,-85,12.0
2401,-39,-22,-54,-96,-62,-7,18,98,12.005
2402,68,29,25,101,82,4,-46,51,12.01
2403,-19,-10,-75,13,56,8,34,13,12.015
2404,-13,2,72,-12,-23,-1,-1,22,12.02
2405,26,4,31,22,41,27,20,-71,12.025
2406,-13,15,-91,-126,-94,-18,-27,-32,12.030000000000001
2407,24,4,45,62,57,-5,-13,65,12.035
2408,26,31,19,2,102,30,14,43,12.040000000000001
2409,-35,-22,-44,17,5,8,-1,-47,12.045
2410,-29,-15,-19,-22,-108,-12,21,-52,12.05
2411,-7,-5,-60,-27,-77,-16,-20,-47,12.055
2412,0,11,24,84,47,10,19,36,12.06
2413,5,7,51,7,14,-2,-17,-11,12.065
2414,10,-15,10,23,64,15,36,12,12.07
2415,1,3,-5,-76,-54,-8,-24,-23,12.075000000000001
2416,-14,-35,-23,-1,11,6,14,-11,12.08
2417,17,15,22,27,8,4,13,59,12.085
2418,-25,-1,-5,-36,-7,-24,-37,-57,12.09
2419,32,3,15,66,-2,18,59,82,12.095
2420,26,20,76,6,8,-3,-5,69,12.1
2421,-15,10,-31,54,16,0,-22,-36,12.105
2422,10,12,4,-50,-56,-5,25,-20,12.11
2423,-13,24,40,53,37,4,-25,-57,12.115
2424,12,26,47,58,7,-1,9,14,12.120000000000001
2425,11,19,-15,33,5,9,-2,7,12.125
2426,-22,9,22,51,15,7,-1,-12,12.13
2427,-1,5,11,-52,-27,-6,7,-13,12.135
2428,5,-21,-18,3,-10,-5,0,16,12.14
2429,2,-9,30,-10,35,6,-3,-1,12.145
2430,2,-26,-20,-20,-7,-4,1,2,12.15
2431,-9,-14,16,-10,8,-5,-28,-11,12.155000000000001
2432,-25,-28,-17,27,7,10,29,0,12.16
2433,4,-14,-39,-23,-23,-11,1,-6,12.165000000000001
2434,29,5,24,6,8,-13,-29,24,12.17
2435,-15,-28,4,-6,-4,-14,-56,-22,12.175
2436,-3,1,-29,-29,-4,-3,12,2,12.18
2437,15,18,12,2,8,32,27,10,12.185
2438,11,22,34,5,7,35,87,22,12.19
2439,-26,28,-33,-31,12,11,20,-12,12.195
2440,5,32,-10,3,-18,-16,-13,-10,12.200000000000001
2441,-6,40,-32,-5,14,-16,-18,-3,12.205
2442,-18,10,26,4,-5,-7,-36,-10,12.21
2443,0,10,-26,-31,-11,-10,4,-7,12.215
2444,1,0,-17,38,10,-1,-13,2,12.22
2445,16,2,-29,-27,-20,-8,-8,5,12.225
2446,-2,-19,-1,22,14,0,-12,-4,12.23
2447,-4,-4,65,-30,-7,-2,7,-7,12.235
2448,6,-14,-37,-29,-5,2,4,6,12.24
2449,12,-14,32,22,12,-1,-12,1,12.245000000000001
2450,-11,-19,-20,-15,-11,-3,-2,-3,12.25
2451,-2,-21,-4,12,0,5,16,-1,12.255
2452,-5,-22,-11,21,9,4,-7,2,12.26
2453,3,-20,7,-8,0,-6,-3,-4,12.265
2454,-9,-16,11,6,-3,-1,-6,-2,12.27
2455,-2,-17,-9,-5,1,6,10,1,12.275
2456,1,-9,8,-17,-6,-2,-1,-1,12.280000000000001
2457,1,5,3,29,10,-2,-3,0,12.285
2458,-6,-1,6,-30,-9,-4,-1,0,12.290000000000001
2459,5,-8,-12,3,4,1,3,2,12.295
2460,0,-46,-6,-9,-6,1,1,2,12.3
2461,1,-111,10,9,0,-1,-3,-2,12.305
2462,-4,-113,8,4,3,4,-3,-2,12.31
2463,0,-74,-8,-4,0,2,3,-2,12.315
2464,-2,-48,-1,-6,-6,-3,-2,-1,12.32
2465,2,6,0,-6,0,-1,-1,0,12.325000000000001
2466,-2,35,-5,-7,-2,-4,-3,-2,12.33
2467,-1,50,3,12,0,-2,4,-1,12.335
2468,-2,63,-7,-14,-3,-1,-2,0,12.34
2469,0,61,5,3,3,-1,-5,0,12.345
2470,-4,48,-14,-8,-5,-2,-1,-2,12.35
2471,-1,39,0,1,2,-2,2,1,12.355
2472,-2,35,-5,-7,-4,-1,-2,-2,12.36
2473,0,29,15,9,3,-3,-2,-2,12.365
2474,-2,26,-7,-4,-3,-2,-2,-1,12.370000000000001
2475,-3,12,-8,3,0,0,-1,1,12.375
2476,0,9,-1,-5,-2,1,-2,-1,12.38
2477,0,13,-5,-5,-2,0,-1,0,12.385
2478,0,8,-8,-6,1,0,0,0,12.39
2479,1,0,1,-2,-2,-2,-1,-2,12.395
2480,-3,0,-2,-4,-1,-1,-1,-2,12.4
2481,-1,7,0,-1,2,1,-3,0,12.405000000000001
2482,-1,3,3,4,-5,-4,-1,-1,12.41
2483,0,-2,-5,-1,3,1,1,-1,12.415000000000001
2484,-1,3,4,2,0,-2,-1,-1,12.42
2485,-2,1,0,2,1,0,2,0,12.425
2486,0,2,3,2,-1,-2,-2,1,12.43
2487,-2,-2,-2,-2,-3,-2,0,-1,12.435
2488,-1,-2,-2,-4,-3,0,-2,2,12.44
2489,0,-2,-2,0,-1,-1,-1,0,12.445
2490,-1,-2,3,3,1,-1,0,0,12.450000000000001
2491,-1,-4,0,-2,-4,-1,1,0,12.455
2492,-1,-6,-7,-3,0,0,-2,-1,12.46
2493,0,-8,0,2,-2,-1,-1,-1,12.465
2494,-2,-6,9,6,-1,0,-1,0,12.47
2495,-1,-5,-4,-7,-1,1,0,-2,12.475
2496,-1,-5,2,0,-3,-2,-1,-1,12.48
2497,0,-2,-2,1,0,0,1,0,12.485
2498,-2,-2,-2,-1,1,1,0,-1,12.49
2499,-2,-2,1,2,-2,-1,-2,-3,12.495000000000001
2500,-1,-1,-2,-3,-1,-1,-2,-2,12.5
2501,1,1,1,0,0,0,-2,-1,12.505
2502,0,-1,-2,-4,-2,-2,-1,-2,12.51
2503,-1,-1,-5,4,3,-1,1,-1,12.515
2504,0,0,1,4,-1,-3,-2,0,12.52
2505,-3,0,0,-3,-3,-1,0,0,12.525
2506,1,1,4,1,2,2,0,0,12.530000000000001
2507,-1,-1,-9,-7,-2,-3,0,-1,12.535
2508,0,1,-3,-3,-4,0,0,0,12.540000000000001
2509,-1,-1,-4,-1,1,0,-1,-1,12.545
2510,-2,-2,3,0,-2,0,-2,0,12.55
2511,-2,-1,0,-2,-1,0,-1,1,12.555
2512,-1,-1,2,3,0,0,-2,-1,12.56
2513,1,-2,-4,-4,-2,0,-1,-1,12.565
2514,-2,-1,-4,-1,0,-1,-1,-1,12.57
2515,0,1,5,8,1,0,-1,-2,12.575000000000001
2516,-3,-5,-5,-11,-8,-3,0,-1,12.58
2517,-1,0,2,0,-1,-2,-2,0,12.585
2518,-1,-2,-3,-3,-2,-3,-2,-1,12.59
2519,0,-2,0,0,-1,-2,-1,1,12.595
2520,-1,-2,1,0,0,-2,-2,0,12.6
2521,0,0,1,-1,1,0,0,1,12.605
2522,-1,-1,0,-2,-1,0,-2,1,12.61
2523,0,-1,-3,1,1,1,-1,1,12.615
2524,0,0,1,-1,-8,-2,-2,-3,12.620000000000001
2525,-1,-3,3,0,6,1,0,-1,12.625
2526,-2,0,-1,-1,-3,-1,0,-1,12.63
2527,-2,-2,-1,-3,-2,-1,0,-1,12.635
2528,0,0,-2,-1,-1,-2,-2,-1,12.64
2529,-1,-1,-2,2,-3,-2,0,-2,12.645
2530,0,-1,-3,-2,1,-1,0,-2,12.65
2531,0,0,0,-1,-2,-2,-1,0,12.655000000000001
2532,0,-1,2,4,3,-1,-2,-1,12.66
2533,2,0,0,0,-2,-1,-1,-1,12.665000000000001
2534,-1,-2,-2,-2,-1,0,0,-1,12.67
2535,-1,1,-5,-4,-2,-1,0,-1,12.675
2536,-1,0,-1,0,5,0,0,0,12.68
2537,-1,-2,1,0,0,-2,-1,-2,12.685
2538,0,0,0,-1,0,0,-1,-2,12.69
2539,0,-2,-1,-1,-1,1,-1,-1,12.695
2540,-1,-2,-2,0,1,-1,0,-1,12.700000000000001
2541,0,-1,-2,-2,-3,-2,0,0,12.705
2542,-1,-2,-1,2,0,1,0,-1,12.71
2543,-1,-3,-2,-4,-2,-2,-3,-1,12.715
2544,-1,-1,0,1,-1,0,0,-1,12.72
2545,1,-2,-1,-2,-3,-1,-1,-2,12.725
2546,-1,-2,-1,1,0,0,-1,0,12.73
2547,-2,-2,0,0,-1,-1,0,-1,12.735
2548,-1,-1,-4,-1,0,0,-2,1,12.74
2549,-1,-1,0,-1,0,0,-2,0,12.745000000000001
2550,-1,0,-1,-1,-1,-1,0,-1,12.75
2551,-1,-3,-2,-3,-2,-1,-1,-1,12.755
2552,-1,-1,0,-2,-3,0,0,-1,12.76
2553,-1,-1,-1,-1,0,-2,1,-1,12.765
2554,0,-2,0,1,2,0,0,-2,12.77
2555,0,1,-3,-1,-3,0,-3,-1,12.775
2556,0,-1,1,1,-1,-1,-1,-1,12.780000000000001
2557,-2,-2,2,0,-1,0,0,0,12.785
2558,-1,-2,-3,-3,-4,-3,0,0,12.790000000000001
2559,-3,-2,1,-1,-2,-2,0,-2,12.795
2560,0,-1,-1,1,-1,-1,-1,-1,12.8
2561,0,0,0,2,-1,0,-2,-1,12.805
2562,0,-1,-1,-2,0,0,-1,-1,12.81
2563,0,-1,-2,-1,0,1,-1,-2,12.815
2564,-2,1,-1,-2,0,0,0,1,12.82
2565,0,0,-3,1,-1,0,0,1,12.825000000000001
2566,-1,0,1,2,1,0,0,0,12.83
2567,-1,-2,0,-4,-3,0,-1,0,12.835
2568,-2,0,-3,-2,-1,-1,1,-1,12.84
2569,-1,0,0,0,2,0,1,0,12.845
2570,0,-1,0,1,0,1,0,0,12.85
2571,-2,0,-2,0,0,-4,-2,-2,12.855
2572,1,0,0,-2,-2,-1,-1,0,12.86
2573,-1,-1,-3,-1,-1,0,-2,-1,12.865
2574,0,-1,-1,-1,-1,-1,-1,0,12.870000000000001
2575,-2,-1,1,1,0,-1,0,-1,12.875
2576,-1,-2,-2,-2,0,-1,-1,-2,12.88
2577,1,0,-1,-1,-2,-1,0,0,12.885
2578,-1,1,1,0,0,0,-1,1,12.89
2579,-2,-1,-2,-1,-2,-1,0,-1,12.895
2580,-1,-1,0,-2,-1,-2,0,-2,12.9
2581,0,-1,0,0,-1,-1,-1,-2,12.905000000000001
2582,0,-1,-1,-1,-1,0,-1,-1,12.91
2583,-1,-1,-1,0,-1,1,0,0,12.915000000000001
2584,-1,0,0,1,-1,1,-2,0,12.92
2585,-1,-1,0,0,-2,0,-1,-1,12.925
2586,-2,-2,-1,1,-1,-1,-2,-2,12.93
2587,-1,1,-2,-1,-2,-3,-2,-1,12.935
2588,1,-1,0,1,-1,-1,-1,-1,12.94
2589,0,0,-1,-1,-1,0,0,1,12.945
2590,-1,0,0,0,0,-2,0,0,12.950000000000001
2591,-1,-3,0,-1,-1,0,-2,-1,12.955
2592,-1,0,-3,-2,0,-1,-1,-2,12.96
2593,-2,0,-1,-2,0,1,-1,-1,12.965
2594,0,0,-1,1,0,-1,-1,-1,12.97
2595,-1,-2,0,-1,-2,-1,0,0,12.975
2596,0,-1,-1,-2,0,-4,-1,-1,12.98
2597,-1,-1,0,-2,0,0,-1,-1,12.985
2598,0,-2,0,-1,0,0,1,-1,12.99
2599,-1,-2,0,-2,0,-1,-3,-1,12.995000000000001
2600,1,-2,-2,-1,-1,0,-1,0,13.0
2601,1,-1,0,3,-1,-1,0,0,13.005
2602,-1,-2,0,-2,-2,-1,-2,-1,13.01
2603,-1,0,-2,-2,-2,-1,0,-1,13.015
2604,-1,0,0,1,0,-1,-2,-2,13.02
2605,0,-1,-2,-1,1,0,-1,0,13.025
2606,1,0,-1,1,-2,0,-1,0,13.030000000000001
2607,-1,0,-2,2,0,-1,1,-1,13.035
2608,-3,-3,-1,0,0,1,0,-1,13.040000000000001
2609,0,0,0,-1,-1,-1,-1,-1,13.045
2610,0,-1,-2,0,0,-2,-3,0,13.05
2611,-1,0,0,-1,0,0,0,0,13.055
2612,1,0,-2,-2,-2,-2,1,0,13.06
2613,-1,-1,0,0,0,0,0,-1,13.065
2614,0,0,-1,-1,-2,0,0,-1,13.07
2615,-1,0,-1,-2,-3,-2,-1,-1,13.075000000000001
2616,-2,0,-1,0,1,0,-2,-1,13.08
2617,1,-1,-3,-1,0,1,-1,0,13.085
2618,1,0,1,-1,1,-1,1,-1,13.09
2619,-1,0,-1,-2,-1,-2,-1,-1,13.095
2620,-1,-3,0,-2,-2,0,-1,0,13.1
2621,-1,0,-1,-2,-1,-3,1,0,13.105
2622,0,0,0,1,-1,1,1,0,13.11
2623,0,-2,-2,-1,-2,-1,0,-2,13.115
2624,-1,0,-3,-1,-3,0,0,-1,13.120000000000001
2625,0,1,2,1,-2,-1,0,0,13.125
2626,-1,-1,0,1,0,-1,-1,-1,13.13
2627,-1,-2,-3,-5,-2,-3,-3,-2,13.135
2628,0,-1,0,0,0,-1,-1,-2,13.14
2629,1,0,-2,-1,-2,-1,1,0,13.145
2630,-1,-1,-2,-2,-1,0,-1,-1,13.15
2631,1,-1,-2,-1,0,0,-1,1,13.155000000000001
2632,-1,-1,-1,0,-1,0,0,-2,13.16
2633,0,0,-1,-2,-1,-1,-2,0,13.165000000000001
2634,-2,-2,-2,-3,-5,-3,2,-1,13.17
2635,0,-1,-1,1,1,-1,-2,-1,13.175
2636,0,0,0,-3,-3,-2,-1,-1,13.18
2637,0,0,-1,0,1,1,0,0,13.185
2638,-1,-1,-1,-4,-3,-2,-1,0,13.19
2639,-1,-2,-1,-1,0,1,-1,0,13.195
2640,0,1,-1,1,1,-1,0,0,13.200000000000001
2641,-2,-1,-2,-2,-1,-3,-2,-2,13.205
2642,0,0,0,0,2,-1,-1,1,13.21
2643,-1,1,0,0,0,-2,1,-3,13.215
2644,0,-2,-1,0,-1,-2,0,0,13.22
2645,-1,-1,0,-1,-2,0,-1,0,13.225
2646,1,-1,-1,0,-1,0,0,-1,13.23
2647,-2,0,1,-1,-1,-1,0,0,13.235
2648,-1,-1,-2,-3,-2,0,-1,-2,13.24
2649,-2,-2,-1,-3,-2,0,-1,-2,13.245000000000001
2650,-1,-1,-1,1,1,-1,-1,0,13.25
2651,0,-1,-1,0,-1,-1,-2,-1,13.255
2652,0,-1,1,-1,-1,-2,0,0,13.26
2653,0,-1,1,1,-1,-1,1,0,13.265
2654,-1,0,0,-2,-1,0,0,-2,13.27
2655,-2,0,-3,0,-2,-1,0,-1,13.275
2656,-1,-2,-2,0,0,-2,-1,0,13.280000000000001
2657,0,-1,-1,0,0,0,-2,-1,13.285
2658,1,-1,0,-2,-3,-2,-1,0,13.290000000000001
2659,0,0,-1,0,1,-2,-1,-2,13.295
2660,0,-1,0,-1,0,0,0,-1,13.3
2661,0,-1,-3,-2,0,0,0,-1,13.305
2662,-2,-2,-3,-1,-1,-1,0,-3,13.31
2663,0,-1,0,-1,-1,-1,-2,-1,13.315
2664,0,0,-1,-1,0,-1,-2,0,13.32
2665,-2,-1,0,1,1,-1,-1,0,13.325000000000001
2666,-1,0,-1,1,-1,-1,-2,0,13.33
2667,-3,0,0,1,0,-1,0,-2,13.335
2668,-1,-1,-1,-2,-2,1,0,-1,13.34
2669,1,0,0,1,-1,2,1,0,13.345
2670,-3,-1,-1,-1,-2,1,1,-2,13.35
2671,-2,0,-2,0,-1,0,-1,-1,13.355
2672,0,0,1,1,0,-1,0,-2,13.36
2673,-1,0,0,0,-1,0,0,0,13.365
2674,0,-2,0,2,0,0,-2,0,13.370000000000001
2675,-1,-2,-3,-2,-2,-2,-1,-1,13.375
2676,0,-1,0,-1,-1,0,0,2,13.38
2677,-1,-1,1,0,-1,-2,0,-1,13.385
2678,-1,-1,-2,-1,0,-1,-2,-1,13.39
2679,-1,-1,-2,-1,-2,-1,-1,-1,13.395
2680,-1,-1,-1,-1,-2,-3,-1,0,13.4
2681,-1,0,1,-1,1,-2,-1,-1,13.405000000000001
2682,1,0,-1,-2,-1,-1,-1,-1,13.41
2683,0,0,-1,-2,-2,-1,-1,0,13.415000000000001
2684,-2,-4,-1,-2,-1,-1,0,-2,13.42
2685,-2,-2,-1,0,-1,-1,0,0,13.425
2686,1,-1,-1,-2,-1,-1,-1,-1,13.43
2687,-2,-2,2,0,0,0,-1,-1,13.435
2688,-1,0,-3,0,0,0,-1,-1,13.44
2689,0,1,0,0,-1,-1,0,-1,13.445
2690,-1,-1,-2,-2,-1,-2,0,-1,13.450000000000001
2691,0,-3,-2,-1,-1,-1,-1,-1,13.455
2692,0,0,1,0,0,0,0,0,13.46
2693,-1,-2,-3,-1,0,-1,-1,0,13.465
2694,-2,-1,-1,-1,-1,-1,0,-2,13.47
2695,0,-2,-2,-3,-3,-3,-1,-1,13.475
2696,0,0,2,0,-2,-3,0,0,13.48
2697,0,0,0,-1,-1,-2,-1,1,13.485
2698,-1,-1,-1,1,-2,-1,-2,0,13.49
2699,-2,-1,-4,-1,-2,0,-2,0,13.495000000000001
2700,2,-2,-1,-1,1,0,-3,-1,13.5
2701,1,-1,-2,-2,-1,0,-1,0,13.505
2702,0,-2,0,0,-1,-1,-1,0,13.51
2703,0,-1,-1,0,-3,-2,1,0,13.515
2704,-2,-1,0,0,-1,-1,0,-1,13.52
2705,0,-1,0,-1,0,1,-1,0,13.525
2706,-2,-1,-2,0,-1,-1,-2,-1,13.530000000000001
2707,0,-1,0,1,0,0,-1,-1,13.535
2708,0,0,-1,-1,-2,0,-1,-2,13.540000000000001
2709,-1,-2,0,0,-2,-2,0,-1,13.545
2710,-1,0,0,-2,-1,-1,-1,-1,13.55
2711,-2,-1,0,-2,-2,0,-1,-1,13.555
2712,-2,0,-3,-1,0,0,0,-1,13.56
2713,0,0,-1,0,0,-1,1,-1,13.565
2714,0,0,-2,0,-1,-2,-2,0,13.57
2715,0,-1,-1,-2,-1,0,0,-1,13.575000000000001
2716,-1,-2,0,0,-2,0,-1,0,13.58
2717,0,-1,1,0,0,2,-1,-1,13.585
2718,-1,-2,-1,-1,-1,0,0,-1,13.59
2719,0,1,0,-1,0,-3,-1,-2,13.595
2720,-1,0,-1,-2,0,-2,-1,1,13.6
2721,0,0,3,3,-1,-2,-1,0,13.605
2722,-1,-1,-1,-2,-2,-2,-1,0,13.61
2723,-1,-1,-1,-1,-2,-1,0,-1,13.615
2724,-1,-1,0,1,-1,-2,-1,-1,13.620000000000001
2725,-1,-3,-3,-1,-2,-1,0,-2,13.625
2726,-1,-2,-2,-1,-2,0,-1,-3,13.63
2727,-1,-1,-1,1,0,-2,0,-2,13.635
2728,1,1,1,-2,0,0,-1,-1,13.64
2729,-1,-1,-1,-3,-1,0,-1,1,13.645
2730,-1,-1,0,-1,-4,-1,-1,-1,13.65
2731,-1,-2,-1,0,-1,0,-1,-1,13.655000000000001
2732,-1,-1,0,0,-2,-2,-1,-3,13.66
2733,0,-1,-2,-2,-1,-1,0,-2,13.665000000000001
2734,-3,-1,-1,1,-1,-1,0,-2,13.67
2735,-2,1,-3,-1,-1,0,-1,-2,13.675
2736,0,0,-1,-3,0,1,-2,-1,13.68
2737,0,-1,2,1,-1,-1,1,-3,13.685
2738,0,-1,-3,-2,-2,-2,-1,1,13.69
2739,-2,-1,1,2,2,-1,-1,-1,13.695
2740,-1,-2,-2,0,0,0,-1,0,13.700000000000001
2741,-1,0,-1,-4,-1,-1,-3,-1,13.705
2742,-2,-1,-1,-2,-1,-1,0,-2,13.71
2743,0,-2,-1,-3,-1,-1,-1,0,13.715
2744,1,0,-1,-1,-1,1,2,0,13.72
2745,-2,0,0,0,-1,-1,0,2,13.725
2746,-1,1,0,0,-2,0,0,-2,13.73
2747,-1,0,-1,-1,-2,0,1,1,13.735
2748,1,-1,0,1,-1,0,1,-1,13.74
2749,1,-1,0,1,0,-1,0,-1,13.745000000000001
2750,-2,-2,-1,-2,0,-2,-2,1,13.75
2751,-2,0,-2,-2,-4,0,-2,0,13.755
2752,-2,-2,-1,-1,0,0,-2,2,13.76
2753,-2,0,-2,-2,-1,1,0,-1,13.765
2754,1,1,-3,-1,2,0,0,-1,13.77
2755,-1,0,3,-1,-1,-2,-2,-1,13.775
2756,-1,-1,-1,0,-3,-2,0,-2,13.780000000000001
2757,-1,-2,-1,-1,-1,-1,0,0,13.785
2758,0,-1,-3,-2,-1,-1,0,0,13.790000000000001
2759,-1,-1,-1,-1,-1,1,-2,0,13.795
2760,-1,-1,0,2,0,-2,0,-1,13.8
2761,-2,0,-1,-2,0,-2,-3,-2,13.805
2762,-1,-2,0,1,0,-2,-1,-2,13.81
2763,-2,-1,-2,-2,-2,-2,0,-2,13.815
2764,1,0,0,-2,-2,0,-1,0,13.82
2765,0,0,0,1,0,0,-1,-1,13.825000000000001
2766,-1,-1,-1,-1,-4,-1,-1,-2,13.83
2767,-1,-2,-2,-2,0,-2,-1,-1,13.835
2768,-2,1,-3,0,-1,0,0,-1,13.84
2769,-1,-2,-2,-3,-2,-1,-1,0,13.845
2770,0,-1,1,-1,-2,-1,0,-1,13.85
2771,0,0,-1,1,0,-1,-2,0,13.855
2772,-2,-1,-1,1,0,-1,1,-1,13.86
2773,-1,-1,-1,-1,-2,-1,1,-1,13.865
2774,-2,0,-3,-1,0,-1,-2,-1,13.870000000000001
2775,-2,-1,1,0,0,0,0,-2,13.875
2776,-2,0,1,-1,-1,-1,-2,0,13.88
2777,-1,-1,-2,-1,-2,0,0,-1,13.885
2778,1,-1,-1,-2,-1,-1,-1,0,13.89
2779,1,1,0,-1,0,-1,-1,-1,13.895
2780,1,-1,-2,-1,-2,-3,0,-1,13.9
2781,-1,-2,0,0,1,-1,-2,-1,13.905000000000001
2782,-1,-1,-2,-2,-1,-3,0,-2,13.91
2783,0,-2,-1,0,-1,-1,1,-1,13.915000000000001
2784,-2,0,1,-1,-1,-1,0,-1,13.92
2785,2,0,-1,1,-1,-3,0,-1,13.925
2786,-2,-2,-2,0,-2,0,0,-2,13.93
2787,-2,-1,-1,-2,0,0,-2,-1,13.935
2788,0,1,0,0,0,0,-1,0,13.94
2789,-1,-1,-2,-2,0,1,1,-1,13.945
2790,0,-1,-1,-3,-1,0,0,0,13.950000000000001
2791,0,-1,-2,-1,-2,-3,1,-1,13.955
2792,0,-2,-1,0,0,1,0,-1,13.96
2793,1,0,2,-2,-1,1,0,0,13.965
2794,-2,-1,1,2,0,0,-2,-2,13.97
2795,1,-2,-2,-2,0,-1,-2,0,13.975
2796,-2,-2,1,1,1,-1,-1,-2,13.98
2797,0,0,-1,1,-2,-1,-1,0,13.985
2798,0,-1,-1,-1,0,-1,-1,-2,13.99
2799,-1,-2,2,2,-1,-2,-1,-1,13.995000000000001
2800,-1,-1,-3,-4,-2,-4,-1,-2,14.0
2801,-1,-3,-3,-3,-4,-1,0,-3,14.005
2802,-2,-2,-1,-1,-1,-2,-2,0,14.01
2803,0,-1,-2,-1,-1,-1,0,0,14.015
2804,0,1,-2,-2,1,-1,-1,0,14.02
2805,-1,0,0,0,-1,0,-1,0,14.025
2806,-1,-1,1,0,0,-1,-1,-1,14.030000000000001
2807,-2,0,1,0,-1,1,0,-1,14.035
2808,1,-1,1,2,-1,0,0,0,14.040000000000001
2809,-2,0,-1,0,1,0,-1,0,14.045
2810,-1,0,0,-1,-2,-2,-1,-2,14.05
2811,-2,-1,-1,-1,-2,-1,0,0,14.055
2812,-1,0,-1,-2,-2,-1,-2,-2,14.06
2813,-2,1,-1,1,-1,0,-1,-1,14.065
2814,-2,0,-2,-4,-4,0,-2,0,14.07
2815,-2,-1,-2,-1,-1,-1,-1,-1,14.075000000000001
2816,1,-2,1,2,0,1,-1,0,14.08
2817,-1,-2,0,0,-1,-2,-2,-2,14.085
2818,-1,-1,-1,-1,-2,-1,-2,-2,14.09
2819,-2,1,-1,-1,-1,0,1,-1,14.095
2820,-2,0,-1,2,1,0,0,0,14.1
2821,1,-2,-3,-2,0,0,-2,1,14.105
2822,-1,0,0,-1,-1,0,-1,-1,14.11
2823,1,-2,-3,-1,-1,-1,-2,-1,14.115
2824,0,1,0,0,0,-1,-1,0,14.120000000000001
2825,-2,-1,-2,-2,-2,0,0,-1,14.125
2826,-1,1,-2,-5,0,0,-2,0,14.13
2827,0,-2,0,0,1,0,-1,1,14.135
2828,0,0,-1,-1,0,0,-1,-1,14.14
2829,-1,0,1,1,-1,1,0,0,14.145
2830,0,-1,2,3,-1,-1,-1,0,14.15
2831,-1,0,-1,-1,-1,-1,0,-1,14.155000000000001
2832,-2,-3,-1,1,0,-1,0,-1,14.16
2833,-3,-1,-2,-2,-2,-2,-2,-1,14.165000000000001
2834,-1,-1,-1,-1,0,-1,-1,-1,14.17
2835,0,-1,-2,-4,-5,-1,-4,-2,14.175
2836,0,-2,-1,0,0,-1,1,-1,14.18
2837,-1,0,0,-3,-1,0,0,-1,14.185
2838,-1,1,-1,-1,-3,-2,-1,-1,14.19
2839,1,-1,0,0,2,-1,1,-1,14.195
2840,-2,0,-1,-2,-2,1,-1,-1,14.200000000000001
2841,-1,-2,1,0,-1,-2,-1,-1,14.205
2842,-1,-3,-2,0,-1,0,-2,1,14.21
2843,-1,-1,1,0,-1,-1,-2,0,14.215
2844,-2,-3,0,-1,-2,-1,0,0,14.22
2845,0,-1,1,0,-1,-1,0,-1,14.225
2846,-2,-2,-2,-1,-1,-1,0,-2,14.23
2847,-2,-1,-4,-6,-5,-1,-2,-1,14.235
2848,-1,1,2,4,7,3,1,1,14.24
2849,-1,0,-1,-3,-3,-2,-3,-2,14.245000000000001
2850,-3,-2,-3,-3,-2,-4,-2,-2,14.25
2851,-2,-2,-3,4,-12,-1,0,-1,14.255
2852,1,0,4,11,9,1,-1,0,14.26
2853,0,-1,-2,-5,1,-3,-1,-1,14.265
2854,0,0,0,3,-2,0,1,-1,14.27
2855,-2,0,-1,-8,4,0,0,-1,14.275
2856,-1,-1,-2,-5,-5,-1,-2,-1,14.280000000000001
2857,-1,-1,-2,-5,-5,-3,0,-1,14.285
2858,0,-4,-1,1,10,1,-3,0,14.290000000000001
2859,0,0,0,3,1,0,-1,0,14.295
2860,0,1,-1,-2,-2,0,0,-1,14.3
2861,-1,0,1,0,2,0,-1,-1,14.305
2862,-2,0,-3,-4,-7,-2,-3,-1,14.31
2863,-1,-1,2,5,5,1,0,1,14.315
2864,1,-2,-3,1,-3,-2,-1,-1,14.32
2865,-1,-2,-2,-4,-5,-2,-2,-1,14.325000000000001
2866,0,0,0,-1,-1,0,1,-2,14.33
2867,-2,-1,0,4,2,0,-1,-2,14.335
2868,0,0,-1,-7,-4,-3,-2,0,14.34
2869,0,-1,-4,3,1,1,-1,0,14.345
2870,-1,0,1,1,-4,-1,0,-2,14.35
2871,0,1,-1,-2,1,1,-1,0,14.355
2872,-1,-1,-2,-2,-2,0,1,-1,14.36
2873,0,0,1,3,0,1,-2,-1,14.365
2874,0,-1,-4,-1,-1,-1,1,0,14.370000000000001
2875,-2,0,-2,-2,-1,-2,0,-1,14.375
2876,-2,-1,-2,-1,0,-1,0,1,14.38
2877,-2,-2,2,3,1,0,0,0,14.385
2878,1,0,-1,-1,-2,-1,-2,-1,14.39
2879,0,-1,-1,0,0,1,-2,0,14.395
2880,-2,0,-2,-3,-1,-1,0,-2,14.4
2881,1,-2,-3,-2,-1,0,-1,-1,14.405000000000001
2882,-1,-3,0,-2,-1,1,-1,-1,14.41
2883,1,-2,-1,1,1,-1,0,-1,14.415000000000001
2884,1,0,-1,-1,-1,0,-1,-1,14.42
2885,-2,-1,-3,-1,-1,-1,0,0,14.425
2886,-1,1,-2,-5,-8,-4,-2,-1,14.43
2887,0,0,1,5,6,1,-2,0,14.435
2888,-1,-2,-1,-3,-3,-1,-2,-1,14.44
2889,-1,0,0,2,1,-1,-1,-1,14.445
2890,-1,-1,-3,-1,-2,0,-1,0,14.450000000000001
2891,-1,-1,-1,-6,-3,-4,-1,-1,14.455
2892,0,0,0,0,-1,1,-1,-1,14.46
2893,-2,-2,-1,-1,-2,-1,-1,-1,14.465
2894,-2,0,-2,-4,0,-2,-1,-1,14.47
2895,0,1,1,-1,-1,0,0,-1,14.475
2896,0,-1,2,1,1,0,0,0,14.48
2897,-1,-1,1,0,0,-2,-2,-2,14.485
2898,-2,-2,-2,-1,0,1,-2,0,14.49
2899,-1,1,-1,1,0,0,-1,-1,14.495000000000001
2900,0,-1,-1,-2,-3,-3,0,0,14.5
2901,-1,0,-2,-3,-2,-1,-2,-1,14.505
2902,-1,-1,0,1,2,-4,-2,-2,14.51
2903,-2,0,0,-2,-2,-1,0,-1,14.515
2904,-1,0,-1,-2,-1,-2,-2,1,14.52
2905,-2,-1,-2,0,0,0,1,0,14.525
2906,0,0,0,1,-1,-1,-1,-1,14.530000000000001
2907,-1,-2,0,-1,0,0,0,-1,14.535
2908,-3,-1,-2,0,-3,1,-1,-1,14.540000000000001
2909,-1,-1,0,0,0,-2,0,-1,14.545
2910,0,-1,-1,2,0,-1,0,-2,14.55
2911,0,-1,-1,0,-3,-1,1,0,14.555
2912,0,0,-1,-1,-1,1,0,-1,14.56
2913,-2,0,-1,0,-1,-1,-1,0,14.565
2914,-2,-1,-1,-2,0,1,-2,0,14.57
2915,0,-1,-2,-3,-1,-1,-1,0,14.575000000000001
2916,0,-1,0,-3,0,-1,0,0,14.58
2917,0,-1,-2,-1,-2,-1,-3,1,14.585
2918,-1,0,0,-1,0,-2,1,-1,14.59
2919,-2,0,0,0,1,1,-1,-2,14.595
2920,-2,-2,-1,1,0,-1,0,-2,14.6
2921,-1,-2,-2,-2,0,-1,0,-2,14.605
2922,-2,1,-1,-1,-2,-1,-1,-1,14.61
2923,-1,-2,0,-1,-1,0,-1,0,14.615
2924,-1,-1,-2,2,-2,-3,-2,0,14.620000000000001
2925,-1,-1,-2,0,-1,0,-1,-2,14.625
2926,-2,-2,1,0,1,1,-2,-2,14.63
2927,0,-1,0,1,-1,-1,-1,1,14.635
2928,0,0,-3,-3,-2,-3,0,-1,14.64
2929,-2,-2,-3,-1,-1,-2,0,0,14.645
2930,-2,0,0,0,2,0,1,0,14.65
2931,0,0,-2,-4,-3,-2,0,-1,14.655000000000001
2932,-1,-1,0,-2,-1,0,-1,-1,14.66
2933,-1,0,0,-1,-2,-1,-1,-3,14.665000000000001
2934,2,-1,-1,-1,1,0,0,-1,14.67
2935,-1,-1,0,0,0,0,-1,0,14.675
2936,-1,0,-1,-1,0,-1,0,-1,14.68
2937,-2,-2,3,0,0,0,-2,-2,14.685
2938,1,-1,-1,-1,-3,-2,-3,2,14.69
2939,-3,-1,0,2,1,-3,1,-2,14.695
2940,0,-1,1,1,0,1,-1,-1,14.700000000000001
2941,0,-2,-2,-4,-2,-3,-1,-1,14.705
2942,-1,-2,-1,1,-1,0,0,0,14.71
2943,1,-1,-1,-1,-1,1,-2,-2,14.715
2944,-2,0,0,-2,-1,0,-1,-1,14.72
2945,-1,1,0,-1,-1,-2,-2,-1,14.725
2946,-1,0,0,-2,-1,-1,0,-2,14.73
2947,0,0,-1,-1,-1,1,0,0,14.735
2948,-1,0,-1,1,-1,0,-2,-2,14.74
2949,0,0,-2,0,-1,-3,-4,0,14.745000000000001
2950,0,-1,0,-2,-2,-2,-1,-1,14.75
2951,0,-1,-1,0,-2,1,-2,-2,14.755
2952,0,0,-1,-1,-2,-1,1,0,14.76
2953,-2,-1,0,0,-1,-2,2,-1,14.765
2954,-1,-1,0,-1,-2,-1,0,0,14.77
2955,0,-1,-2,-1,-1,-2,0,-1,14.775
2956,-2,-1,-1,-2,-1,0,-1,1,14.780000000000001
2957,0,-1,-2,-2,-1,1,-1,0,14.785
2958,0,-3,-1,0,1,-1,-1,-1,14.790000000000001
2959,-1,0,-1,-3,1,-1,0,1,14.795
2960,-1,-2,1,-1,-1,-2,-1,-1,14.8
2961,-2,-1,-1,1,-2,0,0,-1,14.805
2962,-2,0,-2,-1,0,-1,0,-2,14.81
2963,0,0,0,-6,-6,-3,0,-1,14.815
2964,0,0,1,10,10,1,0,0,14.82
2965,-1,-1,-3,-1,0,-1,-1,0,14.825000000000001
2966,-1,-1,-4,-5,-1,-1,0,-2,14.83
2967,0,-1,2,3,-1,-1,-2,0,14.835
2968,0,-2,-2,-5,-3,0,0,-2,14.84
2969,0,0,-1,-1,-1,-1,-2,0,14.845
2970,-3,0,1,2,-1,-1,-2,-1,14.85
2971,0,-1,-2,-4,-2,-3,-1,-2,14.855
2972,-1,0,-1,-1,0,-1,0,-1,14.86
2973,-2,-1,0,-1,-1,-2,0,-1,14.865
2974,-1,-1,0,-1,-1,0,-1,0,14.870000000000001
2975,-1,0,-1,0,0,0,1,0,14.875
2976,1,-1,-1,-3,-1,-1,-1,-1,14.88
2977,-1,-2,-1,0,-1,0,-1,-1,14.885
2978,1,1,-1,-2,-3,0,-2,-1,14.89
2979,0,0,0,2,2,2,-1,-2,14.895
2980,-1,-1,-2,-2,-2,-1,1,1,14.9
2981,-1,-2,-3,-3,-3,0,-2,-1,14.905000000000001
2982,0,-2,4,1,-3,-1,-1,0,14.91
2983,-1,0,-2,2,1,0,-2,0,14.915000000000001
2984,0,-1,0,-1,0,-1,0,0,14.92
2985,-1,-1,-3,-3,-1,0,-2,0,14.925
2986,-1,-1,-1,-2,-1,-1,-1,-1,14.93
2987,0,-1,-2,-1,1,0,1,-2,14.935
2988,-1,0,-1,0,-2,0,-1,0,14.94
2989,0,0,0,0,-2,-1,-1,0,14.945
2990,-2,0,-3,0,0,0,0,-1,14.950000000000001
2991,0,0,0,0,0,1,-2,0,14.955
2992,-1,-1,-1,-3,-1,1,0,-1,14.96
2993,-2,0,0,-2,0,-2,-1,0,14.965
2994,0,-1,-3,-2,-1,-2,1,0,14.97
2995,-1,-1,-2,-2,-2,-1,0,-2,14.975
2996,0,-1,-3,1,-3,-2,-3,-2,14.98
2997,-1,0,4,4,3,0,-1,-1,14.985
2998,-1,0,0,-1,-1,0,0,-2,14.99
2999,0,-3,0,3,1,0,-1,-1,14.995000000000001
3000,-1,-2,-2,-5,-4,-3,-2,0,15.0
3001,-1,1,-2,-1,-2,-2,1,-1,15.005
3002,-1,0,-1,2,1,-1,-1,1,15.01
3003,1,0,-1,-1,-3,-2,1,1,15.015
3004,0,0,1,0,0,-1,-1,0,15.02
3005,-3,0,-2,-3,-3,-1,0,-1,15.025
3006,-1,0,1,0,2,1,0,0,15.030000000000001
3007,-2,1,-2,-3,-2,-3,0,0,15.035
3008,-1,-1,-1,0,-1,-1,0,-2,15.040000000000001
3009,-1,0,-1,1,1,-2,-1,0,15.045
3010,-1,-1,0,-1,-2,0,0,0,15.05
3011,-2,-1,2,0,0,1,-2,0,15.055
3012,-2,0,-1,-2,-1,-2,-2,0,15.06
3013,-1,-1,-2,-3,-1,-2,-3,-2,15.065
3014,0,-1,-2,0,0,-1,-1,0,15.07
3015,-1,0,0,2,0,0,0,0,15.075000000000001
3016,-1,0,0,-2,-1,0,-1,0,15.08
3017,-1,-1,-1,-1,-1,-2,1,-2,15.085
3018,-1,-1,-2,-2,-2,-2,0,1,15.09
3019,0,-1,-1,-1,0,-1,-1,0,15.095
3020,0,0,0,0,-1,1,-1,-1,15.1
3021,0,1,0,-2,1,1,-1,-2,15.105
3022,1,0,0,2,-1,0,0,-2,15.11
3023,1,0,-1,1,1,1,0,-1,15.115
3024,-1,-1,0,-2,-2,-1,-2,0,15.120000000000001
3025,0,0,-2,1,-2,-2,-1,0,15.125
3026,-1,-2,0,-2,1,-2,0,-3,15.13
3027,-1,-1,-2,-1,-1,0,-1,-1,15.135
3028,-1,-2,-1,1,-1,0,-1,-2,15.14
3029,-1,-2,-2,-1,0,-1,-1,0,15.145
3030,1,-2,-1,-1,-1,-2,0,-1,15.15
3031,-2,-1,-2,0,-5,-2,0,0,15.155000000000001
3032,-2,-2,-1,2,3,0,-1,-2,15.16
3033,-2,-2,-1,-1,-3,-1,-1,-3,15.165000000000001
3034,-1,-1,1,1,-1,0,0,-1,15.17
3035,0,-1,-1,-3,-4,-1,0,-1,15.175
3036,1,-1,1,0,0,-3,0,-1,15.18
3037,-1,-2,-1,0,-2,-2,0,-1,15.185
3038,-3,-1,-2,-3,-1,0,0,0,15.19
3039,0,0,2,2,1,-1,-1,-1,15.195
3040,0,0,-2,-1,-2,-1,-1,-1,15.200000000000001
3041,0,-1,0,-1,-2,-2,-2,-1,15.205
3042,0,0,-3,-2,-1,-1,-2,-2,15.21
3043,0,0,0,-1,0,1,-1,-1,15.215
3044,0,0,1,0,-1,1,-1,-1,15.22
3045,-1,0,-2,-1,-1,0,-1,0,15.225
3046,0,0,-1,-1,-1,0,-1,0,15.23
3047,-1,-1,-2,1,1,0,0,0,15.235
3048,-2,-1,0,-1,-2,-2,-2,0,15.24
3049,0,-1,-3,-1,-1,-1,-1,0,15.245000000000001
3050,3,-2,0,0,0,0,-2,0,15.25
3051,1,-1,-1,-2,1,0,2,-2,15.255
3052,-1,0,-1,-2,-4,-2,-1,0,15.26
3053,0,-1,1,1,-1,0,-1,-1,15.265
3054,0,-2,-1,0,0,-1,0,-1,15.27
3055,-1,-1,2,0,0,-2,-2,-1,15.275
3056,0,-1,-3,-8,-7,-3,-2,-3,15.280000000000001
3057,-2,-1,0,5,8,2,1,1,15.285
3058,1,-2,1,-1,-1,-1,1,0,15.290000000000001
3059,-1,0,-4,-8,-3,0,0,1,15.295
3060,-1,1,3,7,10,1,0,-2,15.3
3061,-3,-3,-4,-15,-17,-7,-3,-4,15.305
3062,0,-2,0,6,-11,-1,1,-1,15.31
3063,9,-1,-1,8,6,-1,1,8,15.315
3064,13,2,1,13,10,4,1,0,15.32
3065,-45,-5,-3,-7,-1,-1,-3,-14,15.325000000000001
3066,-2,2,-3,-22,-14,-3,-1,-4,15.33
3067,-6,0,0,3,6,-1,-2,-6,15.335
3068,8,-2,-4,-14,-4,-3,-1,3,15.34
3069,11,0,-3,-31,-12,0,-2,4,15.345
3070,-2,0,6,36,15,3,1,-1,15.35
3071,1,-1,3,8,3,4,5,2,15.355
3072,-7,-2,-4,-10,-10,-4,4,1,15.36
3073,7,1,0,8,16,0,-9,-3,15.365
3074,-3,-1,-4,-20,-5,-5,-8,-3,15.370000000000001
3075,4,2,2,7,4,1,-2,0,15.375
3076,-4,-1,-3,-1,2,1,0,-1,15.38
3077,2,-2,0,3,-10,-1,4,2,15.385
3078,3,-1,2,0,4,2,3,1,15.39
3079,-3,-1,-2,-3,-7,-3,-3,-2,15.395
3080,-8,-3,-6,-14,-9,-1,-2,-4,15.4
3081,3,-4,-2,9,1,-1,-1,1,15.405000000000001
3082,0,5,-5,-17,-17,-8,-6,-1,15.41
3083,-4,-5,-2,25,19,9,4,-2,15.415000000000001
3084,-4,6,11,-5,-1,-5,1,-5,15.42
3085,11,-2,-5,2,-5,-5,3,6,15.425
3086,11,-3,-4,1,3,0,-7,6,15.43
3087,-7,-3,-7,-12,9,-2,-11,-6,15.435
3088,7,5,1,-4,-26,-6,-8,-8,15.44
3089,-16,-16,-19,31,-17,1,2,-5,15.445
3090,-9,1,-7,-66,-29,-9,6,-3,15.450000000000001
3091,14,8,-21,-1,-14,2,6,8,15.455
3092,7,12,46,20,26,-5,-6,-6,15.46
3093,3,-7,7,4,-11,4,5,-9,15.465
3094,-14,-4,-3,29,-10,-7,-10,22,15.47
3095,-4,-10,6,-53,-13,-7,-11,-17,15.475
3096,0,-5,-28,35,30,5,7,10,15.48
3097,-5,9,-2,-38,-42,-12,-8,-5,15.485000000000001
3098,-2,0,27,108,106,44,18,-24,15.49
3099,25,14,31,15,7,5,12,52,15.495000000000001
3100,-29,-9,-28,-54,-42,-8,4,-23,15.5
3101,3,-18,-3,40,38,9,6,25,15.505
3102,7,12,-23,-103,-50,-27,-20,-18,15.51
3103,12,9,3,52,35,8,-24,-6,15.515
3104,34,16,23,71,67,27,37,34,15.52
3105,-41,-22,-23,-86,-46,-13,-9,-29,15.525
3106,-1,7,40,121,43,11,-7,-41,15.530000000000001
3107,-9,-21,-12,-97,-11,-3,11,0,15.535
3108,13,1,-49,-98,-44,-14,8,60,15.540000000000001
3109,47,44,109,115,127,48,26,43,15.545
3110,-33,-43,-65,-89,-43,-22,-10,46,15.55
3111,-12,26,107,-14,-56,-15,-3,-12,15.555
3112,11,-29,-39,-27,69,9,-16,-42,15.56
3113,-18,-16,-39,3,-1,5,10,-16,15.565
3114,10,14,89,57,-7,-2,17,-19,15.57
3115,-32,-21,-128,-85,-28,-7,-23,-42,15.575000000000001
3116,-42,8,20,105,-57,-11,26,-6,15.58
3117,15,37,75,94,26,-22,-44,53,15.585
3118,17,32,-44,-120,-99,-20,-13,11,15.59
3119,12,77,76,127,118,45,37,9,15.595
3120,35,56,11,-69,-19,-15,-26,-13,15.6
3121,-4,7,-49,-9,-37,-10,11,-24,15.605
3122,-18,-21,58,53,127,43,5,11,15.610000000000001
3123,0,-45,19,-105,-50,-19,9,-7,15.615
3124,-41,-98,-100,97,12,1,-18,-28,15.620000000000001
3125,11,-26,-27,-26,-22,-4,14,0,15.625
3126,22,-29,57,-54,14,-1,-30,14,15.63
3127,12,-17,-17,83,-20,-11,-2,25,15.635
3128,-25,-34,-36,-128,-4,-2,22,2,15.64
3129,10,31,47,-55,-26,-17,-6,44,15.645
3130,21,-11,-40,127,75,28,28,30,15.65
3131,-51,-24,-17,-82,-67,-33,-52,-85,15.655000000000001
3132,-1,18,35,26,-48,-6,9,16,15.66
3133,34,-8,53,38,19,-7,7,-15,15.665000000000001
3134,3,20,-35,-57,-67,-9,-4,6,15.67
3135,29,4,-16,-94,-96,-35,1,16,15.675
3136,-36,-8,11,102,41,13,-22,-20,15.68
3137,-28,-11,-33,-113,4,18,26,-55,15.685
3138,18,25,-31,45,-46,-4,-7,45,15.69
3139,-28,4,90,-49,20,-21,-53,-94,15.695
3140,-27,-7,-41,44,-62,-22,-8,34,15.700000000000001
3141,73,-14,-112,47,77,23,23,95,15.705
3142,-36,-21,7,-91,-119,-29,28,-44,15.71
3143,-15,6,-16,105,30,35,28,-47,15.715
3144,16,-2,26,-106,-24,-20,-23,38,15.72
3145,-7,19,67,-64,1,-6,-8,-24,15.725
3146,-34,4,-34,-16,79,24,0,-30,15.73
3147,9,3,-13,78,0,10,26,-21,15.735000000000001
3148,45,0,70,83,36,14,-42,39,15.74
3149,11,-1,-45,1,36,26,19,42,15.745000000000001
3150,24,23,-7,-91,-17,-12,8,-8,15.75
3151,-36,6,76,114,-18,10,10,-4,15.755
3152,18,5,2,-63,32,7,15,-1,15.76
3153,-20,3,-23,-85,-62,-30,-45,-17,15.765
3154,-25,-9,-37,108,49,26,36,-31,15.77
3155,41,24,85,77,89,35,9,62,15.775
3156,-5,-5,-99,-93,-94,-52,-34,-74,15.780000000000001
3157,-48,-21,122,127,40,66,74,-12,15.785
3158,22,-8,-52,-128,-76,-30,-67,3,15.790000000000001
3159,43,12,-128,10,-38,-8,50,42,15.795
3160,40,33,55,-35,44,7,-27,-38,15.8
3161,-30,-21,18,40,6,8,-28,58,15.805
3162,-22,-24,-8,-30,15,-8,-3,44,15.81
3163,9,-31,-76,48,-36,11,-11,28,15.815
3164,-28,1,109,103,67,29,-2,-76,15.82
3165,40,53,-1,-116,-128,-61,-22,-92,15.825000000000001
3166,-43,-32,-4,-27,44,-13,6,12,15.83
3167,-30,-16,49,36,29,26,2,-2,15.835
3168,-19,-11,-81,-108,-104,-6,58,-17,15.84
3169,-9,12,50,95,-46,-48,-35,1,15.845
3170,54,18,-64,6,43,-6,-14,27,15.85
3171,-21,-30,18,-44,-25,-21,-4,-28,15.855
3172,-21,0,56,-10,-61,11,-3,13,15.860000000000001
3173,43,31,-24,-25,80,13,-6,40,15.865
3174,23,10,-18,58,-32,-5,12,-36,15.870000000000001
3175,-43,-19,-125,-85,-2,-26,-22,3,15.875
3176,-23,-85,59,47,28,21,30,14,15.88
3177,-11,11,-11,-111,-80,-17,-15,22,15.885
3178,-4,30,127,38,20,-11,-45,-42,15.89
3179,-7,23,-97,-128,38,12,2,20,15.895
3180,96,41,2,-54,49,0,30,30,15.9
3181,-5,20,-37,97,1,24,7,-4,15.905000000000001
3182,-44,-11,-8,-19,-50,4,5,-82,15.91
3183,-33,-44,115,52,-27,-15,12,23,15.915000000000001
3184,4,-9,-89,-98,-53,-15,-31,4,15.92
3185,-22,-8,-24,-42,119,11,20,-113,15.925
3186,8,-19,28,88,-12,-2,-6,105,15.93
3187,65,4,-64,-13,29,7,30,90,15.935
3188,9,14,89,18,-20,-22,-2,92,15.94
3189,-8,-21,-63,-106,-67,-19,19,-75,15.945
3190,-45,6,-11,20,-55,-17,-16,-35,15.950000000000001
3191,64,9,36,-7,39,13,-16,7,15.955
3192,-39,-41,-73,-7,8,7,-20,-12,15.96
3193,-26,-18,-57,-118,-101,-39,-54,-38,15.965
3194,14,20,101,76,116,72,57,-45,15.97
3195,-29,-11,-79,-99,-88,-35,-13,3,15.975
3196,-14,26,17,101,7,-4,8,-49,15.98
3197,17,16,26,-29,28,26,23,85,15.985000000000001
3198,-10,-22,41,36,3,-4,11,-42,15.99
3199,13,8,-47,44,-30,-6,4,-44,15.995000000000001
3200,35,17,-83,-98,-30,-46,-89,33,16.0
3201,17,-23,-1,89,34,26,53,73,16.005
3202,14,28,54,-48,-2,3,8,42,16.01
3203,-30,-16,24,-107,19,1,-23,-73,16.015
3204,-50,20,12,-40,-74,-8,50,-47,16.02
3205,24,-3,-15,127,118,33,-27,44,16.025
3206,58,33,-40,-128,-76,-24,-34,45,16.03
3207,-16,2,95,95,82,7,-12,-33,16.035
3208,-35,10,42,127,-26,13,25,-52,16.04
3209,-10,9,1,-96,-11,-9,-13,14,16.045
3210,-4,-27,3,-61,-96,-30,-1,-7,16.05
3211,-16,5,-94,-128,-60,-24,-31,-88,16.055
3212,0,22,44,121,98,40,44,33,16.06
3213,63,-1,-8,45,26,22,25,57,16.065
3214,-34,-43,-80,-80,-17,-29,-27,-110,16.07
3215,14,11,9,92,29,14,33,96,16.075
3216,-16,-30,1,-90,58,29,37,90,16.080000000000002
3217,27,15,10,-62,-92,-31,-69,-93,16.085
3218,17,15,44,50,58,11,24,75,16.09
3219,-14,19,-34,-128,-81,-48,-79,-86,16.095
3220,5,56,35,103,127,70,38,-58,16.1
3221,-25,-26,58,77,72,20,1,-22,16.105
3222,-6,-15,-71,-66,-23,-6,0,-25,16.11
3223,-16,-15,28,17,-3,14,28,15,16.115000000000002
3224,-9,-1,12,-53,-49,-21,-29,-10,16.12
3225,18,-12,16,18,-63,2,22,-6,16.125
3226,-3,-36,-78,10,51,6,-11,-16,16.13
3227,-18,-21,26,-27,22,27,67,12,16.135
3228,3,-9,-101,59,-1,-19,0,-80,16.14
3229,6,17,78,68,62,15,-13,54,16.145
3230,71,5,-29,77,-14,-1,-55,99,16.15
3231,28,-2,-44,75,-58,-31,-4,-28,16.155
3232,-3,-10,-94,-124,-16,-9,-32,-55,16.16
3233,-85,-39,-1,37,17,-7,13,-99,16.165
3234,14,22,-28,-6,-83,-10,56,28,16.17
3235,8,16,18,-91,41,-6,-42,55,16.175
3236,12,41,127,110,103,50,17,-12,16.18
3237,-17,-12,-77,-128,-56,-21,-6,-33,16.185
3238,-15,-1,21,18,22,28,22,-9,16.19
3239,-28,-17,-48,-55,-16,1,8,-40,16.195
3240,16,-29,-68,-89,-71,-50,-30,51,16.2
3241,43,19,91,34,55,26,9,19,16.205000000000002
3242,-14,-1,-48,-24,26,22,-20,-60,16.21
3243,14,4,21,11,-13,-9,-1,28,16.215
3244,-5,8,40,51,-2,-1,17,23,16.22
3245,6,10,-93,-88,-28,-28,-36,21,16.225
3246,-2,7,19,103,-2,-13,-3,-19,16.23
3247,20,11,49,-32,-12,-5,27,71,16.235
3248,-23,-29,48,27,-22,10,52,-36,16.240000000000002
3249,7,38,117,-84,-48,-6,-49,9,16.245
3250,-30,-3,-43,-25,49,10,0,-39,16.25
3251,1,20,-4,-57,10,-8,-34,-30,16.255
3252,-3,4,-59,-7,68,28,1,31,16.26
3253,-40,-33,-21,-63,-51,-54,-22,-97,16.265
3254,-10,3,33,49,-62,-4,23,-84,16.27
3255,8,-2,73,127,15,8,20,77,16.275
3256,50,14,39,0,-27,-9,-11,75,16.28
3257,3,-1,-67,-50,-32,-25,22,52,16.285
3258,49,1,-9,-86,18,0,-37,103,16.29
3259,9,11,-20,-4,9,14,16,-8,16.295
3260,-37,-30,56,47,-8,-7,-36,-59,16.3
3261,-25,13,9,47,-21,8,19,-58,16.305
3262,-29,16,34,-98,-20,-30,4,-14,16.31
3263,8,17,-21,124,96,41,17,-27,16.315
3264,13,15,73,-28,-29,-10,-31,-2,16.32
3265,-7,-7,-95,-60,28,-7,21,3,16.325
3266,10,0,1,72,-13,16,11,-1,16.330000000000002
3267,-36,-34,10,-78,-28,-14,-28,-28,16.335
3268,15,5,-29,-34,-46,-8,-33,-20,16.34
3269,16,-14,-28,55,24,1,13,42,16.345
3270,1,7,62,15,-2,-11,1,0,16.35
3271,15,-28,-28,-4,10,2,-3,7,16.355
3272,-24,-36,-20,-3,-10,3,14,21,16.36
3273,-9,-17,-38,-39,-28,-2,-16,-36,16.365000000000002
3274,-20,16,10,18,37,6,4,10,16.37
3275,-10,10,15,-10,-44,-13,-3,7,16.375
3276,20,26,-49,-73,21,3,8,-18,16.38
3277,-10,3,-14,33,18,12,-1,-5,16.385
3278,0,25,-11,-13,19,2,0,-5,16.39
3279,2,31,-1,-8,-15,8,8,-6,16.395
3280,2,0,-6,19,-13,-17,-13,5,16.4
3281,1,9,-4,6,17,11,2,0,16.405
3282,-10,-13,43,58,-4,2,8,1,16.41
3283,8,-16,9,-11,0,2,-3,-3,16.415
3284,-1,-25,-29,-33,1,-11,-10,0,16.42
3285,-11,-40,-9,2,-20,-1,-2,-8,16.425
3286,-2,-32,-26,-22,-2,-1,11,2,16.43
3287,5,-20,16,0,0,-3,-1,7,16.435
3288,1,-16,-6,-19,1,-3,-14,-7,16.44
3289,-9,-11,18,23,7,-14,-25,-3,16.445
3290,-6,-16,-15,-19,-7,-9,-6,-1,16.45
3291,57,6,10,20,18,19,35,13,16.455000000000002
3292,-6,9,-12,-10,-6,0,-5,-4,16.46
3293,-2,11,21,-10,-6,19,34,8,16.465
3294,0,22,-32,-11,5,-6,-5,-1,16.47
3295,-22,30,-14,-32,-13,-13,-19,-11,16.475
3296,24,33,45,23,7,-3,2,1,16.48
3297,0,12,8,11,-8,-7,-14,-6,16.485
3298,-6,0,1,2,8,5,-2,1,16.490000000000002
3299,12,10,26,24,12,4,-2,-1,16.495
3300,-5,2,-66,-62,-24,-11,-7,-1,16.5
3301,-6,-3,-9,-6,0,4,-4,-5,16.505
3302,0,-22,9,0,2,6,12,2,16.51
3303,-9,-44,17,13,1,-1,-7,-4,16.515
3304,-6,-57,0,-8,1,-2,-5,0,16.52
3305,-7,-67,27,28,0,2,4,-2,16.525
3306,8,-70,-8,-15,-2,3,7,1,16.53
3307,-8,-55,-10,12,-1,-2,-9,-4,16.535
3308,-9,-43,5,-4,1,1,1,-1,16.54
3309,8,-16,-23,-10,0,3,9,0,16.545
3310,1,7,1,4,4,3,2,1,16.55
3311,-7,28,19,-8,-8,-5,-7,-3,16.555
3312,-3,44,-6,-10,-3,-2,3,1,16.56
3313,-2,57,3,0,-2,-1,0,-2,16.565
3314,-2,48,-3,-5,0,-3,-3,0,16.57
3315,-8,40,-6,6,0,-3,-3,-5,16.575
3316,4,30,-5,-7,1,-1,2,-2,16.580000000000002
3317,1,20,4,6,-2,-3,-1,0,16.585
3318,-2,15,-2,-6,-6,-2,1,1,16.59
3319,1,9,-15,-2,8,2,-2,0,16.595
3320,-2,6,16,7,-3,0,-2,0,16.6
3321,-4,3,-1,8,5,3,-1,-2,16.605
3322,1,4,2,-5,-5,2,4,1,16.61
3323,-2,3,-1,2,-3,-2,-3,-3,16.615000000000002
3324,-1,0,-12,-12,-1,-4,-2,-2,16.62
3325,-1,0,9,8,-1,-2,-2,-1,16.625
3326,2,2,5,-3,1,3,0,1,16.63
3327,-3,0,-12,-4,0,-3,-3,-3,16.635
3328,0,3,-4,8,1,0,0,0,16.64
3329,1,-1,14,8,-3,2,1,-1,16.645
3330,1,-2,1,-1,2,-1,1,-1,16.65
3331,-4,-4,-3,0,-4,-2,-2,-2,16.655
3332,-1,-3,-8,-9,3,-2,1,1,16.66
3333,-1,0,-7,-14,-14,-4,0,0,16.665
3334,-2,-2,4,5,7,4,0,-3,16.67
3335,-1,-1,-1,0,0,0,-2,0,16.675
3336,-1,-1,4,2,-3,1,1,-1,16.68
3337,1,-2,-4,-5,0,-1,0,1,16.685
3338,-2,0,0,-7,-4,-2,0,-2,16.69
3339,-1,-3,-3,3,0,0,-1,-2,16.695
3340,0,-2,3,-1,-1,-1,-1,0,16.7
3341,1,-1,-3,-1,1,0,-1,-1,16.705000000000002
3342,0,-2,0,0,1,-3,-2,-2,16.71
3343,-1,-4,3,4,2,0,-1,1,16.715
3344,2,-3,3,1,-3,-1,-1,0,16.72
3345,-2,-2,-6,-3,2,0,0,-1,16.725
3346,1,-1,0,2,-1,0,-1,0,16.73
3347,-2,-3,4,4,-2,-2,-2,-2,16.735
3348,-1,-3,-5,-6,-3,-2,-2,1,16.740000000000002
3349,-1,-2,-4,0,2,1,0,0,16.745
3350,1,-1,-20,-23,-2,-2,-1,-1,16.75
3351,-2,-1,45,37,4,-1,-2,-1,16.755
3352,-1,-1,-3,-2,1,-1,0,-1,16.76
3353,0,1,0,2,1,-1,0,-2,16.765
3354,0,0,-3,-7,-4,-1,-1,2,16.77
3355,-3,0,-17,-14,-2,-3,-2,-3,16.775
3356,-1,-1,1,1,0,0,0,0,16.78
3357,-1,0,3,3,0,0,0,-1,16.785
3358,0,0,2,4,-1,2,0,-2,16.79
3359,0,-2,-8,-6,-1,0,-1,-2,16.795
3360,-2,-1,3,1,-1,0,-2,0,16.8
3361,0,1,-7,-5,-3,0,-2,-1,16.805
3362,-1,1,2,2,-2,-3,0,-3,16.81
3363,-1,0,-6,0,0,-3,-1,2,16.815
3364,1,-2,0,-1,1,1,1,-2,16.82
3365,-1,-2,-1,0,1,1,0,0,16.825
3366,-2,0,11,8,0,0,-2,-1,16.830000000000002
3367,-1,-1,-8,-11,-6,-1,-2,0,16.835
3368,0,0,-5,-1,-2,-3,-1,0,16.84
3369,0,-1,0,1,1,-1,2,0,16.845
3370,-1,0,4,2,-2,-1,-1,0,16.85
3371,-1,0,-9,-7,-1,-1,-3,-2,16.855
3372,0,1,-2,-1,0,1,-2,-1,16.86
3373,1,0,5,3,1,1,-1,0,16.865000000000002
3374,-2,-2,-1,0,0,-1,0,-1,16.87
3375,0,0,-2,-2,-4,-1,-1,0,16.875
3376,-1,-2,-1,-1,-3,0,-1,0,16.88
3377,-1,-2,-4,-2,-1,-1,-1,-1,16.885
3378,-1,0,-1,1,0,-1,-1,-2,16.89
3379,0,-1,-3,-1,-1,0,-1,0,16.895
3380,-1,-1,0,-1,-2,1,0,-1,16.9
3381,-2,-1,-2,-1,-1,-1,0,0,16.905
3382,-2,-1,-1,0,-1,-2,-4,1,16.91
3383,-2,-3,-8,-6,-2,-3,0,-2,16.915
3384,0,0,9,5,0,-1,-1,0,16.92
3385,-2,0,1,-1,-1,0,0,-1,16.925
3386,-1,-1,0,2,1,-2,-2,-1,16.93
3387,0,-2,-7,-4,-2,0,-2,-2,16.935
3388,-1,-3,-3,-2,0,-1,1,0,16.94
3389,0,-1,-1,2,-1,1,-1,-1,16.945
3390,0,0,-1,-2,-1,-2,0,-1,16.95
3391,-1,-1,0,-1,-2,-1,-2,0,16.955000000000002
3392,0,-1,-2,-1,-1,0,-1,-1,16.96
3393,0,-2,0,0,-1,-1,0,1,16.965
3394,-1,-3,-2,-1,0,-2,0,-2,16.97
3395,-1,-1,1,-1,-1,-2,0,-2,16.975
3396,0,0,-3,-1,-1,-1,-2,-1,16.98
3397,-1,0,-1,-2,-1,-1,-1,1,16.985
3398,0,1,0,-2,-2,-1,-2,4,16.990000000000002
3399,-2,-2,-1,0,1,1,3,3,16.995
3400,-2,-1,2,0,1,1,3,0,17.0
3401,0,2,1,0,2,0,0,2,17.005
