slno,emg1,emg2,emg3,emg4,emg5,emg6,emg7,emg8,Time
0,0,7,11,-4,10,4,1,1,0.0
1,1,-3,-6,2,1,-1,0,0,0.005
2,-1,0,6,-2,1,-1,-1,-2,0.01
3,-4,0,-7,-32,-17,-5,-3,-2,0.015
4,2,-2,1,21,16,5,1,1,0.02
5,0,3,3,0,-1,2,0,0,0.025
6,-3,-5,-5,-2,-2,-4,-3,-1,0.03
7,-2,-2,1,0,-2,-4,-1,-2,0.035
8,-3,-5,-7,-8,-6,-3,1,1,0.04
9,1,7,4,-10,-4,-4,0,1,0.045
10,-2,-8,7,-1,2,0,0,-1,0.05
11,1,4,12,-1,1,3,1,-1,0.055
12,0,1,-3,18,6,-1,-2,-1,0.06
13,0,-2,-3,2,-1,1,-1,-1,0.065
14,1,3,-3,-7,-3,-1,-1,-1,0.07
15,-2,-1,-14,-25,0,-4,-2,0,0.075
16,1,1,8,7,-6,0,1,0,0.08
17,-1,-1,7,4,2,1,-1,-1,0.085
18,0,-4,-20,-15,-18,-6,-4,-2,0.09
19,0,4,15,18,31,7,0,1,0.095
20,0,-3,-6,-8,1,-2,-1,-1,0.1
21,-2,-3,0,3,-4,-2,1,-1,0.105
22,-2,1,3,0,1,-1,-2,0,0.11
23,-1,-1,-8,-3,-18,-7,-2,-2,0.115
24,0,1,10,-8,-1,-1,-2,-3,0.12
25,-2,-4,-7,-13,0,-2,-1,-1,0.125
26,0,0,-5,-22,0,1,1,1,0.13
27,0,-2,14,19,1,1,-2,0,0.135
28,-1,2,-2,-10,-5,-2,-2,-2,0.14
29,0,-1,-5,6,0,-2,0,-4,0.145
30,0,1,1,-5,0,1,0,0,0.15
31,0,0,-8,-36,-4,0,0,1,0.155
32,-2,-4,-1,36,2,-3,-2,-1,0.16
33,-1,0,-2,-8,-4,0,-2,-1,0.165
34,1,-2,14,31,4,-1,-1,-1,0.17
35,2,5,1,-15,-7,0,1,1,0.17500000000000002
36,-3,-10,-12,-11,-13,-6,-3,-1,0.18
37,0,2,-2,-4,8,7,2,2,0.185
38,-2,-1,-14,-4,-5,-4,-2,0,0.19
39,0,-2,-3,8,7,3,0,-2,0.195
40,0,3,3,-11,-7,-3,-2,-1,0.2
41,-1,-5,0,8,1,-3,-3,-1,0.20500000000000002
42,-1,1,-4,-7,-8,-2,-1,1,0.21
43,0,2,0,-2,12,0,-1,0,0.215
44,-1,4,-2,0,1,1,0,0,0.22
45,-2,-1,3,17,-10,-6,-1,-1,0.225
46,0,0,3,-4,21,7,3,-1,0.23
47,-1,-2,-4,1,-7,-5,-1,-2,0.23500000000000001
48,-2,-3,-3,0,4,1,-1,0,0.24
49,-2,2,0,-23,0,1,-1,1,0.245
50,0,-4,-2,11,-9,-4,-2,-4,0.25
51,-2,1,8,16,0,1,-1,0,0.255
52,0,-3,-7,-22,1,-3,-1,-1,0.26
53,-1,-4,-2,3,-7,-2,-1,-1,0.265
54,1,1,8,4,-7,-2,-2,-1,0.27
55,-1,-1,-7,3,9,3,1,-1,0.275
56,-1,-1,4,0,-6,-1,1,-1,0.28
57,0,-1,-16,-11,-8,-4,-2,-1,0.28500000000000003
58,-1,-4,-16,-34,-8,0,-2,-1,0.29
59,0,1,18,32,8,1,-1,1,0.295
60,-2,-2,-3,1,6,0,-1,-1,0.3
61,-2,-2,8,0,11,1,0,-1,0.305
62,-1,-3,-8,1,2,0,-1,0,0.31
63,0,-1,2,26,-7,-2,-1,0,0.315
64,0,0,-4,-7,-1,0,-1,-1,0.32
65,-1,-1,-4,5,-2,-1,-1,0,0.325
66,-1,1,10,2,4,0,0,0,0.33
67,0,-3,-9,-40,-9,-3,-3,-2,0.335
68,2,-3,-5,10,-4,-1,0,1,0.34
69,0,2,9,-3,-5,-1,-2,-1,0.34500000000000003
70,-1,0,-2,5,4,1,1,0,0.35000000000000003
71,-1,-1,-4,0,0,0,-1,-1,0.355
72,0,-2,-9,7,5,0,-2,-1,0.36
73,0,-1,-5,-22,-8,-3,-1,-1,0.365
74,-1,-1,1,1,-1,-2,-2,-2,0.37
75,-1,-2,4,3,5,0,0,-1,0.375
76,0,1,4,0,-3,4,1,0,0.38
77,-2,-1,-4,-10,-7,-4,-3,-1,0.385
78,0,0,4,10,18,8,2,1,0.39
79,-2,-2,-12,-6,-3,-4,0,-1,0.395
80,-1,1,0,-17,-5,-2,-2,-3,0.4
81,-1,0,5,20,-1,0,-1,-1,0.405
82,-2,-2,-5,-3,-5,-2,-1,0,0.41000000000000003
83,-3,-1,0,-2,-4,-2,-1,-1,0.41500000000000004
84,-1,2,7,-5,4,-3,-1,-1,0.42
85,-2,-7,-9,4,3,2,1,-1,0.425
86,-1,-1,9,44,-1,-4,-2,-2,0.43
87,-1,-3,-12,-9,-11,-3,-1,-2,0.435
88,0,1,2,20,16,3,1,1,0.44
89,1,1,4,-7,0,2,-2,0,0.445
90,-1,-1,-2,-18,-9,-3,-3,-1,0.45
91,0,-2,-4,-4,-3,-2,-1,0,0.455
92,0,-3,-2,-2,3,-1,-1,-1,0.46
93,0,3,-1,-1,7,-1,-1,1,0.465
94,1,0,5,-3,-23,-1,2,0,0.47000000000000003
95,-2,-3,-2,8,3,-1,-2,-1,0.47500000000000003
96,-3,1,2,-3,-5,-2,-3,-2,0.48
97,0,-1,0,11,5,1,1,-1,0.485
98,-1,1,12,-17,4,-1,-1,-1,0.49
99,-1,-1,2,-1,-7,-2,-2,0,0.495
100,-1,-2,-6,-5,-4,-1,1,-1,0.5
101,-1,-1,-3,-5,0,-1,1,-1,0.505
102,1,0,-1,2,6,-1,-1,0,0.51
103,0,2,3,-8,0,-1,-1,-2,0.515
104,-4,-10,-7,-17,-10,-4,-2,-4,0.52
105,1,1,7,-23,0,0,-1,0,0.525
106,0,-3,-9,-3,-1,-2,0,1,0.53
107,-2,-2,-3,9,4,-1,0,-2,0.535
108,1,6,12,8,-13,-4,-2,1,0.54
109,-1,1,-5,-17,-7,-1,2,0,0.545
110,0,-1,-3,15,0,0,0,-1,0.55
111,0,-1,-4,-7,-23,-7,-2,-1,0.555
112,0,-2,-9,-28,18,7,1,2,0.56
113,-4,-5,-8,43,5,-4,-4,-4,0.5650000000000001
114,0,-2,13,-27,-16,-3,0,0,0.5700000000000001
115,-3,3,5,37,21,4,1,1,0.5750000000000001
116,-1,-3,-6,-1,-3,-3,-1,-1,0.58
117,-1,0,0,-2,-10,-3,-2,1,0.585
118,-3,-2,-10,-9,0,0,-3,-2,0.59
119,0,-3,-6,-34,-9,-4,-3,-2,0.595
120,1,2,9,14,-5,-1,-3,-1,0.6
121,-1,-5,-4,1,0,3,0,-1,0.605
122,-2,0,0,14,17,0,-2,0,0.61
123,-1,-1,4,-20,-13,-3,-1,0,0.615
124,0,-1,-4,14,11,3,-1,-2,0.62
125,2,3,3,-7,-5,-1,-1,-1,0.625
126,-2,-1,-12,-26,-13,-5,-1,-2,0.63
127,0,3,10,53,33,8,1,0,0.635
128,0,-5,-5,3,4,0,0,0,0.64
129,0,-1,5,0,-1,-1,-1,-3,0.645
130,-2,-2,-8,-29,-4,-4,-3,-2,0.65
131,0,-3,-6,-10,-9,1,0,2,0.655
132,-1,0,10,25,-16,-8,-2,-3,0.66
133,-2,2,4,18,16,3,2,1,0.665
134,-1,-1,-2,2,4,0,-1,0,0.67
135,-3,0,-4,-25,-11,-5,-3,-2,0.675
136,-2,0,-13,-39,-5,-1,-1,-1,0.68
137,-1,-2,7,22,0,-2,-1,-1,0.685
138,1,1,3,21,-2,-1,0,0,0.6900000000000001
139,-1,-1,-9,2,3,1,-1,-1,0.6950000000000001
140,1,5,9,-3,0,0,-3,-1,0.7000000000000001
141,-2,-5,-5,-11,1,1,-1,-1,0.705
142,0,-1,-13,-1,-1,-2,0,-1,0.71
143,-1,-4,-5,-10,-10,-4,0,0,0.715
144,-1,0,1,9,23,5,1,2,0.72
145,1,3,1,-18,-14,-5,-1,-1,0.725
146,-1,-2,2,20,7,2,-1,0,0.73
147,-1,-1,-3,-21,-6,-2,-1,-3,0.735
148,-2,-2,-1,1,-13,-9,-4,-3,0.74
149,-1,-1,2,23,14,2,2,1,0.745
150,0,1,1,-3,-5,0,0,1,0.75
151,1,-1,0,-3,6,2,0,0,0.755
152,-1,-2,1,-4,-10,-3,-1,-1,0.76
153,0,2,-1,-4,-1,-2,-2,-1,0.765
154,0,-6,-1,3,0,-2,-1,-3,0.77
155,-1,0,-14,-9,-3,-4,-5,-1,0.775
156,0,0,6,5,5,5,1,0,0.78
157,0,-1,-2,-14,0,-1,-1,-2,0.785
158,0,0,15,15,7,1,1,-1,0.79
159,-1,-4,-31,-23,-4,1,0,-1,0.795
160,-1,-4,-4,13,1,0,0,-1,0.8
161,-1,1,8,-16,-18,-3,-3,-1,0.805
162,-1,0,-5,-15,-6,-2,-2,-2,0.81
163,-1,-2,10,16,21,4,3,-2,0.8150000000000001
164,-2,1,-5,-2,0,-1,-1,-1,0.8200000000000001
165,-1,-2,-6,-9,-14,-4,0,-1,0.8250000000000001
166,-1,1,-1,-2,6,2,-1,0,0.8300000000000001
167,1,-1,6,-7,-6,-7,-1,-1,0.835
168,-2,-1,2,6,5,4,0,0,0.84
169,-3,-3,-8,-16,-3,-1,-1,-2,0.845
170,-1,1,9,36,9,1,0,-2,0.85
171,-1,-1,0,-7,-15,-6,-1,-2,0.855
172,-1,-5,-3,8,-2,2,0,-1,0.86
173,-1,-1,-3,-2,5,-2,-1,0,0.865
174,0,0,0,-2,-2,0,-1,-1,0.87
175,-3,-3,3,-1,3,-1,-2,-2,0.875
176,2,0,-2,-6,-9,-3,-1,-1,0.88
177,0,-1,3,6,3,-1,0,0,0.885
178,-3,-5,-13,-12,-6,-3,-1,-1,0.89
179,0,1,4,14,6,3,0,-1,0.895
180,-3,-1,-4,-35,-13,-6,-2,-1,0.9
181,0,4,11,18,15,5,1,1,0.905
182,-1,-4,-8,15,1,-1,0,-1,0.91
183,0,-1,6,16,-4,-1,-1,-2,0.915
184,0,1,0,-21,-13,-5,-1,0,0.92
185,0,1,3,7,20,3,1,-1,0.925
186,-1,5,20,3,3,7,3,0,0.93
187,-2,-2,0,-18,1,-2,-1,-1,0.935
188,1,-1,-14,22,5,5,2,-1,0.9400000000000001
189,0,-1,3,-6,-10,-4,0,-1,0.9450000000000001
190,0,0,-5,-4,-4,-6,-2,1,0.9500000000000001
191,0,1,1,-14,-5,1,-2,2,0.9550000000000001
192,-2,-2,1,18,-4,-3,-3,-1,0.96
193,-2,-3,-9,-14,-7,0,-1,-1,0.965
194,-2,-2,-3,-1,-8,-4,-1,-3,0.97
195,0,0,4,2,14,5,1,0,0.975
196,-1,-3,-9,-18,-5,-5,-1,-1,0.98
197,0,-2,-4,9,-13,-3,-3,-1,0.985
198,0,-1,-3,-10,-3,0,-3,-1,0.99
199,-1,-2,1,5,-6,-7,-4,-3,0.995
200,-1,0,-5,-11,-30,-3,0,-1,1.0
201,0,2,4,14,21,7,1,0,1.0050000000000001
202,-1,-6,-5,0,1,2,0,0,1.01
203,-1,-1,4,17,-3,-3,-2,-1,1.0150000000000001
204,1,1,2,-9,0,-2,-1,1,1.02
205,-2,-4,-12,-4,-9,-3,0,-2,1.025
206,1,4,8,-13,-8,-2,-1,1,1.03
207,-1,0,-2,17,4,0,-2,-1,1.035
208,-2,2,7,7,8,1,1,-1,1.04
209,-1,-1,-1,2,-8,-1,-2,0,1.045
210,-1,0,-7,-2,11,0,-1,0,1.05
211,-2,-2,-2,-10,-9,0,-2,-1,1.055
212,0,-2,-2,1,8,1,-1,0,1.06
213,0,-2,-7,-11,-6,-2,-1,0,1.065
214,-1,0,3,-12,-14,-6,-1,-1,1.07
215,0,-1,0,-5,5,1,1,-1,1.075
216,-1,-1,0,8,22,6,1,-1,1.08
217,-2,-2,-1,1,-1,-5,-2,-1,1.085
218,-2,-4,-8,-11,-5,-1,-1,-3,1.09
219,1,3,4,-1,0,3,0,0,1.095
220,-1,-3,-2,-1,-4,-6,-3,-1,1.1
221,-1,-2,-1,5,12,4,0,0,1.105
222,0,6,0,-3,2,-2,0,0,1.11
223,-2,-5,-4,-10,-4,-3,0,-1,1.115
224,-1,-3,1,20,3,0,0,-1,1.12
225,-2,0,-2,-6,-7,-1,-1,-1,1.125
226,1,2,-1,10,4,2,1,-1,1.1300000000000001
227,0,1,5,-16,2,2,0,-2,1.135
228,-1,3,10,25,-5,-3,-1,-2,1.1400000000000001
229,0,-1,0,5,-6,-2,0,-1,1.145
230,0,-2,-1,1,24,5,1,0,1.1500000000000001
231,-1,1,-1,11,0,1,-1,0,1.155
232,-1,0,-2,-22,1,0,-1,-1,1.16
233,0,-3,-4,17,-9,-2,-1,-2,1.165
234,-1,1,9,10,-7,-2,0,0,1.17
235,0,-3,-4,-8,-13,-6,-3,-3,1.175
236,2,1,-4,-7,18,5,0,1,1.18
237,-2,-1,0,-4,1,0,-3,-1,1.185
238,0,-2,-6,-16,-8,1,-1,1,1.19
239,-2,-1,-6,-15,1,-3,-1,0,1.195
240,-1,0,4,14,1,2,0,-1,1.2
241,-1,-1,-5,-11,-2,-1,-1,-2,1.205
242,-2,-2,5,9,0,-3,-2,-2,1.21
243,-2,-6,-6,-4,-2,-2,0,-1,1.215
244,-1,0,-1,-11,-4,-2,1,-1,1.22
245,2,4,6,15,10,2,0,1,1.225
246,-2,-3,-5,-18,-15,-5,-1,-2,1.23
247,-1,2,-2,23,1,1,-1,-2,1.235
248,-2,-4,12,-6,13,2,-1,0,1.24
249,-2,-2,-8,-15,-1,0,0,-1,1.245
250,0,-3,-6,-24,-11,-3,-1,-1,1.25
251,-1,0,2,23,3,0,0,1,1.2550000000000001
252,0,-2,-9,-5,-9,-4,-3,-1,1.26
253,1,3,17,-3,0,0,-1,-1,1.2650000000000001
254,-2,-3,0,14,3,0,-1,-1,1.27
255,-1,0,-1,1,-7,-4,-2,-2,1.2750000000000001
256,-1,-1,-3,1,11,1,0,-1,1.28
257,-1,-1,-6,-6,4,4,1,1,1.285
258,-1,-2,-4,2,-4,-6,0,-1,1.29
259,-2,0,7,9,-7,0,1,1,1.295
260,-1,-1,-4,3,-3,-3,-1,-1,1.3
261,1,-1,1,-9,-5,-3,-1,0,1.305
262,0,2,1,15,8,2,0,-1,1.31
263,0,-2,-5,-13,-5,-2,-2,-1,1.315
264,1,0,0,4,17,4,-1,-1,1.32
265,0,-1,7,-14,-1,-2,-1,-1,1.325
266,0,-3,-2,7,-1,-1,-3,-2,1.33
267,0,0,-3,-4,3,0,0,0,1.335
268,-1,-1,-7,0,-9,-1,1,-1,1.34
269,-1,-1,-3,-8,-7,-4,-1,-1,1.345
270,-1,2,1,-1,4,1,-1,-2,1.35
271,0,-2,-4,-9,-9,-4,-1,-1,1.355
272,-1,1,-1,-1,-1,0,1,-1,1.36
273,0,-3,2,15,2,1,0,-1,1.365
274,-1,-1,-1,-3,-7,-1,-2,1,1.37
275,0,-1,-6,-12,12,3,1,0,1.375
276,-1,0,5,10,-12,-5,0,-1,1.3800000000000001
277,0,0,-15,-3,1,1,2,-1,1.385
278,-2,-1,3,26,6,-1,-1,0,1.3900000000000001
279,-1,-1,0,-7,-1,-1,0,-2,1.395
280,-2,-2,-3,-12,-7,0,-3,1,1.4000000000000001
281,-2,-1,0,22,-3,-2,-1,-3,1.405
282,0,0,-9,-24,-7,-1,-1,0,1.41
283,-2,-1,6,23,20,0,0,-1,1.415
284,1,-1,-2,2,-17,-3,-1,-2,1.42
285,0,2,-6,-11,1,-1,-2,0,1.425
286,-1,-5,-7,-17,-2,0,0,1,1.43
287,-2,0,5,23,-5,-2,0,-3,1.435
288,1,1,-2,-2,4,0,-2,0,1.44
289,-1,-1,0,-1,-1,-3,-1,-1,1.445
290,-1,-1,-3,-10,-18,-5,-4,-3,1.45
291,0,-1,-7,-21,5,3,1,3,1.455
292,-1,0,2,3,9,-2,-1,-1,1.46
293,-1,-2,1,-10,-3,2,0,-1,1.465
294,-2,-2,-3,15,-4,-3,-2,0,1.47
295,1,4,16,-6,-1,0,-1,0,1.475
296,-2,-4,-21,-44,-17,-9,-3,-1,1.48
297,-1,-4,8,49,7,9,2,1,1.485
298,0,4,13,15,21,4,1,-3,1.49
299,-3,-3,-10,-9,-16,-4,-2,-2,1.495
300,-1,-3,-20,0,10,3,1,0,1.5
301,-2,0,16,-17,-11,-7,-2,-1,1.5050000000000001
302,0,-3,-12,-25,-7,0,0,-1,1.51
303,1,4,26,38,15,2,-1,0,1.5150000000000001
304,-2,-1,-5,3,-9,-1,2,-1,1.52
305,0,0,-5,-13,-1,-2,-1,-1,1.5250000000000001
306,-1,0,-5,-14,2,3,1,-2,1.53
307,-2,-1,-2,3,-8,-5,-4,-2,1.5350000000000001
308,0,0,10,4,8,0,-1,-1,1.54
309,-1,-2,-9,-1,-6,-4,-3,-2,1.545
310,1,0,5,-2,-2,-2,2,-1,1.55
311,-1,-3,-11,-6,-5,-1,0,1,1.555
312,0,0,5,9,3,0,-2,-3,1.56
313,0,2,-3,-3,1,0,0,-1,1.565
314,-2,-1,0,-5,-8,-1,-2,-1,1.57
315,-3,-4,-13,-14,-3,-1,-2,-3,1.575
316,0,-1,13,27,3,2,0,1,1.58
317,-1,0,-6,-15,-9,-5,-1,-1,1.585
318,0,1,3,-3,22,4,1,1,1.59
319,-2,-6,-10,18,-17,-2,-1,0,1.595
320,-1,2,6,-6,1,1,0,0,1.6
321,1,-2,-7,-9,0,0,1,-1,1.605
322,-3,-2,7,25,-1,-1,-1,0,1.61
323,-1,1,-7,-17,-13,-6,0,-2,1.615
324,-1,-1,-5,-10,4,-2,-1,-2,1.62
325,-1,-4,1,19,8,6,0,0,1.625
326,-1,0,-2,3,-5,-2,-2,-2,1.6300000000000001
327,-1,-1,-4,-15,8,1,0,0,1.635
328,-1,0,2,-11,-10,-2,0,-2,1.6400000000000001
329,-1,2,-8,-14,5,-2,-3,-1,1.645
330,0,-3,12,19,3,-2,2,-2,1.6500000000000001
331,0,0,4,-2,-12,-3,-2,-1,1.655
332,0,0,11,-7,2,2,0,0,1.6600000000000001
333,-2,-2,0,-7,-2,-2,1,-2,1.665
334,-2,0,-6,-4,0,-2,-3,-1,1.67
335,-1,0,-6,-15,-1,-2,-1,1,1.675
336,-1,-2,4,23,-7,-2,-1,-2,1.68
337,-2,0,8,9,1,-2,-1,-1,1.685
338,0,-1,-5,-17,1,0,0,0,1.69
339,0,1,5,8,8,1,0,-1,1.695
340,-1,-5,-16,-5,-7,0,-1,0,1.7
341,-3,-1,-3,3,-1,-1,-1,-2,1.705
342,0,1,-4,-6,-7,-3,-1,-1,1.71
343,-2,-4,-6,-12,5,2,-1,0,1.715
344,-1,0,6,4,-1,-1,0,-2,1.72
345,-1,-2,-8,-12,-6,0,0,-1,1.725
346,-1,-1,0,5,1,0,-1,-1,1.73
347,-1,0,-2,-5,-1,-1,-2,-2,1.735
348,0,1,3,24,0,-1,0,1,1.74
349,0,-2,3,6,5,1,-1,-1,1.745
350,-2,0,-1,-8,-11,-6,-4,-2,1.75
351,0,-4,-14,-18,6,6,2,1,1.7550000000000001
352,-2,2,-5,18,6,0,-3,-2,1.76
353,0,0,5,10,0,-1,-2,-2,1.7650000000000001
354,0,-2,0,-5,-5,-1,1,1,1.77
355,-3,0,4,4,-7,-6,-2,-5,1.7750000000000001
356,-1,-4,-12,-34,-6,-2,-1,0,1.78
357,-1,-2,-6,-7,-8,-2,0,0,1.7850000000000001
358,-2,0,1,4,16,-2,-4,-2,1.79
359,1,-1,2,3,-4,0,-1,0,1.795
360,1,1,-5,-8,-3,1,0,0,1.8
361,-3,-4,-4,6,3,-1,0,0,1.805
362,0,0,-2,-2,-8,-1,-2,-3,1.81
363,-2,0,2,8,8,0,1,0,1.815
364,1,4,4,5,0,-2,0,-1,1.82
365,1,1,0,-13,-7,-2,0,1,1.825
366,-1,-2,-7,-10,-4,-2,-1,-1,1.83
367,0,3,6,7,13,5,0,0,1.835
368,-1,-1,-6,-21,-8,-1,0,-2,1.84
369,-1,-1,6,10,19,1,-2,-3,1.845
370,-1,-1,0,10,-1,4,1,1,1.85
371,1,-2,-10,0,-5,-3,-3,-1,1.855
372,-2,-1,8,-6,-1,-4,-2,0,1.86
373,1,2,-3,-14,-4,-1,0,0,1.865
374,-1,-1,-3,10,-2,-3,0,-2,1.87
375,0,1,0,-14,-8,-3,-1,-2,1.875
376,-2,-5,-14,-32,-13,-6,-3,0,1.8800000000000001
377,4,3,32,9,30,8,1,2,1.885
378,-2,-3,-11,23,-3,2,-2,0,1.8900000000000001
379,1,-2,-2,1,-2,-2,-1,0,1.895
380,0,-2,4,6,-4,-1,-1,0,1.9000000000000001
381,-2,-5,-11,-2,-8,-2,-3,0,1.905
382,-2,0,-4,-12,-2,-2,-2,0,1.9100000000000001
383,-2,-2,2,-12,-3,-1,-1,0,1.915
384,-1,1,0,14,7,2,0,-2,1.92
385,-2,1,-5,-7,-11,-4,-1,-1,1.925
386,0,0,1,-17,7,0,-1,0,1.93
387,-1,-1,-1,15,1,0,0,-2,1.935
388,-1,-3,7,-6,1,2,1,-1,1.94
389,-3,-4,-14,10,-7,-2,1,-1,1.945
390,-1,-1,8,15,-4,-3,-1,-2,1.95
391,0,3,3,3,-2,-3,-2,-2,1.955
392,1,-1,-7,-13,1,-1,0,0,1.96
393,-1,0,-1,-5,-6,-1,1,1,1.965
394,0,-1,-2,0,-2,-1,0,-2,1.97
395,-1,-2,0,-7,-2,-1,0,-3,1.975
396,-3,-2,2,3,-4,0,0,-1,1.98
397,-1,-1,-9,-5,21,-1,-3,-2,1.985
398,1,3,-7,-13,-16,5,2,2,1.99
399,-2,-8,-5,7,10,2,-1,-1,1.995
400,1,6,23,22,1,3,0,-1,2.0
401,0,-2,-17,0,-6,-2,-1,-2,2.005
402,0,-1,0,-12,-8,-3,-1,-1,2.0100000000000002
403,-1,-1,-7,-13,-1,-2,-2,-1,2.015
404,-3,0,-2,3,3,-2,0,0,2.02
405,-1,-1,1,-9,-33,-7,-3,-2,2.025
406,1,0,5,3,25,7,2,1,2.0300000000000002
407,-1,0,-2,7,-6,-2,-1,2,2.035
408,0,-4,-4,-26,-4,-3,-1,-2,2.04
409,0,0,17,55,-2,-2,0,0,2.045
410,-2,-3,-2,-5,-3,-3,0,-2,2.05
411,-2,1,4,5,0,0,-1,0,2.055
412,-2,-1,-13,-12,4,0,-1,-1,2.06
413,0,0,9,-9,-2,2,1,-2,2.065
414,-2,-2,-3,3,-11,-8,-1,0,2.07
415,-1,0,2,-2,4,0,1,-1,2.075
416,1,-2,-2,4,-6,-1,0,0,2.08
417,-1,0,-2,-9,-1,0,0,-1,2.085
418,-1,-2,-4,8,2,-2,-1,-1,2.09
419,0,0,-8,-33,-6,-3,-1,-1,2.095
420,-3,-1,9,-9,-5,-1,-1,-2,2.1
421,1,3,19,54,11,5,1,-1,2.105
422,-3,-8,-6,-4,-7,-2,-1,-3,2.11
423,-2,-1,-6,-9,-3,-1,0,-1,2.115
424,1,-2,-8,-6,-8,-6,-2,-1,2.12
425,-1,3,-6,-24,16,7,2,1,2.125
426,0,-1,8,3,-7,-2,-2,-1,2.13
427,-2,1,0,7,-6,0,1,-1,2.1350000000000002
428,-2,-4,-11,16,12,2,1,-1,2.14
429,1,1,5,-6,3,2,0,2,2.145
430,-1,1,2,-2,0,-2,-2,-1,2.15
431,0,-4,3,23,1,-2,-1,-2,2.1550000000000002
432,-1,-2,-9,-2,0,0,-1,-2,2.16
433,-1,0,-6,-14,-9,-5,-2,-2,2.165
434,-2,1,-4,-1,-1,-1,-1,-2,2.17
435,0,-1,-1,-7,3,-1,-1,0,2.1750000000000003
436,-3,-1,-1,17,-1,0,-1,-1,2.18
437,-2,-2,-7,-13,-5,-3,-1,-1,2.185
438,-1,-1,-1,-13,0,1,0,-1,2.19
439,0,1,1,-1,-5,-1,-2,0,2.195
440,0,0,3,8,3,-1,-1,-1,2.2
441,-1,-3,-7,-26,-4,-3,-3,0,2.205
442,0,0,8,44,21,6,1,0,2.21
443,2,1,2,-3,0,-1,0,0,2.215
444,0,-1,-2,-7,-7,0,0,1,2.22
445,1,0,2,2,4,-1,-1,-1,2.225
446,-2,0,-1,-5,10,-2,-2,-1,2.23
447,-1,0,-1,1,-1,2,0,-1,2.235
448,0,0,2,-3,-1,-1,-1,1,2.24
449,-1,-2,-3,-1,-6,-3,-2,-2,2.245
450,0,0,1,-3,-2,0,0,-1,2.25
451,-1,-1,1,11,6,1,0,0,2.255
452,1,-1,-3,4,3,0,1,-1,2.2600000000000002
453,-3,-3,-3,3,-7,-3,-1,-3,2.265
454,-1,-1,-4,-11,-5,-5,-2,0,2.27
455,-2,2,4,-14,-10,-5,-3,0,2.275
456,-1,-3,1,14,12,4,0,1,2.2800000000000002
457,-1,-3,-8,-4,2,-1,-1,-1,2.285
458,0,0,-3,-9,-8,-1,-1,-2,2.29
459,0,0,-3,-10,-25,-4,-3,0,2.295
460,-2,1,4,-2,14,4,1,-1,2.3000000000000003
461,-1,0,1,1,-2,1,-1,-1,2.305
462,-1,0,-9,-48,-5,-3,-1,-1,2.31
463,-3,-3,13,74,7,0,-2,-1,2.315
464,1,1,0,-5,-10,-4,-2,-2,2.32
465,0,0,0,-3,14,2,-1,-1,2.325
466,1,-1,-8,9,-11,-1,0,1,2.33
467,-2,-3,-15,-21,-1,-1,-1,0,2.335
468,1,0,-2,0,4,2,0,2,2.34
469,-2,4,17,-3,-2,-3,-4,-2,2.345
470,-2,-1,4,0,0,1,-2,-1,2.35
471,0,5,5,-7,2,2,0,0,2.355
472,0,-9,-3,9,4,0,0,1,2.36
473,-1,-3,-16,-22,-13,-4,-1,-1,2.365
474,1,0,6,9,-3,-2,-1,-2,2.37
475,1,-2,-6,3,3,0,0,-1,2.375
476,0,4,3,-21,-6,-3,-1,-1,2.38
477,1,-1,-7,-21,-7,-4,1,-1,2.3850000000000002
478,-2,-3,5,22,5,3,0,-2,2.39
479,1,-2,-2,0,-5,1,0,-1,2.395
480,1,2,2,-6,7,1,0,0,2.4
481,-1,-1,-6,-2,-1,1,0,-1,2.4050000000000002
482,-2,0,-3,5,0,-4,-2,0,2.41
483,0,-2,-2,-29,-10,-3,-1,-3,2.415
484,0,0,6,33,14,4,-1,0,2.42
485,0,-1,4,11,-6,0,0,0,2.4250000000000003
486,-2,-1,2,-8,-9,-5,-2,-2,2.43
487,-2,-1,-2,-3,10,0,-1,1,2.435
488,-1,0,0,-8,-18,-3,-2,0,2.44
489,0,0,0,12,15,7,3,1,2.445
490,-1,-3,-11,-1,3,-3,-2,-3,2.45
491,-1,-1,6,-9,-7,-2,2,-2,2.455
492,-2,1,-4,5,-4,-1,-2,-1,2.46
493,0,-1,4,3,-3,-2,-2,0,2.465
494,0,0,-6,-8,-1,0,-1,-2,2.47
495,-1,0,1,-5,0,-2,-1,-1,2.475
496,-2,-5,-8,11,6,0,1,-3,2.48
497,0,-1,0,8,-5,2,1,0,2.485
498,0,0,4,-6,2,0,0,0,2.49
499,-2,-2,-4,18,-6,-5,-1,-2,2.495
500,1,3,4,-11,-5,-3,-1,-3,2.5
501,-1,-1,-1,-6,2,0,-1,-1,2.505
502,-1,-2,-3,-8,-10,-3,-2,0,2.5100000000000002
503,0,0,3,12,8,1,1,1,2.515
504,-1,-1,-7,-10,-3,-2,-1,0,2.52
505,0,-4,-2,-10,-1,-3,0,0,2.525
506,0,0,-4,-4,-6,1,0,-1,2.5300000000000002
507,-1,2,-7,-23,-7,-3,-3,-1,2.535
508,-1,-2,10,22,8,-1,-1,-1,2.54
509,0,0,2,19,-4,0,0,1,2.545
510,0,1,6,-4,3,-1,-1,0,2.5500000000000003
511,0,-4,-14,-10,1,0,0,0,2.555
512,-1,4,4,19,-1,-2,-2,0,2.56
513,-2,-4,6,-9,-3,-2,-1,-1,2.565
514,-1,2,8,5,1,-2,-2,0,2.57
515,1,-2,5,16,-4,3,1,0,2.575
516,-1,0,-5,-21,3,0,-1,1,2.58
517,-1,-1,-7,-5,0,-2,-2,-3,2.585
518,-2,0,-5,18,-1,0,-2,-1,2.59
519,-3,-2,-1,-21,-6,-2,-3,-1,2.595
520,0,-2,2,13,-3,-1,-1,0,2.6
521,0,1,-3,-6,-5,-1,-1,0,2.605
522,-4,-5,-2,-1,5,-1,-2,-2,2.61
523,2,0,-6,-9,-7,-2,1,0,2.615
524,-1,-1,1,-12,8,1,-1,0,2.62
525,-1,-2,-2,9,-4,-2,-1,0,2.625
526,2,0,2,10,6,1,0,0,2.63
527,-1,-2,1,4,8,0,-1,-2,2.6350000000000002
528,-4,-2,-9,-20,-14,-2,-1,-2,2.64
529,-1,0,0,-1,1,-4,-2,-2,2.645
530,0,0,-1,-17,-6,1,0,-1,2.65
531,-1,0,4,15,3,1,0,1,2.6550000000000002
532,2,0,-9,-1,22,8,2,1,2.66
533,-2,-2,13,26,-1,-2,-2,-2,2.665
534,1,-3,-1,-1,-2,-1,-1,-1,2.67
535,0,-1,-1,-16,-9,-2,1,-1,2.6750000000000003
536,0,-1,1,5,-3,-1,0,0,2.68
537,-1,-2,-7,-8,6,3,-1,0,2.685
538,0,1,-2,-3,-6,-2,-1,0,2.69
539,0,-1,1,1,5,0,-2,1,2.695
540,-1,-3,-3,-13,-12,-6,-3,-3,2.7
541,-1,1,-4,-20,-4,-1,0,-1,2.705
542,-3,-8,-2,3,-8,-5,-2,-2,2.71
543,-1,1,-7,26,12,2,-1,-1,2.715
544,-1,3,22,3,-8,0,2,1,2.72
545,1,-2,-3,-2,-5,-3,-2,-2,2.725
546,0,3,6,-9,7,1,-1,-2,2.73
547,-2,-5,-9,-1,-2,0,-1,0,2.735
548,-2,-2,-4,-2,-3,-1,-2,-1,2.74
549,0,2,-4,-22,6,1,0,0,2.745
550,-1,2,10,22,-1,-2,0,-1,2.75
551,-2,-7,-1,1,3,-1,-2,-2,2.755
552,-2,0,-4,-3,-4,-2,0,0,2.7600000000000002
553,-2,-1,-1,-3,-6,-2,0,-1,2.765
554,-1,-3,-10,-10,-12,-5,-1,-1,2.77
555,-2,2,6,4,21,9,0,2,2.775
556,0,-2,-3,-8,-16,-6,-1,-1,2.7800000000000002
557,0,0,-2,-3,20,6,-1,0,2.785
558,-2,-2,-2,6,-1,-4,-1,-1,2.79
559,1,0,0,-14,-9,1,-1,-1,2.795
560,0,-2,0,9,0,0,-1,-1,2.8000000000000003
561,1,-2,-2,0,-10,-3,-1,0,2.805
562,-1,-2,1,3,10,-1,-1,-2,2.81
563,0,1,0,-8,-2,-2,-2,-3,2.815
564,-1,-2,-6,-5,4,0,-1,-1,2.82
565,0,0,-1,9,-2,-1,-2,-1,2.825
566,-1,0,-4,-14,-4,2,-2,-1,2.83
567,-1,0,5,14,5,-3,-1,-2,2.835
568,-1,-1,-2,-1,-3,0,-1,-1,2.84
569,-1,0,-1,-16,-7,-4,-2,-2,2.845
570,1,-3,2,16,-2,1,0,1,2.85
571,-3,-1,-5,-16,13,3,-1,-1,2.855
572,1,0,3,16,8,1,-1,0,2.86
573,-1,-2,-3,0,-15,-5,-3,0,2.865
574,-1,-4,-6,-15,-16,-4,-4,-2,2.87
575,1,1,3,3,15,6,2,0,2.875
576,-1,-2,-5,-8,-6,-5,-1,-2,2.88
577,0,-1,0,5,5,0,1,-1,2.8850000000000002
578,-3,-3,-2,-6,-6,-2,-1,-2,2.89
579,0,2,0,14,-11,-3,-2,1,2.895
580,-1,3,-1,-11,-10,-4,-2,-1,2.9
581,-2,-7,-4,-2,5,1,1,-2,2.9050000000000002
582,1,1,1,9,11,2,0,0,2.91
583,0,-2,-1,-6,-9,-3,-1,-2,2.915
584,0,1,-1,-1,1,3,0,1,2.92
585,0,-1,-2,-6,-4,1,-2,-1,2.9250000000000003
586,-3,-1,0,2,-1,-2,0,-2,2.93
587,-1,1,-2,-4,-9,-3,-1,-2,2.935
588,-1,-4,2,11,0,-1,-1,-2,2.94
589,-2,0,1,5,2,-2,-2,-2,2.945
590,0,-1,-5,-10,4,1,-1,-1,2.95
591,1,-1,0,2,-7,-1,0,0,2.955
592,-1,-1,-2,-4,0,-1,0,0,2.96
593,-1,0,3,2,-4,0,-3,-2,2.965
594,-1,-1,-1,1,3,0,-1,0,2.97
595,-1,-1,1,-5,-4,-2,-1,-2,2.975
596,-1,-2,-1,-7,5,2,-1,0,2.98
597,0,-1,-1,5,-12,-2,0,0,2.985
598,0,0,1,-2,9,5,2,-1,2.99
599,-2,-1,-3,-23,-1,-2,-2,-1,2.995
600,1,-1,2,19,-3,-1,-2,0,3.0
601,0,-2,0,7,-1,-1,1,-2,3.005
602,-1,0,-1,-4,-3,-2,-2,0,3.0100000000000002
603,-3,-2,-1,-3,-4,0,0,1,3.015
604,1,-2,-4,-8,0,0,0,-1,3.02
605,-1,1,1,4,1,0,-2,0,3.025
606,3,0,-3,-4,-4,-2,0,0,3.0300000000000002
607,0,0,-1,2,1,-1,1,-2,3.035
608,-2,0,-3,-13,-7,-1,-2,-2,3.04
609,-2,0,0,1,3,0,0,-2,3.045
610,-1,0,1,5,-9,-7,-2,1,3.0500000000000003
611,1,1,2,0,17,8,3,2,3.055
612,-1,-1,-2,4,5,1,-1,-1,3.06
613,0,-1,-2,-2,-13,-3,-1,-1,3.065
614,-2,0,-3,-13,2,-1,-2,-3,3.0700000000000003
615,1,1,0,2,-15,-6,-3,-2,3.075
616,0,-1,-3,-2,0,2,-1,0,3.08
617,0,-2,-1,-1,8,2,-1,-1,3.085
618,-1,-3,-1,-4,1,1,0,1,3.09
619,-3,-2,1,5,-1,-5,-2,-2,3.095
620,-1,-1,-1,-3,-1,1,0,-1,3.1
621,-2,-1,-2,5,-3,-4,-3,0,3.105
622,-1,1,-3,-3,1,1,-2,-1,3.11
623,0,-2,-2,0,-1,-2,-1,-1,3.115
624,0,1,-1,-12,-6,-2,-1,0,3.12
625,1,-2,3,31,10,2,0,-2,3.125
626,-3,-3,-3,-3,-5,0,1,-1,3.13
627,0,-1,0,0,0,-1,-2,-1,3.1350000000000002
628,-1,-1,-2,-6,-1,-2,-2,-2,3.14
629,0,0,-3,-7,-3,-1,-1,1,3.145
630,0,-1,-1,-1,3,2,-1,0,3.15
631,-1,-2,-1,5,-4,-1,0,0,3.1550000000000002
632,0,-2,-4,-3,1,-1,1,0,3.16
633,-1,-1,0,-4,-2,-1,0,-2,3.165
634,0,-1,0,4,-3,0,0,-3,3.17
635,0,-1,-3,-8,11,2,-1,-1,3.1750000000000003
636,0,-1,2,-1,-3,-3,-1,-3,3.18
637,0,3,0,0,-7,0,-1,0,3.185
638,-2,-2,-1,4,-4,1,-1,-1,3.19
639,-3,-1,1,13,7,0,0,0,3.1950000000000003
640,1,0,2,14,22,8,1,1,3.2
641,-1,-1,-2,-6,-9,-4,-1,1,3.205
642,0,1,-4,-12,-3,-1,-2,-2,3.21
643,0,-1,-1,-5,-9,-3,0,0,3.215
644,-2,-2,0,2,-6,-1,-1,0,3.22
645,-1,0,-4,-10,5,0,2,-2,3.225
646,1,0,0,-5,0,-1,0,0,3.23
647,0,0,-1,10,-1,-1,0,-1,3.235
648,0,-2,-1,-7,-5,-3,-1,-2,3.24
649,0,-2,2,1,3,0,0,-2,3.245
650,0,-2,-6,-23,-2,-4,0,0,3.25
651,0,-1,3,18,0,-2,-2,-2,3.255
652,-2,2,-2,-12,-4,-2,0,0,3.2600000000000002
653,-3,-3,-1,9,1,-1,-1,1,3.265
654,0,0,0,2,-6,-1,0,0,3.27
655,1,-1,-4,-16,0,2,0,-1,3.275
656,0,1,-2,3,4,1,0,1,3.2800000000000002
657,-1,0,2,-1,0,0,0,-1,3.285
658,-1,-1,0,5,1,0,-2,0,3.29
659,-1,1,-2,-3,-8,-7,0,-1,3.295
660,1,-1,0,4,-4,4,0,0,3.3000000000000003
661,0,-2,-2,-7,-17,-4,-3,-1,3.305
662,2,1,3,11,23,9,1,0,3.31
663,-1,-2,-2,-7,-4,0,-2,0,3.315
664,-1,0,1,-2,-2,-5,-3,-2,3.3200000000000003
665,-1,-2,-4,-6,-5,-4,0,-1,3.325
666,-2,-1,-5,-18,-8,-2,-1,-1,3.33
667,0,-1,3,19,7,1,-1,-2,3.335
668,-1,-2,-1,-6,-11,-2,0,0,3.34
669,0,0,-2,0,8,1,0,1,3.345
670,-2,-1,-2,-1,5,-1,-2,-2,3.35
671,0,1,-2,-7,-6,-1,-1,0,3.355
672,-2,-1,0,-3,-3,-2,-1,-1,3.36
673,-1,0,-1,-4,3,1,-2,-2,3.365
674,0,-2,-1,3,-2,-2,0,0,3.37
675,-1,-1,-3,-12,-2,1,-1,-2,3.375
676,-1,-1,4,16,-2,-3,0,-1,3.38
677,0,-2,-7,-24,-15,-3,0,0,3.3850000000000002
678,0,-1,6,28,-3,-2,-1,0,3.39
679,-1,-1,-1,6,16,5,0,-1,3.395
680,0,1,-4,-15,-12,-3,0,0,3.4
681,-2,-1,0,2,1,-4,-1,-2,3.4050000000000002
682,0,1,3,7,4,4,0,0,3.41
683,-1,-2,-7,-5,-14,-6,-2,-1,3.415
684,0,1,-2,-9,10,3,2,-2,3.42
685,-2,0,1,1,2,-1,-2,-2,3.4250000000000003
686,-1,0,1,0,-5,-4,-2,-2,3.43
687,-3,-3,-4,-16,5,-2,0,0,3.435
688,0,2,7,28,8,0,-1,0,3.44
689,-1,-7,-5,5,-3,4,1,0,3.4450000000000003
690,0,3,2,-4,-4,-3,0,-2,3.45
691,1,0,-3,-16,-10,-2,-2,0,3.455
692,-1,-3,-2,7,3,1,-2,-2,3.46
693,-1,3,4,3,2,-2,0,-1,3.465
694,-2,-2,-2,-4,-8,-4,-2,-3,3.47
695,1,1,0,7,-6,2,2,-1,3.475
696,-1,-1,2,-2,-3,-1,-1,-3,3.48
697,0,0,-3,-6,8,0,-1,-1,3.485
698,0,-2,-7,-6,-27,-9,-3,-2,3.49
699,1,0,3,14,5,2,2,0,3.495
700,-1,-2,-3,-17,4,0,-1,-3,3.5
701,0,0,4,25,1,-1,0,-1,3.505
702,2,-1,2,11,9,3,0,-1,3.5100000000000002
703,-1,-1,1,-3,-8,-4,-2,-1,3.515
704,-1,-3,-1,-2,2,0,-1,0,3.52
705,-1,0,-1,-9,-6,-4,-3,-1,3.525
706,-1,0,-4,-9,9,4,0,-1,3.5300000000000002
707,-2,0,3,5,4,0,-1,-2,3.535
708,1,-1,-1,4,-5,-1,-1,1,3.54
709,0,1,-1,-12,7,2,0,0,3.545
710,-2,-3,0,10,5,0,0,0,3.5500000000000003
711,-1,-1,-1,-4,0,-1,0,1,3.555
712,-3,-2,-6,-13,-7,-4,-1,-2,3.56
713,-2,-4,-1,19,-11,-4,0,0,3.565
714,-1,1,2,-2,15,3,-1,-1,3.5700000000000003
715,0,-2,-3,-5,-2,1,-1,-1,3.575
716,-2,-1,-6,-7,-3,-1,0,1,3.58
717,0,-2,3,6,-6,-4,-3,-3,3.585
718,1,0,0,1,12,5,2,-1,3.59
719,-3,-2,-3,-6,-7,-5,-2,-2,3.595
720,0,0,0,4,3,1,2,-1,3.6
721,-2,-2,-5,-11,5,2,-2,-1,3.605
722,-1,-2,-4,-19,-13,-8,-3,0,3.61
723,1,1,10,22,-7,0,-1,-1,3.615
724,-1,-5,-10,-23,-4,0,1,-1,3.62
725,-1,-2,3,21,3,0,0,-1,3.625
726,-1,-2,-2,1,-6,-3,-1,0,3.63
727,0,0,-2,-7,7,1,-2,-1,3.6350000000000002
728,-1,0,-2,-1,-5,-2,-2,-1,3.64
729,-1,-1,-2,-12,-17,-5,-3,-1,3.645
730,1,0,1,6,34,11,2,1,3.65
731,-1,-2,-1,-4,-6,-3,1,0,3.6550000000000002
732,-1,-2,2,11,1,0,-1,0,3.66
733,-1,0,-2,-13,5,1,-1,-1,3.665
734,0,0,0,4,-11,-5,-1,-1,3.67
735,-1,-1,-3,-8,3,-1,-2,-1,3.6750000000000003
736,0,0,7,14,1,0,-1,-1,3.68
737,0,1,-3,-18,1,0,0,0,3.685
738,-1,-2,-1,14,-9,-4,-2,-2,3.69
739,-2,-2,-1,5,1,3,2,-1,3.6950000000000003
740,0,-1,-3,3,-7,-3,-1,0,3.7
741,-1,0,-1,4,5,1,-1,0,3.705
742,-3,0,0,-8,-8,-2,-1,1,3.71
743,-1,-1,-3,-9,1,0,0,-1,3.715
744,0,-1,0,4,0,1,0,0,3.72
745,-1,-1,0,-3,8,2,0,0,3.725
746,-1,-2,-4,-11,-14,-5,-2,-1,3.73
747,1,-1,-2,0,-4,0,-1,0,3.735
748,0,0,4,7,5,2,0,-2,3.74
749,0,2,1,3,3,0,-1,0,3.745
750,0,0,-4,-18,-3,-4,-3,-1,3.75
751,-1,-2,0,4,-3,-3,0,0,3.755
752,-1,-2,-4,-5,-3,0,0,-1,3.7600000000000002
753,-1,0,3,11,3,0,0,-2,3.765
754,-1,-1,0,-6,-1,0,-1,-1,3.77
755,0,0,0,1,0,0,-1,-2,3.775
756,-2,-2,-2,-9,-3,-1,0,-2,3.7800000000000002
757,-2,-3,-2,8,5,0,-1,-1,3.785
758,-1,-1,-1,2,1,3,2,-1,3.79
759,-1,-3,-2,-1,-1,-2,-1,0,3.795
760,-2,-2,-3,-7,-5,-2,-1,0,3.8000000000000003
761,-2,0,-4,-17,-11,-5,-2,-3,3.805
762,0,2,2,4,18,7,4,1,3.81
763,-1,-2,1,11,-12,-6,-4,-2,3.815
764,0,1,1,-2,2,1,-1,0,3.8200000000000003
765,-1,-5,-6,-9,2,0,-2,-1,3.825
766,1,1,2,11,-4,-2,1,0,3.83
767,0,-2,-4,-14,-9,-3,0,0,3.835
768,-2,1,5,9,-2,0,-2,0,3.84
769,1,0,2,3,3,0,-1,-1,3.845
770,-2,-4,-2,-8,-18,-7,-3,-1,3.85
771,-1,1,-4,4,20,7,3,1,3.855
772,0,-1,-2,1,1,-3,1,-2,3.86
773,0,0,-1,-11,0,2,0,0,3.865
774,-1,-3,-1,21,1,0,-2,-1,3.87
775,-1,-2,3,1,1,-2,-2,-2,3.875
776,-2,-3,-4,-10,2,0,-1,0,3.88
777,-1,0,-2,-1,-2,-2,1,0,3.8850000000000002
778,-1,2,4,-5,0,0,-1,0,3.89
779,0,-2,-6,-5,-4,-2,-2,0,3.895
780,1,1,-3,-10,-1,2,0,-1,3.9
781,-1,0,4,28,1,-2,-1,0,3.9050000000000002
782,-2,0,-4,-9,-8,-3,-2,-1,3.91
783,0,-1,-1,-4,4,1,1,0,3.915
784,0,-1,2,-2,5,-3,-3,-1,3.92
785,0,-4,-3,-4,-13,-1,1,-1,3.9250000000000003
786,0,-3,-3,-6,5,3,1,-1,3.93
787,-2,0,0,0,-9,-6,-2,-2,3.935
788,0,0,5,12,11,5,1,-1,3.94
789,0,1,-1,-5,9,-1,1,-1,3.9450000000000003
790,-1,-1,4,3,-9,-3,-1,0,3.95
791,0,-2,-7,-16,7,-1,0,-2,3.955
792,0,-1,0,-1,1,3,2,1,3.96
793,-1,-2,-1,-5,-7,-1,-2,-2,3.9650000000000003
794,-1,-2,0,10,2,1,0,-1,3.97
795,0,-1,-1,-24,3,0,-1,0,3.975
796,-1,0,1,19,3,-2,-1,-1,3.98
797,-2,0,-1,-1,-2,0,-1,0,3.985
798,-1,0,-8,-9,-4,-2,-2,1,3.99
799,-1,2,3,0,-3,-2,-1,-2,3.995
800,-1,-2,-3,1,-2,-4,-1,0,4.0
801,1,-1,0,-6,3,-1,-1,-1,4.005
802,-2,-2,-2,-1,-2,-3,-2,-2,4.01
803,0,0,4,13,4,2,1,0,4.015
804,0,0,-3,-4,-6,-1,0,-2,4.0200000000000005
805,-1,1,-5,-4,1,-1,-1,0,4.025
806,-1,1,-2,-11,1,-1,0,-2,4.03
807,-1,1,3,12,5,1,2,0,4.035
808,-3,-2,-5,-30,-8,-4,-2,-2,4.04
809,-1,-2,1,35,0,-2,-1,-1,4.045
810,-1,-1,-2,2,7,3,2,-1,4.05
811,-1,0,-1,-1,-4,0,0,-1,4.055
812,0,-1,-1,-3,-7,-5,-3,-3,4.0600000000000005
813,0,0,-1,-15,-8,-2,-1,-1,4.065
814,1,2,-4,-8,-5,-1,0,0,4.07
815,-1,1,6,19,7,2,0,1,4.075
816,-2,-1,-6,-16,-3,0,0,0,4.08
817,-1,-2,2,10,2,0,-1,-2,4.085
818,2,0,3,4,-2,-2,0,-2,4.09
819,-1,-1,-2,-12,-9,-4,-1,0,4.095
820,0,1,0,-6,4,4,0,-1,4.1
821,-1,0,3,4,-4,0,2,-1,4.105
822,-1,-3,-4,-6,-1,-3,-3,-1,4.11
823,-1,0,-1,3,3,2,-1,0,4.115
824,1,-1,-3,4,-11,-4,-1,-1,4.12
825,-1,-1,-1,-8,2,1,-1,-2,4.125
826,1,0,-1,-9,0,0,0,0,4.13
827,-1,-2,1,13,-2,0,-1,0,4.135
828,-2,-2,-2,1,-2,-1,0,0,4.14
829,0,-1,-4,-9,1,-2,-1,-1,4.1450000000000005
830,-1,-1,-3,-16,-7,0,2,0,4.15
831,-2,-2,0,1,-8,-2,0,-1,4.155
832,2,0,0,7,14,3,2,1,4.16
833,0,0,0,-4,-5,-3,-1,0,4.165
834,-2,-3,-4,1,3,0,0,-2,4.17
835,0,0,-4,-8,-4,-3,-2,-2,4.175
836,-3,-1,0,-5,-8,-5,-1,1,4.18
837,-2,0,0,4,2,1,1,0,4.1850000000000005
838,-1,1,4,10,12,2,1,0,4.19
839,-1,0,-1,-5,0,0,0,1,4.195
840,-1,-2,-1,10,-3,-3,-4,-4,4.2
841,-1,-2,-5,-22,-3,0,-2,-1,4.205
842,-2,-2,2,16,-8,-4,-2,-1,4.21
843,0,0,0,3,5,2,1,-1,4.215
844,-1,-1,-3,-18,-2,-2,1,-2,4.22
845,0,-1,-2,6,6,-2,-2,-2,4.225
846,-1,-2,-5,5,-31,-8,-1,-2,4.23
847,-2,-2,0,-3,4,2,0,0,4.235
848,-3,0,0,-5,-5,-1,-1,-2,4.24
849,1,0,-1,11,-2,1,1,0,4.245
850,-1,-2,-3,-9,-10,-6,-4,-1,4.25
851,1,-2,0,4,15,2,0,0,4.255
852,2,0,2,10,-1,2,0,1,4.26
853,-4,-4,-3,-13,-8,-6,-1,-2,4.265
854,0,1,2,0,10,3,-1,-1,4.2700000000000005
855,-1,0,-7,-13,-10,-4,-2,-1,4.275
856,-2,-1,5,15,2,-1,-1,-1,4.28
857,1,1,-4,-23,3,1,0,1,4.285
858,-1,-1,6,20,9,2,-1,0,4.29
859,-1,-1,-6,-7,-6,1,1,0,4.295
860,-1,-2,-1,7,-2,-1,-2,0,4.3
861,-2,3,0,-6,-4,0,-2,-1,4.305
862,-1,-1,-1,-9,3,2,2,-1,4.3100000000000005
863,-2,-4,-3,1,5,-2,-1,-2,4.315
864,-1,-1,-6,-18,-15,-2,0,-1,4.32
865,-2,-3,6,35,-4,0,-2,-2,4.325
866,-1,1,-1,0,31,8,1,0,4.33
867,0,1,5,9,-4,-3,-1,-1,4.335
868,0,-2,-4,-7,-21,-7,-1,-1,4.34
869,0,-1,-3,-6,4,-1,0,0,4.345
870,1,0,2,5,1,2,0,0,4.3500000000000005
871,1,-1,-7,-12,-4,-1,1,-2,4.355
872,-1,0,-1,1,3,0,0,-1,4.36
873,-2,-1,-5,-11,-7,-4,-2,-2,4.365
874,-2,0,0,-6,-6,-3,-1,0,4.37
875,-2,-1,1,0,-3,-1,1,0,4.375
876,-2,0,3,2,3,-1,0,0,4.38
877,0,2,0,-5,1,-1,-2,0,4.385
878,-1,-7,-7,1,3,1,-1,-2,4.39
879,0,-1,-2,-24,-5,-1,-1,-1,4.3950000000000005
880,-2,-3,7,41,5,-3,-3,-2,4.4
881,1,-1,-4,-8,4,3,0,0,4.405
882,0,0,-1,-3,-6,-3,-2,0,4.41
883,0,1,1,0,-3,-2,-2,0,4.415
884,-1,-2,-4,-10,3,0,-2,-1,4.42
885,-1,0,1,1,-5,-1,0,-1,4.425
886,-1,0,1,1,0,1,0,-2,4.43
887,1,-1,0,11,13,3,2,2,4.4350000000000005
888,1,0,0,-5,-2,1,-1,-2,4.44
889,-1,0,3,12,0,0,1,0,4.445
890,1,0,-1,0,9,-2,-1,0,4.45
891,-2,1,-4,-19,-6,-1,-2,0,4.455
892,-2,-1,4,20,5,-1,-1,-1,4.46
893,-1,-3,0,-5,-6,-3,-1,-1,4.465
894,-1,0,-2,-10,-12,-1,0,0,4.47
895,-1,0,-3,-4,-1,-2,-1,-1,4.4750000000000005
896,-1,0,1,13,5,-1,-2,-1,4.48
897,-2,-1,1,8,3,-1,-2,-3,4.485
898,0,-1,-5,-25,-8,0,-2,-2,4.49
899,1,0,6,34,2,5,1,0,4.495
900,-1,0,-11,-33,-4,-1,-1,-1,4.5
901,0,-2,3,13,5,-2,-1,0,4.505
902,-1,0,-2,1,-1,-2,-1,1,4.51
903,0,-1,-1,3,-23,-6,-3,-1,4.515
904,2,-1,-3,4,6,1,1,0,4.5200000000000005
905,-2,0,-2,-26,0,1,-1,-1,4.525
906,0,-1,2,17,6,1,1,1,4.53
907,-1,-2,1,1,-5,-3,-3,-1,4.535
908,1,4,6,-3,-1,-3,1,-1,4.54
909,-1,-7,-9,-9,-10,-2,0,-1,4.545
910,-2,-2,-4,-1,-1,-2,-1,-1,4.55
911,1,-1,0,-4,4,1,-1,0,4.555
912,-2,-3,-5,-4,-2,0,0,-2,4.5600000000000005
913,1,1,1,1,-4,-1,-1,0,4.565
914,0,0,2,1,9,1,-1,0,4.57
915,0,0,2,11,2,0,-1,-2,4.575
916,-1,-1,-5,-23,0,-1,0,0,4.58
917,-2,-2,4,26,-3,-2,-1,-3,4.585
918,0,-1,-1,-19,-7,-1,0,2,4.59
919,-3,-2,3,12,4,0,-1,-2,4.595
920,-1,-2,-1,-13,7,-3,-1,0,4.6000000000000005
921,-1,1,2,12,-7,-1,0,1,4.605
922,0,1,0,-2,2,2,-1,-1,4.61
923,-3,-2,-4,-8,-4,-5,-2,-2,4.615
924,-1,-1,1,-4,-11,-1,1,2,4.62
925,0,-2,0,-4,4,2,-3,-1,4.625
926,0,0,0,3,-3,-1,0,0,4.63
927,1,-3,-8,-16,-9,-4,-3,0,4.635
928,-1,-2,0,5,7,1,-1,-3,4.64
929,0,0,1,23,0,1,0,0,4.6450000000000005
930,-2,-1,2,3,-17,-5,0,-1,4.65
931,-2,-1,-3,-8,20,5,2,-2,4.655
932,0,-1,-1,1,-10,-4,-1,0,4.66
933,-1,-2,1,3,17,3,0,-1,4.665
934,-1,0,0,3,0,-3,-1,-1,4.67
935,-1,2,1,-9,-10,-3,-1,-1,4.675
936,0,-6,-4,12,0,0,0,0,4.68
937,-1,1,-2,-14,-3,-3,0,0,4.6850000000000005
938,-1,-2,0,-5,-4,-2,-2,-2,4.69
939,1,-2,-2,2,-7,-2,2,1,4.695
940,-1,0,3,-15,2,1,0,-1,4.7
941,-1,-1,-4,10,1,-2,-2,-1,4.705
942,-1,-1,-1,3,0,-1,1,-1,4.71
943,0,1,0,-7,-10,-3,-1,0,4.715
944,-1,-1,-1,2,1,-2,-4,0,4.72
945,0,0,-4,-25,3,2,1,1,4.7250000000000005
946,-1,1,5,33,14,4,-2,-2,4.73
947,-1,-1,-2,-1,-9,-3,-1,1,4.735
948,-1,0,2,7,7,-2,0,-1,4.74
949,2,0,-4,-21,-5,-3,-1,-1,4.745
950,-2,-1,-6,-21,-10,-5,1,1,4.75
951,-1,-1,3,12,9,2,0,-1,4.755
952,-2,-1,-3,-6,-18,-5,-3,-2,4.76
953,0,2,4,10,16,5,2,0,4.765
954,1,-2,-3,-25,-1,1,-1,1,4.7700000000000005
955,1,-2,-2,8,3,-1,-2,-1,4.775
956,-1,0,0,-5,-2,0,0,0,4.78
957,-1,0,-3,-5,-6,-4,-4,-2,4.785
958,-1,1,-1,-6,-2,-1,-1,-1,4.79
959,-1,0,7,11,5,0,1,-1,4.795
960,-1,-2,-6,1,-3,-1,-2,1,4.8
961,0,-1,-1,-3,-1,-2,-1,-2,4.805
962,1,1,2,9,6,0,-1,1,4.8100000000000005
963,-1,0,-4,-14,-3,-1,0,2,4.815
964,0,-1,1,12,3,1,2,-2,4.82
965,0,-2,-2,-7,5,1,1,0,4.825
966,-1,0,3,20,-7,-3,-1,0,4.83
967,-2,-3,-9,-13,12,1,-1,-1,4.835
968,0,1,0,-13,-7,-1,-1,1,4.84
969,-3,-3,-6,17,-11,-3,-2,-2,4.845
970,-2,0,-3,-11,5,1,0,-1,4.8500000000000005
971,0,1,7,24,2,1,0,0,4.855
972,-2,1,-2,-14,-14,-3,-2,-1,4.86
973,2,-1,3,15,17,2,0,0,4.865
974,-1,0,-2,-14,-11,-3,0,-2,4.87
975,-1,1,4,22,0,-1,0,1,4.875
976,-1,1,1,6,4,1,-1,-2,4.88
977,-2,-4,-5,-20,-11,-3,-1,-1,4.885
978,-1,-1,0,16,-3,-3,-1,0,4.89
979,0,-2,1,-13,6,3,0,-1,4.8950000000000005
980,-1,0,-2,5,2,1,0,-1,4.9
981,-1,2,1,-9,-4,-2,0,0,4.905
982,-1,-3,-5,0,-1,-2,0,1,4.91
983,0,0,1,-2,-9,-3,0,-1,4.915
984,1,-3,-1,7,5,-2,0,-1,4.92
985,-2,1,-4,-26,-9,-1,0,0,4.925
986,-1,-3,7,39,6,1,-2,-1,4.93
987,1,0,-5,-12,-15,-5,-2,-1,4.9350000000000005
988,0,-3,-5,-11,17,3,-1,0,4.94
989,-2,-1,-1,-18,-16,-5,-1,-2,4.945
990,0,0,5,22,22,3,0,-1,4.95
991,-2,-3,-1,-3,4,0,-2,-1,4.955
992,-1,0,-5,5,-13,-3,-2,-2,4.96
993,1,-2,1,-1,1,-2,-1,-1,4.965
994,-1,-3,-7,-18,-7,-3,-2,-3,4.97
995,-3,-1,-5,-4,-4,-2,0,-1,4.9750000000000005
996,-2,-1,-2,-19,0,-1,0,-3,4.98
997,-2,-2,8,47,6,3,1,-1,4.985
998,0,0,-2,-7,-7,-2,-1,0,4.99
999,1,-4,-4,-6,2,1,2,-1,4.995
1000,0,1,0,-3,-4,-1,-1,0,5.0
1001,-1,-4,0,10,-1,-2,-2,-2,5.005
1002,0,0,-2,-8,-4,0,-2,-1,5.01
1003,-3,1,0,-6,1,1,0,-2,5.015
1004,-3,-2,2,7,2,-1,-1,-1,5.0200000000000005
1005,0,1,-3,-8,0,-1,0,-1,5.025
1006,-1,-3,-3,-9,1,0,0,-1,5.03
1007,0,1,3,-2,0,-3,-3,-1,5.035
1008,-1,-1,-1,4,-2,2,1,0,5.04
1009,-1,2,-5,-24,-14,-2,-1,1,5.045
1010,0,1,5,12,19,2,1,0,5.05
1011,-2,0,-2,4,-15,-4,-3,-2,5.055
1012,-1,-2,-1,8,3,1,-1,0,5.0600000000000005
1013,-2,-2,-3,-22,-8,-2,-2,0,5.065
1014,0,-2,3,17,9,2,2,-1,5.07
1015,0,2,2,-10,-23,-11,-5,-3,5.075
1016,-1,-6,-4,10,26,14,1,2,5.08
1017,0,-1,-4,-5,1,-1,-1,-2,5.085
1018,-1,0,2,4,-10,-3,-2,-2,5.09
1019,-1,-2,-1,-1,2,-1,0,0,5.095
1020,-3,2,2,0,-8,-5,-1,0,5.1000000000000005
1021,-2,-1,0,5,3,-2,-3,0,5.105
1022,0,-1,-6,-6,-5,-1,1,-2,5.11
1023,-1,-1,1,3,7,3,1,-1,5.115
1024,0,0,-3,-9,-8,-4,-2,-1,5.12
1025,-1,-2,1,11,7,2,1,-1,5.125
1026,4,1,0,-13,-6,-2,-1,0,5.13
1027,0,-1,0,8,7,4,0,1,5.135
1028,0,-1,-2,-4,-4,-3,-2,-2,5.14
1029,-2,-1,-1,-1,0,-1,0,-1,5.1450000000000005
1030,-3,1,0,-8,-10,-5,-3,-2,5.15
1031,2,-2,-1,0,19,9,5,1,5.155
1032,-1,-1,2,2,-3,-3,-2,-3,5.16
1033,1,1,-3,-20,4,0,0,0,5.165
1034,-2,-2,0,14,-7,1,-1,0,5.17
1035,0,0,-4,-4,3,-2,-1,-3,5.175
1036,-2,2,1,2,-20,-7,-2,0,5.18
1037,-1,-3,1,6,20,5,-1,-1,5.1850000000000005
1038,1,1,1,-10,3,-2,0,0,5.19
1039,-2,0,-4,-5,0,1,0,-1,5.195
1040,-1,-2,-1,-7,0,-2,0,-2,5.2
1041,0,3,6,13,-10,-3,-1,0,5.205
1042,-3,-8,-13,-15,-4,-3,-1,-2,5.21
1043,-1,0,3,6,-6,-2,-3,-1,5.215
1044,0,-2,0,11,6,1,-2,0,5.22
1045,0,0,1,3,0,0,0,-1,5.2250000000000005
1046,-1,2,2,-9,-3,-1,-1,0,5.23
1047,-2,-2,-7,2,-8,-7,-3,-1,5.235
1048,-1,-2,1,1,2,2,0,-1,5.24
1049,-1,-2,-8,-13,-5,-2,-1,-2,5.245
1050,0,-1,2,8,-4,0,1,0,5.25
1051,-1,-2,-1,-3,-14,-3,-2,1,5.255
1052,0,1,2,7,13,3,-2,2,5.26
1053,-1,2,1,4,1,1,-2,0,5.265
1054,-2,1,-4,-22,-5,-2,-2,-1,5.2700000000000005
1055,-1,-3,-3,-6,2,1,1,-1,5.275
1056,-2,-2,-4,-27,-7,-4,-1,-2,5.28
1057,-2,-2,7,47,4,3,0,-1,5.285
1058,1,1,-2,-19,-7,-2,-3,-1,5.29
1059,0,-1,6,23,16,7,0,0,5.295
1060,-1,-1,-3,-1,-7,-2,-2,-1,5.3
1061,1,0,-5,-15,-5,-2,1,0,5.305
1062,-1,0,3,7,-2,-2,0,0,5.3100000000000005
1063,-1,-1,1,5,7,0,-1,-1,5.315
1064,0,-1,-9,-20,-7,-4,-1,-1,5.32
1065,0,-2,-4,6,-2,-3,-1,-1,5.325
1066,1,-2,-1,3,0,0,0,0,5.33
1067,0,2,1,-10,6,1,0,-2,5.335
1068,-3,-4,-2,9,-2,0,-2,-1,5.34
1069,-1,-1,0,-11,-14,-5,-1,-1,5.345
1070,0,1,-4,-14,12,4,0,-1,5.3500000000000005
1071,-2,-2,2,21,2,-2,0,-2,5.355
1072,0,2,5,6,0,-1,0,-2,5.36
1073,0,0,-4,-4,-5,-1,-1,-2,5.365
1074,0,0,0,-4,1,0,0,-1,5.37
1075,-1,2,0,-12,-4,-1,-2,-1,5.375
1076,-1,-6,-4,14,-6,-3,-1,-1,5.38
1077,0,-1,1,-6,7,4,-2,-1,5.385
1078,1,2,3,16,1,-4,-3,-1,5.39
1079,2,1,-2,-10,3,1,0,0,5.3950000000000005
1080,-1,1,-3,-1,1,-2,0,-1,5.4
1081,-1,-1,-1,-11,6,-1,0,-1,5.405
1082,-4,-4,1,14,-8,-2,-2,-2,5.41
1083,0,-3,-6,-19,-27,-7,-1,1,5.415
1084,-1,0,3,12,7,0,0,-1,5.42
1085,-1,2,1,0,-6,-3,0,1,5.425
1086,0,2,-2,-5,6,1,1,0,5.43
1087,-2,-2,-4,-10,-2,-3,-2,-1,5.4350000000000005
1088,0,0,0,-1,0,0,-1,0,5.44
1089,-1,-1,-3,-3,-8,-3,-1,-1,5.445
1090,-2,0,5,18,17,4,-1,0,5.45
1091,-1,-3,-2,-1,-3,-1,-1,-1,5.455
1092,-1,-1,-1,-4,2,2,-2,-2,5.46
1093,-2,0,2,1,1,0,0,-1,5.465
1094,-1,-2,-8,-8,-7,-1,1,1,5.47
1095,-1,1,6,12,3,-1,-1,-2,5.4750000000000005
1096,1,1,-1,-2,-1,0,-1,-1,5.48
1097,0,-1,4,3,0,-1,-1,0,5.485
1098,0,-3,-6,-11,-7,-1,0,0,5.49
1099,0,-1,-4,-14,0,-3,-1,-1,5.495
1100,1,0,7,13,9,2,0,0,5.5
1101,-3,-8,-12,-6,-9,1,1,0,5.505
1102,-1,1,3,-10,-1,-2,0,-2,5.51
1103,-2,-4,-1,15,5,-4,-1,-2,5.515
1104,-2,0,-9,-26,-9,1,1,-1,5.5200000000000005
1105,-1,1,21,58,15,0,-2,-2,5.525
1106,0,-2,-7,-18,-3,2,0,-1,5.53
1107,0,-1,-3,-3,-2,1,0,-2,5.535
1108,0,-2,-4,-14,-16,-6,-1,-4,5.54
1109,0,0,-4,-15,11,2,1,1,5.545
1110,0,-1,0,5,2,-1,-1,0,5.55
1111,-1,2,5,0,2,0,-2,0,5.555
1112,-2,-4,-6,1,-7,-3,-1,0,5.5600000000000005
1113,-1,1,-1,-12,-2,-2,-2,0,5.565
1114,-2,-2,2,6,-2,-2,-1,0,5.57
1115,-1,-2,1,-7,-3,1,0,1,5.575
1116,0,2,8,11,1,-1,1,-1,5.58
1117,1,-4,-15,-36,-6,-3,0,-1,5.585
1118,-3,-1,6,49,6,1,-1,-3,5.59
1119,-1,-1,-3,-5,-4,-2,-3,-2,5.595
1120,-1,5,5,-6,6,0,0,0,5.6000000000000005
1121,0,-1,-4,3,3,3,0,-1,5.605
1122,-1,-1,-4,-17,0,0,0,0,5.61
1123,-2,-1,-2,-3,-7,-5,-2,-2,5.615
1124,0,-3,-5,-3,-2,-2,-3,0,5.62
1125,0,2,5,7,-4,-2,-2,0,5.625
1126,-1,-6,0,7,2,3,0,-1,5.63
1127,-1,-1,-7,-18,-6,0,1,-1,5.635
1128,-1,0,2,3,3,-4,-2,0,5.64
1129,-1,1,2,0,-4,2,0,-1,5.6450000000000005
1130,-1,-2,-3,-9,-20,-4,-1,-1,5.65
1131,0,-1,0,-6,18,4,1,0,5.655
1132,-1,-1,-4,0,6,1,0,-1,5.66
1133,-1,0,2,2,-8,-6,-3,-2,5.665
1134,0,3,2,-1,1,1,-1,-1,5.67
1135,-1,-2,-3,6,0,2,1,-1,5.675
1136,-2,-2,-3,-9,-12,-3,-1,0,5.68
1137,0,0,2,7,2,0,1,1,5.6850000000000005
1138,-1,1,-6,-16,-2,-2,-1,0,5.69
1139,-1,2,4,0,-5,-2,-3,-2,5.695
1140,0,0,1,15,8,3,1,-3,5.7
1141,2,-2,-4,-30,-3,0,-1,1,5.705
1142,-3,-1,5,20,4,-2,-1,-1,5.71
1143,-2,-4,-1,16,-16,-4,-2,0,5.715
1144,-1,-2,-3,-3,-3,1,2,1,5.72
1145,-2,1,-1,0,4,-1,-1,-1,5.7250000000000005
1146,1,-2,-5,-36,-3,0,-2,-1,5.73
1147,-1,1,7,37,-4,0,-1,-2,5.735
1148,-2,-5,-4,3,5,-2,-2,-1,5.74
1149,-2,-2,-1,22,-12,-2,0,0,5.745
1150,-1,-2,0,-1,-2,-1,-2,0,5.75
1151,-3,0,2,-6,3,-1,0,0,5.755
1152,-1,-2,-3,-4,-5,0,-1,-1,5.76
1153,-2,0,-1,-10,-2,-3,0,-2,5.765
1154,0,-1,1,3,2,-3,0,-1,5.7700000000000005
1155,-2,-3,-6,-9,0,0,1,0,5.775
1156,-1,1,2,-20,-4,-3,-3,-1,5.78
1157,-2,-6,-5,9,6,2,-2,0,5.785
1158,1,3,-2,-13,-2,-1,-2,-1,5.79
1159,0,-2,0,10,4,-1,-3,-2,5.795
1160,1,1,4,7,8,-1,-2,-1,5.8
1161,-1,0,-2,-16,-7,-1,0,-2,5.805
1162,0,-3,-3,7,4,0,0,-1,5.8100000000000005
1163,0,-2,0,-7,-3,-3,-2,-1,5.815
1164,-3,1,-1,4,-18,-5,-3,0,5.82
1165,-2,-1,-2,-12,8,0,-1,0,5.825
1166,-2,-1,-3,8,17,0,-1,0,5.83
1167,0,0,-2,-12,-9,0,1,0,5.835
1168,0,-2,2,8,4,0,0,-2,5.84
1169,0,-2,2,8,-1,0,-1,0,5.845
1170,-1,1,-5,-33,-11,-6,-1,-1,5.8500000000000005
1171,-2,-2,3,26,4,-2,-2,-1,5.855
1172,-1,-2,-2,-1,3,5,1,0,5.86
1173,-1,0,1,5,5,-2,0,-1,5.865
1174,-2,0,-2,-4,-9,-3,2,0,5.87
1175,-3,-2,-9,-33,-3,-1,0,-1,5.875
1176,1,-3,-2,2,0,1,0,-1,5.88
1177,3,2,8,26,2,-7,-5,-2,5.885
1178,0,-5,-1,13,6,5,1,-1,5.89
1179,-1,1,-5,-10,4,1,2,0,5.8950000000000005
1180,-2,3,1,-3,2,1,0,1,5.9
1181,-3,-9,-13,-11,-9,-2,-1,0,5.905
1182,1,2,6,-1,-2,-2,-3,0,5.91
1183,-2,-3,2,35,6,-3,-3,-3,5.915
1184,-2,2,-5,-6,-12,1,-1,-1,5.92
1185,-1,1,-4,-19,4,1,0,-1,5.925
1186,-2,-1,7,19,-6,1,-1,-2,5.93
1187,1,-3,-6,-26,-5,-2,-1,-2,5.9350000000000005
1188,0,-2,-2,-4,-5,-4,-2,-2,5.94
1189,-2,-1,7,28,1,-2,-1,-1,5.945
1190,-2,-1,-2,-6,4,-1,1,0,5.95
1191,1,3,1,-1,-3,1,0,0,5.955
1192,-1,-2,-2,-10,-3,-1,0,-2,5.96
1193,-1,-2,-4,-13,5,1,0,-3,5.965
1194,0,-2,-4,4,0,-1,0,0,5.97
1195,-2,-1,-2,-17,-6,-1,-1,0,5.9750000000000005
1196,-2,0,3,27,9,1,0,0,5.98
1197,1,0,0,6,0,0,0,0,5.985
1198,-2,0,-3,-8,-13,-4,-1,-1,5.99
1199,0,0,7,17,18,4,0,0,5.995
1200,-1,2,3,-4,-7,-4,-2,0,6.0
1201,-1,-4,-8,-15,10,2,0,-1,6.005
1202,-1,1,5,15,-7,0,-2,-1,6.01
1203,0,2,-3,-15,-17,-6,-2,1,6.015000000000001
1204,-1,-1,-2,-18,10,3,1,1,6.0200000000000005
1205,-1,2,1,4,-5,1,-2,-2,6.025
1206,0,1,5,6,3,0,-2,0,6.03
1207,0,-2,-5,-4,-3,0,-1,-2,6.035
1208,-2,-3,-2,3,-7,-2,0,-3,6.04
1209,0,2,-5,-23,-7,-1,1,-1,6.045
1210,-1,-1,-1,-5,1,-2,0,0,6.05
1211,1,-1,0,1,0,-1,1,-2,6.055
1212,-1,-4,-4,-5,1,-3,-1,-1,6.0600000000000005
1213,0,0,-3,-1,3,4,-1,1,6.065
1214,0,0,0,6,9,1,-2,-1,6.07
1215,-1,-2,5,13,3,0,-1,0,6.075
1216,0,-1,-2,-15,0,-1,-2,-1,6.08
1217,-2,-1,5,21,-5,-1,-1,-1,6.085
1218,0,-2,-5,-16,-17,-6,-2,-1,6.09
1219,-1,0,1,19,26,7,0,0,6.095
1220,0,1,3,4,-4,-1,0,-1,6.1000000000000005
1221,-2,-5,-9,-18,-6,-3,-1,-1,6.105
1222,-1,-1,-4,-1,-9,-1,-1,0,6.11
1223,0,-2,-2,-9,-1,0,-2,0,6.115
1224,-1,1,0,0,4,-2,0,-2,6.12
1225,-1,-2,3,13,-1,-3,-2,0,6.125
1226,-1,-1,-5,-16,5,2,1,-1,6.13
1227,-2,1,-1,-2,-5,-4,-2,-3,6.135
1228,-3,-3,-3,5,-3,2,-1,1,6.140000000000001
1229,1,3,4,14,2,-2,1,1,6.1450000000000005
1230,-1,-1,-2,0,-8,-2,-2,-2,6.15
1231,-1,-1,-4,-10,-6,-1,-2,-2,6.155
1232,1,-1,1,9,12,0,0,-1,6.16
1233,-1,1,-3,-10,-8,-2,0,-1,6.165
1234,0,-2,-4,-13,-7,-2,-1,1,6.17
1235,0,-3,0,-3,-7,-3,0,0,6.175
1236,1,-2,7,44,20,6,0,2,6.18
1237,-2,0,2,-9,4,1,0,-1,6.1850000000000005
1238,-1,1,1,5,8,1,0,-2,6.19
1239,-2,-3,-6,-18,-8,-1,0,-1,6.195
1240,-1,0,-4,-38,-12,-4,-1,-1,6.2
1241,0,-1,5,20,1,-1,0,0,6.205
1242,0,0,0,-1,2,2,1,-1,6.21
1243,-2,1,4,10,-8,-1,1,-2,6.215
1244,-1,-5,-9,-16,-6,-5,-2,-2,6.22
1245,1,0,-1,-3,1,2,1,-1,6.2250000000000005
1246,1,0,-2,-6,-3,-2,0,-2,6.23
1247,-1,0,-2,-7,-5,-4,-1,0,6.235
1248,0,-1,-1,6,3,0,0,0,6.24
1249,-1,0,3,3,-4,-2,-1,-1,6.245
1250,-1,-2,-3,1,5,-2,0,1,6.25
1251,1,-1,-1,4,0,-1,-3,-1,6.255
1252,0,0,3,24,-16,-2,-2,-1,6.26
1253,-1,0,-1,-1,3,-5,-1,-1,6.265000000000001
1254,-1,-1,0,1,10,5,1,1,6.2700000000000005
1255,-1,1,-1,0,2,-1,-2,-2,6.275
1256,-3,-3,-6,-12,-8,-2,-2,-1,6.28
1257,-2,0,-1,-16,-10,-5,-2,-1,6.285
1258,0,0,4,14,-9,-3,-3,-1,6.29
1259,-1,-2,-5,-12,-2,-3,-1,-3,6.295
1260,0,4,8,12,1,0,-2,-2,6.3
1261,0,-2,-10,-7,-7,-2,-1,-1,6.305
1262,-3,-1,0,-3,1,-1,-1,0,6.3100000000000005
1263,-1,-2,-1,-2,0,0,0,2,6.315
1264,0,0,3,8,4,-3,-1,-2,6.32
1265,0,1,3,5,-5,1,1,-1,6.325
1266,0,0,-4,-10,-3,-2,-1,-2,6.33
1267,0,0,6,19,2,0,-2,-1,6.335
1268,-1,-3,-7,-17,2,2,1,-1,6.34
1269,-1,1,3,-2,1,0,-1,0,6.345
1270,-2,-4,-2,13,2,0,1,-2,6.3500000000000005
1271,-1,-1,-6,-12,-7,-5,-1,0,6.355
1272,0,-1,-3,-9,-3,-2,-1,0,6.36
1273,1,-1,-2,-5,-5,2,1,-2,6.365
1274,-1,0,-1,8,-5,-5,-2,-3,6.37
1275,2,-1,2,11,17,8,1,0,6.375
1276,-1,-1,-4,-1,-16,-2,-1,-1,6.38
1277,0,-2,-4,-9,1,1,0,1,6.385
1278,-1,-1,0,-4,3,-3,-1,0,6.390000000000001
1279,-4,0,4,2,-2,-1,-2,0,6.3950000000000005
1280,-2,-2,-2,2,4,-4,-2,-1,6.4
1281,-1,0,-2,-16,-12,1,1,0,6.405
1282,-1,-2,4,23,3,-2,-1,1,6.41
1283,-1,1,-6,-12,-2,2,1,-1,6.415
1284,-2,-1,0,-5,0,3,1,1,6.42
1285,-2,-1,3,11,2,-1,-3,-1,6.425
1286,1,-1,-9,-27,-1,-1,-1,-1,6.43
1287,-1,-1,2,11,9,1,0,-2,6.4350000000000005
1288,0,1,3,5,1,0,0,0,6.44
1289,0,-2,-2,-2,5,1,0,1,6.445
1290,-3,-3,0,15,-6,-2,-3,-4,6.45
1291,-1,1,0,-11,-15,-1,-1,-1,6.455
1292,-1,-1,-2,-8,0,-2,-1,-2,6.46
1293,-1,-1,-2,4,3,-1,0,-1,6.465
1294,-1,-1,-1,-8,-16,-3,0,0,6.47
1295,-1,-1,-2,-2,17,2,0,-2,6.4750000000000005
1296,-1,-1,0,3,0,-1,0,-1,6.48
1297,0,-1,-7,-39,-12,-6,-3,0,6.485
1298,0,2,12,40,10,5,0,0,6.49
1299,-1,-2,-5,-16,-11,-5,-2,0,6.495
1300,-1,0,3,11,3,1,-1,-1,6.5
1301,0,0,-2,-2,5,1,-2,-1,6.505
1302,0,0,4,5,-6,-1,0,0,6.51
1303,-2,-6,-8,-4,-8,-5,-1,-2,6.515000000000001
1304,1,2,-2,-14,1,0,-2,1,6.5200000000000005
1305,-2,-3,-4,3,-2,-3,-2,0,6.525
1306,-1,1,-2,-7,7,1,-1,1,6.53
1307,-2,1,2,4,0,-2,0,-1,6.535
1308,-3,-4,-5,-2,-2,-2,1,-1,6.54
1309,0,-1,2,-2,-1,-1,-1,0,6.545
1310,-1,0,-1,-3,2,0,-1,-2,6.55
1311,-2,-2,-5,-8,-5,-1,0,-1,6.555
1312,0,2,-1,-2,1,-1,0,1,6.5600000000000005
1313,-2,-1,-2,-4,-5,-2,0,-1,6.565
1314,-2,-1,0,3,4,-1,-4,0,6.57
1315,0,1,2,0,-1,-1,-1,0,6.575
1316,-2,-2,-1,-1,5,1,-1,-3,6.58
1317,-2,-2,3,20,1,-4,-1,-3,6.585
1318,0,2,-1,-2,-13,0,0,-1,6.59
1319,0,-6,0,17,0,-1,-1,-2,6.595
1320,-1,-3,0,1,6,4,-1,0,6.6000000000000005
1321,-1,1,2,-9,-2,-2,-1,-1,6.605
1322,0,3,-1,-10,-4,-4,-1,0,6.61
1323,-1,-1,-9,-13,0,-2,-2,0,6.615
1324,-1,-2,-1,-1,-19,-5,-1,0,6.62
1325,0,4,3,7,3,1,1,-1,6.625
1326,-2,-7,-5,-13,3,-2,-1,0,6.63
1327,1,-3,-3,-5,-1,1,0,-1,6.635
1328,0,-1,-1,-3,-1,-1,-4,0,6.640000000000001
1329,-1,-1,0,3,1,0,-1,-1,6.6450000000000005
1330,1,0,2,0,4,0,1,-1,6.65
1331,-1,1,1,-1,-4,-2,0,-1,6.655
1332,1,-1,1,3,0,-1,-1,-1,6.66
1333,-1,0,0,0,3,0,-1,0,6.665
1334,-2,-3,-7,-17,-5,-1,0,-1,6.67
1335,-1,0,6,7,11,1,2,-1,6.675
1336,-1,-2,0,23,-1,-2,1,-1,6.68
1337,0,-2,-3,2,-12,0,0,-1,6.6850000000000005
1338,-1,-3,-6,-4,-1,-2,0,2,6.69
1339,-2,2,4,-17,-10,-5,-3,-1,6.695
1340,-1,-2,-5,-4,14,2,1,1,6.7
1341,0,-2,0,7,8,1,-2,-2,6.705
1342,-3,-5,-6,-6,-5,-1,-3,-2,6.71
1343,0,1,4,17,-13,-4,-3,-2,6.715
1344,-2,-4,-5,-4,8,1,1,0,6.72
1345,0,-2,-9,-1,-5,1,0,0,6.7250000000000005
1346,0,2,-2,-2,9,4,0,0,6.73
1347,0,-1,11,-10,-8,-5,-2,-2,6.735
1348,1,0,-6,-5,-11,-2,0,0,6.74
1349,-3,-2,4,-4,9,2,-2,-1,6.745
1350,1,4,5,4,2,0,-1,-1,6.75
1351,-1,-3,-5,13,6,2,-2,-1,6.755
1352,1,2,0,-12,-9,0,0,-2,6.76
1353,0,-1,2,2,10,2,1,1,6.765000000000001
1354,-1,-2,-3,-6,-10,-4,0,-2,6.7700000000000005
1355,0,0,-4,-4,16,5,-1,1,6.775
1356,-1,1,4,-6,3,-3,-1,-1,6.78
1357,-2,-1,-5,-8,-27,-5,-3,-3,6.785
1358,0,0,1,-4,-1,0,0,-2,6.79
1359,0,-1,-3,12,-3,-2,0,-1,6.795
1360,1,0,-2,-7,-3,0,-2,0,6.8
1361,0,3,8,9,3,-3,-2,-2,6.805
1362,-3,-10,-12,-5,-5,-5,-4,-2,6.8100000000000005
1363,0,0,-3,8,3,6,2,1,6.815
1364,0,0,3,-11,0,-3,-2,-2,6.82
1365,2,0,1,-7,2,-1,2,0,6.825
1366,1,-1,2,4,-3,-2,-1,-2,6.83
1367,-2,-3,-5,-13,-12,-6,-2,-2,6.835
1368,-2,-1,-12,-6,3,2,1,-1,6.84
1369,0,-1,5,3,2,3,1,0,6.845
1370,0,3,3,-1,10,1,2,0,6.8500000000000005
1371,-3,-2,5,3,-5,-5,-2,-1,6.855
1372,1,2,-3,-9,-7,1,3,1,6.86
1373,-5,-6,-16,2,-9,-12,-10,-8,6.865
1374,-1,7,19,6,35,5,4,0,6.87
1375,1,-9,-6,16,1,18,5,3,6.875
1376,4,5,1,9,-1,1,1,4,6.88
1377,-1,0,-5,5,8,-1,-1,1,6.885
1378,3,3,3,-7,2,2,0,2,6.890000000000001
1379,-3,-4,-33,-8,-7,-11,-5,-7,6.8950000000000005
1380,-3,3,31,-15,-26,-14,2,-8,6.9
1381,-2,-7,-9,5,27,23,7,5,6.905
1382,7,4,8,8,25,4,-6,9,6.91
1383,3,-2,-3,-6,-8,0,0,3,6.915
1384,-2,-1,-7,8,-21,-6,-8,-1,6.92
1385,0,1,1,-2,25,3,3,-3,6.925
1386,-6,-10,-14,-18,-19,-6,0,-7,6.93
1387,-1,2,10,-4,8,0,-1,-1,6.9350000000000005
1388,-2,-3,-1,-4,7,2,-2,-4,6.94
1389,-4,0,11,-13,-22,-20,-5,-22,6.945
1390,-15,-19,-24,3,-63,-12,-7,-29,6.95
1391,-21,-13,-46,-19,7,-5,3,26,6.955
1392,7,25,77,4,5,9,15,21,6.96
1393,11,-9,-27,26,-40,-27,-2,-60,6.965
1394,-5,-5,-85,-45,-5,-4,2,86,6.97
1395,-4,-15,22,-19,-33,-25,-36,25,6.9750000000000005
1396,-48,-37,-70,-48,5,-34,-20,-99,6.98
1397,22,60,77,71,101,98,55,127,6.985
1398,96,59,-5,33,18,-3,7,64,6.99
1399,56,-10,40,-42,85,50,4,80,6.995
1400,29,7,-14,46,-32,-19,-19,10,7.0
1401,-19,-26,21,35,-18,-23,-20,-74,7.005
1402,-66,-20,-17,-113,-73,-49,-13,-128,7.01
1403,-35,-6,27,127,76,61,31,-73,7.015000000000001
1404,-11,-7,-69,-75,2,-17,-4,-12,7.0200000000000005
1405,-4,0,-53,62,-68,-20,4,-65,7.025
1406,-41,-35,36,49,-13,18,-12,35,7.03
1407,-8,27,-20,-128,-128,-101,-14,-40,7.035
1408,-33,-41,79,2,-14,15,24,-19,7.04
1409,-12,0,-5,14,78,38,23,23,7.045
1410,42,-31,-2,-89,-44,-39,-15,43,7.05
1411,71,61,68,127,92,73,-6,59,7.055
1412,0,5,-69,-93,-70,-35,-45,-52,7.0600000000000005
1413,0,5,41,-110,-13,0,6,118,7.065
1414,17,-5,55,30,122,34,25,53,7.07
1415,18,19,-16,-53,30,22,4,-3,7.075
1416,-16,-23,1,66,-1,11,-7,-54,7.08
1417,-39,-25,1,-103,-9,-41,-13,-66,7.085
1418,-43,-14,-38,25,21,24,15,-108,7.09
1419,22,19,21,-3,-10,5,-13,49,7.095
1420,-3,-3,12,83,127,53,9,37,7.1000000000000005
1421,28,40,-16,97,-48,-3,5,-78,7.105
1422,15,-50,-13,-32,-31,-13,29,49,7.11
1423,-76,-74,-59,-36,-101,-55,24,16,7.115
1424,4,17,-48,32,7,-10,6,-18,7.12
1425,49,20,-5,-63,45,3,-14,96,7.125
1426,17,12,26,67,35,18,-14,-15,7.13
1427,-17,2,42,-5,17,2,-23,-48,7.135
1428,22,3,-9,-45,27,21,29,37,7.140000000000001
1429,-37,-28,-26,-3,-62,-42,-3,-86,7.1450000000000005
1430,19,48,7,0,49,21,-12,25,7.15
1431,-8,-13,-40,-108,-45,-63,-29,-9,7.155
1432,20,32,53,29,-1,23,8,28,7.16
1433,-39,-5,-32,-104,-71,-32,-28,-96,7.165
1434,-39,-30,-61,26,26,-2,-31,-77,7.17
1435,33,27,43,60,85,63,86,54,7.175
1436,-3,16,2,27,-70,0,-10,-78,7.18
1437,28,14,19,44,-48,-56,-23,127,7.1850000000000005
1438,-13,6,-70,-89,-28,22,9,-52,7.19
1439,-7,1,53,127,100,46,2,-24,7.195
1440,-2,4,-22,-107,-70,-19,49,-24,7.2
1441,-24,-30,-35,-74,38,-42,-62,12,7.205
1442,48,51,127,109,71,70,7,91,7.21
1443,16,-14,-53,-128,-109,-43,-60,-13,7.215
1444,-39,-31,50,111,88,2,-12,-14,7.22
1445,-9,-27,-7,24,51,42,39,-36,7.2250000000000005
1446,-2,6,-56,111,-7,-23,4,-31,7.23
1447,-38,-13,18,-63,-40,-15,0,-80,7.235
1448,-22,-39,-39,-38,24,-25,-17,-11,7.24
1449,26,0,-26,59,-38,33,32,81,7.245
1450,-10,-19,26,-112,-42,-15,21,-17,7.25
1451,-5,19,42,127,-22,-23,-9,-22,7.255
1452,18,8,-85,-80,-9,17,-6,33,7.26
1453,43,33,101,53,99,30,-36,10,7.265000000000001
1454,13,-11,31,44,-126,-25,-5,57,7.2700000000000005
1455,-84,-75,-61,-29,-48,-93,-47,-53,7.275
1456,45,40,41,-9,65,36,42,127,7.28
1457,19,-14,-76,-95,21,20,12,-39,7.285
1458,-33,0,38,65,-78,-60,11,-42,7.29
1459,44,10,-51,-56,121,20,-1,74,7.295
1460,1,-3,7,-35,13,-8,-26,-46,7.3
1461,31,39,41,92,-52,8,26,78,7.305
1462,-41,-40,-3,-7,52,-30,-53,-72,7.3100000000000005
1463,-57,-27,-57,89,-7,9,22,-76,7.315
1464,27,19,17,71,60,21,21,49,7.32
1465,12,32,-5,-116,-115,-33,-16,-31,7.325
1466,-31,-19,-61,-128,5,3,11,-40,7.33
1467,64,81,30,22,72,54,39,34,7.335
1468,-5,-15,48,20,11,-29,-45,-34,7.34
1469,-84,-98,-65,-41,-21,-33,11,-128,7.345
1470,38,68,114,64,20,55,87,125,7.3500000000000005
1471,53,21,-19,-28,61,21,-40,101,7.355
1472,3,-18,-22,-96,-71,-35,-50,-5,7.36
1473,12,8,-13,29,37,21,2,-17,7.365
1474,-24,-14,-34,41,82,-10,-24,-92,7.37
1475,-49,-49,-1,6,-24,4,30,-87,7.375
1476,12,43,46,79,15,9,15,-5,7.38
1477,-37,-26,30,0,-47,-34,-22,-30,7.385
1478,17,1,-70,-20,-70,-14,36,-19,7.390000000000001
1479,78,91,64,28,42,5,-8,93,7.3950000000000005
1480,-43,-58,-34,32,-45,-39,-39,48,7.4
1481,-31,-9,0,-50,52,30,22,-29,7.405
1482,44,33,86,50,35,15,27,99,7.41
1483,-20,-24,-26,-53,-27,-2,-60,-128,7.415
1484,-4,3,-5,-94,-101,-17,20,99,7.42
1485,-1,-14,9,85,78,6,20,75,7.425
1486,26,14,14,-31,26,11,-16,-28,7.43
1487,-40,-24,-15,-89,-74,-63,-6,-14,7.4350000000000005
1488,-4,-3,-31,-10,36,35,27,-57,7.44
1489,-25,-3,100,7,87,41,-19,-53,7.445
1490,-11,-38,-102,-43,-85,-15,12,33,7.45
1491,44,3,49,15,-32,25,2,37,7.455
1492,-21,1,-57,-21,-20,-25,-15,-90,7.46
1493,9,-4,-33,-4,-53,-14,2,98,7.465
1494,-22,19,40,-5,29,0,-34,-102,7.47
1495,-63,-61,-66,-128,-42,-37,38,-79,7.4750000000000005
1496,11,-6,31,42,-37,16,-9,88,7.48
1497,121,97,23,13,-24,23,-23,57,7.485
1498,-13,-23,37,59,44,-10,-31,-6,7.49
1499,13,29,-4,97,43,-11,16,79,7.495
1500,8,-31,7,75,105,92,56,-23,7.5
1501,-28,-7,-2,-48,-32,-23,-10,-32,7.505
1502,-26,-31,-45,-81,-56,-38,-35,-56,7.51
1503,-35,-19,68,90,69,57,31,-37,7.515000000000001
1504,5,16,-49,-60,-38,-48,-19,-39,7.5200000000000005
1505,3,-26,31,22,67,58,35,59,7.525
1506,-36,-12,-103,-102,20,-11,-28,-98,7.53
1507,27,15,96,44,40,35,42,99,7.535
1508,16,21,-8,-69,-80,-61,-24,-22,7.54
1509,-11,-13,10,66,-10,-16,24,84,7.545
1510,64,71,20,-64,-73,-9,4,20,7.55
1511,59,11,-47,16,39,17,-14,20,7.555
1512,-17,1,54,8,15,17,1,-72,7.5600000000000005
1513,-65,-24,-48,-12,-35,-36,-26,-112,7.565
1514,16,5,22,-18,-7,5,0,81,7.57
1515,-11,2,0,85,52,42,-15,-14,7.575
1516,6,4,-13,-59,-2,10,19,8,7.58
1517,2,11,13,18,16,-17,0,-24,7.585
1518,-24,-22,-3,127,82,24,13,9,7.59
1519,-13,-10,52,-98,-116,-42,-14,-62,7.595
1520,-31,-29,-37,-57,-91,-75,-37,-12,7.6000000000000005
1521,-18,0,-82,-78,107,45,19,-60,7.605
1522,-28,21,75,107,97,13,-21,-54,7.61
1523,15,14,-47,-34,-36,-35,22,58,7.615
1524,0,-3,34,57,-10,11,48,103,7.62
1525,54,44,-25,-45,-62,-49,-77,-5,7.625
1526,52,47,-6,-27,33,39,0,97,7.63
1527,33,1,9,-81,-82,-42,-74,67,7.635
1528,-26,3,59,-9,127,48,4,-35,7.640000000000001
1529,7,1,20,116,95,83,35,-28,7.6450000000000005
1530,-42,-41,-46,-128,-111,-44,-11,-94,7.65
1531,-45,-12,3,95,36,0,20,-95,7.655
1532,13,8,-37,-50,-37,7,7,23,7.66
1533,-13,-21,59,59,-37,-30,-6,-23,7.665
1534,-21,-14,-20,-12,-41,-10,1,2,7.67
1535,-15,-12,-23,-79,-80,-63,-11,-24,7.675
1536,-27,-20,-57,35,100,37,-20,-31,7.68
1537,16,3,-1,-21,-9,-7,30,16,7.6850000000000005
1538,-9,16,-49,-12,8,-4,-50,-67,7.69
1539,-8,-26,-68,-67,-41,-33,5,89,7.695
1540,36,-22,88,39,-6,20,1,87,7.7
1541,28,33,3,-63,-9,0,2,90,7.705
1542,-9,-35,21,95,67,18,2,-16,7.71
1543,-38,4,36,120,14,26,-27,-121,7.715
1544,-7,3,-36,4,-26,-41,-5,-68,7.72
1545,1,-17,-7,1,81,62,30,-8,7.7250000000000005
1546,13,15,26,-99,-28,-19,14,23,7.73
1547,-25,-40,-74,-28,-29,-4,12,-46,7.735
1548,0,22,49,110,25,2,-3,-3,7.74
1549,6,10,-10,-77,-84,-37,-18,13,7.745
1550,25,7,9,77,38,12,24,42,7.75
1551,-5,4,-25,-82,-15,14,6,-22,7.755
1552,-10,11,28,-33,-2,1,7,-88,7.76
1553,-16,-24,-23,-18,-20,-20,-26,69,7.765000000000001
1554,42,27,12,11,-20,22,-6,34,7.7700000000000005
1555,18,6,12,16,54,47,22,28,7.775
1556,4,28,0,3,-1,-15,-29,6,7.78
1557,-4,-12,-5,24,-60,-19,18,14,7.785
1558,-12,-13,11,45,19,3,-1,3,7.79
1559,16,11,3,-1,-4,5,10,-9,7.795
1560,-14,-4,-26,-101,-87,-56,-7,-38,7.8
1561,-23,-14,15,35,86,37,-9,-44,7.805000000000001
1562,8,1,-40,-96,-22,-6,8,44,7.8100000000000005
1563,-1,-2,-1,-2,-9,6,7,-16,7.815
1564,6,3,-20,-22,-5,-3,-7,14,7.82
1565,-3,-23,-7,-22,-31,-19,-10,-10,7.825
1566,0,-3,7,9,-35,-9,10,6,7.83
1567,-5,10,-2,-24,18,1,-8,-32,7.835
1568,16,2,-3,30,-12,0,-3,34,7.84
1569,5,5,-6,14,-1,-11,-5,5,7.845
1570,0,-9,13,-15,-4,4,9,-10,7.8500000000000005
1571,6,5,-19,-29,-25,-32,-59,-35,7.855
1572,-20,17,26,85,64,72,98,77,7.86
1573,-4,1,5,-45,-37,-3,10,-34,7.865
1574,-19,-16,-9,-2,-16,-14,1,19,7.87
1575,54,13,19,38,27,-1,22,24,7.875
1576,-2,-14,-5,2,-9,-7,-29,-10,7.88
1577,-16,-3,-8,0,17,-1,-3,-22,7.885
1578,-11,-5,-26,-41,-23,-3,1,2,7.890000000000001
1579,1,0,42,12,-11,-2,-9,0,7.8950000000000005
1580,11,-2,7,37,15,2,-15,-13,7.9
1581,-8,1,20,3,-21,-12,-1,-2,7.905
1582,8,2,-11,-33,-5,-3,-10,-5,7.91
1583,-13,-1,-18,16,18,11,11,7,7.915
1584,11,2,12,25,18,4,4,10,7.92
1585,0,-6,-37,-62,-35,-14,-9,-10,7.925
1586,-2,6,20,18,10,0,-1,-6,7.930000000000001
1587,-11,4,10,50,18,8,15,11,7.9350000000000005
1588,6,-3,-23,-74,-31,-6,-5,3,7.94
1589,10,1,-6,2,5,-4,-7,-10,7.945
1590,-8,-9,5,-3,-3,3,2,-1,7.95
1591,-10,2,5,14,7,3,5,6,7.955
1592,8,-11,-16,-9,-11,-7,-9,-1,7.96
1593,-2,2,-7,-58,-8,-2,-5,-8,7.965
1594,-9,-6,12,43,5,-1,0,0,7.97
1595,-5,1,-6,-34,-16,-5,1,6,7.9750000000000005
1596,7,-1,7,26,13,2,-4,-2,7.98
1597,-4,0,-2,-12,-7,-2,1,-2,7.985
1598,-4,-3,8,11,1,-2,1,0,7.99
1599,0,-2,-13,-5,-2,0,2,1,7.995
1600,3,0,3,-24,0,0,-2,-2,8.0
1601,-3,-1,2,69,4,-1,2,2,8.005
1602,0,5,0,-8,-4,-3,-3,-3,8.01
1603,-5,-4,-9,-8,3,-1,1,1,8.015
1604,2,1,-6,-18,-3,-1,1,1,8.02
1605,0,0,3,-9,-3,-2,-3,-4,8.025
1606,0,-1,9,29,5,-1,-2,-2,8.03
1607,-5,-4,-13,-32,-11,-5,-1,-4,8.035
1608,0,-1,3,17,3,5,-2,1,8.040000000000001
1609,1,0,1,28,11,0,-1,-1,8.045
1610,-1,-1,0,-14,-5,-3,-2,-4,8.05
1611,-2,0,-5,-26,1,0,1,3,8.055
1612,3,-1,5,30,4,1,-1,1,8.06
1613,-1,0,-1,6,-7,-4,-4,-3,8.065
1614,0,1,3,-14,-4,-3,0,2,8.07
1615,-4,-8,-7,-3,-4,1,1,2,8.075
1616,0,0,-1,-4,-8,-3,-2,-2,8.08
1617,-1,-1,1,-2,2,-1,-1,-2,8.085
1618,-1,1,5,2,0,-1,0,0,8.09
1619,-1,-2,-3,0,-4,-1,-1,-1,8.095
1620,3,0,0,-3,3,1,-1,-2,8.1
1621,-2,-1,-3,2,-2,-2,-1,-1,8.105
1622,0,1,0,2,5,0,-1,-4,8.11
1623,0,0,-2,-1,-4,-1,-1,-1,8.115
1624,0,0,-1,-11,-17,-5,1,0,8.120000000000001
1625,2,2,0,8,8,9,2,-1,8.125
1626,-2,-2,-3,-3,1,-2,-1,-2,8.13
1627,-1,1,-1,-4,-1,0,-1,0,8.135
1628,-1,-2,3,14,-4,-1,-1,1,8.14
1629,1,-1,-2,-4,8,2,0,-1,8.145
1630,-1,-2,-3,-7,-2,1,-2,-1,8.15
1631,0,0,3,11,3,1,0,0,8.155
1632,-1,0,-5,-5,-9,-6,-3,-1,8.16
1633,0,0,0,1,5,0,-1,0,8.165000000000001
1634,-2,0,-3,-8,0,2,-1,0,8.17
1635,-1,1,-2,-8,-7,-3,0,-2,8.175
1636,-2,-3,-2,-9,2,0,0,-1,8.18
1637,-4,-2,0,3,5,-4,-3,-2,8.185
1638,0,-1,-1,-5,-11,1,-1,0,8.19
1639,0,0,4,8,-5,-1,0,1,8.195
1640,1,-1,-3,-1,1,0,-1,-1,8.2
1641,0,-1,-9,-34,-10,-2,-1,0,8.205
1642,1,-2,5,21,-2,-3,-3,-3,8.21
1643,0,1,0,13,11,3,1,0,8.215
1644,0,2,1,1,-1,-1,-1,0,8.22
1645,1,-2,-2,-3,-10,-6,-2,-2,8.225
1646,0,0,-2,-5,15,6,0,1,8.23
1647,0,-1,-1,-11,-8,-2,0,1,8.235
1648,-1,0,-2,-12,4,0,0,1,8.24
1649,-1,-2,1,14,2,1,-1,-1,8.245000000000001
1650,-2,-1,-2,-4,-3,-4,-2,-1,8.25
1651,0,-1,-2,-5,-3,-1,-1,-1,8.255
1652,0,1,1,5,16,5,1,0,8.26
1653,-2,0,-2,-5,-12,-5,-1,-1,8.265
1654,0,-4,2,14,-3,-3,-1,0,8.27
1655,-3,-1,-4,-9,0,0,-1,0,8.275
1656,-1,0,-2,1,-2,0,-1,-2,8.28
1657,-1,0,2,4,-2,-3,-2,-1,8.285
1658,-1,-1,-3,-12,-4,-2,-1,-1,8.290000000000001
1659,0,0,-1,-1,-2,-1,-2,0,8.295
1660,1,0,0,7,7,3,1,1,8.3
1661,-1,-1,1,5,13,4,1,1,8.305
1662,-2,-2,-2,-9,-2,-3,-1,2,8.31
1663,1,0,0,-10,-5,-2,-2,-3,8.315
1664,0,-1,0,9,-5,-1,0,-2,8.32
1665,-1,0,1,2,-5,-1,0,-3,8.325
1666,-1,-1,-1,-12,-8,-5,-1,0,8.33
1667,0,0,0,10,4,4,0,1,8.335
1668,-2,-2,-2,-6,3,-2,-1,-2,8.34
1669,-2,-2,-2,4,-3,-2,-1,0,8.345
1670,-2,-2,0,-1,-1,0,0,-1,8.35
1671,-1,0,-3,-4,-10,-3,-1,0,8.355
1672,-1,-1,-1,-4,0,-1,-2,-1,8.36
1673,0,0,1,4,0,0,-1,0,8.365
1674,-1,0,-1,2,1,2,0,-2,8.370000000000001
1675,-1,-1,-1,0,0,-1,-2,-2,8.375
1676,0,-1,-3,-8,1,-1,0,-1,8.38
1677,-2,-2,1,7,-7,-4,-3,-2,8.385
1678,0,0,0,4,6,0,-1,-1,8.39
1679,-1,0,-2,-5,-14,-4,-2,-1,8.395
1680,-1,1,1,1,9,5,-1,1,8.4
1681,0,-2,-5,-15,-9,-2,0,0,8.405
1682,-1,0,-1,2,2,1,-1,-2,8.41
1683,-2,-2,-2,3,-2,-1,1,0,8.415000000000001
1684,-1,-1,-1,-5,-3,-5,-2,-2,8.42
1685,1,1,1,2,3,1,-2,-1,8.425
1686,0,1,0,3,-4,-2,2,2,8.43
1687,1,2,-1,-5,3,-1,-1,0,8.435
1688,-1,-2,-2,0,-6,-1,-2,0,8.44
1689,-1,0,-1,2,2,0,0,0,8.445
1690,0,-1,-2,-1,-1,0,0,-2,8.45
1691,1,0,-1,-2,3,0,-2,-1,8.455
1692,0,-2,-1,-9,-9,-4,-3,0,8.46
1693,-1,0,0,15,9,2,-1,-1,8.465
1694,0,-1,-2,-3,2,-2,0,-1,8.47
1695,-1,-2,-1,-3,-3,-1,0,-1,8.475
1696,0,0,-1,0,1,0,0,-1,8.48
1697,-2,-1,0,-2,-9,-2,-1,-1,8.485
1698,-1,-1,-1,-3,-2,-1,-1,1,8.49
1699,0,0,0,3,9,4,0,-1,8.495000000000001
1700,-3,-2,-1,-7,-18,-9,-4,-2,8.5
1701,1,1,0,1,19,8,1,0,8.505
1702,1,-1,-3,-4,-2,0,-1,0,8.51
1703,-2,-4,2,6,-5,-3,-1,-1,8.515
1704,-1,0,0,1,3,2,0,-1,8.52
1705,-1,-2,-2,-4,-12,-5,-2,-2,8.525
1706,-1,-1,-1,-4,1,-1,0,-1,8.53
1707,0,0,-1,-4,1,0,-2,0,8.535
1708,0,0,1,4,2,1,-1,-2,8.540000000000001
1709,-2,-1,-1,-4,0,-2,0,-2,8.545
1710,-2,0,0,-2,-5,-2,0,0,8.55
1711,-2,2,-1,2,8,2,1,1,8.555
1712,0,-1,1,5,7,2,0,0,8.56
1713,0,-2,-3,-5,-18,-4,-2,0,8.565
1714,-1,-1,-1,0,-1,0,0,1,8.57
1715,-2,-2,-2,-3,0,-4,-1,-1,8.575000000000001
1716,0,-1,-2,-1,2,1,0,1,8.58
1717,-2,1,0,-3,2,-1,-2,0,8.585
1718,0,-1,-4,-10,-3,-1,-1,1,8.59
1719,0,-1,3,19,0,0,0,-1,8.595
1720,-1,0,0,-1,2,1,-1,-1,8.6
1721,-2,-2,-2,-14,-4,-5,-2,0,8.605
1722,0,-2,3,17,1,1,-2,0,8.61
1723,-3,-1,-6,-12,-4,-1,0,1,8.615
1724,0,-1,2,5,3,2,0,-1,8.620000000000001
1725,1,-1,-4,-25,-13,-3,-1,-2,8.625
1726,-2,-1,7,30,14,2,-1,-2,8.63
1727,0,-1,-4,-19,-2,0,0,-1,8.635
1728,-2,-1,2,23,-1,3,1,2,8.64
1729,0,-1,0,4,0,0,-1,0,8.645
1730,-1,1,-5,-25,-8,-2,-2,-1,8.65
1731,-1,1,4,16,1,-2,-1,-1,8.655
1732,0,0,-5,-13,-4,-3,-3,-1,8.66
1733,-1,-1,1,2,2,-2,-1,0,8.665000000000001
1734,0,-2,-1,-1,0,1,-2,0,8.67
1735,-1,-1,-3,-14,-7,-5,0,-1,8.675
1736,-1,-1,-2,4,2,0,1,0,8.68
1737,0,-1,2,13,1,1,-2,-1,8.685
1738,-1,0,-1,-2,-1,-3,-3,-2,8.69
1739,2,-1,-2,-4,-5,-1,-1,1,8.695
1740,1,-1,-2,-6,-1,0,0,0,8.700000000000001
1741,-1,0,-1,2,1,-1,-1,-1,8.705
1742,-3,-2,-1,0,-4,-2,0,-2,8.71
1743,-1,-2,-1,-4,0,0,-1,0,8.715
1744,-2,-1,1,-4,5,-1,-3,-2,8.72
1745,-3,-3,-3,0,-19,-5,-2,-1,8.725
1746,0,0,-4,-20,5,4,1,0,8.73
1747,-1,1,5,32,7,1,-2,-1,8.735
1748,1,-3,-3,-7,-5,-2,-1,-1,8.74
1749,0,0,1,-1,0,-3,-1,-1,8.745000000000001
1750,-2,-1,-1,-3,-2,0,0,0,8.75
1751,1,0,-1,-6,-1,1,-1,0,8.755
1752,0,0,-1,-1,0,-2,2,-1,8.76
1753,-1,-1,-1,3,5,2,0,-1,8.765
1754,-1,-1,-3,-3,-11,-6,-1,0,8.77
1755,0,0,0,1,12,6,3,-1,8.775
1756,-1,-2,-1,-3,-4,-1,-1,-2,8.78
1757,-2,0,2,5,-1,0,-2,0,8.785
1758,-1,-1,1,4,1,0,-2,-2,8.790000000000001
1759,-1,-2,-2,-7,-8,-4,-2,-1,8.795
1760,1,-1,-3,-5,-1,-1,0,-1,8.8
1761,0,0,-3,-2,3,2,0,0,8.805
1762,-3,-2,1,2,1,-2,-2,-1,8.81
1763,-2,-1,0,-3,-2,-1,0,-2,8.815
1764,0,0,-1,-2,0,-1,-1,0,8.82
1765,-1,0,-2,-7,1,0,-1,-2,8.825000000000001
1766,0,0,0,6,-4,-1,-2,-2,8.83
1767,0,-1,-3,0,9,1,-3,-1,8.835
1768,-1,-1,3,8,4,-1,0,0,8.84
1769,-1,-1,-1,1,4,0,-1,0,8.845
1770,-1,0,-1,-1,-1,-1,-1,-1,8.85
1771,-1,-1,-4,-14,-8,-4,0,0,8.855
1772,0,-1,-1,-3,-3,-2,-1,0,8.86
1773,-1,-1,-1,2,3,0,-1,-1,8.865
1774,0,-1,-2,-5,2,1,1,-1,8.870000000000001
1775,-1,-2,0,2,-3,-2,0,0,8.875
1776,-1,0,-1,0,-4,0,0,-1,8.88
1777,-2,-1,-1,-6,-4,-3,0,-1,8.885
1778,-1,-1,1,5,6,2,-1,-1,8.89
1779,-1,-1,0,-3,-12,-1,-1,0,8.895
1780,-1,0,0,0,-1,-2,-1,-1,8.9
1781,1,-2,-1,-3,2,0,-1,-1,8.905
1782,-2,-1,-2,0,-4,-3,-3,0,8.91
1783,-1,-1,0,2,2,0,-2,0,8.915000000000001
1784,0,-1,-3,-10,-1,0,-2,0,8.92
1785,-1,-1,-1,4,-4,-1,0,0,8.925
1786,0,-1,-4,-19,-1,-1,0,0,8.93
1787,-1,-3,6,28,2,0,-1,0,8.935
1788,0,1,-4,-8,-5,0,-1,-1,8.94
1789,-2,0,2,9,3,0,-1,-2,8.945
1790,0,0,1,-2,0,1,1,-1,8.950000000000001
1791,0,1,-3,-15,-8,-4,-2,-1,8.955
1792,-1,-3,0,2,8,-1,-2,-1,8.96
1793,0,0,-3,-2,-4,-1,-1,1,8.965
1794,1,1,1,7,-6,3,1,-1,8.97
1795,0,-1,-3,-5,-5,-2,-1,-1,8.975
1796,0,-2,2,3,-1,0,-2,-1,8.98
1797,0,-1,-3,-15,1,-2,-1,-2,8.985
1798,-3,-2,0,8,-8,-3,-2,-3,8.99
1799,0,-2,-1,-1,10,3,1,-1,8.995000000000001
1800,-2,-1,-1,-2,-2,-2,-1,0,9.0
1801,-1,-2,0,1,-1,0,-2,0,9.005
1802,-1,-1,-2,0,-2,-4,-2,-1,9.01
1803,0,1,-3,-6,1,0,0,-1,9.015
1804,-2,1,0,-3,0,-2,0,-2,9.02
1805,-2,-2,-3,1,-2,0,1,-3,9.025
1806,1,-1,-1,-2,4,0,-1,-1,9.03
1807,-2,0,-2,-5,-6,-1,0,-1,9.035
1808,-3,0,1,2,0,0,0,-1,9.040000000000001
1809,1,0,1,5,2,-1,-2,-2,9.045
1810,0,-1,-1,1,0,-2,0,-1,9.05
1811,-2,-2,-2,-13,-12,-4,-2,-1,9.055
1812,0,0,2,18,13,6,2,-1,9.06
1813,0,-1,0,-3,-4,-3,-2,-1,9.065
1814,-2,-2,-1,-3,7,-1,0,0,9.07
1815,0,-2,-1,-1,-4,-2,-1,-2,9.075000000000001
1816,0,-1,-4,-10,-4,-3,-1,0,9.08
1817,-2,0,-5,-15,-10,-5,0,0,9.085
1818,0,-1,6,23,9,0,-2,0,9.09
1819,-1,1,0,2,18,9,1,-1,9.095
1820,-1,0,-3,-2,-7,-1,0,0,9.1
1821,-1,-1,-1,5,3,1,0,-1,9.105
1822,-1,-1,-3,-8,-9,-4,-1,-2,9.11
1823,-1,-3,-1,-1,-4,-5,-1,-2,9.115
1824,1,-2,0,-2,1,-2,-1,-1,9.120000000000001
1825,0,-1,0,-1,0,-2,-1,-2,9.125
1826,0,0,-2,-5,0,2,1,1,9.13
1827,-1,-1,0,0,0,0,0,0,9.135
1828,-1,-1,2,3,1,1,-2,-2,9.14
1829,-3,-2,-2,1,-1,-2,-3,-1,9.145
1830,-1,0,-1,2,-1,-2,-2,0,9.15
1831,-1,1,-1,-4,2,0,0,0,9.155
1832,-2,-1,-3,-6,-9,-4,-2,-1,9.16
1833,0,-1,0,2,3,3,0,0,9.165000000000001
1834,0,0,0,-1,1,1,-1,0,9.17
1835,0,-1,-3,-6,-3,-2,-2,-1,9.175
1836,0,-2,-1,6,2,-1,-2,-1,9.18
1837,-1,-2,1,3,-4,-1,-1,-2,9.185
1838,-3,-1,-4,-7,-4,-3,-3,-2,9.19
1839,0,-1,1,0,-2,0,2,0,9.195
1840,-1,-1,-3,-7,-3,-2,-1,-2,9.200000000000001
1841,-1,0,-2,-2,3,0,0,-1,9.205
1842,-1,-1,-1,-8,-7,-2,0,-1,9.21
1843,-2,-1,1,6,2,0,-1,0,9.215
1844,-2,-1,-2,-3,-5,-4,0,-1,9.22
1845,-1,0,0,-1,1,-1,0,0,9.225
1846,0,0,-2,2,-1,1,-1,-2,9.23
1847,0,-1,-1,1,1,-1,-2,-2,9.235
1848,-1,-1,-2,1,-1,-1,-1,0,9.24
1849,-1,0,-2,-3,1,0,-1,-1,9.245000000000001
1850,-2,-1,-2,0,2,0,-1,-1,9.25
1851,0,0,-2,2,-1,0,0,-1,9.255
1852,-1,-1,-1,-2,-1,-1,-2,-1,9.26
1853,-2,-2,-6,-27,-5,-3,-1,-2,9.265
1854,-1,-1,7,34,-1,-2,-1,0,9.27
1855,0,0,1,4,4,1,-2,0,9.275
1856,-2,0,0,2,2,1,-1,0,9.28
1857,0,-2,-2,-2,-3,-2,-3,-3,9.285
1858,2,-1,-5,-18,-11,-4,-1,-1,9.290000000000001
1859,-2,-2,3,7,6,1,0,-2,9.295
1860,-2,-1,0,-6,-3,0,0,0,9.3
1861,1,-1,0,8,-2,0,0,1,9.305
1862,0,0,-3,-8,-1,-2,-2,1,9.31
1863,-1,0,-1,0,-7,-3,-1,1,9.315
1864,0,-2,-4,-7,-2,0,-2,-1,9.32
1865,-2,0,-1,4,-6,-2,-1,-1,9.325000000000001
1866,-1,-2,-1,-1,13,4,1,-1,9.33
1867,1,1,-3,-8,-5,0,-1,-1,9.335
1868,1,1,-3,-20,0,-1,-1,-1,9.34
1869,-2,-3,8,39,5,0,0,-1,9.345
1870,0,0,1,-2,0,-1,-1,0,9.35
1871,-2,-1,-3,0,1,0,-2,-1,9.355
1872,0,-1,-2,-3,-4,-2,-1,-2,9.36
1873,0,1,-2,-9,0,-3,-1,-2,9.365
1874,0,0,0,-6,0,1,2,0,9.370000000000001
1875,0,-2,-1,-1,-2,-2,-1,-2,9.375
1876,-1,-3,-3,-2,-6,-1,0,0,9.38
1877,0,-1,2,5,3,-1,-2,-1,9.385
1878,-1,-1,-1,1,1,1,0,-1,9.39
1879,0,1,-1,-4,-1,-2,-1,1,9.395
1880,-1,-2,0,8,2,0,0,0,9.4
1881,-1,-1,-2,-4,0,1,0,-1,9.405
1882,-1,-1,-2,-13,-1,-2,0,-2,9.41
1883,-2,-2,2,16,-6,-5,0,-3,9.415000000000001
1884,0,0,3,11,6,4,1,-1,9.42
1885,-1,0,-2,-8,-5,-2,2,-1,9.425
1886,-1,-1,-3,-6,0,-1,-1,0,9.43
1887,1,-4,3,9,-1,-1,0,-1,9.435
1888,-1,-1,-1,4,-4,-4,0,-1,9.44
1889,-3,0,-1,-3,1,0,-1,-1,9.445
1890,0,-2,-1,-6,-6,-2,-2,-1,9.450000000000001
1891,-1,0,-3,-10,-4,0,1,1,9.455
1892,-1,-2,-2,1,4,-5,-3,-2,9.46
1893,-1,-1,-1,0,5,7,1,-1,9.465
1894,-2,-2,-3,-1,2,0,-2,0,9.47
1895,-1,-1,0,-2,-5,-2,0,-1,9.475
1896,1,-1,1,-13,7,1,0,-1,9.48
1897,1,-1,0,15,-1,-3,1,-1,9.485
1898,-2,1,0,5,-4,-2,0,0,9.49
1899,-1,0,-1,-4,3,1,0,1,9.495000000000001
1900,0,0,-3,-4,-5,-1,-2,-1,9.5
1901,-2,0,-4,-12,-6,-3,-2,-1,9.505
1902,1,-1,0,-3,-2,3,1,-3,9.51
1903,0,-1,-2,0,0,-1,-1,0,9.515
1904,-2,0,0,3,-15,-3,-1,0,9.52
1905,-2,-1,0,1,13,1,0,1,9.525
1906,0,-1,0,3,-2,-2,-1,-1,9.53
1907,-1,0,-2,-12,-1,-2,0,0,9.535
1908,-1,1,0,4,-1,1,0,-2,9.540000000000001
1909,-2,-2,-4,-3,-4,-4,-3,-2,9.545
1910,0,-1,-4,-12,-4,0,1,-2,9.55
1911,0,-1,4,14,7,-1,-3,-1,9.555
1912,-1,-1,3,12,4,1,-1,-2,9.56
1913,1,-1,-1,-4,-4,-4,-2,-2,9.565
1914,0,-2,0,0,-3,-3,-1,0,9.57
1915,0,-1,-3,-8,5,3,1,1,9.575000000000001
1916,-1,-1,-2,-3,2,0,-1,-1,9.58
1917,-1,-1,-2,-3,-10,-3,-2,1,9.585
1918,-1,-3,-3,-5,1,-4,-2,0,9.59
1919,-1,-1,-2,2,-10,-1,-1,-1,9.595
1920,0,0,4,14,1,1,0,1,9.6
1921,0,1,-2,-4,0,0,1,0,9.605
1922,0,0,0,3,2,0,1,0,9.61
1923,-1,0,-2,-5,-3,-2,-2,0,9.615
1924,0,-2,-2,-4,1,-2,0,-1,9.620000000000001
1925,-1,-1,-1,-3,-6,-1,-1,-1,9.625
1926,-3,-1,1,0,0,-1,-1,0,9.63
1927,0,0,-2,-4,-9,-1,1,-1,9.635
1928,-1,0,-1,0,10,3,0,0,9.64
1929,-1,-1,-1,-3,2,0,-2,1,9.645
1930,0,-1,1,9,2,0,-2,-2,9.65
1931,-2,-1,-1,-5,0,0,0,-2,9.655
1932,-1,-1,-3,-3,-6,-3,-1,-1,9.66
1933,0,1,0,-6,-3,-1,-2,-2,9.665000000000001
1934,0,0,-1,1,0,1,-2,-1,9.67
1935,-2,-1,2,5,2,1,-1,-2,9.675
1936,0,-2,-5,-16,-3,-2,-2,-2,9.68
1937,-3,-2,6,16,-3,-3,-1,-1,9.685
1938,0,0,0,2,-1,0,0,0,9.69
1939,0,-1,-3,-10,0,0,0,-2,9.695
1940,-1,0,5,17,5,-1,-3,-1,9.700000000000001
1941,-1,-1,-6,-4,-1,-3,-1,-2,9.705
1942,1,-1,0,1,-3,-2,-1,0,9.71
1943,0,-1,-4,-5,-2,3,1,-1,9.715
1944,-2,0,-3,-4,-4,-1,-1,1,9.72
1945,-3,-3,2,-1,-5,-2,-2,-2,9.725
1946,-2,0,2,5,11,3,1,-1,9.73
1947,0,0,-4,-8,1,-1,1,0,9.735
1948,-1,-1,-4,-6,-6,-1,0,-1,9.74
1949,0,-1,-5,-2,-4,-2,0,0,9.745000000000001
1950,-2,-1,-5,-8,6,2,0,1,9.75
1951,-2,0,7,11,-1,-3,-3,0,9.755
1952,0,-2,-1,-1,-3,0,-1,0,9.76
1953,1,0,1,-4,3,-1,1,0,9.765
1954,0,0,0,2,-5,-1,0,-1,9.77
1955,0,-1,-3,0,1,-3,0,-1,9.775
1956,-2,0,0,5,2,0,-1,-3,9.78
1957,-2,-1,-4,-6,-2,0,-1,0,9.785
1958,-1,0,-3,-9,-7,-2,-1,-1,9.790000000000001
1959,-1,-2,3,14,2,0,-2,1,9.795
1960,-2,-2,0,-4,-2,-1,0,1,9.8
1961,0,0,-1,-2,3,1,0,-1,9.805
1962,1,0,1,0,0,1,-1,-1,9.81
1963,-2,-1,-3,-22,0,-4,-3,-2,9.815
1964,0,-2,2,21,-4,-3,0,-4,9.82
1965,0,0,1,5,0,1,0,0,9.825000000000001
1966,-2,-2,-2,0,0,-2,-2,0,9.83
1967,-1,-1,-2,-3,4,2,-1,1,9.835
1968,-2,-1,-1,-7,-4,-1,-1,0,9.84
1969,-1,-2,-2,-4,-2,-2,-1,-1,9.845
1970,-3,0,1,1,-3,-2,0,-2,9.85
1971,0,0,-1,0,-1,0,-2,0,9.855
1972,-3,-2,-2,-8,-18,-4,0,-1,9.86
1973,0,-2,-2,1,10,3,-1,1,9.865
1974,0,-2,-3,-4,-3,-5,-2,-1,9.870000000000001
1975,-1,0,4,16,6,2,-1,-2,9.875
1976,0,0,-1,1,1,0,0,0,9.88
1977,-1,0,0,-1,-1,1,0,-1,9.885
1978,0,-3,-1,-2,-5,-2,-2,0,9.89
1979,-2,0,-1,-5,-2,-2,-1,0,9.895
1980,0,-1,-3,-7,3,-1,-1,-2,9.9
1981,-2,-1,-1,-5,-4,-2,-2,-1,9.905
1982,0,1,0,6,3,1,2,0,9.91
1983,0,-2,-1,-2,-3,-1,-1,-1,9.915000000000001
1984,-1,-2,-3,-20,2,-1,-2,1,9.92
1985,-2,-1,3,15,5,-1,-1,-2,9.925
1986,-1,-1,3,3,-5,1,0,-2,9.93
1987,-1,-1,-2,-2,-5,-2,-1,0,9.935
1988,0,0,-2,-3,-1,0,1,-1,9.94
1989,-2,1,-1,-6,-4,-1,-1,0,9.945
1990,-1,1,-2,1,13,4,0,-1,9.950000000000001
1991,0,-2,1,-1,-1,-2,0,-1,9.955
1992,-1,0,0,1,3,0,0,-2,9.96
1993,2,0,-3,-13,-5,-1,-2,0,9.965
1994,-1,0,5,19,-3,-3,-1,0,9.97
1995,0,0,-3,-6,-6,2,0,1,9.975
1996,-1,-1,-4,1,15,1,-1,-1,9.98
1997,0,-1,-4,-26,-4,0,-1,-3,9.985
1998,0,-2,5,23,-3,-2,-1,-1,9.99
1999,-1,-1,0,-1,0,-1,0,-1,9.995000000000001
2000,0,-1,0,4,-6,-2,0,-1,10.0
2001,-1,0,-5,-11,2,-1,0,0,10.005
2002,-2,0,-5,-11,-6,-2,-1,1,10.01
2003,-1,-1,-1,3,-2,-1,0,-2,10.015
2004,-1,0,-1,-2,-3,-1,-1,0,10.02
2005,-2,-1,0,4,1,1,0,-1,10.025
2006,0,-1,-1,-8,-1,-1,0,-1,10.03
2007,-1,-1,1,5,2,-1,-1,-1,10.035
2008,-2,-2,-3,-3,-1,-3,-2,0,10.040000000000001
2009,0,0,0,1,1,3,0,-1,10.045
2010,-1,-1,1,9,0,-2,0,-2,10.05
2011,-1,-1,-4,-10,-3,-2,-1,0,10.055
2012,-1,-1,-2,-4,0,-1,-1,-1,10.06
2013,-2,-2,2,-1,4,-1,-1,-2,10.065
2014,1,-1,0,13,-1,-1,-1,0,10.07
2015,1,0,-2,0,1,0,-1,-3,10.075000000000001
2016,-1,-2,0,-6,-11,-5,-2,-1,10.08
2017,0,-2,-1,11,8,-1,-1,1,10.085
2018,1,0,-5,-18,2,1,-2,0,10.09
2019,-1,-2,-2,-4,-3,-2,-2,0,10.095
2020,0,0,0,9,4,1,1,-1,10.1
2021,-1,0,-2,-2,-9,-3,-2,-1,10.105
2022,-1,-1,-2,-7,2,0,-1,0,10.11
2023,0,-1,-1,4,1,0,0,0,10.115
2024,-1,0,-3,-2,-3,-1,-1,0,10.120000000000001
2025,-1,-1,-1,2,-3,-3,1,0,10.125
2026,0,0,1,-4,4,0,-3,-2,10.13
2027,0,0,0,0,-5,-1,0,2,10.135
2028,-2,-1,-3,-3,2,2,-1,-2,10.14
2029,-1,0,-3,5,-17,-6,-2,-1,10.145
2030,0,2,-2,10,9,2,1,1,10.15
2031,-3,-2,-6,-21,-9,-2,0,-2,10.155
2032,-1,-1,6,16,4,-1,-1,-1,10.16
2033,0,-1,0,6,17,4,0,0,10.165000000000001
2034,0,-2,-4,-15,-26,-7,-2,-1,10.17
2035,-1,-1,-1,4,11,4,0,0,10.175
2036,-1,-2,-4,-9,-11,-6,-1,-1,10.18
2037,0,-1,-2,-1,-1,-1,0,-1,10.185
2038,-1,-1,0,-8,-3,0,0,-1,10.19
2039,1,0,1,6,4,0,-1,-1,10.195
2040,-1,-1,-1,-3,-4,-2,-2,-2,10.200000000000001
2041,-1,0,0,0,-2,-1,-1,-2,10.205
2042,-1,-1,-2,1,4,2,-1,-1,10.21
2043,-1,-2,-2,2,-8,-4,0,-2,10.215
2044,-1,-1,2,-4,2,0,0,0,10.22
2045,-2,0,-4,-15,-5,-3,0,-1,10.225
2046,-2,-1,2,15,13,5,3,-1,10.23
2047,0,-1,1,5,-1,0,0,-1,10.235
2048,-1,0,-2,-5,0,1,1,-1,10.24
2049,-1,-3,0,4,4,0,-1,-1,10.245000000000001
2050,0,-1,-3,-10,-15,-2,-1,1,10.25
2051,-1,-1,0,2,2,-3,-1,-1,10.255
2052,0,-1,-2,-5,2,-3,0,-1,10.26
2053,-1,-1,-1,-4,-8,0,-2,0,10.265
2054,-1,2,-2,-2,7,0,0,-1,10.27
2055,-2,-2,0,0,4,2,0,0,10.275
2056,0,0,-2,-4,-3,0,0,-2,10.28
2057,-1,-1,-1,8,3,-1,-2,-1,10.285
2058,-2,-2,0,-5,-9,-2,0,-1,10.290000000000001
2059,-1,0,-1,-5,-4,-1,0,1,10.295
2060,-1,-1,-2,-9,-1,-3,-1,-1,10.3
2061,-1,-2,3,10,-2,-2,-1,-1,10.305
2062,-1,0,-1,-4,2,-1,0,-1,10.31
2063,0,0,-1,0,-4,-3,0,0,10.315
2064,0,-1,3,5,2,2,-2,0,10.32
2065,0,-1,-1,0,-5,0,-1,0,10.325000000000001
2066,1,-1,-4,-5,-1,0,-1,-1,10.33
2067,0,-1,0,-6,1,0,0,-2,10.335
2068,1,0,-2,5,-4,-2,-1,-1,10.34
2069,0,0,0,2,3,1,-1,-1,10.345
2070,-2,-1,-2,-1,1,-2,-2,-1,10.35
2071,0,0,-2,-4,-3,-2,0,-2,10.355
2072,-1,-2,2,12,5,5,-1,0,10.36
2073,-2,-1,-1,-9,-4,-1,-2,-1,10.365
2074,0,0,4,17,8,0,-2,0,10.370000000000001
2075,-2,0,-2,0,-13,-4,-1,1,10.375
2076,-1,0,-2,-6,2,-2,-3,-1,10.38
2077,0,-3,-4,-9,0,-4,0,-1,10.385
2078,-1,0,0,-3,2,3,-1,1,10.39
2079,-2,0,-2,-4,-7,-1,-1,0,10.395
2080,-2,0,-1,7,6,0,2,-1,10.4
2081,1,-1,-3,-5,-5,-2,-1,-1,10.405
2082,-1,-1,-2,-6,2,-4,-1,-1,10.41
2083,-1,-1,1,7,7,2,-1,-1,10.415000000000001
2084,-2,-2,-2,-1,-5,-2,0,-1,10.42
2085,-1,0,2,3,4,0,0,0,10.425
2086,0,-2,-2,-6,-5,-2,-1,-1,10.43
2087,1,0,-1,3,0,-1,-1,-1,10.435
2088,0,-1,1,-2,-7,-2,-1,-1,10.44
2089,0,-1,-2,1,-2,-1,-4,0,10.445
2090,-3,-1,-2,-15,-15,-6,-1,-2,10.450000000000001
2091,1,0,6,32,31,13,6,1,10.455
2092,-1,0,0,-2,-3,-2,-4,0,10.46
2093,0,1,-4,-18,-2,0,1,0,10.465
2094,1,-2,6,26,1,1,-2,-1,10.47
2095,-2,-1,-3,-11,-12,-4,-3,-1,10.475
2096,-1,-1,-4,-8,-5,-4,-1,1,10.48
2097,-2,0,2,13,9,4,-1,-1,10.485
2098,-2,-1,-3,-13,-4,-2,0,0,10.49
2099,-2,-1,-1,-5,-2,-2,-1,-2,10.495000000000001
2100,-1,-1,-1,2,-1,0,-2,0,10.5
2101,-1,0,-2,-3,-5,-2,-1,-1,10.505
2102,0,-1,-2,-4,-2,0,1,-1,10.51
2103,0,-1,-1,-1,-1,-1,-2,-1,10.515
2104,-2,-2,-2,-4,-1,-2,-1,-3,10.52
2105,-1,-1,0,1,-7,-5,2,-2,10.525
2106,-1,0,-1,-3,2,0,1,-1,10.53
2107,-1,-3,0,2,-1,-3,-3,0,10.535
2108,-1,-1,-2,-1,-2,1,-2,-1,10.540000000000001
2109,0,0,0,-2,-4,-1,0,0,10.545
2110,0,0,-1,6,9,2,0,0,10.55
2111,-1,-1,0,-9,-3,-2,-1,1,10.555
2112,-3,0,-1,-4,-7,-4,-3,-2,10.56
2113,-1,-1,1,9,5,2,1,0,10.565
2114,0,-1,-3,-12,1,0,0,0,10.57
2115,0,-2,-2,-2,-1,-2,0,-2,10.575000000000001
2116,-1,0,-2,0,-7,-3,-2,-2,10.58
2117,0,-1,-1,1,7,3,1,-1,10.585
2118,-3,-2,-2,-1,-10,-4,-3,0,10.59
2119,0,0,-2,0,1,2,0,-1,10.595
2120,-1,-1,0,1,-1,-2,-4,-2,10.6
2121,-1,0,0,-4,-1,-1,-2,0,10.605
2122,1,-1,-1,-1,-3,-2,-1,-1,10.61
2123,-2,-2,-5,-25,-9,-3,-2,-2,10.615
2124,1,-1,6,40,13,2,0,0,10.620000000000001
2125,-1,0,-1,-1,4,0,-1,-1,10.625
2126,1,-1,-3,-1,-8,0,0,0,10.63
2127,-3,-2,1,-5,3,-1,0,-1,10.635
2128,-2,-2,-2,-3,1,-1,0,-1,10.64
2129,0,0,-1,2,-3,0,-1,0,10.645
2130,0,0,-4,-5,-3,-1,-1,-1,10.65
2131,-2,0,-2,-1,2,1,-2,-2,10.655
2132,-2,-1,-3,-13,-4,-5,-1,0,10.66
2133,-1,-2,0,8,-4,0,-1,-1,10.665000000000001
2134,0,0,-5,-25,4,2,2,0,10.67
2135,-2,-1,3,29,2,-1,1,-1,10.675
2136,0,-2,-5,-15,-5,-1,1,1,10.68
2137,-2,-1,1,-2,-13,-6,-3,-2,10.685
2138,-1,1,2,5,15,8,1,-1,10.69
2139,-2,-1,-1,-2,-3,0,-1,-2,10.695
2140,-2,0,-1,-6,0,-1,1,0,10.700000000000001
2141,-1,0,-4,-4,-2,-3,-1,-1,10.705
2142,-1,-2,1,5,-4,-2,-3,-1,10.71
2143,-1,1,-2,-2,-3,-3,-1,-1,10.715
2144,-1,0,-1,-4,1,0,0,-2,10.72
2145,-1,0,2,7,3,0,-1,2,10.725
2146,-2,-2,1,8,2,-2,0,-1,10.73
2147,0,-1,-2,-2,3,-1,-2,0,10.735
2148,-1,-1,-4,-12,-3,1,-1,-1,10.74
2149,-1,1,-2,-6,1,-1,-1,-2,10.745000000000001
2150,0,-1,-1,5,-9,-4,-3,-2,10.75
2151,1,1,1,0,6,1,1,0,10.755
2152,0,-1,-3,-1,1,3,0,0,10.76
2153,0,-2,1,5,-1,-1,1,1,10.765
2154,-2,-1,0,-7,-3,-2,-2,-1,10.77
2155,-1,-3,-4,-10,-3,-2,-1,-1,10.775
2156,-1,-1,1,3,7,-2,0,0,10.78
2157,1,0,0,5,-1,5,1,1,10.785
2158,1,-1,0,-3,-2,0,0,0,10.790000000000001
2159,-1,0,-2,-3,-5,-1,0,1,10.795
2160,-3,-2,2,3,-3,-4,-2,-2,10.8
2161,-1,-2,-3,-6,13,-2,0,0,10.805
2162,-3,-1,0,2,-3,-1,0,-1,10.81
2163,0,0,-1,-6,-2,2,0,-1,10.815
2164,0,-1,1,7,0,3,-2,-1,10.82
2165,0,-2,0,-4,-2,-4,-2,-2,10.825000000000001
2166,-1,-3,-2,0,2,-1,0,-2,10.83
2167,-1,-2,-1,0,2,-2,-1,1,10.835
2168,-1,1,-3,-7,-8,-2,-2,-1,10.84
2169,-2,-1,2,7,-3,0,0,0,10.845
2170,-1,-1,-1,-6,3,0,1,0,10.85
2171,-1,-2,-2,-2,-7,-4,-1,-3,10.855
2172,0,0,-1,1,1,-2,-1,-1,10.86
2173,0,-2,-3,-5,-8,0,-1,0,10.865
2174,-2,0,-1,2,6,-1,1,0,10.870000000000001
2175,-1,-1,1,5,2,0,-2,0,10.875
2176,-1,-2,-1,2,-6,0,-1,1,10.88
2177,0,-1,-5,-10,-10,-3,-1,-2,10.885
2178,-1,0,1,2,-4,-1,-1,-1,10.89
2179,-1,-1,-1,4,-2,-2,-1,-1,10.895
2180,0,1,-3,-8,0,2,-1,-1,10.9
2181,0,1,1,3,2,1,-1,-1,10.905
2182,-2,-1,-1,-3,-2,-1,-2,-1,10.91
2183,-2,-2,2,10,-2,-2,-2,-1,10.915000000000001
2184,-2,-2,-1,3,-4,-4,-1,-1,10.92
2185,-2,-1,-1,2,2,1,-1,-1,10.925
2186,1,-1,-1,-4,2,0,0,0,10.93
2187,-2,-2,-3,-8,-7,-1,0,-2,10.935
2188,-1,-1,0,3,0,-2,0,-2,10.94
2189,-1,-2,-2,-2,1,0,0,-1,10.945
2190,0,0,-1,2,1,0,0,-2,10.950000000000001
2191,0,-1,-2,-7,-7,0,-1,0,10.955
2192,0,-2,0,0,1,-1,-1,1,10.96
2193,-1,-1,0,1,0,-1,-2,-1,10.965
2194,-2,-1,-1,2,-1,0,-1,-2,10.97
2195,0,0,-1,0,-2,-2,-3,0,10.975
2196,-1,-1,-2,-3,4,1,-1,-1,10.98
2197,-1,-2,-1,1,0,0,0,-1,10.985
2198,-2,0,-2,0,-10,-5,0,1,10.99
2199,0,-1,0,-2,3,-1,1,0,10.995000000000001
2200,-2,-3,-1,-4,5,-1,-3,0,11.0
2201,0,-2,-1,-1,2,2,-2,0,11.005
2202,1,-2,1,6,-9,-2,0,-2,11.01
2203,0,0,-1,2,3,-3,-3,-2,11.015
2204,-1,0,-2,-5,-1,0,0,1,11.02
2205,-2,-1,-1,-4,-9,-3,0,-2,11.025
2206,1,0,0,2,4,2,0,1,11.03
2207,-1,-1,-1,-3,3,2,-1,0,11.035
2208,-1,-2,0,1,-3,0,-1,-3,11.040000000000001
2209,0,-2,-2,0,-2,-3,-1,-1,11.045
2210,0,0,0,-4,3,-1,-1,0,11.05
2211,1,-1,-1,-4,-7,-5,0,-1,11.055
2212,-1,1,-1,-9,-9,-3,-2,-1,11.06
2213,1,0,2,14,20,7,2,1,11.065
2214,-2,-1,1,0,5,0,0,0,11.07
2215,-3,-1,-1,-3,-11,-3,0,0,11.075000000000001
2216,-2,-1,-1,-4,4,2,-1,-2,11.08
2217,-3,1,-6,8,0,-2,-1,-3,11.085
2218,-3,-8,-6,-18,-6,-4,-3,-2,11.09
2219,3,3,-7,16,-5,6,1,2,11.095
2220,-2,-10,7,10,21,3,2,-4,11.1
2221,-1,3,-19,1,-16,-5,3,0,11.105
2222,2,-7,16,-34,-64,-17,-5,5,11.11
2223,-4,-7,-5,25,25,6,0,-2,11.115
2224,-1,-8,-26,12,-32,-8,-2,2,11.120000000000001
2225,-8,-18,-6,-38,24,-2,-10,-11,11.125
2226,0,23,7,72,3,15,10,-4,11.13
2227,13,13,14,-14,-46,-16,-6,5,11.135
2228,-1,14,25,-10,-13,-14,-8,-7,11.14
2229,4,-5,-20,-27,-48,-21,2,11,11.145
2230,-1,1,-16,-16,33,18,3,-3,11.15
2231,-13,-11,-25,1,38,8,4,-7,11.155
2232,5,20,13,6,51,15,-1,-12,11.16
2233,-12,-15,22,53,-49,-9,-1,-44,11.165000000000001
2234,-2,-3,3,-4,-9,-13,7,53,11.17
2235,2,1,-27,-39,-38,-14,-2,45,11.175
2236,1,12,43,-39,16,7,-7,-8,11.18
2237,-4,-1,7,-2,40,8,8,-16,11.185
2238,8,8,-32,48,47,32,1,-15,11.19
2239,-1,-17,-3,16,24,8,-17,-5,11.195
2240,-18,-11,-19,-5,-35,-21,8,-31,11.200000000000001
2241,20,9,9,-46,76,26,20,90,11.205
2242,4,11,5,-38,-20,-11,-44,-11,11.21
2243,-13,4,15,-1,-29,-28,0,-37,11.215
2244,11,5,-23,1,-1,37,8,44,11.22
2245,-3,10,45,110,-65,-26,-9,-28,11.225
2246,24,-4,38,-4,101,38,5,20,11.23
2247,1,-20,14,48,-30,-29,-10,-14,11.235
2248,-27,-9,-46,-90,-38,-33,-8,-62,11.24
2249,-22,-32,-41,-85,-3,14,39,11,11.245000000000001
2250,-14,1,-17,47,-94,-55,-12,8,11.25
2251,26,25,35,75,41,45,18,9,11.255
2252,9,-5,2,-41,46,5,14,46,11.26
2253,33,37,-4,87,116,40,-12,5,11.265
2254,-32,-17,-5,-49,-45,-36,-6,-23,11.27
2255,-3,-1,-2,-71,109,55,3,19,11.275
2256,10,9,34,113,-50,-25,-21,-31,11.28
2257,-26,-28,-47,-121,-106,-52,-15,18,11.285
2258,14,1,14,-55,22,21,18,5,11.290000000000001
2259,-3,23,1,45,72,28,7,-26,11.295
2260,2,-16,6,110,-18,11,22,35,11.3
2261,-3,-10,-8,-81,-98,-33,-29,-19,11.305
2262,-17,-8,19,82,12,-17,14,-11,11.31
2263,18,34,-21,-99,-85,-25,15,47,11.315
2264,-1,-21,-30,21,37,26,-3,-3,11.32
2265,-18,-4,48,-24,46,2,-19,-16,11.325000000000001
2266,16,8,-18,65,-62,-8,53,31,11.33
2267,19,2,58,-88,-43,-19,-49,-3,11.335
2268,2,-6,-58,-50,-39,-33,-29,-19,11.34
2269,-11,4,-14,45,58,40,23,-39,11.345
2270,6,9,-14,-77,11,33,8,-2,11.35
2271,15,-7,14,116,-4,-19,10,44,11.355
2272,-6,-15,30,57,21,-2,2,3,11.36
2273,-24,-5,14,-78,-75,-36,-47,-51,11.365
2274,-22,-22,-10,66,-57,-34,-4,-4,11.370000000000001
2275,14,-12,-36,-58,2,29,41,45,11.375
2276,2,14,86,-49,52,7,-3,-3,11.38
2277,30,27,-62,8,31,40,33,41,11.385
2278,-8,8,43,95,-38,-37,-47,-72,11.39
2279,-50,-59,-51,-93,-68,-49,-11,-29,11.395
2280,10,-14,-4,14,54,15,17,39,11.4
2281,38,31,30,61,94,67,28,22,11.405
2282,-8,2,-6,-86,12,10,-21,-58,11.41
2283,-28,12,8,-5,-3,-1,-18,-113,11.415000000000001
2284,-11,-1,14,48,-12,-3,-10,9,11.42
2285,29,17,-21,-50,-78,-25,-24,82,11.425
2286,5,-21,-19,-7,124,19,-2,69,11.43
2287,-34,-24,-12,-22,-19,-3,9,-42,11.435
2288,-13,5,-24,-94,-23,-8,36,-47,11.44
2289,22,32,34,-58,22,-34,-37,18,11.445
2290,26,-6,29,94,34,56,29,58,11.450000000000001
2291,3,29,4,51,15,-9,-6,22,11.455
2292,9,2,-5,-54,-15,2,-9,-28,11.46
2293,-21,-19,10,67,71,18,17,-36,11.465
2294,-16,-3,-26,-71,-29,-24,-15,-15,11.47
2295,-9,5,7,21,18,28,3,-55,11.475
2296,4,1,-18,35,-39,-7,3,41,11.48
2297,-13,-4,5,0,-34,-62,-32,-30,11.485
2298,0,-5,19,7,22,39,8,-43,11.49
2299,-11,-29,-27,-64,-47,-28,6,-20,11.495000000000001
2300,14,25,-21,50,75,31,16,50,11.5
2301,0,16,-13,-99,24,-4,37,42,11.505
2302,-5,-4,-1,40,-28,-26,-63,-36,11.51
2303,24,-26,-67,-73,-15,-12,-4,113,11.515
2304,13,-30,59,107,0,6,-32,43,11.52
2305,7,16,23,24,98,87,30,7,11.525
2306,4,1,-52,-78,-21,-14,10,-70,11.53
2307,-10,12,50,-19,55,26,18,14,11.535
2308,-49,-55,-65,-98,-22,-44,-25,-57,11.540000000000001
2309,23,19,64,127,43,29,31,-15,11.545
2310,-43,-46,-61,-101,-100,-77,-46,-35,11.55
2311,-8,-5,9,85,24,30,8,-22,11.555
2312,26,44,12,-104,-44,7,39,12,11.56
2313,-29,-43,-61,-2,-2,-32,-45,-23,11.565
2314,1,5,12,-65,10,4,17,-18,11.57
2315,22,13,-13,1,-17,-17,-20,-1,11.575000000000001
2316,28,57,38,19,42,23,-17,63,11.58
2317,21,-1,-12,-8,-82,-4,9,34,11.585
2318,-16,-22,2,-38,-21,-33,-26,39,11.59
2319,-20,-3,29,18,-85,-50,-2,-55,11.595
2320,12,16,19,118,89,58,26,-24,11.6
2321,-1,-6,23,20,-14,-14,-23,-10,11.605
2322,-1,8,20,127,-15,34,40,18,11.61
2323,-10,-2,-24,-71,-65,-32,-15,-17,11.615
2324,-8,3,6,-128,-48,-41,-27,-34,11.620000000000001
2325,-10,-10,-29,107,20,15,26,-18,11.625
2326,-19,0,0,-27,-25,-22,-3,-77,11.63
2327,10,2,-65,-28,-5,-9,25,93,11.635
2328,-9,-3,-27,-19,-94,-26,-50,7,11.64
2329,14,-16,57,26,33,9,-2,57,11.645
2330,20,22,1,-67,-4,-2,-45,19,11.65
2331,-8,-4,4,10,78,27,3,-98,11.655
2332,-10,-12,-14,-13,-86,-33,1,-40,11.66
2333,-10,-13,-16,-88,-48,-30,43,17,11.665000000000001
2334,23,41,25,93,91,40,-16,55,11.67
2335,-6,-22,7,-11,-35,-25,-30,5,11.675
2336,-8,-6,2,124,93,64,28,-16,11.68
2337,2,3,-7,-48,-105,-37,1,-15,11.685
2338,22,25,15,-68,50,20,31,71,11.69
2339,-19,-39,-11,48,72,35,-1,-32,11.695
2340,-7,-1,-5,12,-58,-40,15,60,11.700000000000001
2341,-8,-31,13,65,18,44,-21,7,11.705
2342,3,18,-11,-43,-32,-26,3,-3,11.71
2343,52,9,34,113,68,54,0,63,11.715
2344,-5,-6,-11,-85,67,-2,-10,-54,11.72
2345,-31,-9,24,-21,-83,-25,17,-3,11.725
2346,-10,12,-11,-18,92,19,14,-10,11.73
2347,12,-2,22,22,27,21,-8,12,11.735
2348,-8,-17,-12,-32,67,-4,-14,-9,11.74
2349,-11,6,-38,33,90,36,-9,-34,11.745000000000001
2350,7,-1,52,-16,-27,-6,23,9,11.75
2351,6,24,-26,5,84,22,-1,-11,11.755
2352,-6,-9,17,-15,-50,13,17,-75,11.76
2353,-25,-2,-34,-128,-61,-43,-44,5,11.765
2354,-11,-35,-37,66,103,26,21,-17,11.77
2355,1,6,36,4,4,-15,-7,42,11.775
2356,-2,-17,-80,-65,-85,-39,-38,30,11.78
2357,26,28,20,-107,-25,-21,-16,-20,11.785
2358,33,13,31,79,29,29,10,62,11.790000000000001
2359,5,15,-2,-41,-48,-13,18,20,11.795
2360,-16,-14,43,56,-58,-28,10,-22,11.8
2361,-18,-28,-49,-48,-43,-3,2,-56,11.805
2362,-8,-25,55,27,39,28,12,10,11.81
2363,-14,-22,-67,-111,-73,-38,-22,-26,11.815
2364,-1,-14,18,58,64,14,5,-10,11.82
2365,20,24,8,75,94,33,38,-38,11.825000000000001
2366,3,5,-37,-101,-42,-31,-8,39,11.83
2367,-32,-31,5,-4,-72,-49,-37,-25,11.835
2368,20,22,-37,-54,82,58,20,42,11.84
2369,27,5,7,71,-4,-17,-43,36,11.845
2370,3,21,-18,-60,-100,-24,10,-79,11.85
2371,-29,-30,24,24,13,-7,18,0,11.855
2372,7,6,0,-57,-30,0,-5,81,11.86
2373,3,20,10,10,43,2,-40,-68,11.865
2374,-4,-16,-13,-23,-43,-27,-8,13,11.870000000000001
2375,-7,1,-7,-43,-34,14,21,-12,11.875
2376,5,9,87,127,67,55,41,11,11.88
2377,-12,7,-17,-95,-99,-39,-7,-10,11.885
2378,9,7,3,78,46,43,20,-5,11.89
2379,2,21,57,54,-8,-10,-12,-26,11.895
2380,-7,0,-17,-66,-53,-44,-13,-3,11.9
2381,-12,-5,30,55,49,21,33,13,11.905
2382,-4,-13,-52,-23,-11,-2,4,8,11.91
2383,14,34,-4,27,-35,-11,-3,-5,11.915000000000001
2384,6,13,33,2,35,9,1,-46,11.92
2385,8,3,-44,-53,-26,-38,-38,78,11.925
2386,31,-26,-5,37,9,20,9,96,11.93
2387,21,-1,2,41,62,38,-7,-13,11.935
2388,-20,-3,12,-82,-119,-81,-22,-51,11.94
2389,-31,-27,-4,31,-12,16,45,-52,11.945
2390,-8,9,2,-8,101,30,9,38,11.950000000000001
2391,11,11,-45,-98,-29,-34,-24,23,11.955
2392,-5,-9,-24,-25,-34,10,0,-22,11.96
2393,-10,3,70,43,58,45,23,-16,11.965
2394,-4,8,-25,-84,-43,-44,-30,-39,11.97
2395,-4,0,36,81,9,11,3,-5,11.975
2396,-17,4,-57,-76,-34,-28,-13,-16,11.98
2397,-22,-37,-27,-13,-12,-11,20,-9,11.985
2398,22,33,6,-6,-3,12,10,11,11.99
2399,27,23,23,19,35,-4,-43,12,11.995000000000001
2400,-11,-3,-9,22,26,6,-22,-74,12.0
2401,-4,-21,1,13,1,17,10,91,12.005
2402,-12,-13,36,43,-5,-6,17,51,12.01
2403,8,16,-62,-86,-35,-14,-3,14,12.015
2404,6,-11,10,23,-58,-6,-8,2,12.02
2405,-1,9,9,25,72,43,-5,-64,12.025
2406,-35,-19,-40,-96,-51,-40,-28,-87,12.030000000000001
2407,1,16,59,63,51,35,35,3,12.035
2408,14,0,-30,-25,26,-3,-1,30,12.040000000000001
2409,7,15,0,1,12,-15,-12,-10,12.045
2410,-11,-17,13,2,-19,1,2,-16,12.05
2411,-25,-23,13,-27,-3,-1,5,-4,12.055
2412,6,5,-43,-15,17,13,14,13,12.06
2413,26,11,-10,-10,-10,-11,-7,31,12.065
2414,14,18,10,28,-4,-2,-36,-11,12.07
2415,-12,-10,2,15,11,3,-22,-21,12.075000000000001
2416,-19,-9,8,30,12,-13,-53,-71,12.08
2417,5,-1,-1,3,-20,6,53,100,12.085
2418,6,-8,4,9,-12,5,23,-21,12.09
2419,-5,-8,-10,-10,-16,3,33,-3,12.095
2420,7,6,9,11,49,19,14,9,12.1
2421,0,-2,3,9,-12,-16,-37,-42,12.105
2422,-12,-10,0,-23,18,-1,-13,-18,12.11
2423,3,5,24,99,27,7,11,1,12.115
2424,8,4,2,-11,-13,1,0,26,12.120000000000001
2425,4,7,-7,-46,-17,-11,-11,-18,12.125
2426,-4,0,11,62,26,20,7,3,12.13
2427,-1,5,-10,-27,2,-1,-3,-8,12.135
2428,3,1,18,7,9,6,15,37,12.14
2429,1,-2,-28,-33,-13,-9,-6,-5,12.145
2430,-5,-5,3,35,-26,-11,-6,-19,12.15
2431,-1,-5,-18,-35,-11,1,2,2,12.155000000000001
2432,3,-2,15,52,29,10,10,25,12.16
2433,-7,-2,1,-6,-10,-6,-5,-17,12.165000000000001
2434,-4,3,-4,-6,-14,-2,-3,-8,12.17
2435,7,2,0,12,6,1,4,4,12.175
2436,1,1,1,6,0,2,9,20,12.18
2437,3,2,7,7,-6,-4,-10,-14,12.185
2438,-7,-4,-1,-1,-8,-5,-3,-4,12.19
2439,-4,-7,-2,-24,-7,-2,3,8,12.195
2440,2,-2,-1,1,7,2,4,8,12.200000000000001
2441,0,-3,-2,18,-1,-2,-9,-8,12.205
2442,-4,-3,-3,-21,-7,-2,-2,-4,12.21
2443,-2,-2,-5,-18,-8,-2,1,-3,12.215
2444,1,-3,1,2,4,5,7,8,12.22
2445,-2,-3,5,11,2,-1,-3,-6,12.225
2446,-2,-5,0,-4,-10,-3,2,0,12.23
2447,-4,-4,-4,-10,-4,-1,1,-2,12.235
2448,0,-2,-3,9,5,1,2,4,12.24
2449,0,-2,0,-2,-6,-3,-2,0,12.245000000000001
2450,1,0,0,-7,-4,-1,0,-3,12.25
2451,-4,-4,-3,9,-4,-2,0,0,12.255
2452,-1,-3,-3,23,1,-2,0,2,12.26
2453,1,1,0,1,-5,-4,-1,-3,12.265
2454,1,3,-4,-11,0,1,-3,-4,12.27
2455,-1,1,-5,-12,-3,-2,-1,-2,12.275
2456,0,0,0,-4,3,-1,0,4,12.280000000000001
2457,0,1,1,-7,-8,-3,-3,-3,12.285
2458,-2,-1,-2,-4,-2,-1,-1,1,12.290000000000001
2459,-2,-2,2,1,-1,-2,0,-2,12.295
2460,0,-1,0,-11,-3,-3,-1,0,12.3
2461,0,0,2,4,10,6,1,-1,12.305
2462,1,-3,0,-13,5,2,1,-1,12.31
2463,0,0,4,31,7,1,0,0,12.315
2464,-1,1,-1,-9,-1,0,0,0,12.32
2465,-2,-5,-6,-4,-8,-5,-3,-3,12.325000000000001
2466,1,-2,-1,0,-3,-1,-1,-2,12.33
2467,1,0,-5,-21,-6,-1,0,-2,12.335
2468,-3,0,-2,2,-2,-2,-1,1,12.34
2469,0,2,2,7,3,-1,-1,-1,12.345
2470,0,-1,-1,2,-7,-3,-1,0,12.35
2471,-2,0,-3,-14,-18,-7,-3,0,12.355
2472,0,-1,0,4,25,8,2,2,12.36
2473,2,2,-3,-16,-4,0,-2,-1,12.365
2474,0,-1,2,24,1,0,0,1,12.370000000000001
2475,-1,-2,-2,-6,-6,-1,0,-1,12.375
2476,0,-2,-1,-4,-4,-2,0,1,12.38
2477,-1,-2,-2,-2,-3,-1,-1,0,12.385
2478,0,-2,3,6,1,-1,-1,-2,12.39
2479,-1,-2,-3,-4,1,-1,-1,-1,12.395
2480,-3,0,-2,0,-7,-1,-2,0,12.4
2481,-1,-1,0,6,5,-1,0,-1,12.405000000000001
2482,-2,0,-1,-5,-6,-2,-2,-1,12.41
2483,1,1,-2,-10,0,0,0,0,12.415000000000001
2484,1,-1,5,22,3,1,0,-1,12.42
2485,-1,0,-7,-25,-4,-4,-1,0,12.425
2486,0,0,10,35,-1,0,-2,-1,12.43
2487,0,0,-7,-27,-4,0,1,-1,12.435
2488,0,-2,-4,8,5,-1,-2,1,12.44
2489,0,-2,2,1,0,0,-2,-2,12.445
2490,0,-3,-9,-22,-6,-5,-3,-2,12.450000000000001
2491,0,0,1,-2,7,3,2,2,12.455
2492,-1,-1,2,5,-8,0,0,-1,12.46
2493,0,-1,-1,3,-1,0,-1,0,12.465
2494,0,0,0,-1,1,-2,1,0,12.47
2495,0,0,0,-1,0,-2,-2,-1,12.475
2496,-1,-1,-6,-18,-7,-2,0,0,12.48
2497,-3,-2,2,19,-7,-2,0,-1,12.485
2498,-2,1,-1,-1,13,3,0,-1,12.49
2499,-1,0,-4,-5,-6,-4,-2,-1,12.495000000000001
2500,0,-1,0,2,1,1,-1,-1,12.5
2501,-2,-2,1,-1,-2,0,0,-1,12.505
2502,-1,-2,-2,-8,-5,-2,-2,-1,12.51
2503,-1,-1,0,7,3,-1,-3,-1,12.515
2504,0,-3,-4,-14,-3,-2,0,0,12.52
2505,-2,-1,1,4,0,1,1,-2,12.525
2506,-1,-2,-1,-1,-5,0,0,0,12.530000000000001
2507,0,2,0,2,5,1,-1,1,12.535
2508,1,1,1,-1,1,0,0,-1,12.540000000000001
2509,-1,-2,-1,-5,-3,-3,-1,0,12.545
2510,-1,0,0,2,5,2,1,-1,12.55
2511,-1,-2,0,2,-4,-2,-3,-2,12.555
2512,-2,-2,-5,-16,-3,-1,-1,-1,12.56
2513,-1,-1,6,9,2,-3,-4,0,12.565
2514,0,-1,-6,0,5,-2,0,-2,12.57
2515,-1,-1,0,1,-2,0,-1,0,12.575000000000001
2516,-2,-1,-1,-1,-5,-1,0,-1,12.58
2517,-1,1,-2,-9,2,0,0,-1,12.585
2518,-1,-3,-3,-7,-15,-5,-3,0,12.59
2519,-1,-2,2,4,7,0,-1,0,12.595
2520,-1,-1,-1,4,-1,0,0,-3,12.6
2521,1,0,0,5,1,1,0,0,12.605
2522,1,-2,0,-4,-4,-2,-2,0,12.61
2523,-2,0,-1,2,0,1,1,1,12.615
2524,0,0,0,-3,-2,-1,-2,-1,12.620000000000001
2525,-1,-3,-5,-21,-4,-1,-1,-1,12.625
2526,0,1,8,42,4,0,-1,-1,12.63
2527,-1,-1,-1,-2,1,0,-1,-1,12.635
2528,0,1,0,-3,-2,-2,-2,1,12.64
2529,0,-1,-1,6,2,1,1,-1,12.645
2530,-2,1,-4,-21,-2,-1,-2,0,12.65
2531,-1,-1,1,1,4,0,1,0,12.655000000000001
2532,-1,0,-1,7,-8,-2,-1,-2,12.66
2533,1,-1,-1,1,0,-1,-1,-2,12.665000000000001
2534,-1,-2,-5,-13,-5,0,-3,0,12.67
2535,-1,1,1,3,0,0,-1,1,12.675
2536,-1,-1,-1,-4,1,-2,-1,-1,12.68
2537,0,0,-2,-2,-2,-2,-1,-1,12.685
2538,0,-1,0,-5,1,3,0,-1,12.69
2539,0,-2,-3,0,-6,-1,-2,-2,12.695
2540,3,1,1,-2,0,-2,-1,1,12.700000000000001
2541,-1,-1,0,5,-1,-1,-2,0,12.705
2542,0,1,1,-4,-11,-4,-1,0,12.71
2543,0,-1,-1,-1,14,2,0,-1,12.715
2544,0,0,-1,1,-2,0,-1,0,12.72
2545,-1,0,1,6,-6,-4,1,0,12.725
2546,-1,0,0,-5,5,2,1,0,12.73
2547,0,0,-2,-1,-9,-2,-2,0,12.735
2548,-2,0,-1,-8,-1,-1,-2,-2,12.74
2549,-1,-1,1,10,3,3,-2,0,12.745000000000001
2550,-2,-1,-2,-5,-1,-3,0,0,12.75
2551,-1,0,-2,-1,-5,-2,0,0,12.755
2552,-1,-1,-2,-1,2,-2,0,-2,12.76
2553,0,-1,-2,-1,-1,2,-1,0,12.765
2554,0,0,-3,-12,-1,-1,0,-3,12.77
2555,-1,0,4,19,4,0,0,-1,12.775
2556,-2,0,-1,-2,-5,-2,0,-1,12.780000000000001
2557,-1,0,1,-3,3,0,0,-1,12.785
2558,0,-3,-1,-1,0,-1,-1,-1,12.790000000000001
2559,-1,0,-3,-9,-3,-1,0,-1,12.795
2560,-2,0,1,3,1,-1,-1,0,12.8
2561,0,-1,0,0,1,0,-1,-1,12.805
2562,-1,-2,-3,2,0,-1,-3,-1,12.81
2563,-1,-1,-3,-4,-7,-3,0,-1,12.815
2564,0,-1,0,2,2,1,-1,0,12.82
2565,-1,0,-3,-7,-12,-3,0,0,12.825000000000001
2566,-3,0,-1,-2,15,1,-1,-1,12.83
2567,-1,-1,-1,-3,-4,-2,0,-3,12.835
2568,0,-1,-4,-8,-1,-1,-1,0,12.84
2569,0,-1,3,17,3,1,-1,0,12.845
2570,-2,1,-3,-2,-3,-2,0,0,12.85
2571,1,-1,-1,-6,-7,0,-1,0,12.855
2572,0,-1,-1,2,1,-1,1,-1,12.86
2573,0,-2,-1,-4,1,0,0,0,12.865
2574,-1,-1,-1,-1,-2,0,-1,0,12.870000000000001
2575,-1,1,1,6,4,3,-1,1,12.875
2576,-1,-1,-3,-15,-5,-1,0,0,12.88
2577,-1,-1,2,6,2,-1,-2,-1,12.885
2578,-1,-2,-2,3,-3,-2,-1,-1,12.89
2579,-1,-1,-2,-8,-1,-1,-2,0,12.895
2580,0,-2,-1,2,-2,-1,-2,-1,12.9
2581,-2,-1,-2,-5,1,1,1,0,12.905000000000001
2582,-1,0,-2,-3,-3,-2,-1,-1,12.91
2583,-1,-2,-3,-4,-1,-1,-1,0,12.915000000000001
2584,1,-1,2,6,3,-2,-1,-1,12.92
2585,-1,-2,-3,-6,1,0,0,-1,12.925
2586,-1,-2,3,9,-2,0,0,-1,12.93
2587,-1,-1,0,-4,-1,-1,-1,0,12.935
2588,-2,1,0,6,0,-1,-1,1,12.94
2589,-2,0,-3,-9,-1,-1,0,-2,12.945
2590,1,-1,-2,-7,-4,-2,-1,-2,12.950000000000001
2591,0,0,-1,3,2,-2,0,-1,12.955
2592,0,-1,1,0,-1,1,1,-1,12.96
2593,1,0,-1,-3,-7,-3,-2,0,12.965
2594,-1,-1,-2,-3,-1,0,-1,-1,12.97
2595,1,0,2,6,0,1,-1,-1,12.975
2596,-1,-1,-2,-1,1,-1,-3,-1,12.98
2597,-1,0,0,-1,-2,-1,-1,-2,12.985
2598,-2,-2,-1,2,-4,-3,-1,1,12.99
2599,-1,0,-1,-8,-1,-1,-1,0,12.995000000000001
2600,0,-1,1,0,-1,1,0,0,13.0
2601,1,-3,-1,5,2,-1,-1,0,13.005
2602,-2,-1,-2,-3,0,1,-2,0,13.01
2603,0,0,-3,-12,0,-2,-1,-1,13.015
2604,0,-2,0,14,-2,-1,0,-2,13.02
2605,2,0,0,2,3,-1,0,-1,13.025
2606,-1,-2,2,5,0,-1,-2,-2,13.030000000000001
2607,-1,-3,-1,1,-2,-1,-1,-1,13.035
2608,-3,-1,-1,-4,-2,1,0,-1,13.040000000000001
2609,-1,0,-3,-8,0,-1,0,2,13.045
2610,0,-2,-1,-3,0,-1,0,-2,13.05
2611,-1,0,-1,1,-2,0,0,-1,13.055
2612,0,-1,-2,-4,1,0,0,-1,13.06
2613,-1,-1,0,2,1,-1,-1,-1,13.065
2614,-1,2,-1,-5,-2,-1,-1,-1,13.07
2615,-2,-2,2,6,1,0,-1,0,13.075000000000001
2616,0,0,-1,-3,-1,1,0,-1,13.08
2617,-1,0,3,11,2,1,-2,-2,13.085
2618,-1,-2,-2,-3,-3,0,-2,0,13.09
2619,-1,-3,-2,-2,-2,-1,-1,-1,13.095
2620,-2,-2,-1,-5,-2,-3,-2,-1,13.1
2621,-2,-1,-1,-5,-1,0,-1,-1,13.105
2622,-2,-1,0,-1,-1,-2,0,0,13.11
2623,-1,0,-2,-3,-1,-1,-2,-1,13.115
2624,0,-1,0,0,0,0,0,0,13.120000000000001
2625,-2,-1,0,-3,1,0,0,-1,13.125
2626,0,0,0,-3,-13,-3,0,-2,13.13
2627,-1,-1,0,-3,15,4,1,1,13.135
2628,-1,-1,1,2,-2,0,-1,-2,13.14
2629,-3,-3,2,15,-1,0,-1,-3,13.145
2630,-1,-1,-3,-17,-1,-1,-1,0,13.15
2631,-1,-2,0,19,-4,-3,-2,-2,13.155000000000001
2632,0,0,-1,-4,-1,-1,-1,0,13.16
2633,0,-1,-3,-9,1,0,0,1,13.165000000000001
2634,-1,-2,0,1,1,-1,0,-2,13.17
2635,0,-1,-1,-5,-3,-2,-2,-2,13.175
2636,-2,-1,1,-1,5,0,-1,1,13.18
2637,-1,-1,-2,-2,-6,-3,-1,0,13.185
2638,0,1,-4,-7,-6,-2,1,-1,13.19
2639,-2,-1,1,7,9,2,-1,-1,13.195
2640,0,0,4,16,0,-1,-1,-1,13.200000000000001
2641,1,-1,-2,-7,-2,-1,-2,-1,13.205
2642,-2,-2,-2,-3,3,1,0,-1,13.21
2643,-1,0,-2,-9,-8,-4,-1,-2,13.215
2644,-1,-1,-2,-4,-1,-2,1,0,13.22
2645,0,-1,-1,-3,-1,0,0,0,13.225
2646,0,-1,2,9,3,0,-2,-2,13.23
2647,0,-1,-2,-3,-6,-1,-2,0,13.235
2648,-1,-2,-1,-1,1,0,0,0,13.24
2649,0,0,-2,-2,-1,0,1,-1,13.245000000000001
2650,0,-1,-2,-14,0,0,-1,0,13.25
2651,-1,-2,4,19,0,-1,2,0,13.255
2652,-1,-1,-1,-9,-8,0,-2,-1,13.26
2653,-1,1,1,5,12,0,-1,0,13.265
2654,-1,0,-1,3,1,-2,0,-2,13.27
2655,0,0,-1,-7,-4,-2,-1,1,13.275
2656,0,0,-2,-7,-1,-1,-1,0,13.280000000000001
2657,0,-1,1,6,-5,-2,-2,-1,13.285
2658,-2,-1,-2,-3,-1,0,-2,0,13.290000000000001
2659,0,0,-3,3,1,-1,-1,-2,13.295
2660,0,-1,-2,0,-2,-1,-1,0,13.3
2661,1,-3,-3,-6,-3,-1,-1,0,13.305
2662,-1,0,-1,2,0,-2,-1,0,13.31
2663,0,0,-1,-8,-4,1,0,0,13.315
2664,-1,1,0,2,1,-2,1,-1,13.32
2665,-2,-1,-2,-3,-1,-1,-1,-2,13.325000000000001
2666,1,-2,0,5,2,-1,-2,0,13.33
2667,-2,0,-2,-2,-2,-2,0,-1,13.335
2668,-2,0,-2,-13,-1,-1,-1,0,13.34
2669,-2,-2,0,12,-1,-1,-1,-1,13.345
2670,-2,-2,-2,4,-4,-1,0,-1,13.35
2671,0,-2,0,-2,1,0,0,-2,13.355
2672,-1,0,-1,-8,-5,-2,-1,0,13.36
2673,0,-2,-1,-6,1,0,0,1,13.365
2674,-2,-1,-2,-8,0,1,-2,0,13.370000000000001
2675,-1,-1,2,6,-1,-1,-1,-1,13.375
2676,-1,-1,-2,2,-3,-1,0,-1,13.38
2677,-2,0,-1,-3,-2,0,0,-1,13.385
2678,-2,-1,-2,1,1,-3,-1,-2,13.39
2679,-1,0,-2,-9,-4,0,-1,0,13.395
2680,0,-1,-1,5,-5,-1,0,-1,13.4
2681,-3,-1,-1,-1,3,-1,-1,0,13.405000000000001
2682,0,-1,-1,3,0,-1,-1,-1,13.41
2683,0,0,0,0,-1,-2,-1,-1,13.415000000000001
2684,-1,-1,0,4,0,1,0,-1,13.42
2685,0,-1,-2,-8,-4,-3,-1,-2,13.425
2686,-2,0,4,10,1,0,0,-1,13.43
2687,-1,-2,-1,-1,-3,-1,-3,0,13.435
2688,0,-2,-1,0,4,1,-2,-2,13.44
2689,0,-1,-1,-2,-1,-1,0,-1,13.445
2690,0,0,-2,2,1,-3,-2,-1,13.450000000000001
2691,-1,1,-2,-5,-1,0,0,-1,13.455
2692,-2,-2,0,1,4,3,1,1,13.46
2693,1,-1,-7,-30,-2,0,0,0,13.465
2694,-1,-2,5,42,2,0,-1,-1,13.47
2695,1,1,-1,-2,1,-2,1,-2,13.475
2696,0,0,-1,-1,2,0,-1,-1,13.48
2697,-2,0,0,-3,-1,0,-3,-1,13.485
2698,-1,-1,-2,-13,-2,-1,-1,-2,13.49
2699,-1,-2,-1,-3,0,-1,-1,1,13.495000000000001
2700,0,-1,1,6,1,0,-1,0,13.5
2701,-1,0,-1,2,-1,-2,0,0,13.505
2702,-1,-2,-2,-6,-3,0,-2,-1,13.51
2703,-2,-2,-1,3,0,1,-2,0,13.515
2704,0,0,0,-5,-1,-2,-1,-1,13.52
2705,-1,0,0,6,-1,0,-2,-1,13.525
2706,0,1,-2,-6,-2,-1,0,-2,13.530000000000001
2707,0,-1,0,-3,0,-2,-1,1,13.535
2708,0,-2,-1,1,0,0,2,-1,13.540000000000001
2709,1,1,1,4,-3,0,-1,-1,13.545
2710,0,-2,-4,-16,-10,-5,-1,-3,13.55
2711,1,0,1,4,6,3,0,0,13.555
2712,-1,-1,0,9,0,-1,-2,-1,13.56
2713,-1,-1,1,7,1,0,-2,0,13.565
2714,-2,-1,-1,-11,-9,-2,-1,1,13.57
2715,1,0,-3,-10,-4,-2,-1,-2,13.575000000000001
2716,-1,0,-1,-1,1,-2,1,-1,13.58
2717,0,-1,-1,0,-4,-2,-1,-2,13.585
2718,0,-1,-1,-2,3,-1,-2,-1,13.59
2719,0,-2,-3,-3,-1,-1,-1,-1,13.595
2720,0,-2,1,3,0,0,-1,0,13.6
2721,-1,-1,-1,4,-1,-3,-1,-3,13.605
2722,-1,-2,-1,-5,-1,-2,-1,0,13.61
2723,-2,-2,1,7,1,0,-1,1,13.615
2724,-1,0,-2,-6,-4,-1,-2,-2,13.620000000000001
2725,-1,-2,-1,-3,0,-2,0,-1,13.625
2726,-2,-1,-1,1,2,2,0,-2,13.63
2727,0,0,-1,-1,-3,0,-1,-1,13.635
2728,-1,0,-2,-3,0,1,0,-1,13.64
2729,-1,-1,-3,-7,1,-2,-1,0,13.645
2730,-1,-1,0,6,0,-1,-1,1,13.65
2731,-1,-1,-1,-5,-1,-1,-1,-1,13.655000000000001
2732,0,-1,3,18,0,-1,1,1,13.66
2733,-2,-2,-1,2,0,0,-3,-1,13.665000000000001
2734,-1,-1,-2,-7,-1,-1,-1,0,13.67
2735,-1,-1,-3,-4,-3,-1,0,-2,13.675
2736,-1,0,-3,-8,0,0,-2,-1,13.68
2737,-3,-2,-2,-1,-2,0,0,0,13.685
2738,-1,0,0,5,1,1,-2,-1,13.69
2739,-3,-1,-2,-2,-13,-2,0,-3,13.695
2740,0,-1,-2,-3,11,2,0,0,13.700000000000001
2741,-1,-1,-3,-11,-3,-1,-2,0,13.705
2742,1,-1,5,16,3,2,0,-2,13.71
2743,-1,-1,-1,-5,-2,-2,1,-1,13.715
2744,1,-1,-1,10,-5,-2,-2,-1,13.72
2745,0,1,0,0,0,1,0,-2,13.725
2746,1,-1,-4,-10,-1,-1,-1,0,13.73
2747,-1,-1,-1,1,1,0,-3,0,13.735
2748,-1,-1,-1,-4,1,0,-1,0,13.74
2749,0,0,-2,-2,-1,-1,-1,-1,13.745000000000001
2750,0,1,-1,2,-1,0,0,0,13.75
2751,0,-2,0,2,3,0,-2,-1,13.755
2752,0,-1,-2,-9,-5,-1,-2,-2,13.76
2753,-2,-2,2,7,-1,-1,-1,0,13.765
2754,0,0,-2,-4,-2,-2,0,-2,13.77
2755,1,0,0,2,1,0,1,2,13.775
2756,-1,0,0,-3,-2,-1,0,-1,13.780000000000001
2757,-1,0,0,2,-1,-1,-1,-2,13.785
2758,0,-1,-2,-4,-1,-1,0,0,13.790000000000001
2759,-2,-1,-2,4,-1,2,-1,-1,13.795
2760,-1,0,1,6,-1,0,1,0,13.8
2761,0,1,-2,-12,-4,-3,0,1,13.805
2762,-1,1,3,8,1,-1,-1,-2,13.81
2763,0,-3,1,-3,-2,0,-1,0,13.815
2764,-1,-1,-3,-5,-3,0,0,0,13.82
2765,-2,0,-1,-1,-2,-1,-2,0,13.825000000000001
2766,0,-3,-3,-6,0,-1,-1,-1,13.83
2767,-1,-2,0,-1,2,-1,-1,-1,13.835
2768,-1,-2,0,-3,-3,0,-1,-2,13.84
2769,-1,-2,-1,0,-4,-1,-1,-1,13.845
2770,-1,0,-1,-3,4,1,0,0,13.85
2771,0,-1,2,1,0,-1,0,-1,13.855
2772,0,-1,1,10,3,-1,0,-1,13.86
2773,-2,0,-2,3,-3,-1,-2,-1,13.865
2774,-2,-2,-4,0,-3,-1,0,-1,13.870000000000001
2775,-1,-1,-1,-4,0,-2,-3,-2,13.875
2776,1,0,-1,-6,-2,-1,-1,0,13.88
2777,0,-1,-1,2,0,-3,0,-1,13.885
2778,-2,-2,2,1,0,0,-1,-1,13.89
2779,0,-1,-7,-22,-2,0,-1,0,13.895
2780,-1,-2,4,24,1,1,0,-1,13.9
2781,-1,-1,0,2,2,2,-2,-3,13.905000000000001
2782,0,0,-3,-1,0,-1,-1,-1,13.91
2783,0,-2,-2,-5,-7,-2,1,0,13.915000000000001
2784,-3,-1,-2,-12,0,-1,-2,-1,13.92
2785,-1,-2,0,-9,0,1,0,1,13.925
2786,-1,0,1,9,1,-2,-1,1,13.93
2787,-1,1,-1,6,-3,-1,1,0,13.935
2788,-1,0,-3,-7,-1,-1,-1,-1,13.94
2789,1,1,-1,-3,0,-2,0,-1,13.945
2790,0,0,0,2,-3,-1,-2,-1,13.950000000000001
2791,-1,-1,-4,-11,2,-1,-1,-1,13.955
2792,0,-4,3,20,1,-1,-2,-1,13.96
2793,0,-2,-3,-7,-12,-3,-2,-2,13.965
2794,0,2,1,-2,10,3,0,0,13.97
2795,-1,-1,1,6,1,-1,-1,-1,13.975
2796,-1,0,-3,-14,-6,-1,-1,0,13.98
2797,0,-1,1,12,2,-1,1,-1,13.985
2798,-3,-1,0,0,-7,-2,-1,0,13.99
2799,-1,-1,-1,3,1,0,-1,0,13.995000000000001
2800,-1,-1,-3,-9,-1,-1,0,-1,14.0
2801,-2,-1,0,4,3,0,-3,-2,14.005
2802,-1,-1,-2,-14,-4,0,0,-2,14.01
2803,-1,0,4,14,1,1,1,-1,14.015
2804,-1,-2,-2,-3,-2,0,-1,0,14.02
2805,1,-1,-1,-2,1,1,2,1,14.025
2806,-2,-1,-2,-8,-6,-2,0,0,14.030000000000001
2807,-1,-1,-1,0,1,-2,-1,-1,14.035
2808,1,-1,-3,-4,0,0,1,0,14.040000000000001
2809,-2,-1,0,7,1,-2,-1,-2,14.045
2810,-1,0,-3,-7,-5,-1,-1,-2,14.05
2811,1,0,0,2,-2,-1,-2,0,14.055
2812,-1,1,-2,-6,1,-2,0,0,14.06
2813,-1,-1,-1,-5,2,0,-1,0,14.065
2814,-1,-2,0,2,-4,-2,-1,-1,14.07
2815,-1,-2,-4,-7,-2,0,-1,-1,14.075000000000001
2816,0,0,0,-3,1,-1,0,0,14.08
2817,-2,-2,0,1,-2,-1,0,-1,14.085
2818,-1,-1,0,4,1,0,-1,-1,14.09
2819,-1,-1,2,0,-10,-1,0,-1,14.095
2820,0,-1,0,0,13,3,-1,-2,14.1
2821,-1,-1,-2,0,-3,-2,-2,-1,14.105
2822,0,-1,-1,-1,2,0,-1,-2,14.11
2823,-1,-1,-3,-9,-1,-2,0,-1,14.115
2824,-1,1,0,10,-6,-2,-2,-1,14.120000000000001
2825,-1,2,2,10,1,-1,-2,0,14.125
2826,-2,-1,1,5,3,0,0,-1,14.13
2827,-1,0,1,1,1,0,-1,0,14.135
2828,-2,-1,-1,-7,-3,-1,1,-1,14.14
2829,0,-1,-2,-6,-1,-2,1,-1,14.145
2830,-1,-1,-2,-2,-2,0,0,-1,14.15
2831,0,0,-2,3,3,-1,-2,-1,14.155000000000001
2832,-2,-2,-3,-9,-5,0,0,0,14.16
2833,0,-2,-1,4,-3,-2,-4,-1,14.165000000000001
2834,0,0,-1,-2,-1,-2,-2,-1,14.17
2835,-1,-1,0,-2,0,-1,0,0,14.175
2836,0,-1,0,3,2,1,-2,0,14.18
2837,1,-3,-4,-6,-3,-2,0,-1,14.185
2838,-2,-1,-5,-19,-4,-2,0,0,14.19
2839,-1,1,2,19,4,1,0,0,14.195
2840,0,0,1,0,-2,-2,-2,-1,14.200000000000001
2841,-2,-1,-1,-3,-3,-1,-1,0,14.205
2842,1,-1,-1,-7,-1,-1,-2,-2,14.21
2843,-1,-1,-2,-7,-1,0,1,-1,14.215
2844,-1,0,-1,-1,-3,-1,1,0,14.22
2845,-1,-1,0,-4,-1,-2,-1,-2,14.225
2846,-1,-1,2,7,0,0,-1,-1,14.23
2847,-1,-1,0,-1,0,-1,-1,-1,14.235
2848,1,0,2,2,-2,-1,-2,0,14.24
2849,-2,-1,-1,-1,1,2,-2,-1,14.245000000000001
2850,-2,-1,-2,2,1,-2,-1,-2,14.25
2851,-1,-2,-2,-9,-3,-2,-2,0,14.255
2852,-2,0,1,5,-1,-1,0,-1,14.26
2853,-1,-2,-2,-3,-3,-3,0,-1,14.265
2854,0,1,-1,5,1,-1,-2,0,14.27
2855,1,0,-4,-22,-2,0,0,0,14.275
2856,-1,-2,2,15,-2,-1,-1,0,14.280000000000001
2857,-1,-1,-2,-1,-1,-1,1,-1,14.285
2858,0,-1,-1,4,-1,-1,0,-1,14.290000000000001
2859,-2,0,-3,-6,-5,-2,0,-1,14.295
2860,-1,-1,1,1,10,3,-1,-1,14.3
2861,-1,0,1,2,-4,0,-1,-1,14.305
2862,0,0,-1,-6,-1,-2,-1,-2,14.31
2863,0,-1,0,8,-2,0,0,-2,14.315
2864,-1,0,-3,-9,-6,-3,-1,-2,14.32
2865,-1,0,1,-3,3,1,0,0,14.325000000000001
2866,-1,-1,-1,7,-3,-3,0,-1,14.33
2867,-1,-1,0,6,2,0,0,0,14.335
2868,-1,-1,-2,-5,-1,0,-1,0,14.34
2869,-1,-3,-2,-3,-1,0,1,-1,14.345
2870,-1,0,-4,-1,-4,-2,-1,0,14.35
2871,-1,0,3,7,1,0,-1,-2,14.355
2872,0,-2,-7,-9,-3,-2,-1,-3,14.36
2873,-1,-1,3,7,1,0,-1,-2,14.365
2874,0,-1,-1,-3,-2,1,-1,0,14.370000000000001
2875,-1,0,0,4,1,1,1,-1,14.375
2876,-2,-1,0,-7,-3,-3,-3,-2,14.38
2877,0,0,-1,-6,-4,-1,-3,-1,14.385
2878,-2,-2,-1,2,-1,-1,0,0,14.39
2879,0,-1,-4,-17,-1,0,0,0,14.395
2880,-1,-2,2,8,-1,0,0,0,14.4
2881,-1,0,3,26,5,-1,-1,-2,14.405000000000001
2882,0,0,1,1,2,-1,-2,-2,14.41
2883,-1,0,0,-3,-3,-2,-1,1,14.415000000000001
2884,-1,-1,-3,-8,-2,-3,0,-1,14.42
2885,-1,-1,-3,-9,-3,-3,1,-1,14.425
2886,0,-2,-2,-5,-9,-4,1,-1,14.43
2887,-1,-1,1,8,8,1,0,-1,14.435
2888,-1,0,-2,-5,-2,-2,-2,-1,14.44
2889,0,-2,0,1,1,0,-1,-1,14.445
2890,-1,0,-2,-4,-5,-1,-2,-1,14.450000000000001
2891,-1,-1,0,1,-3,-1,-2,1,14.455
2892,-1,0,-2,0,1,1,0,0,14.46
2893,0,0,-3,-8,-3,-1,-2,-1,14.465
2894,-1,0,0,0,3,-1,1,-1,14.47
2895,1,-2,1,4,0,0,-1,-1,14.475
2896,0,-2,-1,0,0,1,0,-1,14.48
2897,-2,1,1,-6,-7,-3,-1,-1,14.485
2898,0,0,0,-4,10,5,2,0,14.49
2899,0,-2,2,27,3,-1,0,-1,14.495000000000001
2900,-1,-1,0,-3,-4,-2,-1,0,14.5
2901,1,0,-3,-6,-2,1,-1,-2,14.505
2902,-1,-1,0,-2,-1,0,-2,0,14.51
2903,-2,-2,-2,-7,-5,-1,-1,-2,14.515
2904,-2,-1,-1,-1,0,-2,-1,0,14.52
2905,-3,-1,-2,0,-1,-2,-1,0,14.525
2906,0,-1,-1,0,-1,0,0,-2,14.530000000000001
2907,-2,0,-1,-3,1,-1,-1,-1,14.535
2908,-1,-1,0,1,-1,-2,0,-1,14.540000000000001
2909,-1,0,-2,-13,-3,-2,0,0,14.545
2910,-1,-1,2,12,0,-1,-1,0,14.55
2911,0,-1,-2,-6,-3,2,0,-1,14.555
2912,0,0,1,6,0,0,1,0,14.56
2913,0,-1,-1,-3,0,-1,-1,-2,14.565
2914,0,0,-1,-5,0,1,-2,0,14.57
2915,-1,-1,-1,2,-10,-5,-1,0,14.575000000000001
2916,0,0,-2,-4,11,1,1,-1,14.58
2917,0,-1,-1,3,2,1,1,-3,14.585
2918,-4,-1,-2,-4,-5,-2,-1,2,14.59
2919,-1,-1,-1,-8,0,-1,1,-1,14.595
2920,-2,-2,-1,2,-5,-1,-1,0,14.6
2921,-1,-1,-1,-1,1,-1,-1,0,14.605
2922,-1,-3,1,2,1,0,-2,-1,14.61
2923,-1,0,-2,-1,-2,0,-2,-1,14.615
2924,0,-1,-3,-2,-3,-1,-3,0,14.620000000000001
2925,0,-1,-1,-2,-2,-2,-1,-2,14.625
2926,0,-1,-1,4,-3,-2,0,-1,14.63
2927,1,0,1,17,3,-1,0,-1,14.635
2928,0,-1,-3,-7,-8,-3,-1,-1,14.64
2929,-2,0,2,8,11,2,-2,-2,14.645
2930,-1,-1,-3,-7,-4,-1,0,-1,14.65
2931,0,-1,-3,-5,2,-1,-3,-1,14.655000000000001
2932,-1,-1,1,1,0,-1,-1,-2,14.66
2933,-2,-1,-2,0,-2,-2,-1,-1,14.665000000000001
2934,0,-1,0,-4,-2,0,1,0,14.67
2935,-1,0,-1,-4,2,0,-2,-1,14.675
2936,-1,-2,-2,-2,-3,-1,-2,0,14.68
2937,0,1,0,-3,-5,-2,-1,1,14.685
2938,0,0,-1,2,0,-1,1,-2,14.69
2939,-1,-1,-2,-8,-11,-3,-1,1,14.695
2940,0,-1,1,4,17,3,0,-2,14.700000000000001
2941,-2,-1,-2,-1,-3,-2,-2,-2,14.705
2942,-1,-1,-1,-2,-2,-1,-2,-2,14.71
2943,-2,0,2,7,1,0,-1,-1,14.715
2944,-1,0,-3,-19,-8,-2,-1,-1,14.72
2945,0,-1,0,9,-2,-1,-1,-1,14.725
2946,-1,-1,-2,0,-1,-1,0,-1,14.73
2947,0,0,-2,-5,0,0,-1,-1,14.735
2948,0,-3,-1,-2,-4,-1,0,-1,14.74
2949,-1,-2,-2,-2,-2,-1,-1,1,14.745000000000001
2950,-2,-2,-2,-4,-2,-2,-2,0,14.75
2951,-1,0,0,-4,2,-1,-1,0,14.755
2952,-1,0,-1,2,-2,-1,0,0,14.76
2953,-1,-2,-3,-4,-1,0,-2,0,14.765
2954,-2,-2,1,3,1,0,0,1,14.77
2955,-2,-2,-2,-3,-1,0,-1,-1,14.775
2956,-1,-1,2,2,-1,-1,-2,-2,14.780000000000001
2957,0,-1,1,4,-1,0,1,-1,14.785
2958,2,0,-2,-5,-2,-3,-1,-2,14.790000000000001
2959,-2,-1,-2,-6,-1,-1,0,0,14.795
2960,-1,0,1,9,-2,-1,1,-1,14.8
2961,-1,-1,-2,-14,0,-2,-1,0,14.805
2962,-2,-1,1,14,2,1,-1,-1,14.81
2963,1,-1,-1,-1,-2,-1,-1,1,14.815
2964,-1,-1,-1,6,-1,1,-1,-2,14.82
2965,-2,-1,-3,-9,-2,-2,-1,-2,14.825000000000001
2966,-1,-2,-2,-4,-2,-1,0,-1,14.83
2967,-1,-2,0,-1,0,-1,-2,-1,14.835
2968,0,-1,-2,-7,-5,-2,-2,-1,14.84
2969,0,-1,2,6,1,1,2,-1,14.845
2970,-1,-1,-1,-4,4,1,-1,-1,14.85
2971,1,-1,-2,-3,0,0,1,-2,14.855
2972,0,-1,-2,4,-2,-2,0,0,14.86
2973,-1,-1,-2,1,-6,-1,-1,-4,14.865
2974,-1,1,0,-5,-1,-1,-1,-1,14.870000000000001
2975,-2,-2,1,13,1,0,-1,0,14.875
2976,0,0,-3,-3,-2,0,-2,-1,14.88
2977,-3,-1,-1,-4,-1,-2,-2,-2,14.885
2978,1,-1,-1,-6,0,-1,0,-2,14.89
2979,-1,-2,2,6,2,-2,-2,-1,14.895
2980,1,-1,-1,-4,-1,-1,-1,1,14.9
2981,-2,0,-1,7,-1,-2,-2,0,14.905000000000001
2982,-1,1,-3,-8,-2,1,-3,-2,14.91
2983,0,-1,-1,-6,-1,-1,0,-1,14.915000000000001
2984,-2,-2,0,2,1,-1,-2,-2,14.92
2985,-2,-2,-4,-5,1,1,0,0,14.925
2986,0,-1,-2,-7,-2,-1,0,-1,14.93
2987,-1,-1,0,-5,1,2,-1,-1,14.935
2988,-2,-1,2,21,1,0,-2,0,14.94
2989,-1,0,-2,-1,0,-1,-2,-1,14.945
2990,-1,0,-1,-2,-1,-1,0,0,14.950000000000001
2991,-2,-1,-2,1,0,0,-1,-1,14.955
2992,0,-2,-2,-15,-1,-2,0,-1,14.96
2993,0,1,1,1,-1,-1,-2,-1,14.965
2994,-2,0,0,8,1,0,-1,1,14.97
2995,-1,0,-5,-17,-10,-2,1,-1,14.975
2996,0,-1,0,10,5,2,1,0,14.98
2997,1,1,0,3,-3,-1,0,0,14.985
2998,-2,-2,-2,-1,0,-1,-1,-1,14.99
2999,-1,0,-1,1,-4,-2,-1,-1,14.995000000000001
3000,-1,0,-4,-12,-4,-1,0,-1,15.0
3001,0,-1,0,2,1,0,-1,-1,15.005
3002,-1,0,-3,-23,-4,0,1,-2,15.01
3003,1,-1,5,34,6,0,-1,-1,15.015
3004,-1,-1,-2,-4,-2,-2,-2,-1,15.02
3005,0,1,-2,-6,1,1,-1,0,15.025
3006,-1,0,1,6,-5,-3,-1,0,15.030000000000001
3007,2,-1,-2,-7,3,1,-1,0,15.035
3008,-2,-2,1,-2,0,-2,0,-3,15.040000000000001
3009,-1,-1,-3,-1,-6,-1,0,-1,15.045
3010,1,0,0,5,1,-1,-1,-1,15.05
3011,-1,-1,-1,-4,0,-1,0,1,15.055
3012,-1,0,-2,-5,-3,0,-1,0,15.06
3013,-1,-1,1,3,2,-1,-1,-1,15.065
3014,-1,0,0,5,-2,-2,-1,0,15.07
3015,-1,1,1,1,1,-1,-2,-1,15.075000000000001
3016,-2,-1,-4,-14,-5,-2,-3,-2,15.08
3017,-1,0,2,8,0,0,0,-1,15.085
3018,-1,-1,-2,-13,-1,-2,1,-1,15.09
3019,-2,0,1,10,0,1,-1,-1,15.095
3020,-1,0,-2,-3,-2,-1,0,-1,15.1
3021,-1,-4,-5,-9,-3,-2,-1,0,15.105
3022,-1,-2,1,6,0,1,-1,0,15.11
3023,-1,0,-2,-10,-5,-3,0,-1,15.115
3024,-1,0,2,5,9,2,0,0,15.120000000000001
3025,-1,-2,-1,-4,1,1,-1,-2,15.125
3026,-1,-1,-2,1,0,0,-2,-2,15.13
3027,0,-1,-1,-5,2,-1,-1,0,15.135
3028,-1,0,-1,-3,-7,-4,-2,-2,15.14
3029,1,-1,0,5,-1,-1,-1,-2,15.145
3030,-1,-1,-1,5,3,0,1,-1,15.15
3031,-1,-2,-1,-4,-4,-2,-1,-1,15.155000000000001
3032,-1,-2,0,5,-1,1,0,0,15.16
3033,-1,1,-3,-15,0,1,0,-1,15.165000000000001
3034,0,0,2,21,0,-2,-2,-1,15.17
3035,0,-1,-1,-3,1,1,0,0,15.175
3036,0,-1,-3,-4,-2,-2,-1,0,15.18
3037,-2,0,0,-2,-1,0,0,-1,15.185
3038,-1,0,1,0,-5,-2,0,-2,15.19
3039,1,0,-1,-4,5,3,0,0,15.195
3040,-2,-1,0,3,-1,-3,-1,0,15.200000000000001
3041,0,0,0,2,0,-1,-2,-2,15.205
3042,-1,-1,-3,-5,-4,-2,-1,0,15.21
3043,-1,0,0,-1,-1,-2,0,0,15.215
3044,0,-3,0,-1,0,0,-1,-2,15.22
3045,0,0,-3,-4,-2,1,0,0,15.225
3046,-2,1,1,1,1,0,-1,0,15.23
3047,-2,0,0,1,-3,0,1,0,15.235
3048,-1,0,-3,-2,-4,-1,-1,-2,15.24
3049,-2,-2,1,5,0,-2,0,1,15.245000000000001
3050,0,0,-1,-2,-2,-1,0,-1,15.25
3051,0,-1,-4,-8,-4,-2,-1,-1,15.255
3052,-1,-1,0,1,3,0,0,-1,15.26
3053,-1,-1,-2,1,0,-1,-3,-2,15.265
3054,0,-1,-2,-6,-2,0,1,-1,15.27
3055,-2,0,0,0,-5,-1,0,-2,15.275
3056,0,1,-1,-3,-2,-1,0,0,15.280000000000001
3057,1,-2,-2,2,2,0,-1,0,15.285
3058,0,-1,0,-3,-5,-1,-1,1,15.290000000000001
3059,-3,-1,-2,-4,1,-1,-1,-1,15.295
3060,-2,-1,0,6,0,0,0,0,15.3
3061,-1,0,0,-1,-1,-2,-2,-1,15.305
3062,0,0,-1,-2,2,1,-1,0,15.31
3063,-1,0,0,1,0,1,1,-1,15.315
3064,-1,-1,0,-1,-1,-2,-3,-2,15.32
3065,-2,0,-1,-3,-4,-2,-1,-2,15.325000000000001
3066,0,-3,-2,2,1,-1,-1,0,15.33
3067,0,0,0,1,1,-2,-1,-1,15.335
3068,0,-1,0,-2,-3,0,-1,-2,15.34
3069,1,-1,-1,-1,-1,0,1,-1,15.345
3070,-1,-1,0,-2,-2,-2,-1,-1,15.35
3071,-1,-2,0,1,7,2,-1,1,15.355
3072,0,-1,-1,-3,-1,-1,-1,-1,15.36
3073,0,-1,1,0,-6,-2,-1,-1,15.365
3074,-2,0,1,5,12,2,-1,1,15.370000000000001
3075,-1,0,-1,-4,-4,-2,0,0,15.375
3076,-2,-1,-1,-2,-4,-2,-1,-1,15.38
3077,0,-1,-1,3,4,-1,0,0,15.385
3078,0,-2,-2,-4,-4,-1,-1,0,15.39
3079,0,0,-1,-4,-4,-2,0,-1,15.395
3080,-2,-1,0,4,-1,-2,0,0,15.4
3081,-2,-2,0,-4,-8,-2,-1,-3,15.405000000000001
3082,-1,-2,-1,1,1,-3,-1,0,15.41
3083,-1,0,0,0,8,6,1,0,15.415000000000001
3084,-2,-1,0,-12,-1,-5,-4,-1,15.42
3085,0,-1,0,7,-1,3,0,0,15.425
3086,-1,-3,-2,0,-14,-6,-4,-4,15.43
3087,-1,-2,1,4,1,2,0,1,15.435
3088,0,1,-3,-8,-8,-2,-2,0,15.44
3089,-2,0,2,2,24,5,1,-1,15.445
3090,-2,0,-2,-4,-15,-3,-2,-2,15.450000000000001
3091,2,0,-2,-1,9,0,-3,1,15.455
3092,-1,-2,-1,5,-5,-2,-1,-2,15.46
3093,-4,-4,-6,-8,0,0,-3,-1,15.465
3094,3,-1,2,3,4,-3,1,0,15.47
3095,-4,-3,-2,3,2,7,-2,-3,15.475
3096,3,-1,3,-1,-23,-6,2,3,15.48
3097,0,-2,-3,-2,11,3,-2,0,15.485000000000001
3098,-3,7,5,-21,-1,4,-1,-3,15.49
3099,3,7,-4,47,11,4,6,3,15.495000000000001
3100,-5,-1,1,-3,14,-2,-5,-4,15.5
3101,-3,0,-11,1,-15,-4,-2,-4,15.505
3102,1,0,-6,-43,-8,-8,-1,-2,15.51
3103,-10,-18,24,50,-27,-9,-3,-5,15.515
3104,2,1,-19,-33,-21,-13,-16,-9,15.52
3105,14,17,8,50,54,12,10,11,15.525
3106,-2,2,-1,15,-61,-13,-1,-7,15.530000000000001
3107,1,7,-19,-18,42,0,-7,-5,15.535
3108,-16,-19,-17,-52,-72,-32,-6,-11,15.540000000000001
3109,3,7,11,27,-10,4,-4,-14,15.545
3110,17,10,11,-24,15,-5,2,28,15.55
3111,8,9,6,33,-68,5,20,32,15.555
3112,5,-7,-8,30,74,37,4,24,15.56
3113,-10,-6,-12,-101,-17,-28,-8,-15,15.565
3114,-8,-8,0,22,-30,-8,8,-14,15.57
3115,-25,-12,-6,-40,-11,-33,-25,-35,15.575000000000001
3116,-3,7,2,3,12,21,2,-13,15.58
3117,14,8,23,64,10,25,19,20,15.585
3118,18,-17,-13,-2,106,12,-2,17,15.59
3119,-9,-7,-33,-23,-76,-46,-14,-48,15.595
3120,-6,-1,-4,-69,54,-2,-1,14,15.6
3121,-15,-25,-5,-7,-26,-33,-23,10,15.605
3122,-7,8,12,66,3,41,11,8,15.610000000000001
3123,0,-9,-4,-108,-43,-9,-3,-7,15.615
3124,17,19,-8,67,-44,-21,6,-4,15.620000000000001
3125,4,-12,-1,5,-20,-7,-4,10,15.625
3126,-7,-1,6,16,11,-5,-14,-19,15.63
3127,-9,-4,8,-12,20,19,9,8,15.635
3128,-11,-12,0,-82,-55,-16,10,-7,15.64
3129,-4,13,-11,13,67,9,-6,-41,15.645
3130,2,-10,-32,16,-71,-19,15,42,15.65
3131,4,12,17,-24,-22,11,-12,5,15.655000000000001
3132,20,18,18,50,40,31,2,-3,15.66
3133,21,21,30,33,-10,10,20,-6,15.665000000000001
3134,-60,-74,-34,-56,-53,-35,-25,-49,15.67
3135,11,5,-21,-36,35,6,-9,40,15.675
3136,23,-7,16,52,79,31,22,68,15.68
3137,-15,-7,-9,-14,-123,-35,-12,-2,15.685
3138,6,16,-2,-49,44,1,8,-25,15.69
3139,-14,5,-1,-14,-11,-9,-3,-23,15.695
3140,18,19,10,59,-32,5,6,12,15.700000000000001
3141,-4,-3,-19,-72,-27,-8,-11,-13,15.705
3142,6,12,21,36,9,28,18,3,15.71
3143,-10,-14,-16,27,39,-1,-15,-3,15.715
3144,-24,-5,1,-36,-26,-16,-15,-54,15.72
3145,-15,-28,-20,47,-22,8,27,20,15.725
3146,22,28,20,28,-53,-12,-16,13,15.73
3147,16,8,7,-20,-18,-23,5,1,15.735000000000001
3148,7,9,-8,6,29,0,14,17,15.74
3149,9,5,-10,-13,52,6,3,48,15.745000000000001
3150,4,-1,5,-30,-69,-12,-24,16,15.75
3151,11,-6,15,35,110,40,-1,1,15.755
3152,-25,-22,-11,-72,24,-11,-26,-36,15.76
3153,-19,35,17,82,6,13,0,-55,15.765
3154,3,5,-20,-56,43,16,17,30,15.77
3155,-4,-8,-4,90,58,8,5,8,15.775
3156,-24,-33,33,72,-75,-7,-2,-26,15.780000000000001
3157,-20,-31,-54,-125,-78,-28,-3,-8,15.785
3158,21,29,26,66,59,-8,-9,-14,15.790000000000001
3159,0,9,13,-66,28,24,12,-30,15.795
3160,4,19,-20,9,37,12,4,38,15.8
3161,18,5,12,-12,-63,-23,-10,28,15.805
3162,5,-3,-27,-89,-19,-1,9,13,15.81
3163,-11,-18,21,75,16,7,30,8,15.815
3164,7,7,-26,-80,18,7,-18,-57,15.82
3165,5,15,38,81,14,12,-19,25,15.825000000000001
3166,17,7,21,13,100,24,9,34,15.83
3167,-3,-1,-7,51,11,43,4,8,15.835
3168,-10,8,5,62,-8,-8,7,-4,15.84
3169,1,-18,-13,-107,-41,-22,-1,-48,15.845
3170,-26,-24,3,66,57,11,-2,-32,15.85
3171,5,-12,21,73,-104,-26,-6,27,15.855
3172,-5,-28,-3,-8,-25,18,13,19,15.860000000000001
3173,27,33,0,44,-25,7,7,17,15.865
3174,1,24,-3,-19,-14,-7,-1,-12,15.870000000000001
3175,-19,-31,-9,-83,-89,-42,-12,-15,15.875
3176,26,18,11,34,89,37,24,17,15.88
3177,10,17,9,-35,74,15,5,14,15.885
3178,-11,-10,-14,-8,-88,-38,-14,0,15.89
3179,27,32,15,109,79,25,3,46,15.895
3180,-13,-10,15,-58,-87,-32,-16,-7,15.9
3181,-28,-29,-4,8,49,5,-7,-26,15.905000000000001
3182,16,28,-7,-63,22,27,2,-17,15.91
3183,8,13,-14,-84,-41,-21,5,-7,15.915000000000001
3184,-20,-12,-6,14,-37,-33,-19,-4,15.92
3185,-20,-29,-33,-91,37,2,-1,-8,15.925
3186,11,11,23,71,-22,11,19,14,15.93
3187,9,-3,-7,-111,3,4,3,-7,15.935
3188,8,9,-12,-53,50,3,-2,9,15.94
3189,15,24,31,-1,-17,-31,-26,-2,15.945
3190,-34,-36,-15,23,6,0,-12,-20,15.950000000000001
3191,-22,-13,-5,10,13,1,0,-11,15.955
3192,-11,-9,-3,17,35,4,-1,-17,15.96
3193,-17,-17,-25,-77,-29,4,3,21,15.965
3194,43,51,32,44,37,-6,-24,20,15.97
3195,-6,-8,-3,-37,-21,-48,-21,-27,15.975
3196,3,-2,-11,-111,61,0,7,5,15.98
3197,-13,0,16,70,67,68,31,-31,15.985000000000001
3198,10,-3,15,36,104,53,13,25,15.99
3199,-8,7,-32,-54,-18,-31,-15,-31,15.995000000000001
3200,-37,-51,-14,17,19,-12,-20,-23,16.0
3201,25,29,44,45,53,18,26,35,16.005
3202,23,17,-21,-21,19,6,-3,20,16.01
3203,-3,-6,-35,-60,-76,-42,-14,-46,16.015
3204,7,18,41,127,71,35,30,-5,16.02
3205,-28,-54,-66,-68,-89,-33,-21,14,16.025
3206,-38,-19,-8,14,-50,-44,-46,-1,16.03
3207,20,20,20,80,29,26,12,28,16.035
3208,-8,-43,1,-105,-128,-44,2,1,16.04
3209,0,21,17,110,47,8,14,-12,16.045
3210,-6,-4,-38,-51,32,3,-4,-38,16.05
3211,15,21,7,13,18,28,4,18,16.055
3212,-7,25,18,-10,-76,-58,-33,-39,16.06
3213,14,-14,1,83,48,54,36,35,16.065
3214,-3,-27,-5,-90,-66,-5,20,19,16.07
3215,-22,4,12,13,14,-43,-17,-26,16.075
3216,19,8,12,-11,54,35,4,30,16.080000000000002
3217,22,0,30,65,-40,8,22,12,16.085
3218,8,20,-46,-55,12,4,-2,-43,16.09
3219,3,-2,0,-25,17,23,29,41,16.095
3220,-37,-30,-24,-48,-76,-62,-71,-52,16.1
3221,34,26,-6,-72,-81,-42,-3,37,16.105
3222,-15,-20,-5,15,38,18,3,30,16.11
3223,11,15,19,-35,37,23,14,9,16.115000000000002
3224,-17,-11,-21,81,-7,-6,-19,-11,16.12
3225,-32,-13,-22,-82,59,-9,-24,-85,16.125
3226,-18,-35,38,64,-24,-6,11,-18,16.13
3227,-1,-1,-41,-92,-85,-29,-12,26,16.135
3228,67,73,50,73,57,48,29,7,16.14
3229,-19,-29,-14,56,108,28,-13,10,16.145
3230,5,19,31,22,88,12,11,-11,16.15
3231,-19,-22,9,112,35,24,8,-7,16.155
3232,3,21,-22,-66,-18,2,4,2,16.16
3233,-6,-15,8,-29,-4,-21,-17,-18,16.165
3234,-10,3,5,37,-72,-19,17,4,16.17
3235,-18,-26,-14,-17,-93,-44,-15,-32,16.175
3236,27,9,10,54,36,46,37,61,16.18
3237,4,6,-19,6,-67,-68,-22,-5,16.185
3238,-3,9,-8,-91,-33,12,-1,-13,16.19
3239,-3,-46,-22,-17,41,18,-8,15,16.195
3240,-4,-17,-18,-44,-54,-25,-23,45,16.2
3241,-8,-7,-6,-86,-65,1,7,4,16.205000000000002
3242,29,9,17,73,53,14,4,9,16.21
3243,19,31,-3,-102,52,-3,-10,12,16.215
3244,1,3,-8,79,-22,13,28,15,16.22
3245,-4,-15,46,85,112,48,4,-23,16.225
3246,-24,-9,-22,-124,-109,-33,-8,-17,16.23
3247,14,24,2,7,51,10,-2,-11,16.235
3248,1,11,-37,-47,-28,-11,13,2,16.240000000000002
3249,-36,-19,-19,-21,-9,-23,-22,-38,16.245
3250,-14,-13,-12,18,-14,-19,0,-15,16.25
3251,34,27,30,38,20,26,2,33,16.255
3252,-32,-44,-14,-37,-35,-22,-8,-29,16.26
3253,52,72,32,56,29,22,20,11,16.265
3254,-19,-40,6,19,-15,4,0,18,16.27
3255,-13,-22,-15,-58,-42,-17,-13,-16,16.275
3256,29,18,15,34,38,7,8,20,16.28
3257,8,-2,-6,-40,-20,-14,-6,57,16.285
3258,-3,2,6,90,-45,-17,-4,-18,16.29
3259,-18,-5,-2,-15,-48,-11,3,-22,16.295
3260,-9,-11,21,36,99,49,9,-22,16.3
3261,-17,-18,4,-66,-25,-3,5,-13,16.305
3262,-7,2,-10,-41,-6,-18,-9,0,16.31
3263,12,10,10,60,-28,-4,1,7,16.315
3264,22,20,-4,-14,20,-1,9,18,16.32
3265,-10,-6,-12,-21,-23,-16,-12,-12,16.325
3266,-25,-14,-6,-31,22,6,-1,-5,16.330000000000002
3267,38,44,9,41,17,-3,-4,13,16.335
3268,-3,-3,-16,-28,-22,-28,-28,-7,16.34
3269,-7,-5,1,25,20,27,23,14,16.345
3270,1,-24,9,-10,2,0,28,2,16.35
3271,-18,-17,-10,31,51,24,13,-17,16.355
3272,-1,0,11,-5,-51,-9,6,-2,16.36
3273,-5,-4,-19,-38,-10,-20,-39,-2,16.365000000000002
3274,-2,1,10,-48,8,2,-6,-12,16.37
3275,-4,0,46,114,11,5,7,7,16.375
3276,-4,-3,-42,-89,-46,-14,-12,-3,16.38
3277,2,2,-12,-67,7,2,-2,-10,16.385
3278,12,12,9,38,50,14,1,6,16.39
3279,-1,2,3,-44,-10,10,3,0,16.395
3280,53,-4,-9,1,-18,-12,-12,-16,16.4
3281,-23,10,-4,4,-7,1,6,1,16.405
3282,-39,12,1,2,-17,-6,-5,11,16.41
3283,-2,2,-5,-1,26,3,-6,-2,16.415
3284,50,10,14,-5,9,-1,9,27,16.42
3285,26,7,0,23,10,0,-14,3,16.425
3286,-20,0,-14,-14,7,2,5,-41,16.43
3287,-40,-10,-4,3,3,11,10,-16,16.435
3288,-30,1,14,-7,11,-9,-25,-28,16.44
3289,35,-5,0,61,4,-7,-35,19,16.445
3290,5,-7,5,-10,-12,11,67,20,16.45
3291,24,-18,-23,-30,-8,1,12,5,16.455000000000002
3292,-10,1,6,13,14,6,16,-1,16.46
3293,-6,-8,-1,-11,-12,-8,-7,-10,16.465
3294,6,0,-3,-6,8,-3,-31,-3,16.47
3295,5,0,3,-12,5,-1,-1,3,16.475
3296,-21,-8,10,76,12,4,-1,2,16.48
3297,-20,-2,-7,-30,-9,3,3,-10,16.485
3298,24,4,1,6,2,-4,-14,6,16.490000000000002
3299,-3,-4,-6,-14,-6,-1,0,-1,16.495
3300,-27,-3,-2,-14,7,3,-9,-5,16.5
3301,0,5,9,23,-1,4,15,-3,16.505
3302,16,2,-4,1,-12,-8,-8,1,16.51
3303,-7,-6,-2,6,19,1,-9,0,16.515
3304,-18,-1,2,-15,11,3,6,-2,16.52
3305,5,0,0,9,-5,-1,8,-2,16.525
3306,12,0,-8,6,3,-5,-7,6,16.53
3307,-9,-3,3,9,-10,-5,-7,-2,16.535
3308,-4,-1,-3,-6,3,2,5,0,16.54
3309,0,-1,-4,-13,-1,1,10,-1,16.545
3310,-1,-1,1,1,-31,-17,-16,-3,16.55
3311,-1,-1,1,-2,16,1,-1,0,16.555
3312,-5,0,-4,8,5,12,5,0,16.56
3313,0,0,8,4,-4,-3,1,-2,16.565
3314,0,-2,-4,-4,2,1,-4,0,16.57
3315,2,2,-4,-21,-4,-1,1,-2,16.575
3316,-4,-1,-2,10,16,-1,1,-1,16.580000000000002
3317,-5,0,2,9,-7,-3,1,-2,16.585
3318,6,3,3,3,14,7,-2,1,16.59
3319,-1,-2,-8,-12,-3,-1,-1,0,16.595
3320,-8,-2,0,6,-12,-7,-5,-2,16.6
3321,0,1,2,-1,4,3,3,-2,16.605
3322,4,3,0,-5,13,1,-3,-1,16.61
3323,-2,-1,-3,-10,-26,-4,-3,0,16.615000000000002
3324,-3,3,11,22,38,7,3,0,16.62
3325,1,-2,-6,-10,-11,-3,2,0,16.625
3326,1,-1,3,1,15,4,-3,3,16.63
3327,-3,-2,-7,-36,-8,-3,-2,0,16.635
3328,-2,-2,-2,10,-11,-2,0,0,16.64
3329,1,-1,1,1,4,2,-1,0,16.645
3330,0,-2,-5,-5,-6,-2,-4,-1,16.65
3331,0,1,0,6,12,3,0,-1,16.655
3332,0,1,-3,-17,-12,-4,-1,-1,16.66
3333,-1,2,1,-1,-3,-1,-1,-1,16.665
3334,0,0,0,5,1,1,-1,0,16.67
3335,-1,-2,0,15,1,0,1,1,16.675
3336,-2,0,-3,-10,-5,-3,-3,-2,16.68
3337,-1,0,0,-3,0,-1,2,-1,16.685
3338,2,0,-3,-5,-1,0,-1,0,16.69
3339,-1,-2,2,9,0,-2,0,-1,16.695
3340,-3,0,-2,-5,-7,-2,0,-1,16.7
3341,0,-2,-2,-6,1,2,1,0,16.705000000000002
3342,1,-1,-3,2,-2,0,-1,-1,16.71
3343,-1,-2,2,10,1,-2,-1,0,16.715
3344,-2,-1,-2,-12,-7,-3,-2,0,16.72
3345,0,0,-1,-1,0,-2,0,0,16.725
3346,-1,0,1,4,6,5,1,1,16.73
3347,-2,-1,-1,4,3,1,-2,-2,16.735
3348,-1,-1,-4,-9,-13,-3,-1,1,16.740000000000002
3349,1,-1,1,0,3,1,0,-1,16.745
3350,0,-1,2,3,-1,-2,-1,-1,16.75
3351,0,0,-1,-1,-3,-3,0,0,16.755
3352,0,1,2,-2,4,4,1,-1,16.76
3353,-2,0,-1,0,-2,-2,0,1,16.765
3354,-1,-1,-3,-3,-5,-3,-1,-1,16.77
3355,-1,-2,-1,1,0,-1,0,-2,16.775
3356,0,-1,0,-1,2,-2,-2,-3,16.78
3357,0,-2,0,1,0,-1,-1,-1,16.785
3358,0,0,-1,-4,-8,-1,-2,-2,16.79
3359,-1,-1,2,6,11,3,1,-1,16.795
3360,-2,-2,-3,-5,-6,-3,0,-2,16.8
3361,-1,0,-2,-1,-1,-1,0,-1,16.805
3362,-2,-1,-3,-3,-5,-1,-2,0,16.81
3363,-2,-2,-1,1,-7,-2,-2,-2,16.815
3364,1,0,1,-1,2,-3,-2,-1,16.82
3365,1,0,0,2,5,2,0,1,16.825
3366,-2,-3,-2,-2,-1,-2,-1,1,16.830000000000002
3367,0,-1,-3,-2,-4,-1,1,0,16.835
3368,-2,0,-1,-2,-3,0,1,-1,16.84
3369,-1,0,-2,0,-3,-3,0,-1,16.845
3370,1,0,0,0,4,2,-1,0,16.85
3371,-3,0,0,-3,-7,-2,-3,0,16.855
3372,-1,0,-1,-1,-2,-3,-1,0,16.86
3373,-1,-1,-2,-1,0,0,0,-1,16.865000000000002
3374,-1,-1,1,-1,0,-1,1,-2,16.87
3375,0,0,-1,0,-1,-2,0,0,16.875
3376,-1,-3,-1,-2,1,-1,0,0,16.88
3377,0,0,1,0,1,2,-1,0,16.885
3378,0,-1,-2,3,5,-1,-1,-1,16.89
3379,0,-1,1,-5,-8,-2,-2,-1,16.895
3380,0,-1,-1,0,0,0,-1,-2,16.9
3381,-1,-1,0,-1,-5,-3,-2,-2,16.905
3382,-1,0,0,-1,0,-1,1,-1,16.91
3383,-1,-2,1,1,0,0,-1,-2,16.915
3384,0,-1,0,-1,-4,-1,1,0,16.92
3385,-1,-2,-2,-1,6,0,0,-1,16.925
3386,-1,0,-1,1,-6,-2,-1,1,16.93
3387,0,-1,0,0,0,-1,-2,0,16.935
3388,-2,-1,-2,0,-2,-2,1,-1,16.94
3389,-1,-1,0,-1,-2,-4,0,-1,16.945
3390,0,-1,-1,-1,-2,0,0,-3,16.95
3391,-1,-2,-2,-1,1,-2,0,1,16.955000000000002
3392,1,-1,-1,-1,-5,0,-2,-2,16.96
3393,-1,-1,0,-1,-2,0,0,-1,16.965
3394,-2,-2,-1,1,0,-2,-1,0,16.97
3395,-1,-1,-3,-3,-3,1,-2,-3,16.975
3396,0,-2,1,-2,2,-1,-1,0,16.98
3397,-2,-1,-1,-2,-2,1,0,-1,16.985
3398,0,-2,1,0,2,-1,-2,-3,16.990000000000002
3399,-2,1,-2,2,-3,-2,-1,-3,16.995
3400,-2,0,-2,1,-1,-1,-2,-1,17.0
