slno,emg1,emg2,emg3,emg4,emg5,emg6,emg7,emg8,Time
0,1,53,-1,0,-2,0,0,1,0.0
1,0,20,0,0,0,-1,0,-2,0.005
2,0,2,1,1,1,-1,-1,0,0.01
3,-1,-12,-1,1,-1,-2,-3,1,0.015
4,-2,-21,1,-1,-1,-1,-3,-1,0.02
5,1,-12,2,-2,0,1,-1,-1,0.025
6,0,-8,-7,-2,-1,0,-1,-1,0.03
7,-1,-9,-1,0,2,-1,0,-1,0.035
8,-1,-11,-2,-2,-1,-1,-2,-1,0.04
9,-1,4,3,1,0,-2,-3,0,0.045
10,-2,-5,-6,-2,-6,-2,-2,0,0.05
11,-2,-1,0,-2,0,0,3,0,0.055
12,0,-13,-2,0,2,-1,0,0,0.06
13,-1,-11,1,-5,-7,-2,1,-2,0.065
14,0,2,2,1,0,-1,0,-2,0.07
15,0,5,-4,-3,-4,-2,-2,-1,0.075
16,-2,-3,2,-2,-2,-2,1,-1,0.08
17,0,-5,-4,2,6,1,-1,0,0.085
18,-2,-3,-1,-1,-3,-4,-2,-1,0.09
19,-1,2,2,-1,-3,0,-1,-2,0.095
20,-1,-11,-2,0,0,-1,-6,-2,0.1
21,-2,-5,-3,-1,-3,0,2,0,0.105
22,-3,-1,0,0,1,-4,2,1,0.11
23,-1,-1,0,-8,-4,0,0,0,0.115
24,-1,-2,0,1,0,-1,-1,0,0.12
25,-1,-1,-3,-2,-5,1,-2,0,0.125
26,-2,1,-1,-2,-1,-1,-2,-2,0.13
27,-1,1,1,6,3,-1,-3,0,0.135
28,-5,-4,-3,-1,-2,1,1,-3,0.14
29,1,1,-2,0,0,-2,0,-1,0.145
30,0,1,-1,-2,0,-2,1,3,0.15
31,6,3,1,1,0,-2,-10,-3,0.155
32,-2,2,1,-1,1,-1,-4,-5,0.16
33,-1,-4,-1,0,-2,-1,8,5,0.165
34,1,-1,0,3,0,4,5,1,0.17
35,-5,-3,-4,2,4,-1,5,4,0.17500000000000002
36,2,2,1,-1,-2,0,-3,-2,0.18
37,-3,1,-1,-2,1,-2,-5,-5,0.185
38,-1,-1,-1,-3,0,0,-2,-4,0.19
39,0,-1,-1,2,-1,-2,-3,-3,0.195
40,0,0,-3,-3,-5,3,1,0,0.2
41,-2,-1,3,5,0,-2,-3,-2,0.20500000000000002
42,2,0,-1,-3,2,1,-2,0,0.21
43,0,1,-2,-3,-1,-1,2,0,0.215
44,-1,0,-3,-5,-6,-4,1,0,0.22
45,0,3,3,5,7,1,-1,-1,0.225
46,1,1,-1,1,-4,1,-2,-3,0.23
47,-1,-2,-2,0,0,0,0,-2,0.23500000000000001
48,-4,-3,-1,-2,1,-1,-1,1,0.24
49,2,0,-3,-3,-3,0,1,1,0.245
50,1,1,-1,-1,-5,-1,-3,0,0.25
51,-4,-1,0,1,-2,0,-6,-4,0.255
52,-1,-1,-1,-1,-4,-2,8,2,0.26
53,-3,-4,-2,-1,2,1,0,0,0.265
54,1,0,-2,2,1,-2,-3,-1,0.27
55,-1,-2,0,-7,-5,-1,2,2,0.275
56,4,1,1,4,2,0,-1,0,0.28
57,2,-1,-3,-4,-3,-2,-4,-4,0.28500000000000003
58,-2,0,3,8,3,-1,1,-1,0.29
59,-1,-1,0,-5,-1,0,-1,-3,0.295
60,-3,-2,-1,2,2,-1,-6,-3,0.3
61,0,3,-1,-3,-2,-4,-1,2,0.305
62,0,0,-2,-4,-4,-2,-1,1,0.31
63,-3,0,0,1,-2,-1,1,0,0.315
64,1,0,-1,5,3,2,3,1,0.32
65,-4,-1,-3,-7,-8,-2,-2,-2,0.325
66,-3,-5,-1,-3,-2,-2,-2,-3,0.33
67,0,-2,-1,1,-1,-1,2,0,0.335
68,2,-1,-1,-2,1,-2,-1,-1,0.34
69,-5,-1,2,3,1,0,-1,-1,0.34500000000000003
70,-1,2,0,0,-2,-1,0,-2,0.35000000000000003
71,0,-3,-4,-6,-3,-1,0,0,0.355
72,1,1,-1,-2,-2,-2,-8,-2,0.36
73,0,-1,0,0,-2,0,3,-1,0.365
74,-1,-1,0,-1,0,1,3,1,0.37
75,0,0,1,1,-1,0,1,-2,0.375
76,-2,1,-1,0,0,0,-1,-1,0.38
77,0,0,-3,-2,3,0,0,-3,0.385
78,-1,-3,-3,-1,1,-1,-4,0,0.39
79,-1,0,0,-3,-4,0,-1,-1,0.395
80,-1,-1,-1,-1,-2,1,-3,0,0.4
81,-1,-1,1,2,-2,0,-2,-3,0.405
82,1,1,-2,0,2,-2,-4,-2,0.41000000000000003
83,0,0,-1,-3,-1,1,0,-1,0.41500000000000004
84,-2,-2,0,0,-3,0,0,2,0.42
85,1,1,-1,-2,-2,-1,0,0,0.425
86,-2,1,-2,-2,-1,-1,-2,-1,0.43
87,-2,0,0,4,0,-1,-1,-1,0.435
88,0,-1,0,-4,-2,-1,0,0,0.44
89,1,-1,-2,1,1,-1,-3,0,0.445
90,-2,-2,-1,-4,-2,-2,-1,-2,0.45
91,-1,-1,0,-1,-1,-1,-1,0,0.455
92,0,-1,-2,-1,0,-1,0,-1,0.46
93,-2,-1,2,2,0,-1,1,-1,0.465
94,-1,0,0,-1,0,1,2,-1,0.47000000000000003
95,-1,0,-3,-1,1,2,-1,-1,0.47500000000000003
96,-1,-1,-1,1,-3,-3,-2,-1,0.48
97,0,0,-1,-2,-1,-1,-1,0,0.485
98,-1,-2,2,4,-1,-2,-1,0,0.49
99,2,-1,-3,-3,-1,-2,-2,-1,0.495
100,1,0,0,0,-2,-1,0,-1,0.5
101,0,0,-3,-3,1,-1,0,-1,0.505
102,0,-2,-1,-3,-3,-2,-3,-1,0.51
103,1,-2,-2,-1,1,-1,1,0,0.515
104,0,-2,0,-2,-1,-1,3,0,0.52
105,0,-2,0,0,-2,-1,-2,-1,0.525
106,0,1,-1,0,-1,0,1,-2,0.53
107,-2,-1,-2,0,0,0,0,-1,0.535
108,-1,1,0,-1,0,-3,-2,-1,0.54
109,0,0,-2,-3,-2,1,0,0,0.545
110,-1,-2,-2,0,-3,-2,-3,-2,0.55
111,-1,-1,0,-2,-3,-4,-1,-1,0.555
112,0,-1,-1,1,0,-3,1,-1,0.56
113,1,1,0,0,3,-1,-1,1,0.5650000000000001
114,1,0,-2,-3,-3,-1,1,-1,0.5700000000000001
115,0,0,1,0,-2,-2,-1,-3,0.5750000000000001
116,1,-1,0,-2,-1,0,-2,-2,0.58
117,-2,-4,0,1,-3,-1,-5,-2,0.585
118,-2,-2,-3,-1,1,0,0,-2,0.59
119,-2,2,0,3,2,-1,6,2,0.595
120,-1,1,0,-2,-1,2,-6,-3,0.6
121,1,-1,-2,0,-3,-2,0,-1,0.605
122,-2,0,0,-1,1,-1,0,0,0.61
123,-4,-3,0,1,0,-2,-2,-2,0.615
124,-2,2,-2,-2,-1,-2,2,1,0.62
125,0,1,-1,-2,1,0,1,-1,0.625
126,6,3,-1,-1,-5,0,-1,3,0.63
127,0,-2,1,0,-1,2,3,-1,0.635
128,-2,-1,0,1,1,-1,-4,-2,0.64
129,-3,0,-2,-7,-3,-1,-2,0,0.645
130,-1,1,0,0,-2,0,0,-2,0.65
131,-1,-3,0,1,1,0,1,1,0.655
132,2,-1,-1,-2,-2,-1,-2,-1,0.66
133,0,-4,-1,-1,-1,0,-2,-2,0.665
134,-3,-3,-2,-4,0,-1,-1,-2,0.67
135,-3,1,-2,0,-1,-3,-16,-5,0.675
136,-3,-2,0,-1,-1,-1,8,3,0.68
137,-1,-1,1,-2,-1,-1,4,1,0.685
138,-2,3,1,0,2,2,-1,-1,0.6900000000000001
139,1,-1,-1,0,-3,-1,-1,-1,0.6950000000000001
140,-1,-1,0,0,1,-1,-3,-2,0.7000000000000001
141,-1,0,-1,-3,-2,-1,-1,-2,0.705
142,0,-1,0,-3,-2,-2,0,0,0.71
143,-2,0,-2,-1,1,0,-2,-3,0.715
144,-1,0,-2,-1,-1,-1,-2,0,0.72
145,1,-2,1,1,1,0,1,1,0.725
146,0,-2,-1,0,-1,-1,-4,-1,0.73
147,0,1,-3,-1,-1,-1,0,1,0.735
148,-1,-1,-2,0,-1,0,1,0,0.74
149,-3,2,-1,-1,-4,-1,-3,-2,0.745
150,-1,1,-1,0,0,-1,-2,-2,0.75
151,1,0,0,-3,-3,-1,2,0,0.755
152,-2,-3,-2,1,0,1,-1,-1,0.76
153,-2,-2,-1,1,0,-1,-2,1,0.765
154,4,-3,-2,-2,-5,-3,-10,-1,0.77
155,-2,-2,0,0,-2,3,8,3,0.775
156,0,-2,0,-3,-2,-2,2,-2,0.78
157,1,-2,1,1,0,-1,-2,-2,0.785
158,-6,1,-2,1,2,1,3,-2,0.79
159,2,0,0,-5,-2,-2,-3,-1,0.795
160,4,2,-1,2,2,0,-1,2,0.8
161,2,1,-2,-2,0,-1,2,0,0.805
162,-5,-3,-4,2,0,-3,4,0,0.81
163,0,-1,3,-4,-2,1,2,2,0.8150000000000001
164,-4,-1,-1,-3,-2,-2,1,-2,0.8200000000000001
165,-1,-2,-1,-1,1,-2,-3,-3,0.8250000000000001
166,1,-3,1,-1,-1,-1,-1,-2,0.8300000000000001
167,0,-1,-3,0,3,1,1,-1,0.835
168,0,-1,0,-3,-3,-1,-1,0,0.84
169,-2,1,0,2,1,1,-3,-1,0.845
170,-1,-3,-1,-2,-2,-3,-5,-3,0.85
171,-2,-1,-1,0,-3,-1,-2,-3,0.855
172,0,-1,-1,0,2,0,-2,-1,0.86
173,0,-1,-3,-2,-1,-1,1,0,0.865
174,1,2,0,-1,1,-1,-8,0,0.87
175,-1,0,-1,-1,0,-1,1,-1,0.875
176,-1,-3,-2,-2,-4,-1,3,-2,0.88
177,-1,0,1,3,0,-1,-1,0,0.885
178,-1,-1,2,3,1,-1,3,0,0.89
179,6,3,-3,-7,-3,-2,-4,-1,0.895
180,-3,-2,0,1,0,0,-1,-2,0.9
181,-3,-3,-2,-4,-4,-2,0,0,0.905
182,2,0,2,1,-1,1,1,0,0.91
183,-3,-3,-3,-2,0,-1,-5,-3,0.915
184,2,1,0,1,4,1,-4,-2,0.92
185,0,0,-2,-3,-7,-3,4,1,0.925
186,1,0,1,-3,1,2,4,2,0.93
187,-6,-4,1,3,-2,-1,-2,-2,0.935
188,1,1,-3,1,-1,-1,-5,-1,0.9400000000000001
189,0,1,0,1,2,-1,-8,-4,0.9450000000000001
190,-3,-3,-4,-3,-3,-2,2,-2,0.9500000000000001
191,1,1,0,2,-1,-1,5,-1,0.9550000000000001
192,-1,-2,1,-1,-1,-1,0,0,0.96
193,0,1,-1,0,2,1,-7,-2,0.965
194,-4,0,-3,-3,-3,-2,7,-1,0.97
195,1,-2,0,3,1,-3,-1,0,0.975
196,-1,-1,-3,-5,-3,-1,-3,-3,0.98
197,4,1,1,0,1,0,3,2,0.985
198,-2,-4,-2,-2,0,-2,-4,-2,0.99
199,0,-3,-2,0,-2,-1,-4,-2,0.995
200,1,-3,-1,-3,-2,0,2,-1,1.0
201,-3,-3,1,0,-2,0,1,1,1.0050000000000001
202,2,1,0,1,-2,-2,-2,-3,1.01
203,-2,-1,-3,-5,-3,0,-6,-2,1.0150000000000001
204,0,-1,-2,0,-1,-1,3,2,1.02
205,-2,-1,-1,-3,0,-1,3,0,1.025
206,1,1,0,2,1,1,1,-1,1.03
207,-3,-2,-1,-1,-1,-1,0,0,1.035
208,-1,0,0,3,-1,-1,-1,-2,1.04
209,0,-1,-2,-2,-3,0,-1,1,1.045
210,0,0,-1,0,-2,-1,0,0,1.05
211,0,1,-1,1,1,0,0,0,1.055
212,-3,-1,0,-4,-2,-1,-2,-2,1.06
213,-2,-3,1,1,0,-3,-5,-4,1.065
214,2,-2,0,-1,0,-1,1,1,1.07
215,1,-2,-1,3,-2,0,0,0,1.075
216,0,0,-2,-3,0,-2,-5,0,1.08
217,-2,1,-1,1,2,0,1,-1,1.085
218,2,1,-2,-4,-3,0,-2,-1,1.09
219,0,0,2,-3,0,0,10,1,1.095
220,-2,-2,0,2,1,-2,-4,1,1.1
221,0,1,-1,0,-3,-5,-4,-2,1.105
222,-4,-2,-3,-1,1,-1,-9,-4,1.11
223,-1,-1,-1,-3,-4,-1,1,-3,1.115
224,-1,1,1,0,1,3,4,3,1.12
225,-3,-5,0,0,2,-2,0,1,1.125
226,4,1,2,0,-2,0,2,3,1.1300000000000001
227,-2,0,-1,3,0,0,1,-1,1.135
228,-3,-1,-4,-4,-3,1,-1,-2,1.1400000000000001
229,1,2,-2,-3,0,0,0,0,1.145
230,-5,-5,-2,-4,-3,-2,-2,-2,1.1500000000000001
231,6,1,-3,-6,1,0,-4,-1,1.155
232,-10,-2,2,10,-2,-1,0,-3,1.16
233,0,-2,-3,-3,-6,-3,0,-5,1.165
234,-3,0,2,1,5,3,0,0,1.17
235,3,4,-3,-1,2,-2,2,4,1.175
236,0,-2,2,8,2,-4,-1,1,1.18
237,-1,1,-3,-6,-2,0,0,-4,1.185
238,-1,0,0,4,-2,-2,-2,-3,1.19
239,-3,0,0,1,-1,-2,-5,-3,1.195
240,2,-2,0,-5,-2,1,2,0,1.2
241,-4,-2,1,2,-2,2,1,0,1.205
242,-1,-1,-1,-1,0,2,3,0,1.21
243,0,-1,-2,-7,-5,-4,-11,-4,1.215
244,4,3,0,-2,-2,0,3,2,1.22
245,-1,-2,-1,2,-2,1,7,1,1.225
246,3,5,0,2,0,-3,0,2,1.23
247,-7,-3,1,-1,2,-1,-2,1,1.235
248,1,-3,-2,-8,-1,-4,-7,-5,1.24
249,-2,-2,0,0,-3,2,-3,-3,1.245
250,-3,-2,-3,-3,0,1,7,-1,1.25
251,-3,-3,1,4,-1,-1,-6,0,1.2550000000000001
252,4,-3,-1,-9,-5,-2,-2,0,1.26
253,1,0,1,9,10,2,2,2,1.2650000000000001
254,1,-1,-4,-3,-4,-5,-3,-2,1.27
255,-2,2,2,2,-1,2,3,-1,1.2750000000000001
256,-6,0,-4,-2,-1,0,0,-2,1.28
257,-2,0,-3,-5,-3,1,-8,-4,1.285
258,-3,-5,-1,-1,1,2,2,0,1.29
259,-2,-2,-1,0,-1,-2,4,-1,1.295
260,-1,1,-1,-3,-3,-2,2,-1,1.3
261,0,1,-1,-1,0,-2,-3,0,1.305
262,-1,2,0,1,3,-2,-2,-2,1.31
263,0,-1,-4,-6,-4,-3,-6,-2,1.315
264,-1,1,3,2,0,3,-1,-2,1.32
265,-4,0,-2,1,1,-1,2,-3,1.325
266,3,6,-1,-3,-4,-1,-8,-1,1.33
267,2,3,1,4,4,3,6,2,1.335
268,-1,5,-1,-7,-1,-5,-2,-1,1.34
269,-2,5,-2,-1,0,-1,0,1,1.345
270,-1,4,-1,4,3,0,-2,-1,1.35
271,1,2,-1,-6,-5,0,-4,-3,1.355
272,-4,-3,-2,-1,2,-1,-1,-2,1.36
273,1,3,-2,-3,-4,-2,-1,2,1.365
274,-4,-1,0,-12,-1,-2,-6,-2,1.37
275,-3,23,-1,1,2,0,1,0,1.375
276,2,19,-1,-2,-2,-1,-1,1,1.3800000000000001
277,0,-20,0,1,-1,-2,-16,-3,1.385
278,-3,-22,-2,-8,-6,-1,13,2,1.3900000000000001
279,-1,-2,-1,-2,-2,0,2,-1,1.395
280,2,26,1,8,2,1,-4,-1,1.4000000000000001
281,3,24,-2,-4,-2,-1,0,0,1.405
282,-3,7,-3,-1,-3,-1,-5,1,1.41
283,-1,-12,-2,2,1,-3,-3,-2,1.415
284,0,-17,0,-8,-8,4,9,1,1.42
285,-3,-16,1,0,0,1,0,-1,1.425
286,4,-16,-2,3,-1,-4,-4,-2,1.43
287,4,-13,2,1,-2,-1,0,3,1.435
288,0,-19,-1,6,1,-2,-3,-1,1.44
289,-1,-10,0,-4,0,0,6,0,1.445
290,-2,-4,-2,3,2,1,-1,-2,1.45
291,-1,-6,-4,-4,-3,-1,-8,-6,1.455
292,1,-8,0,0,0,1,6,3,1.46
293,1,-6,0,-1,-1,0,-7,0,1.465
294,-2,1,0,3,0,-4,-2,-1,1.47
295,1,-2,-1,-2,-4,-2,-1,0,1.475
296,-3,-7,0,7,9,0,-4,-2,1.48
297,2,0,-1,-4,-5,-1,6,0,1.485
298,7,5,-1,-1,-3,0,3,2,1.49
299,-8,-7,1,1,0,-1,-5,-2,1.495
300,0,-2,-2,-13,-5,-1,1,-2,1.5
301,-6,0,-4,-3,-3,-5,-2,-1,1.5050000000000001
302,-1,1,3,5,5,3,-2,0,1.51
303,-2,-3,0,-1,1,-2,0,-1,1.5150000000000001
304,2,0,-5,-2,-1,-4,-4,0,1.52
305,1,3,-1,5,-1,-3,-3,-2,1.5250000000000001
306,-2,3,5,-3,1,6,1,1,1.53
307,-5,-5,-4,-4,0,-1,8,3,1.5350000000000001
308,-1,0,1,3,-1,0,-5,-1,1.54
309,5,7,-2,0,-1,0,2,0,1.545
310,-3,0,-3,-1,-1,-2,-4,-3,1.55
311,0,0,-2,4,1,0,6,-2,1.555
312,-3,-1,0,-5,-3,-1,-13,-3,1.56
313,2,1,1,-2,-2,0,2,1,1.565
314,-1,2,-2,-1,0,-2,2,1,1.57
315,1,0,1,-9,-4,3,1,-1,1.575
316,-2,-4,-2,0,-1,-1,3,-3,1.58
317,-3,0,0,5,-2,-4,-4,-2,1.585
318,-3,-3,-4,2,-2,-4,-4,0,1.59
319,2,2,-1,-2,1,-1,0,0,1.595
320,2,-1,-2,-3,-1,0,4,-1,1.6
321,-3,-4,0,-1,3,2,-2,3,1.605
322,0,0,-1,-1,-5,-2,0,-1,1.61
323,-3,-2,-2,5,0,-1,-5,-2,1.615
324,-1,0,-3,-10,-4,0,-4,-2,1.62
325,1,0,1,7,1,0,4,0,1.625
326,-4,0,-1,1,-1,-1,-4,-3,1.6300000000000001
327,1,1,-5,-9,-4,-3,2,0,1.635
328,1,-1,5,12,4,3,-1,3,1.6400000000000001
329,-2,-5,-4,1,0,-3,2,0,1.645
330,-6,0,-1,-12,-7,1,4,-2,1.6500000000000001
331,4,2,6,15,3,1,-12,0,1.655
332,0,-6,-3,-4,-1,-2,3,0,1.6600000000000001
333,-1,-1,0,1,1,0,0,1,1.665
334,-1,-2,-3,-8,-6,-3,-3,-1,1.67
335,-3,0,0,0,2,-3,-4,-2,1.675
336,-1,2,0,4,0,-1,-1,0,1.68
337,-1,3,-2,-6,-3,-1,-3,-3,1.685
338,1,0,-1,-1,-1,0,-4,-2,1.69
339,-2,1,-4,-4,-5,0,0,-1,1.695
340,0,1,2,11,2,-2,-1,-2,1.7
341,2,0,-1,-5,-2,1,1,-1,1.705
342,-7,-4,0,1,0,-2,-9,-4,1.71
343,2,-1,0,1,0,0,5,2,1.715
344,-2,1,-2,-3,-3,-5,0,-2,1.72
345,-1,-3,0,2,3,0,3,0,1.725
346,1,0,0,4,1,-3,-3,0,1.73
347,-2,-1,0,-2,2,1,-4,-1,1.735
348,-5,-1,-3,-3,-4,-2,-3,-3,1.74
349,3,0,-2,-15,-1,-2,6,0,1.745
350,2,0,1,19,1,1,-4,1,1.75
351,-3,-5,0,-2,4,4,9,2,1.7550000000000001
352,0,2,-3,-5,0,-4,-9,-1,1.76
353,-4,0,2,-5,-7,0,-4,0,1.7650000000000001
354,3,-3,-4,3,2,0,-1,-3,1.77
355,0,2,0,-2,-4,-3,-1,1,1.7750000000000001
356,0,0,1,4,0,1,0,0,1.78
357,-5,-4,-4,-11,-1,-1,-3,-2,1.7850000000000001
358,4,2,-1,-7,0,1,0,-1,1.79
359,-3,-3,-1,5,-3,-1,3,0,1.795
360,-4,-5,-2,-5,-1,-1,0,1,1.8
361,3,0,0,3,0,-1,-1,-2,1.805
362,1,1,0,3,1,-1,2,3,1.81
363,1,0,-4,-13,-9,-3,-6,-4,1.815
364,0,4,4,13,6,2,-2,0,1.82
365,-4,-2,-3,-2,-6,-4,-3,-5,1.825
366,0,2,0,-1,2,2,5,0,1.83
367,-3,-4,-1,-9,-2,-4,-2,-1,1.835
368,-2,-4,-1,-2,-1,1,5,-1,1.84
369,1,-1,0,5,2,1,1,2,1.845
370,0,-2,-2,-6,-2,-2,0,-3,1.85
371,1,3,-2,0,-2,0,-3,-1,1.855
372,-5,-4,-3,-7,-3,-1,-1,-3,1.86
373,-2,-2,-2,7,2,0,-7,-1,1.865
374,-2,-1,-1,-13,-7,-1,0,-1,1.87
375,-1,-3,1,6,2,-1,-3,-4,1.875
376,4,3,-1,-4,-3,0,1,1,1.8800000000000001
377,1,2,0,3,1,0,-10,-2,1.885
378,-2,-2,-4,-7,-4,-2,9,3,1.8900000000000001
379,3,2,0,0,0,1,-3,-1,1.895
380,-1,0,3,5,-1,-1,0,-1,1.9000000000000001
381,-4,-5,1,3,-2,-1,-1,-3,1.905
382,-2,-1,-3,-5,-1,-1,-4,-2,1.9100000000000001
383,1,4,-2,2,1,-2,2,1,1.915
384,-3,-3,-2,-5,-2,-3,0,-1,1.92
385,-1,0,-3,1,0,-1,-2,-1,1.925
386,0,-1,2,3,2,1,-1,1,1.93
387,0,2,-1,-1,1,2,3,1,1.935
388,-1,0,-3,-5,-2,-1,-3,0,1.94
389,-3,-1,1,-3,-4,-1,1,-1,1.945
390,-3,-3,-2,1,1,0,-3,-2,1.95
391,-3,0,0,0,-2,-1,-3,-4,1.955
392,-1,1,-1,-1,-3,-1,-2,0,1.96
393,-1,-1,-1,4,4,0,0,0,1.965
394,4,-1,-3,-3,-2,-1,7,3,1.97
395,-1,-1,0,2,-1,0,-1,1,1.975
396,-6,-1,-1,-1,0,-1,-2,-3,1.98
397,1,0,-1,-8,-4,-1,0,0,1.985
398,-4,-2,0,2,-2,-2,-5,-2,1.99
399,-2,-2,0,1,0,1,9,0,1.995
400,2,0,-6,-9,-2,0,-3,1,2.0
401,4,4,2,-2,-2,0,5,4,2.005
402,-8,-2,-1,0,0,-1,-6,-3,2.0100000000000002
403,3,-2,0,2,-1,-1,-2,0,2.015
404,2,1,-2,3,1,-2,4,1,2.02
405,-1,-3,1,-7,-7,-2,-2,-3,2.025
406,1,0,0,5,8,3,4,0,2.0300000000000002
407,-4,0,-2,4,3,-2,-6,-3,2.035
408,-1,-4,1,-6,-7,-1,-2,-1,2.04
409,-1,-3,-2,1,3,0,3,0,2.045
410,1,-4,0,-2,-3,-4,-6,-1,2.05
411,-4,-2,0,-2,-1,-2,-1,2,2.055
412,3,1,-1,-3,1,0,-1,0,2.06
413,-1,1,-3,-3,0,0,3,-1,2.065
414,1,0,2,3,-2,1,-1,-2,2.07
415,1,2,-1,-1,0,-1,-7,-1,2.075
416,-2,-1,-2,-2,-1,-2,5,-1,2.08
417,-3,-2,-1,1,0,1,-5,2,2.085
418,2,0,-1,-1,1,1,9,1,2.09
419,1,-2,1,-1,0,-1,-7,-1,2.095
420,-4,-3,0,4,1,-2,-5,-4,2.1
421,2,2,-1,-2,-2,0,1,0,2.105
422,-3,0,-3,-2,-5,-3,-2,-2,2.11
423,-2,-1,1,1,5,1,-4,-2,2.115
424,3,-1,1,2,-1,0,2,-2,2.12
425,-1,-5,-1,3,2,1,0,3,2.125
426,-1,-2,-1,-5,-2,-3,-2,1,2.13
427,-1,1,-3,-4,-3,0,1,-2,2.1350000000000002
428,-2,0,0,-3,-1,-1,-1,-1,2.14
429,-2,-1,-2,1,1,-3,-7,-6,2.145
430,-4,-2,-3,-5,-3,-1,-9,-6,2.15
431,-2,-3,-2,-2,-3,0,11,3,2.1550000000000002
432,2,-1,0,2,2,-2,2,3,2.16
433,1,3,1,-1,-1,0,2,0,2.165
434,3,2,-2,4,-3,1,6,1,2.17
435,-5,-3,-3,-7,-3,-1,-11,-5,2.1750000000000003
436,0,-3,-2,2,0,-1,-4,-1,2.18
437,-4,-2,3,-3,-1,-1,0,1,2.185
438,5,3,1,1,2,0,3,1,2.19
439,3,1,1,2,0,0,1,1,2.195
440,-8,-4,-2,-3,-4,-1,0,-2,2.2
441,-1,1,-3,0,0,-1,0,-5,2.205
442,-3,-1,-2,-6,-2,-1,-7,-2,2.21
443,0,-16,-1,0,-5,-5,1,2,2.215
444,4,-20,4,7,5,0,-1,4,2.22
445,2,-18,-3,-5,-6,-1,-1,0,2.225
446,-8,-12,-3,-3,-1,-2,-10,-4,2.23
447,0,5,-5,-7,-3,0,3,-1,2.235
448,-1,13,-1,1,3,3,3,0,2.24
449,1,9,1,4,-2,0,-3,-2,2.245
450,3,9,0,1,2,0,2,2,2.25
451,-2,9,-1,4,0,-1,-3,-1,2.255
452,-3,6,-1,-4,1,0,-9,-3,2.2600000000000002
453,3,6,-1,-4,-3,-1,2,2,2.265
454,-1,3,1,6,-1,0,2,0,2.27
455,-1,2,-2,-3,-4,-2,-4,-3,2.275
456,1,2,2,5,4,0,2,-2,2.2800000000000002
457,-3,0,-1,-1,3,2,-1,-1,2.285
458,0,1,0,2,1,-2,-1,0,2.29
459,-1,0,0,2,0,0,1,2,2.295
460,3,5,-4,-7,-5,-2,-2,-2,2.3000000000000003
461,-6,1,0,2,1,-1,-14,-5,2.305
462,-4,-5,0,-4,-2,-2,1,-3,2.31
463,2,1,2,2,5,3,11,4,2.315
464,2,1,-2,-3,-3,0,4,2,2.32
465,3,-3,-2,3,2,-2,0,2,2.325
466,-1,-3,-3,-4,-3,-1,-2,-2,2.33
467,-5,-1,-1,2,0,-2,-6,-4,2.335
468,-1,-1,-4,-15,-6,-2,-5,-2,2.34
469,-1,2,1,5,-1,1,3,1,2.345
470,-2,-4,2,5,3,0,-1,-1,2.35
471,-2,-2,-2,-4,-2,-2,-1,-4,2.355
472,-1,-3,-1,5,1,-1,6,-3,2.36
473,-1,1,-1,-8,-4,-4,-6,-2,2.365
474,3,1,-1,-3,-2,0,3,7,2.37
475,0,0,0,0,1,-2,-2,0,2.375
476,1,1,1,4,-1,0,-6,-4,2.38
477,-1,-3,0,1,0,1,8,-1,2.3850000000000002
478,3,1,1,-1,-6,0,0,-1,2.39
479,-4,0,-2,-4,1,2,-1,1,2.395
480,2,3,-1,0,-4,-3,1,1,2.4
481,-2,1,-1,1,2,-2,-1,-3,2.4050000000000002
482,-2,0,-1,4,3,0,-1,-2,2.41
483,-1,2,-1,-8,-6,-2,2,-1,2.415
484,-5,-3,1,2,0,1,-2,-1,2.42
485,-2,-4,-1,-1,2,-2,-1,-4,2.4250000000000003
486,-2,-4,-1,4,0,-2,5,-1,2.43
487,4,-1,2,-2,-4,1,-7,-3,2.435
488,0,-3,0,-1,1,0,7,0,2.44
489,0,-2,-2,0,0,-1,5,7,2.445
490,4,3,0,0,-1,-1,-6,-5,2.45
491,-1,-2,-2,-3,0,-4,-2,0,2.455
492,2,0,1,-1,-2,0,-7,-3,2.46
493,-4,-3,-1,-4,-3,-1,-6,-2,2.465
494,-2,-3,-3,-5,-1,2,13,3,2.47
495,0,-2,-1,3,1,-1,1,1,2.475
496,-1,-2,1,4,-1,-3,-8,-3,2.48
497,2,1,-4,-3,-1,-2,2,-1,2.485
498,0,0,1,0,0,1,-4,-1,2.49
499,1,-2,1,3,3,1,1,-1,2.495
500,-1,-3,-2,2,1,-1,5,2,2.5
501,0,0,0,-7,-4,-4,-5,-2,2.505
502,-2,-3,-2,0,1,-2,-6,-4,2.5100000000000002
503,-3,-2,-3,-5,-4,0,-4,-3,2.515
504,0,0,-1,2,2,0,2,3,2.52
505,2,-2,-2,-3,-5,-1,3,3,2.525
506,-1,1,0,-2,0,-1,-1,0,2.5300000000000002
507,-7,-4,0,0,-1,-1,-2,-2,2.535
508,0,0,-5,-7,-2,-2,-8,-2,2.54
509,1,2,0,0,-1,0,-9,-4,2.545
510,-2,-3,-1,-3,0,0,7,2,2.5500000000000003
511,-2,1,-1,4,-3,-2,-2,-1,2.555
512,-4,0,-1,-1,-2,-3,-3,-3,2.56
513,0,1,0,5,-1,-1,2,1,2.565
514,-3,0,-3,-6,-3,-1,-5,-2,2.57
515,2,0,3,7,2,-1,5,0,2.575
516,-1,-1,-3,-9,-3,-3,-6,0,2.58
517,-2,-2,1,3,6,-1,0,-2,2.585
518,-8,-2,0,5,0,1,4,1,2.59
519,8,3,-1,-1,-2,0,1,3,2.595
520,-2,2,1,1,-3,0,1,-1,2.6
521,0,-4,0,1,-2,1,0,-2,2.605
522,-1,-2,-2,-5,-2,-3,-11,-3,2.61
523,-2,0,-1,-4,1,0,6,0,2.615
524,0,1,0,2,-1,-1,4,6,2.62
525,0,0,-1,1,3,-1,-5,-2,2.625
526,0,-1,-1,-1,-3,-2,-1,0,2.63
527,-1,-6,-1,-3,-1,-1,-3,-4,2.6350000000000002
528,2,0,2,2,1,-2,-7,-5,2.64
529,-1,-1,-1,1,-2,-1,-1,-1,2.645
530,1,0,-1,4,1,0,-1,1,2.65
531,2,-1,-3,-5,-2,0,-1,0,2.6550000000000002
532,-6,-3,-1,-4,0,1,3,-3,2.66
533,-4,-3,-1,-1,0,0,-2,0,2.665
534,4,3,1,-2,-1,-2,-4,-1,2.67
535,-8,-4,1,-1,2,0,-1,-2,2.6750000000000003
536,0,-2,-3,2,1,-2,1,0,2.68
537,1,-1,-2,-8,-4,-1,-1,-1,2.685
538,-1,-4,-5,-22,-12,-7,7,-3,2.69
539,2,4,5,20,10,4,-2,5,2.695
540,0,-3,-2,4,2,1,-1,-2,2.7
541,0,2,-1,1,-2,2,-1,1,2.705
542,-4,-3,-2,-6,-3,-1,-4,-2,2.71
543,-2,-2,-1,0,-3,-2,1,-1,2.715
544,-1,-1,0,-1,-3,-4,5,1,2.72
545,2,-1,-2,0,0,-3,-2,-1,2.725
546,1,-1,-1,3,3,1,-1,-2,2.73
547,-5,-1,-1,-8,-6,-3,-6,-6,2.735
548,3,0,-1,-2,2,2,-2,0,2.74
549,0,0,0,2,1,1,6,1,2.745
550,-3,-2,0,4,1,1,1,1,2.75
551,1,0,-2,4,0,-2,-9,-3,2.755
552,-2,-1,-2,-10,-5,-3,8,2,2.7600000000000002
553,-1,-2,0,-2,-1,1,10,2,2.765
554,4,3,0,3,2,1,-13,-4,2.77
555,-5,0,-2,1,-1,0,1,0,2.775
556,1,-3,-4,0,-5,-2,-4,-2,2.7800000000000002
557,1,0,1,1,6,-2,0,2,2.785
558,-1,-2,2,8,0,1,3,0,2.79
559,0,-1,0,-4,-4,-3,0,0,2.795
560,-2,-1,2,-3,0,1,-5,-2,2.8000000000000003
561,-5,-2,-3,-5,-4,-1,-4,-1,2.805
562,1,-1,-2,-3,1,-2,2,0,2.81
563,0,-2,-1,1,1,-3,-1,-1,2.815
564,0,-2,1,0,-3,0,1,0,2.82
565,-4,0,-3,-4,-1,-1,0,-3,2.825
566,-2,-3,0,0,-2,-2,-2,-2,2.83
567,0,1,1,5,3,0,-1,-4,2.835
568,-1,-2,-2,0,0,-2,2,-1,2.84
569,1,-2,-1,-2,-6,-3,0,3,2.845
570,1,1,1,2,7,1,3,3,2.85
571,1,1,1,-2,-1,-2,-1,1,2.855
572,-3,-2,-1,1,2,-1,-4,-4,2.86
573,-2,-2,0,-1,1,-2,-4,-2,2.865
574,-1,-3,-3,-1,-1,-3,-2,-2,2.87
575,0,-2,0,-5,-2,1,3,-1,2.875
576,1,2,0,-6,-1,2,1,4,2.88
577,-7,-5,0,-2,-5,-1,-1,-2,2.8850000000000002
578,2,0,-1,-1,0,-1,-2,-2,2.89
579,0,0,-3,1,1,-1,-4,-2,2.895
580,-1,0,-2,0,0,0,-1,-2,2.9
581,1,2,-1,0,-2,-1,-2,-3,2.9050000000000002
582,-5,-2,-1,-1,-2,-2,0,0,2.91
583,1,0,-3,-6,0,1,4,2,2.915
584,-2,-3,-1,0,0,-3,-16,-4,2.92
585,0,-3,0,-2,-3,0,8,1,2.9250000000000003
586,-2,1,-2,-7,0,-2,-1,-1,2.93
587,3,0,-2,-3,-3,0,0,1,2.935
588,-3,-2,0,-2,-5,-2,2,-1,2.94
589,0,2,0,10,8,2,-9,-5,2.945
590,-1,0,0,-9,-3,2,2,-4,2.95
591,-1,0,-3,-5,-2,-2,1,-1,2.955
592,1,1,-1,-1,-3,-4,-8,2,2.96
593,-3,-3,-2,-3,0,-4,1,-2,2.965
594,1,0,-1,2,-1,1,1,2,2.97
595,-2,2,-2,-3,-2,-2,-5,-1,2.975
596,-2,0,2,1,4,1,3,-2,2.98
597,1,1,-1,-1,-2,0,-1,0,2.985
598,-1,-1,-2,4,2,5,-5,1,2.99
599,1,-2,0,-1,-1,2,-5,-5,2.995
600,-5,-1,-4,-5,-4,1,8,4,3.0
601,1,1,0,5,0,2,0,3,3.005
602,3,3,0,4,-3,-3,-3,-3,3.0100000000000002
603,-6,-5,-2,1,1,-3,-3,-1,3.015
604,1,0,0,1,2,0,2,-1,3.02
605,-2,-2,0,-7,-5,-3,2,-3,3.025
606,-1,-2,0,-1,-3,-2,-1,-2,3.0300000000000002
607,1,-2,-3,0,-5,-1,5,2,3.035
608,1,-1,-18,4,1,1,7,-1,3.04
609,0,-3,-21,0,1,-2,-6,0,3.045
610,2,1,-19,-6,1,-2,4,1,3.0500000000000003
611,-3,2,-9,4,1,-3,-6,-2,3.055
612,-1,-1,0,-2,-5,-1,-1,-4,3.06
613,-1,-1,2,-3,-1,-2,-1,-1,3.065
614,-1,-1,2,-4,-2,-1,7,2,3.0700000000000003
615,2,0,3,0,0,-4,4,2,3.075
616,-1,0,6,9,1,-2,-5,-1,3.08
617,0,-2,-5,0,-1,0,-11,-5,3.085
618,-4,-3,-6,0,0,-1,3,0,3.09
619,-3,-2,-12,-9,-6,-1,1,0,3.095
620,2,3,-3,-1,0,-2,-1,-2,3.1
621,0,1,6,-3,-2,0,3,-2,3.105
622,0,-1,13,3,2,0,-3,-3,3.11
623,-2,-1,10,-8,-1,-3,-5,-1,3.115
624,2,0,13,6,0,-3,-3,0,3.12
625,-2,1,12,5,7,0,3,2,3.125
626,-3,-2,7,-4,-3,0,-2,0,3.13
627,0,1,7,-3,0,-2,-1,0,3.1350000000000002
628,-1,-1,6,-3,-4,0,-4,0,3.14
629,5,1,2,-4,-3,3,1,0,3.145
630,0,0,2,-8,-4,1,-3,-2,3.15
631,0,-2,5,15,2,2,5,1,3.1550000000000002
632,1,-1,-2,-4,1,-2,-11,-5,3.16
633,-3,-1,1,0,0,-2,5,5,3.165
634,-1,-3,-1,0,-4,0,5,1,3.17
635,1,-1,-2,-4,-1,0,4,1,3.1750000000000003
636,-2,3,0,-1,-1,1,5,0,3.18
637,0,-1,-2,-6,-2,0,0,-3,3.185
638,0,1,-4,-1,0,-5,-3,-3,3.19
639,0,-1,0,3,0,0,-3,0,3.1950000000000003
640,-2,-2,0,0,2,-1,2,-2,3.2
641,-4,0,-1,-3,-2,-3,-6,-4,3.205
642,-1,-2,1,4,0,-2,-4,0,3.21
643,1,-2,1,-2,1,0,-4,-1,3.215
644,-2,-1,-4,-5,-4,-3,1,2,3.22
645,-1,0,4,10,8,5,3,2,3.225
646,-3,-1,0,4,2,1,-2,-1,3.23
647,1,-3,-1,1,0,0,4,-1,3.235
648,5,-1,-1,-2,0,0,0,-1,3.24
649,-7,-4,-4,-4,-3,1,4,0,3.245
650,1,1,-3,-2,2,0,-6,-2,3.25
651,-5,-5,-4,-10,-1,0,-3,0,3.255
652,-4,-2,-1,4,1,-2,4,1,3.2600000000000002
653,5,1,-1,0,0,-5,-10,-5,3.265
654,0,-3,-1,4,2,-1,1,2,3.27
655,-1,-1,-4,-5,-1,0,0,-1,3.275
656,-1,-1,-5,-3,0,1,-1,-2,3.2800000000000002
657,1,-1,-2,-2,-4,-3,-5,-4,3.285
658,-1,0,-2,-5,-4,-3,6,0,3.29
659,1,2,2,0,4,1,3,2,3.295
660,-5,-2,-2,3,2,3,1,0,3.3000000000000003
661,-3,-2,-2,-1,-2,-1,-2,-1,3.305
662,-2,-2,-1,0,-1,-3,-3,-3,3.31
663,-1,-1,-4,-8,-9,-4,-2,-1,3.315
664,-1,-3,1,3,9,1,1,1,3.3200000000000003
665,-1,-4,-2,-2,-1,-1,-2,0,3.325
666,-1,-2,-1,0,1,-2,1,2,3.33
667,-2,-2,-1,-3,-5,-3,-5,-1,3.335
668,0,1,-3,-7,-4,-2,-1,-2,3.34
669,-3,1,-3,-4,-4,-4,-7,-4,3.345
670,0,2,0,4,1,3,7,2,3.35
671,-1,3,-2,2,1,0,-1,-2,3.355
672,5,1,-1,-2,-7,-1,-3,0,3.36
673,1,-1,2,4,1,2,7,2,3.365
674,-5,-4,-3,2,-1,1,2,-6,3.37
675,-2,1,-1,-1,-1,-3,-14,-5,3.375
676,1,1,-1,-12,-2,0,3,4,3.38
677,1,3,1,11,2,-1,-1,1,3.3850000000000002
678,-1,-1,-3,-5,0,-2,-6,-1,3.39
679,0,-1,1,5,-2,-3,2,-1,3.395
680,-5,-2,-2,-1,1,-1,-1,-1,3.4
681,2,-2,-1,-3,-3,-2,0,3,3.4050000000000002
682,0,2,0,1,3,2,-2,-1,3.41
683,-1,2,-2,-1,-1,0,4,-3,3.415
684,-1,-2,-1,-2,-2,-2,-7,-2,3.42
685,-3,-4,-1,-2,1,3,11,2,3.4250000000000003
686,1,3,-1,3,0,-3,-6,-2,3.43
687,-1,-1,-1,-2,0,1,1,-1,3.435
688,-2,-4,1,3,1,1,-3,-2,3.44
689,-1,-8,-3,-9,-4,0,-2,-1,3.4450000000000003
690,5,-6,1,2,0,1,0,1,3.45
691,-3,-3,-1,-1,0,1,2,-2,3.455
692,1,-1,-3,-4,-4,-2,-3,-3,3.46
693,2,3,-1,-3,-4,-1,-7,-3,3.465
694,-3,2,-2,-2,-2,0,1,0,3.47
695,-3,2,-1,0,-1,-1,-1,2,3.475
696,-1,3,-1,5,9,0,1,1,3.48
697,-3,4,-3,-3,4,0,1,1,3.485
698,2,3,-1,0,-2,-1,-4,1,3.49
699,1,2,0,2,-2,2,-3,-1,3.495
700,0,2,-2,-7,-8,2,0,-1,3.5
701,3,2,0,2,-6,-3,-8,-5,3.505
702,-2,-4,0,-7,-6,-1,4,0,3.5100000000000002
703,0,-2,-1,1,-1,-2,-1,1,3.515
704,1,2,-1,0,-1,1,-3,1,3.52
705,-5,-3,-4,-9,-2,1,-4,-1,3.525
706,-1,2,0,5,-2,-1,-3,-3,3.5300000000000002
707,0,-2,0,4,2,0,-1,1,3.535
708,-1,-3,0,1,2,-3,0,1,3.54
709,-1,1,0,2,1,0,-2,2,3.545
710,-2,0,-3,-5,0,-5,-2,-1,3.5500000000000003
711,1,0,-1,-7,-4,-3,0,-2,3.555
712,-3,-2,0,7,-1,-4,-2,-3,3.56
713,-1,-2,-1,-1,-2,-3,3,1,3.565
714,-1,-2,0,2,-1,-3,-1,1,3.5700000000000003
715,-2,1,-1,-3,0,-1,1,-4,3.575
716,-1,-4,0,-3,-2,-2,4,0,3.58
717,-2,-6,0,0,-1,-2,2,-1,3.585
718,0,-3,-3,-1,-3,0,-2,-5,3.59
719,1,-3,-3,-2,-2,2,1,1,3.595
720,0,1,-3,1,-3,2,-4,-2,3.6
721,0,1,-1,0,0,-3,6,1,3.605
722,-2,1,1,-2,-1,-4,-1,0,3.61
723,0,0,-1,3,2,-2,-2,-1,3.615
724,0,-4,0,-3,-4,-6,-1,-1,3.62
725,-1,-1,1,4,4,-1,-5,-1,3.625
726,-4,-4,0,3,-1,-1,2,1,3.63
727,1,-19,-2,-4,-3,-2,-3,-1,3.6350000000000002
728,0,-37,2,3,-1,-2,-3,-1,3.64
729,1,-28,-3,-6,-2,2,0,-1,3.645
730,-3,-16,-1,-4,-1,1,-1,-2,3.65
731,-2,5,0,-4,0,0,-2,1,3.6550000000000002
732,-2,15,2,3,1,-1,3,1,3.66
733,-1,13,-2,3,0,-4,-3,-1,3.665
734,1,17,-2,-3,-3,0,-2,0,3.67
735,-1,12,-1,0,0,0,0,-1,3.6750000000000003
736,-1,10,-2,-3,1,1,3,-2,3.68
737,0,5,-1,0,-1,0,1,-3,3.685
738,0,4,-2,-1,2,1,-1,-1,3.69
739,1,-1,-1,1,0,-1,-1,-2,3.6950000000000003
740,-1,0,-2,-1,0,0,1,-1,3.7
741,0,5,-1,0,-2,0,1,1,3.705
742,0,0,-2,-1,-2,0,1,-1,3.71
743,-2,-1,-1,0,1,-2,0,0,3.715
744,-1,4,0,-3,1,2,0,1,3.72
745,-1,1,0,-1,3,-2,-5,-2,3.725
746,-3,-1,0,-5,1,0,-2,-1,3.73
747,0,1,-2,-5,-2,-1,-1,-1,3.735
748,0,3,0,-1,1,-2,-2,0,3.74
749,0,4,-1,0,-2,-1,2,-1,3.745
750,-1,1,0,1,1,-1,0,-1,3.75
751,0,4,0,2,-1,-2,-1,-2,3.755
752,0,0,-2,0,-2,-1,-2,0,3.7600000000000002
753,1,0,-1,-2,-2,-1,0,1,3.765
754,0,0,-1,0,1,0,-1,1,3.77
755,-2,0,2,3,1,0,-2,-1,3.775
756,0,2,-1,-2,-2,-2,-2,-1,3.7800000000000002
757,-2,1,0,0,2,0,-2,-1,3.785
758,-2,0,-3,-2,-5,-3,-3,-4,3.79
759,-1,-3,1,-2,-2,2,0,0,3.795
760,-2,-1,-2,2,-2,1,1,0,3.8000000000000003
761,1,-3,1,-1,-4,-3,-2,-1,3.805
762,1,0,-3,1,3,2,0,0,3.81
763,0,0,-2,-2,-1,-3,-2,0,3.815
764,-4,3,-2,-4,-1,0,-1,-2,3.8200000000000003
765,-1,3,0,5,-1,-1,-1,-2,3.825
766,-1,2,1,3,-1,0,-2,-2,3.83
767,0,-3,-6,-4,1,2,2,0,3.835
768,-1,-2,-2,-9,-6,-2,-3,-1,3.84
769,0,-1,1,0,-4,-1,-1,-2,3.845
770,-1,1,-1,-7,0,-2,-4,-2,3.85
771,0,2,-2,4,2,-2,2,0,3.855
772,0,0,-2,-5,-1,-5,2,2,3.86
773,-1,-3,1,0,1,1,0,0,3.865
774,-1,-11,-1,4,1,-1,-2,2,3.87
775,-2,-14,0,0,-4,3,-2,-1,3.875
776,0,-6,-2,-5,-3,1,-3,0,3.88
777,0,-107,-1,-1,-1,-2,-2,-1,3.8850000000000002
778,0,-84,-1,-1,-1,-2,-1,-1,3.89
779,-2,-45,-3,-3,-2,-4,-4,-1,3.895
780,0,3,1,7,2,1,0,-1,3.9
781,-1,48,-3,-4,-2,2,0,-2,3.9050000000000002
782,-2,45,0,2,2,0,1,0,3.91
783,-1,39,2,-2,0,0,0,-1,3.915
784,-3,30,1,6,3,1,0,-2,3.92
785,-1,41,8,23,6,0,-7,1,3.9250000000000003
786,-3,6,-18,-19,-5,1,2,-1,3.93
787,0,11,-3,-14,-4,-2,-2,0,3.935
788,0,-2,0,-1,4,-3,-1,0,3.94
789,-2,8,-2,-11,-8,-4,-1,0,3.9450000000000003
790,0,17,7,14,10,-1,-1,-1,3.95
791,2,14,2,4,1,0,1,-2,3.955
792,1,-5,-2,-4,-2,-2,1,-1,3.96
793,-2,6,-7,-2,-1,-1,0,-2,3.9650000000000003
794,-2,12,3,4,-4,-2,0,-2,3.97
795,-1,-5,-1,-2,-2,0,-1,-3,3.975
796,-1,-10,2,4,0,0,-3,0,3.98
797,1,5,-3,-5,0,1,0,0,3.985
798,1,5,1,-2,-4,-2,1,2,3.99
799,-4,0,1,1,0,-2,1,0,3.995
800,-1,-2,-3,0,-3,-1,1,-2,4.0
801,0,3,-4,-6,-2,-3,0,0,4.005
802,0,-1,0,1,-3,-1,-2,0,4.01
803,-1,-4,1,1,-4,-3,-3,0,4.015
804,-2,-6,-1,3,2,2,-1,-2,4.0200000000000005
805,-1,-7,-5,-11,-1,0,2,-1,4.025
806,0,-3,-1,-5,-2,-3,-3,-1,4.03
807,0,-3,-2,1,1,-1,-3,1,4.035
808,1,-4,-1,-2,-2,-1,-1,0,4.04
809,0,-1,0,-2,1,0,1,0,4.045
810,-2,3,2,4,-2,-1,-1,-1,4.05
811,0,3,0,2,1,-1,-1,-1,4.055
812,0,2,0,-1,-2,1,-3,-1,4.0600000000000005
813,1,0,-2,-1,0,-1,-1,-1,4.065
814,0,0,-4,-4,-4,0,-2,-2,4.07
815,0,-4,-2,5,2,1,-1,-3,4.075
816,-2,-5,-1,0,-1,-1,-1,1,4.08
817,-2,-2,-1,-1,0,0,3,2,4.085
818,-2,-3,0,2,-1,0,-2,-1,4.09
819,0,0,-4,-4,-3,-1,0,0,4.095
820,0,-1,0,0,0,-2,2,-2,4.1
821,1,0,1,-2,-2,0,-3,-2,4.105
822,0,0,0,-4,-2,2,-2,-1,4.11
823,0,-8,0,-2,-1,-2,-1,1,4.115
824,-1,-9,-3,-3,-2,-1,-2,0,4.12
825,-1,-3,2,8,0,-4,0,0,4.125
826,0,-2,-6,-9,-1,0,1,-1,4.13
827,-1,3,-4,-2,-2,0,-2,-3,4.135
828,0,1,-1,0,-1,1,0,0,4.14
829,1,-3,-1,1,-1,1,-2,-1,4.1450000000000005
830,0,-1,3,2,-4,-2,0,-1,4.15
831,-2,1,0,1,0,0,0,0,4.155
832,-1,0,1,-2,-1,-1,-3,1,4.16
833,-1,2,-1,-1,-2,0,-3,0,4.165
834,0,1,3,-1,1,-1,-1,-1,4.17
835,0,-1,-3,-3,-2,-2,0,0,4.175
836,-2,-3,-2,3,-1,-2,-1,-2,4.18
837,-3,0,-2,-3,-2,-1,0,-3,4.1850000000000005
838,0,0,-3,3,-1,0,0,0,4.19
839,0,-2,1,-4,-4,0,-1,-1,4.195
840,0,1,-1,0,2,-2,-2,-1,4.2
841,-1,-19,-2,-2,-1,-1,-1,1,4.205
842,-1,-14,-3,-1,1,-2,-2,0,4.21
843,-2,-7,1,3,-2,-3,-1,-1,4.215
844,0,5,-3,-7,0,0,0,-1,4.22
845,-1,12,0,3,0,-1,-1,-1,4.225
846,-2,7,-1,-3,-1,0,0,-2,4.23
847,0,1,1,-2,-3,0,1,-1,4.235
848,-1,-4,3,3,-1,-1,0,-4,4.24
849,-1,-3,-4,-11,-4,-3,-3,-3,4.245
850,-2,-2,0,0,2,-1,-1,-1,4.25
851,-2,-1,-1,0,2,-2,0,-1,4.255
852,-1,-7,-2,-3,-2,0,0,-1,4.26
853,0,-4,0,1,1,1,2,0,4.265
854,0,-4,-1,3,-2,-4,0,0,4.2700000000000005
855,-2,-1,-2,-5,-2,1,0,1,4.275
856,0,-1,0,2,3,-1,-2,0,4.28
857,0,3,-1,0,-2,0,-1,-1,4.285
858,0,1,-4,-3,0,-2,-4,-1,4.29
859,0,2,0,3,1,-2,-2,-1,4.295
860,-4,-2,-1,-2,-2,-1,2,1,4.3
861,-2,-1,0,2,-1,-1,1,0,4.305
862,0,-5,0,0,-1,-1,2,-1,4.3100000000000005
863,0,-2,2,8,1,-1,0,-3,4.315
864,2,-2,2,-3,-3,-2,-3,-2,4.32
865,-1,4,-2,-3,-1,-2,-2,-1,4.325
866,0,4,0,1,0,1,0,2,4.33
867,1,2,-1,-2,1,0,-1,0,4.335
868,-1,2,-1,-3,-3,-1,0,1,4.34
869,-2,-4,1,5,0,1,1,-1,4.345
870,0,-4,0,-2,-2,0,-2,-1,4.3500000000000005
871,-1,-1,0,-2,-2,-1,-3,1,4.355
872,0,0,-2,3,1,0,-3,-2,4.36
873,-1,-1,-1,-6,-2,-2,-1,-1,4.365
874,-1,0,-1,0,0,-3,-1,0,4.37
875,-2,-1,-2,-3,-1,1,2,0,4.375
876,-3,-1,-3,0,0,-1,-2,0,4.38
877,-1,-3,-3,-4,-2,-1,1,0,4.385
878,0,-1,1,2,0,0,-1,-2,4.39
879,0,-1,-1,-5,-9,-3,-1,-3,4.3950000000000005
880,0,1,0,4,9,0,-1,-1,4.4
881,-2,0,0,4,-1,2,0,0,4.405
882,0,0,0,-1,1,1,1,-1,4.41
883,-1,-2,-3,-2,-3,0,-1,0,4.415
884,-1,-5,0,-1,-5,-1,1,1,4.42
885,-2,-2,-1,0,1,-2,1,0,4.425
886,-1,1,-1,-6,-3,0,0,0,4.43
887,0,-1,-3,2,3,1,0,-2,4.4350000000000005
888,-1,-1,-2,-3,-4,-1,-2,-2,4.44
889,0,-1,0,-2,-4,-2,-2,0,4.445
890,0,0,-3,-7,-3,-3,-3,0,4.45
891,0,2,4,3,3,-1,-1,1,4.455
892,-1,-1,-1,-4,-3,0,-1,1,4.46
893,-2,-1,-1,0,1,0,0,1,4.465
894,-3,1,-1,4,1,-2,-2,-1,4.47
895,1,1,0,-3,-2,-1,-1,2,4.4750000000000005
896,0,-1,1,1,-1,0,1,-1,4.48
897,1,1,0,1,0,-1,0,0,4.485
898,-2,-2,-1,-3,-2,-1,0,-1,4.49
899,-1,-1,-1,3,1,0,-1,-1,4.495
900,-1,0,0,0,-2,0,1,0,4.5
901,0,-2,-1,-5,-1,-2,-3,-1,4.505
902,0,-5,-1,-3,0,1,-1,0,4.51
903,-2,-3,0,-2,-2,-3,-2,-3,4.515
904,0,8,0,-1,-1,-2,-1,-1,4.5200000000000005
905,-1,0,-1,0,2,0,-1,-1,4.525
906,0,-5,1,1,-2,-2,0,-1,4.53
907,0,-7,-3,2,2,-1,-2,-1,4.535
908,-2,-7,-4,-5,-5,-3,0,-2,4.54
909,0,1,0,0,5,2,0,1,4.545
910,1,1,-2,-6,-3,-2,-1,-1,4.55
911,0,-1,-2,2,2,0,-1,-1,4.555
912,-1,-2,0,1,0,0,-1,-2,4.5600000000000005
913,1,0,-1,-1,-3,-1,0,0,4.565
914,-2,0,0,-2,1,-1,0,0,4.57
915,1,3,-3,-6,-2,0,-2,0,4.575
916,-2,-3,1,3,1,-1,-1,-1,4.58
917,0,-1,-2,-7,-8,-1,-1,-2,4.585
918,0,-1,2,-1,1,-2,-2,0,4.59
919,0,2,0,2,1,1,0,-2,4.595
920,0,1,-2,-4,-2,1,0,1,4.6000000000000005
921,-1,-1,-2,-1,1,0,0,-2,4.605
922,-1,1,-1,3,-3,0,-2,-2,4.61
923,0,-1,0,0,0,-2,0,-2,4.615
924,-1,-2,-1,-3,0,0,0,0,4.62
925,-2,0,-1,3,-1,1,-1,-2,4.625
926,0,0,1,3,0,0,0,1,4.63
927,-1,-2,-2,-1,0,1,-1,-1,4.635
928,0,-2,-2,-1,-2,0,-1,-2,4.64
929,0,-1,-2,-4,-3,-2,1,-1,4.6450000000000005
930,1,2,-3,0,0,-1,-1,-4,4.65
931,-5,-2,2,0,0,-2,-4,-3,4.655
932,0,0,-1,-2,-3,-1,-2,0,4.66
933,-1,-1,0,0,-1,-1,2,0,4.665
934,-1,0,1,0,-1,0,0,0,4.67
935,-2,-4,-3,-3,-3,-1,1,-1,4.675
936,0,-2,-1,0,0,-1,0,-1,4.68
937,1,-2,-2,-1,1,-1,-1,1,4.6850000000000005
938,-2,-2,0,-2,-3,0,0,0,4.69
939,-1,0,-2,-3,-5,-1,2,-1,4.695
940,-1,-1,1,-1,3,0,0,-2,4.7
941,-1,-2,-1,-3,-4,-5,-3,0,4.705
942,1,-1,-1,0,1,1,-2,-1,4.71
943,-2,0,1,1,0,-3,-3,0,4.715
944,-2,-1,-3,0,-1,-2,-1,-3,4.72
945,-1,0,-2,1,-1,-1,0,-3,4.7250000000000005
946,-1,-1,-1,-2,-1,0,-1,0,4.73
947,0,-3,-4,-9,-6,0,2,-2,4.735
948,-1,-3,0,1,-1,-1,-1,-1,4.74
949,-2,-1,1,1,1,-2,0,-1,4.745
950,0,-1,0,-4,-3,-3,-2,-1,4.75
951,3,1,-1,0,1,-2,-2,0,4.755
952,-2,0,-1,2,0,-2,-1,-1,4.76
953,0,-1,0,-1,-4,-2,-2,-1,4.765
954,-4,0,1,2,0,0,1,0,4.7700000000000005
955,-1,0,1,1,-1,0,0,0,4.775
956,-1,-2,-3,-3,-2,0,-1,-1,4.78
957,-1,-3,1,-2,-5,1,-1,-2,4.785
958,-2,-2,-1,2,0,0,0,-1,4.79
959,0,-2,-2,-1,3,-2,-3,0,4.795
960,2,0,-2,-4,-1,1,-2,1,4.8
961,-1,0,-1,0,1,1,-2,-1,4.805
962,0,0,-2,-3,-2,0,1,-1,4.8100000000000005
963,-3,0,1,0,0,-1,-1,0,4.815
964,0,1,1,2,1,-1,-1,0,4.82
965,0,-3,-4,-5,-1,-2,-3,-1,4.825
966,-1,-1,-1,-3,-2,-1,-4,-1,4.83
967,-1,1,1,1,0,1,1,0,4.835
968,-1,1,0,-1,-1,-2,0,-1,4.84
969,1,-1,-2,2,4,0,0,-1,4.845
970,-1,0,-1,2,-1,-1,-1,0,4.8500000000000005
971,-2,0,-3,-4,0,-1,1,1,4.855
972,-2,-1,0,-1,-3,-1,-1,-1,4.86
973,0,0,0,2,-1,0,-2,1,4.865
974,-1,-2,-4,-6,-1,-2,-2,-2,4.87
975,1,0,-1,-2,1,0,0,-2,4.875
976,0,0,4,3,0,-1,-1,-1,4.88
977,-2,1,1,-1,-2,-1,1,-2,4.885
978,0,-2,-1,-1,2,1,0,-2,4.89
979,-1,-2,0,3,-1,0,0,0,4.8950000000000005
980,0,0,-2,-3,-1,-2,-3,-1,4.9
981,-1,-1,0,1,1,-1,1,-1,4.905
982,0,-1,-1,0,-1,-2,1,-1,4.91
983,-1,1,-1,1,-1,-1,0,-1,4.915
984,-1,-1,-1,-4,-5,1,-1,1,4.92
985,-1,-1,0,-2,-1,0,-1,4,4.925
986,-2,-1,0,1,-2,1,1,2,4.93
987,0,-2,-2,-2,1,0,-1,0,4.9350000000000005
988,-1,0,-1,-3,-4,-1,0,0,4.94
989,-1,-1,0,1,-2,-3,-1,-2,4.945
990,-2,-1,-1,-1,2,-1,-1,-1,4.95
991,-3,0,-3,-2,-4,-2,-1,-3,4.955
992,0,-2,-1,3,1,0,-1,-4,4.96
993,-3,-3,-1,-4,0,2,0,-3,4.965
994,1,-1,0,4,-1,-1,-2,-1,4.97
995,1,-1,0,1,-2,-2,-1,0,4.9750000000000005
996,1,0,-4,-3,-1,-2,-1,-1,4.98
997,-2,0,-1,1,0,-1,-1,-2,4.985
998,-1,-2,1,2,-1,-2,-1,-2,4.99
999,-1,0,-1,-3,0,0,1,-3,4.995
1000,-1,1,0,1,0,0,-1,0,5.0
1001,0,0,-3,0,-2,-1,0,-1,5.005
1002,-1,0,1,-3,0,0,0,-1,5.01
1003,0,-1,1,1,0,-1,-2,-1,5.015
1004,-1,-2,-3,-2,0,-2,0,-1,5.0200000000000005
1005,-1,-1,-1,-1,2,-1,2,-1,5.025
1006,-1,-1,-5,-2,-1,-3,-1,1,5.03
1007,-1,-2,-1,1,0,-1,-2,0,5.035
1008,-1,-2,-3,-6,-3,-1,-1,0,5.04
1009,-1,1,1,3,2,0,-2,-1,5.045
1010,-2,-1,0,1,-3,-1,-1,-3,5.05
1011,-1,-2,0,-3,-1,-1,-2,-2,5.055
1012,-1,-1,-1,-2,-1,-1,-1,0,5.0600000000000005
1013,-1,0,0,-2,-2,0,-1,-1,5.065
1014,-1,1,-1,-5,-2,-2,-2,-1,5.07
1015,-1,-1,-3,0,0,0,-1,-2,5.075
1016,-2,0,2,-2,-2,-1,0,-2,5.08
1017,0,-1,0,-1,-1,-1,-2,0,5.085
1018,-1,2,-1,-3,-4,1,0,0,5.09
1019,-1,-1,-3,-3,0,-1,0,-2,5.095
1020,-1,-1,0,0,-1,-1,0,-1,5.1000000000000005
1021,-1,-2,0,0,2,1,-1,1,5.105
1022,-2,-4,-1,2,-2,-1,-3,-1,5.11
1023,-1,2,0,-4,-2,0,1,1,5.115
1024,-2,-1,1,3,3,0,0,0,5.12
1025,1,-1,-2,2,-1,-1,-3,0,5.125
1026,1,-1,2,-2,-4,-2,-1,-1,5.13
1027,-1,-3,1,1,-1,-2,0,1,5.135
1028,-1,0,-4,-3,-1,-2,-3,-1,5.14
1029,0,0,-1,-2,-3,0,1,-2,5.1450000000000005
1030,0,0,-3,-4,1,0,1,-1,5.15
1031,0,1,1,7,1,0,-1,0,5.155
1032,-2,-2,-1,-2,-1,-1,-2,0,5.16
1033,0,-1,-1,1,-1,0,-1,0,5.165
1034,1,0,-2,0,-1,1,0,0,5.17
1035,1,-1,-2,-2,-2,-1,-1,-1,5.175
1036,-1,-3,1,2,-1,0,1,-1,5.18
1037,-1,0,-2,-3,-1,-1,-2,0,5.1850000000000005
1038,-2,0,-2,0,1,0,0,-2,5.19
1039,0,3,2,1,-1,-1,0,-2,5.195
1040,-1,0,-2,-2,-1,-2,-2,0,5.2
1041,-1,-1,-2,-8,-7,-3,-1,-1,5.205
1042,0,-1,0,7,9,0,1,0,5.21
1043,-1,-1,-4,-2,-2,1,1,-1,5.215
1044,0,-2,-2,3,2,1,0,-1,5.22
1045,-2,-1,-1,-4,-3,-2,1,0,5.2250000000000005
1046,-3,0,-1,-3,-2,-1,1,0,5.23
1047,0,0,-1,-3,-1,-1,-1,-1,5.235
1048,0,-1,-2,2,0,-2,0,-2,5.24
1049,0,1,0,3,1,0,-4,-1,5.245
1050,-3,-3,-2,1,-1,-1,1,1,5.25
1051,-2,1,2,-1,-2,-1,1,1,5.255
1052,0,1,1,-4,-3,0,-2,-1,5.26
1053,-1,-2,1,6,2,0,-2,1,5.265
1054,0,-1,-2,-3,-1,0,-2,0,5.2700000000000005
1055,-1,-1,-2,0,0,-2,0,1,5.275
1056,0,-1,-2,-2,-1,1,0,0,5.28
1057,-3,0,-1,1,-2,-2,1,-1,5.285
1058,-1,0,0,-3,-1,-3,-2,-2,5.29
1059,0,-1,-2,-2,-1,0,2,-1,5.295
1060,0,-2,1,-2,-3,1,-1,0,5.3
1061,0,1,-1,0,3,-1,1,1,5.305
1062,0,0,-2,-2,-5,0,-2,8,5.3100000000000005
1063,-2,-2,0,-1,-1,-2,-4,2,5.315
1064,0,0,-1,1,2,-1,0,1,5.32
1065,0,-2,1,1,0,-2,-1,-4,5.325
1066,-1,0,-2,-4,-2,0,-1,-4,5.33
1067,-1,-3,1,1,-1,-1,-4,-4,5.335
1068,-2,-1,-1,-2,0,1,-1,-2,5.34
1069,-1,-3,-3,-2,0,-1,0,-4,5.345
1070,0,-2,0,-1,-4,-3,1,-4,5.3500000000000005
1071,-1,-2,-2,1,2,0,-1,-3,5.355
1072,0,-2,0,-1,-2,-1,0,-1,5.36
1073,-2,-1,-2,-3,-3,-1,-1,0,5.365
1074,-1,0,1,5,3,0,0,-1,5.37
1075,-1,0,0,-7,-3,1,-1,-2,5.375
1076,-1,-1,0,2,-1,-1,-2,0,5.38
1077,0,0,-1,-3,-3,-2,0,-2,5.385
1078,-2,-1,-1,1,0,-1,-1,-3,5.39
1079,0,-1,-1,-1,-2,-1,0,-1,5.3950000000000005
1080,-3,-1,1,-1,1,0,0,0,5.4
1081,-1,1,0,1,1,-1,0,0,5.405
1082,0,0,-1,-3,-2,-1,0,0,5.41
1083,1,0,-2,-4,-3,-4,-1,0,5.415
1084,-1,-1,0,2,-2,-2,0,0,5.42
1085,-1,-3,0,-2,-3,-1,-1,-1,5.425
1086,-1,-2,-2,-4,0,2,-1,0,5.43
1087,-1,0,0,3,2,2,-2,-2,5.4350000000000005
1088,0,0,-2,2,0,-4,1,0,5.44
1089,-2,0,-4,-20,-9,0,-1,-1,5.445
1090,-1,1,5,16,5,1,-1,0,5.45
1091,-2,0,0,-2,-2,-1,-2,0,5.455
1092,-2,-2,-2,0,-1,-2,-2,-2,5.46
1093,-1,0,-1,4,1,0,-1,0,5.465
1094,0,-2,-2,-1,-3,-2,-1,0,5.47
1095,-1,-1,-3,-3,-1,-1,-1,-1,5.4750000000000005
1096,-1,-1,0,0,-1,-2,-2,-1,5.48
1097,2,0,-1,-1,0,0,-2,0,5.485
1098,0,-1,0,-4,-2,-1,-2,-2,5.49
1099,-2,-1,-1,2,0,0,0,-1,5.495
1100,1,-1,-1,-3,-2,-1,0,0,5.5
1101,0,-3,-2,4,1,0,-1,0,5.505
1102,-1,0,-1,0,-2,0,1,-1,5.51
1103,1,-1,-2,-2,-5,-2,1,0,5.515
1104,-3,0,-3,-4,1,0,-2,-3,5.5200000000000005
1105,0,0,-1,1,2,-1,-1,0,5.525
1106,-2,-1,-2,-5,-4,-1,-2,-2,5.53
1107,1,0,0,-2,-1,0,-1,-1,5.535
1108,-1,-2,-1,1,-1,0,-1,1,5.54
1109,-1,0,1,0,2,-1,0,-1,5.545
1110,0,-1,-1,0,-1,-2,-1,-1,5.55
1111,-3,-1,0,-3,-1,0,-1,-1,5.555
1112,0,0,-3,-3,1,-2,-1,0,5.5600000000000005
1113,-2,-3,1,0,-2,-1,-2,-1,5.565
1114,-1,0,-1,0,-1,-1,0,0,5.57
1115,0,-1,0,1,2,-1,-2,-1,5.575
1116,-3,-1,0,0,-1,-1,-1,-2,5.58
1117,0,-3,-1,0,2,0,0,-2,5.585
1118,-2,-3,-1,-1,-2,0,0,-2,5.59
1119,-3,0,-1,0,-1,-2,2,0,5.595
1120,0,-2,-2,-5,-4,0,-2,0,5.6000000000000005
1121,1,2,0,4,0,0,-1,-2,5.605
1122,-2,-2,-3,-10,-2,-2,-1,-1,5.61
1123,-1,0,0,1,1,1,-1,1,5.615
1124,-3,-1,1,0,0,0,-2,-2,5.62
1125,1,0,-2,-2,-1,1,2,1,5.625
1126,-1,-2,-1,-1,-2,-1,-1,-4,5.63
1127,-1,-2,-1,2,0,0,-2,1,5.635
1128,-1,-1,-2,-2,-2,-1,-1,0,5.64
1129,-2,-1,2,0,-1,-1,-1,-1,5.6450000000000005
1130,0,1,0,2,1,0,-1,0,5.65
1131,0,-3,-2,-8,-2,-1,0,0,5.655
1132,2,1,-1,2,0,0,0,1,5.66
1133,-1,-1,-3,2,1,-2,0,-3,5.665
1134,-1,-1,0,-7,-7,0,0,1,5.67
1135,-1,0,-1,-2,-2,-1,-2,-2,5.675
1136,-2,-1,-1,1,2,-1,-2,1,5.68
1137,-1,-2,-2,-1,-3,-1,-3,-1,5.6850000000000005
1138,1,1,0,-1,-1,-2,1,0,5.69
1139,-1,-1,0,2,1,-1,-1,-2,5.695
1140,1,0,-1,-4,-4,-1,1,-3,5.7
1141,-1,-1,-1,0,-1,-1,0,0,5.705
1142,0,-2,-2,2,-1,0,-2,-2,5.71
1143,-2,-3,-2,-5,-2,-1,-2,-2,5.715
1144,1,1,0,1,1,0,1,-2,5.72
1145,0,1,-1,-2,-2,-1,-5,0,5.7250000000000005
1146,-2,0,-1,-1,3,0,0,1,5.73
1147,0,-1,-2,-2,-4,-1,1,-1,5.735
1148,0,0,-1,0,-2,-3,-2,-1,5.74
1149,-2,1,-1,-1,2,-1,0,0,5.745
1150,-1,0,-1,0,-3,-2,-2,-1,5.75
1151,-1,0,1,4,1,0,-1,0,5.755
1152,-1,-2,-2,-4,1,-1,0,-1,5.76
1153,-1,0,1,0,-4,-1,0,-1,5.765
1154,2,-1,0,0,1,0,-3,0,5.7700000000000005
1155,0,-1,-2,0,-2,-1,0,0,5.775
1156,-2,-2,0,0,-1,-2,-2,-2,5.78
1157,-1,-2,-2,-2,0,1,2,0,5.785
1158,-3,-3,0,-5,-5,-1,-2,-3,5.79
1159,-2,1,0,6,3,1,-1,0,5.795
1160,-2,-3,-3,-11,-4,-1,-1,-1,5.8
1161,0,-2,-3,-1,1,-1,-1,-2,5.805
1162,0,-1,0,-1,0,-2,-1,-1,5.8100000000000005
1163,1,-1,0,-1,-1,-1,1,-2,5.815
1164,0,1,1,3,0,0,0,0,5.82
1165,0,-1,-2,-1,0,-1,0,-2,5.825
1166,-1,1,0,-3,-4,0,0,1,5.83
1167,-3,-2,0,-5,-2,-3,-2,-2,5.835
1168,1,0,0,1,1,0,-1,0,5.84
1169,0,-1,3,1,-2,2,-1,-1,5.845
1170,-1,-1,-3,-2,0,0,0,-1,5.8500000000000005
1171,-3,-1,0,2,-1,0,0,-1,5.855
1172,0,-1,-3,-4,-3,-1,-2,0,5.86
1173,-2,1,2,1,0,-2,-2,-3,5.865
1174,0,-1,1,4,1,1,-1,0,5.87
1175,-1,-2,-1,-3,0,-1,-1,-1,5.875
1176,-2,-1,-2,-1,-3,-2,-2,-2,5.88
1177,-1,-23,-3,-3,-2,0,0,0,5.885
1178,-3,-22,-1,2,0,-2,0,-2,5.89
1179,0,-11,-1,-1,0,0,-1,-2,5.8950000000000005
1180,0,-2,1,-1,-4,-2,-1,0,5.9
1181,0,9,-4,-6,-2,-2,0,-1,5.905
1182,0,10,-2,1,2,0,-1,-2,5.91
1183,1,6,-3,-3,0,-2,-1,0,5.915
1184,-1,7,1,3,0,0,1,0,5.92
1185,0,8,0,0,0,0,-1,0,5.925
1186,-1,6,-2,-5,-3,0,-1,-1,5.93
1187,-2,3,0,3,-1,-1,-1,0,5.9350000000000005
1188,0,2,0,2,-1,-1,1,1,5.94
1189,0,0,-1,-3,-3,0,-1,-1,5.945
1190,-1,2,0,0,-1,0,-3,1,5.95
1191,0,3,-1,-3,-2,0,-1,-2,5.955
1192,0,-2,1,5,3,0,-1,-3,5.96
1193,0,0,-1,-2,-2,-2,0,0,5.965
1194,0,0,0,-2,0,-2,0,-1,5.97
1195,0,-3,-2,0,-2,-1,-1,1,5.9750000000000005
1196,-1,-4,-2,-1,1,-2,0,-2,5.98
1197,-2,1,0,-1,-4,-2,0,-1,5.985
1198,-2,0,1,4,2,0,-3,-1,5.99
1199,0,-3,-2,-3,-2,-1,-1,1,5.995
1200,-3,-2,-3,-6,-1,0,-3,-1,6.0
1201,0,-1,2,7,2,-3,0,-1,6.005
1202,0,-1,-4,-10,-2,1,1,-2,6.01
1203,0,0,0,-2,0,0,0,-2,6.015000000000001
1204,1,-1,1,0,-2,0,0,0,6.0200000000000005
1205,-2,0,-1,2,0,1,-2,0,6.025
1206,-2,-1,-1,-1,0,-1,1,0,6.03
1207,0,1,0,2,0,-1,-1,-1,6.035
1208,-2,-1,-2,-1,-2,0,0,1,6.04
1209,-2,0,2,3,0,1,-2,-2,6.045
1210,0,-1,0,5,1,-1,-1,-1,6.05
1211,-1,-1,-1,-6,-1,-1,-3,-1,6.055
1212,0,-1,2,6,0,-1,0,-1,6.0600000000000005
1213,0,-1,-4,-6,-2,2,-2,0,6.065
1214,-2,1,1,3,-1,-1,0,-1,6.07
1215,-1,-2,3,2,2,-1,-1,-1,6.075
1216,0,-1,0,0,-4,-1,0,0,6.08
1217,-1,-2,-2,1,1,-1,-1,-2,6.085
1218,-1,1,-4,-4,-1,-2,-1,-1,6.09
1219,-2,-2,2,9,2,-1,0,-2,6.095
1220,1,0,-3,-7,-1,0,1,0,6.1000000000000005
1221,-1,0,-2,-4,-4,-2,1,-1,6.105
1222,-1,0,1,2,1,0,1,-2,6.11
1223,-1,0,-1,1,-2,-1,0,-1,6.115
1224,-2,-3,-1,1,0,-1,-4,-2,6.12
1225,0,0,-1,-3,-1,0,2,0,6.125
1226,1,-2,-1,1,1,-1,-1,1,6.13
1227,0,-2,0,-6,-3,-1,-1,-1,6.135
1228,0,-2,-2,-4,0,-1,-1,-1,6.140000000000001
1229,-3,-3,0,4,1,-2,-4,0,6.1450000000000005
1230,-1,-2,-3,-5,-2,-1,-2,-2,6.15
1231,0,-1,-2,-3,-3,1,-1,-1,6.155
1232,0,1,0,1,-4,-2,-2,-1,6.16
1233,0,0,0,0,3,0,-1,-1,6.165
1234,-1,-2,-2,-2,-1,-2,-1,-2,6.17
1235,-2,-1,1,3,1,-1,0,-2,6.175
1236,-3,0,-2,-4,0,-1,2,-1,6.18
1237,0,-1,0,2,0,-2,-2,1,6.1850000000000005
1238,1,0,-2,-3,-3,0,0,0,6.19
1239,0,-2,1,5,2,0,-2,0,6.195
1240,0,0,-1,5,-1,0,-1,-1,6.2
1241,-2,0,-4,-5,-2,-1,1,-2,6.205
1242,-1,-2,1,3,1,1,-1,0,6.21
1243,-1,0,-4,-13,-6,-1,0,0,6.215
1244,0,-3,-1,0,1,1,-1,-2,6.22
1245,-1,-1,-1,2,1,0,-2,0,6.2250000000000005
1246,-1,1,-1,0,-2,-1,-3,0,6.23
1247,-1,-1,-2,3,4,0,1,-3,6.235
1248,-1,-1,0,-4,-3,-1,-2,0,6.24
1249,-1,-1,-2,-5,-3,-2,-1,0,6.245
1250,-1,-1,0,-1,-1,-1,2,1,6.25
1251,0,0,0,2,0,0,0,0,6.255
1252,1,-1,-2,-5,0,1,-1,0,6.26
1253,-1,1,0,3,-1,1,0,-2,6.265000000000001
1254,-1,0,-1,-1,1,1,0,0,6.2700000000000005
1255,0,0,-1,-2,-3,0,-1,-1,6.275
1256,0,0,-2,2,2,-1,1,-1,6.28
1257,1,-2,-2,-2,-3,-2,-2,-2,6.285
1258,-1,-2,1,2,-1,-1,-1,-1,6.29
1259,-1,0,-1,-8,-5,-2,1,0,6.295
1260,-2,-1,0,1,-1,-1,-2,-1,6.3
1261,2,0,1,-1,-1,0,-1,-1,6.305
1262,-1,0,0,1,0,-1,-3,-2,6.3100000000000005
1263,0,-2,-1,-1,-4,1,-1,-1,6.315
1264,1,-1,-2,-1,0,-1,0,-1,6.32
1265,-1,-1,1,1,0,0,0,1,6.325
1266,0,0,-2,-1,0,-1,-1,-1,6.33
1267,-3,-4,-2,0,0,-2,0,-1,6.335
1268,0,0,-2,-6,-4,-2,0,0,6.34
1269,0,-1,-1,2,0,0,0,-1,6.345
1270,1,0,0,2,0,-2,-1,0,6.3500000000000005
1271,-1,0,-3,-4,0,0,-2,-1,6.355
1272,-2,0,-1,-2,1,0,0,-2,6.36
1273,0,1,-2,-1,-1,-1,-1,0,6.365
1274,-1,-1,1,0,1,0,-1,-1,6.37
1275,-1,10,-1,4,0,-2,2,-2,6.375
1276,-1,11,0,2,0,-1,0,1,6.38
1277,-2,17,-1,-2,-2,1,-1,0,6.385
1278,0,7,-2,-4,-4,-1,-1,-1,6.390000000000001
1279,-1,-2,1,2,1,1,-1,-2,6.3950000000000005
1280,0,-9,1,3,-1,1,-1,0,6.4
1281,-1,-13,-1,-4,-2,-2,-1,-3,6.405
1282,1,-10,-1,1,0,0,-2,-1,6.41
1283,1,-9,-1,0,1,-1,-1,1,6.415
1284,1,-7,-2,0,1,-1,0,-1,6.42
1285,-1,-6,-1,-5,-4,-2,-1,-3,6.425
1286,-2,-5,-1,-3,1,0,-1,-1,6.43
1287,0,-4,0,1,-2,0,-1,-2,6.4350000000000005
1288,-2,-2,1,1,2,-1,-2,1,6.44
1289,-1,-5,-2,1,-1,-1,1,0,6.445
1290,-2,-1,0,-3,-1,-1,-1,-1,6.45
1291,-1,1,-1,0,-1,-1,-2,-2,6.455
1292,-3,-2,-4,-1,-2,-1,-1,-3,6.46
1293,-2,-1,0,0,-1,-1,-2,0,6.465
1294,0,0,0,4,-1,-3,-1,0,6.47
1295,-1,-2,-1,-5,-1,1,-1,0,6.4750000000000005
1296,-2,2,-2,-2,-2,-1,-3,-1,6.48
1297,-2,-1,-2,-1,0,-2,2,-1,6.485
1298,-2,-2,-1,-2,1,-2,-1,-2,6.49
1299,-1,-1,-2,3,-3,-4,-1,0,6.495
1300,1,-2,-1,-1,-1,1,-1,0,6.5
1301,0,-2,-2,-4,-3,-1,-4,0,6.505
1302,-1,-1,-2,-4,-2,-2,1,-1,6.51
1303,-1,-1,-3,-8,-3,-2,-1,0,6.515000000000001
1304,-2,-1,-4,-2,-2,-1,-1,0,6.5200000000000005
1305,-1,0,-1,-1,0,0,0,0,6.525
1306,0,0,-1,-1,-1,0,-2,-2,6.53
1307,0,1,1,-2,0,0,-2,-1,6.535
1308,-2,1,2,2,0,1,2,0,6.54
1309,0,1,0,2,2,-2,0,-1,6.545
1310,-1,0,-1,1,-2,0,2,0,6.55
1311,-2,-1,-1,1,2,1,0,-3,6.555
1312,-1,-2,-1,-3,-1,-1,-1,-1,6.5600000000000005
1313,-1,-3,0,3,1,0,-2,-2,6.565
1314,-1,-3,0,-4,-2,1,1,-1,6.57
1315,-1,0,0,-3,-1,-2,-2,1,6.575
1316,-1,-1,-1,-1,0,0,1,1,6.58
1317,0,0,-2,-4,-2,-1,-2,-1,6.585
1318,1,0,-1,5,2,1,0,1,6.59
1319,0,-2,-1,-4,-2,-2,0,-2,6.595
1320,-1,-3,0,2,1,-1,-1,-2,6.6000000000000005
1321,-2,-1,0,0,1,0,-1,-1,6.605
1322,-1,1,0,0,-3,-1,0,-1,6.61
1323,0,0,-4,1,1,0,-1,-2,6.615
1324,-2,-1,1,2,1,0,-2,0,6.62
1325,-1,-1,-2,1,-2,2,-1,0,6.625
1326,-2,1,-3,-4,-1,-1,-3,-1,6.63
1327,-1,1,1,4,0,-1,0,-1,6.635
1328,0,0,1,-1,0,0,-1,-2,6.640000000000001
1329,1,1,-2,-3,-2,1,2,0,6.6450000000000005
1330,1,0,0,-1,-1,-1,-2,0,6.65
1331,-1,-1,2,-1,-1,-2,0,1,6.655
1332,-1,1,1,1,1,0,-1,2,6.66
1333,-2,-2,1,3,1,0,-1,0,6.665
1334,0,0,-2,-4,-2,-2,0,-2,6.67
1335,-1,0,-1,4,-1,0,-1,-2,6.675
1336,-2,-2,-3,-6,-2,-2,-2,-3,6.68
1337,-1,-1,-1,-2,-4,-2,0,-1,6.6850000000000005
1338,0,-1,-2,-1,-1,-1,0,0,6.69
1339,-3,-1,-1,-1,-1,1,-1,0,6.695
1340,1,0,-3,-2,-4,-3,-1,0,6.7
1341,-1,-1,-1,-2,2,0,-2,-2,6.705
1342,1,0,1,2,0,0,-1,-1,6.71
1343,0,-3,-2,-2,-2,-1,-1,-1,6.715
1344,-1,0,0,0,-2,-1,0,0,6.72
1345,0,1,-2,0,-1,0,-2,1,6.7250000000000005
1346,-2,-4,1,1,0,0,-1,-1,6.73
1347,0,-1,-1,0,2,0,-1,0,6.735
1348,1,-2,-1,-3,-3,-1,0,-2,6.74
1349,0,-2,0,-1,-2,-1,0,-2,6.745
1350,-2,-1,0,2,-1,-2,-2,-3,6.75
1351,0,-2,-1,0,0,0,-2,1,6.755
1352,0,0,1,3,0,0,0,-1,6.76
1353,-2,-3,-3,-6,-3,0,0,0,6.765000000000001
1354,-1,-2,-1,-2,-1,-1,-1,0,6.7700000000000005
1355,0,0,-1,-2,-1,-2,0,-2,6.775
1356,0,-1,0,-2,0,-1,1,0,6.78
1357,0,-2,-1,0,-2,1,0,1,6.785
1358,-1,0,-2,-2,0,-1,-1,1,6.79
1359,-1,-3,-2,-2,-2,-1,-1,0,6.795
1360,0,1,0,4,0,-2,-1,-1,6.8
1361,0,1,0,2,1,-1,0,-1,6.805
1362,-2,1,-3,-1,1,-1,0,0,6.8100000000000005
1363,1,2,-1,-5,-4,0,1,-1,6.815
1364,0,-1,1,2,1,-2,-1,-2,6.82
1365,0,-1,2,0,0,-3,-2,-3,6.825
1366,1,-2,-1,0,-1,1,1,0,6.83
1367,-2,-1,-2,-2,-2,0,-1,0,6.835
1368,-2,-2,-2,-2,-1,-1,-2,0,6.84
1369,-1,-2,-3,0,1,-1,-2,-1,6.845
1370,1,1,0,-3,-1,1,-2,-2,6.8500000000000005
1371,1,-1,-1,-2,-1,-1,-3,-2,6.855
1372,1,1,-3,0,1,1,-1,0,6.86
1373,-2,-1,0,-1,0,-1,-1,-1,6.865
1374,-1,-1,-3,-5,-3,-2,-1,0,6.87
1375,0,0,0,4,1,0,0,0,6.875
1376,-2,0,-1,2,-3,-3,-2,0,6.88
1377,-1,1,-3,-7,-2,-1,0,-1,6.885
1378,-1,-1,-2,-4,-2,-2,-2,-1,6.890000000000001
1379,-1,-2,1,2,1,-1,-1,-1,6.8950000000000005
1380,1,-1,-1,-4,-1,0,-1,-1,6.9
1381,1,1,-1,7,2,0,-1,0,6.905
1382,1,1,0,0,-3,0,0,0,6.91
1383,-1,-1,0,2,2,-2,-2,0,6.915
1384,-1,-2,-2,-4,-3,0,2,-1,6.92
1385,-1,-1,0,1,1,-1,-1,-1,6.925
1386,-1,1,-3,-4,-2,0,0,-2,6.93
1387,0,1,-1,0,-1,-1,-2,-1,6.9350000000000005
1388,-2,1,-1,0,1,1,-2,0,6.94
1389,-2,0,-1,-2,-2,0,-1,-1,6.945
1390,-2,-1,-2,-2,0,-2,-1,-2,6.95
1391,-1,-1,-2,-1,0,-1,0,-1,6.955
1392,0,-1,0,1,-3,-2,-2,0,6.96
1393,1,-3,-1,-5,-3,-2,-2,1,6.965
1394,-3,-3,0,3,0,0,-1,0,6.97
1395,-1,-1,0,-1,-2,-2,-1,-2,6.9750000000000005
1396,-1,-2,-5,-1,-2,-2,-1,0,6.98
1397,0,0,0,2,0,0,0,-2,6.985
1398,-1,-1,-4,-5,-2,1,-1,1,6.99
1399,0,-2,-1,0,-2,-1,0,0,6.995
1400,-1,0,0,-2,-1,-3,-1,-3,7.0
1401,-1,-1,0,-4,-2,0,0,0,7.005
1402,1,1,1,3,1,-1,-1,-2,7.01
1403,-2,0,-1,2,0,-3,0,0,7.015000000000001
1404,-1,-1,-2,-7,-2,1,-3,1,7.0200000000000005
1405,-1,-1,0,1,-2,-3,-2,-1,7.025
1406,1,1,0,1,1,-2,-1,-1,7.03
1407,-3,-3,-3,-1,3,2,-1,-2,7.035
1408,-2,0,1,3,0,1,-1,-2,7.04
1409,0,0,-3,-6,-2,-2,0,0,7.045
1410,-1,0,-1,1,-2,-1,-1,0,7.05
1411,1,2,0,-2,-2,-2,0,0,7.055
1412,0,1,0,0,-3,-1,2,1,7.0600000000000005
1413,0,0,-1,2,1,-1,-3,-1,7.065
1414,-1,-4,-1,-2,0,-1,0,-2,7.07
1415,0,0,-1,-2,-4,-2,0,2,7.075
1416,-2,-2,-2,-2,0,-1,0,-3,7.08
1417,0,0,0,3,0,-1,0,1,7.085
1418,0,-3,0,-1,-1,0,-1,-1,7.09
1419,-1,0,-1,-4,-2,1,0,0,7.095
1420,1,-2,3,1,-1,-1,-2,0,7.1000000000000005
1421,-1,0,-2,-4,-1,0,0,1,7.105
1422,-1,1,-1,1,0,-1,0,-1,7.11
1423,0,-1,-6,-9,-5,-2,-2,0,7.115
1424,-2,-4,1,1,2,0,-1,-1,7.12
1425,-1,-2,-1,-1,-1,-1,2,-1,7.125
1426,-1,-1,1,1,-1,0,-2,-2,7.13
1427,2,0,2,2,-1,-1,-1,-2,7.135
1428,0,-1,0,-1,-2,-1,-1,0,7.140000000000001
1429,-1,0,-4,-11,-2,-2,-1,-3,7.1450000000000005
1430,-2,1,-1,-2,-1,-1,0,1,7.15
1431,0,0,1,2,1,0,-2,-1,7.155
1432,0,-1,-2,1,1,0,-1,-2,7.16
1433,-1,-4,0,-2,-3,1,0,0,7.165
1434,-1,-2,0,0,0,-4,0,1,7.17
1435,-2,-1,-3,-1,0,-1,-2,0,7.175
1436,0,1,-2,-1,-3,-1,0,0,7.18
1437,-1,0,1,2,-2,-1,0,-1,7.1850000000000005
1438,0,-1,-2,-2,-2,0,0,-1,7.19
1439,-1,0,1,2,2,1,0,-1,7.195
1440,-1,0,-1,1,1,0,-1,-1,7.2
1441,-1,-1,0,3,1,0,-1,-1,7.205
1442,0,-1,-1,0,-5,0,-2,0,7.21
1443,-1,-2,-1,-3,3,-1,-2,-3,7.215
1444,-2,0,-1,-3,1,-1,2,-3,7.22
1445,-2,-1,-3,-4,0,3,-4,-7,7.2250000000000005
1446,-5,-4,-3,-1,-1,5,-2,-4,7.23
1447,-5,-3,-2,-9,-9,-6,-8,-2,7.235
1448,4,3,3,16,10,3,19,0,7.24
1449,-1,-5,-4,-15,-12,-19,-40,-4,7.245
1450,2,1,3,15,15,0,22,9,7.25
1451,4,1,-4,0,-4,13,41,13,7.255
1452,-4,-1,1,-14,-10,5,-3,4,7.26
1453,10,7,6,39,26,-10,4,1,7.265000000000001
1454,1,5,-2,-4,-3,-1,-9,-12,7.2700000000000005
1455,0,9,-6,12,11,-3,-38,-15,7.275
1456,-8,19,-3,-42,-28,-9,3,4,7.28
1457,-3,35,5,24,14,7,14,5,7.285
1458,-5,20,-18,-53,-33,-20,-20,-10,7.29
1459,4,6,27,69,37,15,6,-1,7.295
1460,1,-26,-11,-9,-6,7,-3,2,7.3
1461,-7,-31,-6,-23,-7,9,2,2,7.305
1462,-5,-24,7,41,15,4,5,-9,7.3100000000000005
1463,-9,-35,-23,-82,-48,-19,-3,3,7.315
1464,26,-18,15,51,38,-7,-10,14,7.32
1465,10,-9,3,2,10,4,22,13,7.325
1466,-1,-4,-13,-18,-6,-15,11,5,7.33
1467,-8,-3,2,5,-4,4,-13,-13,7.335
1468,-17,24,-5,-5,-6,-8,-23,-14,7.34
1469,-3,95,-4,-11,-12,7,5,-9,7.345
1470,13,88,1,-41,-4,14,-13,4,7.3500000000000005
1471,-6,127,1,17,-3,-17,-2,2,7.355
1472,0,127,-4,1,5,1,5,0,7.36
1473,-3,73,13,40,19,12,-9,-3,7.365
1474,-5,8,-8,-4,-13,4,25,1,7.37
1475,6,-50,-19,-81,-36,-3,-34,-10,7.375
1476,-4,-77,17,73,38,-5,-2,-3,7.38
1477,8,-81,1,-6,-3,-3,5,15,7.385
1478,3,-66,14,39,27,16,2,7,7.390000000000001
1479,1,-56,-9,-1,-6,-16,-3,-4,7.3950000000000005
1480,-3,-30,-18,-27,-8,4,-28,-14,7.4
1481,-11,-44,-1,-11,-9,-6,26,-3,7.405
1482,1,-46,6,19,14,6,14,14,7.41
1483,-3,-55,6,-23,-9,3,14,3,7.415
1484,0,-45,-19,-13,8,-1,-12,-9,7.42
1485,10,-43,-3,-28,-31,-10,-11,-3,7.425
1486,-5,-30,-5,21,23,12,-37,-14,7.43
1487,-8,-21,30,66,17,28,48,-1,7.4350000000000005
1488,0,-14,1,-4,-11,-24,9,20,7.44
1489,12,-11,-7,-29,-6,-5,11,7,7.445
1490,-3,0,-12,12,-13,-15,-20,-5,7.45
1491,-2,20,21,14,37,16,-2,-8,7.455
1492,-16,-18,-41,-74,-58,-17,-6,-14,7.46
1493,2,-4,13,-8,23,22,-10,-4,7.465
1494,-7,-16,0,-4,-26,-27,4,-4,7.47
1495,9,-8,-35,16,-2,-28,10,14,7.4750000000000005
1496,1,2,39,25,6,29,28,0,7.48
1497,-28,-19,-12,9,-7,5,-25,-23,7.485
1498,9,-12,-40,-97,-73,-7,-4,-1,7.49
1499,8,4,44,66,51,2,-35,9,7.495
1500,-1,6,-3,-12,-6,-1,36,7,7.5
1501,-3,8,-19,-52,-29,-14,-8,1,7.505
1502,1,32,10,80,61,12,7,2,7.51
1503,2,18,-17,-61,-65,13,14,-5,7.515000000000001
1504,-8,7,5,60,77,38,48,-34,7.5200000000000005
1505,-6,-10,-7,-55,-28,-57,-44,25,7.525
1506,31,39,54,59,25,-11,16,53,7.53
1507,-5,-3,-24,-29,-5,-7,-13,0,7.535
1508,24,16,5,69,41,7,7,6,7.54
1509,0,-7,-10,-1,-7,20,23,-16,7.545
1510,-21,-12,-15,31,26,6,9,-19,7.55
1511,-23,-11,20,59,41,23,-3,-17,7.555
1512,-18,-18,1,-45,-54,14,-20,-9,7.5600000000000005
1513,30,5,-31,15,13,20,-9,8,7.565
1514,-1,-13,36,77,15,-59,-53,6,7.57
1515,34,11,15,-14,-25,-5,44,23,7.575
1516,-37,-57,15,-37,-17,-14,23,-27,7.58
1517,2,-33,0,-1,22,13,-73,-10,7.585
1518,23,-10,-1,-1,11,26,66,33,7.59
1519,-3,-4,-14,-40,-4,9,54,16,7.595
1520,8,17,-19,11,-13,-42,-87,-11,7.6000000000000005
1521,-20,9,46,40,-24,11,25,-15,7.605
1522,-12,28,-47,-128,-60,-18,-33,-26,7.61
1523,3,35,21,84,71,-4,2,3,7.615
1524,14,33,4,25,14,7,-9,21,7.62
1525,-21,-7,-13,-58,-44,-8,10,-20,7.625
1526,-12,-18,-24,-28,-36,-18,-69,-31,7.63
1527,2,-5,-2,19,10,23,76,1,7.635
1528,18,22,25,41,44,9,-11,31,7.640000000000001
1529,-2,15,-22,-9,3,-5,-16,10,7.6450000000000005
1530,-7,2,4,1,18,36,44,-7,7.65
1531,-8,7,28,36,-31,-50,-66,0,7.655
1532,28,20,-6,19,5,-12,-108,-24,7.66
1533,-23,-12,3,123,43,0,74,11,7.665
1534,25,38,38,6,-7,1,-30,8,7.67
1535,-25,-23,-53,-109,-12,23,-9,-31,7.675
1536,-14,-14,-20,-21,-49,-40,42,13,7.68
1537,-21,-3,11,-4,19,22,1,-12,7.6850000000000005
1538,-13,-18,-14,5,-27,1,97,-1,7.69
1539,36,16,21,23,-6,-24,-79,15,7.695
1540,35,22,6,17,0,-11,-7,38,7.7
1541,18,17,4,-38,-36,-15,4,1,7.705
1542,-62,-12,-33,-24,19,4,-83,-70,7.71
1543,-11,-22,-28,-59,-36,12,25,-2,7.715
1544,0,-18,-13,-67,-62,-3,50,31,7.72
1545,13,1,30,114,54,4,0,0,7.7250000000000005
1546,3,-48,27,18,21,15,0,3,7.73
1547,-13,-22,-9,43,0,13,-50,-43,7.735
1548,-35,-69,17,-49,-43,1,21,-20,7.74
1549,15,-8,21,22,29,-8,26,50,7.745
1550,34,-8,-28,-17,-12,0,36,23,7.75
1551,9,-17,-9,71,32,-5,-23,-5,7.755
1552,20,6,19,14,35,12,-10,-7,7.76
1553,1,13,0,-1,-17,-26,-19,2,7.765000000000001
1554,-26,-23,-24,-84,-29,-9,-28,-24,7.7700000000000005
1555,-7,-3,14,70,30,22,65,35,7.775
1556,7,25,9,-9,4,5,24,7,7.78
1557,-8,11,-43,1,7,0,-39,-23,7.785
1558,-11,29,9,-44,-36,6,17,-2,7.79
1559,5,-9,10,-49,-23,7,-10,-8,7.795
1560,-28,-16,-101,-55,-32,-11,17,-28,7.8
1561,-2,5,60,32,-3,12,0,-2,7.805000000000001
1562,53,-11,-6,-45,-5,21,3,46,7.8100000000000005
1563,-7,9,23,15,-23,-35,11,-7,7.815
1564,17,44,27,48,17,9,35,29,7.82
1565,-12,12,-29,-23,-33,-8,-13,-31,7.825
1566,-45,-3,-9,-29,34,43,65,-15,7.83
1567,1,19,-4,1,-11,-61,-106,-17,7.835
1568,14,1,-3,22,41,10,-51,7,7.84
1569,5,32,-37,-101,-62,-36,58,46,7.845
1570,27,31,32,68,43,16,-42,17,7.8500000000000005
1571,-4,-2,-12,23,6,13,43,-11,7.855
1572,-5,12,37,2,31,17,48,3,7.86
1573,13,-32,-31,-12,-6,1,-25,-19,7.865
1574,-31,-8,-15,-14,-27,-24,-31,-19,7.87
1575,-9,-8,14,-44,-4,15,2,-2,7.875
1576,-8,-16,-24,-40,-56,-14,-40,-19,7.88
1577,14,-25,29,42,64,9,17,10,7.885
1578,-5,4,15,-12,-10,-8,-1,11,7.890000000000001
1579,20,-6,-58,-54,-5,-7,1,2,7.8950000000000005
1580,-8,17,39,5,5,-6,48,12,7.9
1581,12,26,2,-41,-57,-27,15,-1,7.905
1582,-31,-1,-33,-8,-26,-15,-10,-7,7.91
1583,7,45,-11,-59,-25,-20,-53,-3,7.915
1584,27,10,25,71,0,8,-28,6,7.92
1585,-20,4,2,4,28,14,-21,-8,7.925
1586,0,9,-2,10,-12,1,29,-7,7.930000000000001
1587,-2,4,-5,-77,-39,-1,33,18,7.9350000000000005
1588,11,-9,-8,34,-2,0,21,8,7.94
1589,-8,-9,-2,8,24,9,-24,-17,7.945
1590,-2,9,40,33,1,-4,-5,-11,7.95
1591,-25,-9,-39,7,20,21,-28,-11,7.955
1592,12,-18,30,28,30,24,49,-4,7.96
1593,4,-11,-15,14,11,5,-43,3,7.965
1594,15,44,16,35,9,-38,5,29,7.97
1595,8,2,25,56,23,-2,15,8,7.9750000000000005
1596,-40,-53,-35,-71,-18,42,42,-41,7.98
1597,-10,7,14,52,12,-38,-58,3,7.985
1598,42,47,-4,5,-4,-22,5,34,7.99
1599,20,26,13,7,13,9,9,14,7.995
1600,-36,-77,-20,27,23,44,16,-50,8.0
1601,-5,0,18,0,-14,-16,35,9,8.005
1602,33,12,-21,-25,35,11,-27,21,8.01
1603,-14,15,17,-41,-45,-28,-13,-11,8.015
1604,-9,-17,-46,19,11,9,-20,-8,8.02
1605,9,-10,34,84,40,22,36,-8,8.025
1606,-14,-33,22,38,14,3,5,-7,8.03
1607,6,-11,5,40,35,9,16,13,8.035
1608,-23,-4,-17,-45,-5,12,-49,-9,8.040000000000001
1609,5,-1,8,28,7,-1,2,-6,8.045
1610,10,-8,-16,-3,-18,2,23,3,8.05
1611,-6,-4,13,-34,-33,-11,-12,0,8.055
1612,-11,21,-17,-47,-24,-30,-75,6,8.06
1613,18,29,-24,-54,-27,-7,37,17,8.065
1614,-7,14,11,22,-23,-22,-77,-38,8.07
1615,-35,-28,-13,28,28,21,57,-17,8.075
1616,41,45,26,29,28,-30,16,45,8.08
1617,-9,-16,-33,-92,-11,33,44,2,8.085
1618,-22,-29,-1,10,2,-10,-35,-28,8.09
1619,13,7,11,-27,-1,17,-14,18,8.095
1620,-1,10,29,-10,-39,-24,-15,-14,8.1
1621,-11,-4,-26,13,40,10,-11,-9,8.105
1622,-3,-26,-3,-15,0,32,84,0,8.11
1623,-15,9,14,77,18,-24,-73,-18,8.115
1624,11,13,18,8,3,-13,7,13,8.120000000000001
1625,10,-13,-9,-31,-46,12,-18,-2,8.125
1626,-15,-17,-8,6,6,13,0,-13,8.13
1627,-1,15,-1,-12,-10,-14,38,5,8.135
1628,25,-1,2,-47,-24,-3,-2,20,8.14
1629,-11,9,-10,-13,-2,-14,7,2,8.145
1630,-5,15,31,-1,6,-1,13,9,8.15
1631,12,-16,-48,-83,-14,16,-5,-2,8.155
1632,1,8,34,-45,-26,-7,5,0,8.16
1633,-19,-24,-26,17,9,16,15,-5,8.165000000000001
1634,8,11,10,43,22,-9,-59,-16,8.17
1635,7,13,-1,-4,-9,-11,35,21,8.175
1636,-2,0,-22,-2,0,-14,-24,3,8.18
1637,10,2,-10,-77,-39,-4,24,8,8.185
1638,-9,20,-24,50,54,8,28,13,8.19
1639,3,7,14,42,10,4,-28,-16,8.195
1640,-14,0,-10,-68,-18,-10,-10,-19,8.2
1641,-6,-22,23,41,5,-2,-39,-18,8.205
1642,18,-8,-21,-20,-18,-3,21,20,8.21
1643,14,-12,33,4,20,8,15,11,8.215
1644,-20,-5,-35,53,46,24,3,-15,8.22
1645,-23,-24,16,-20,-12,-21,-58,-44,8.225
1646,11,9,-7,-56,-27,-1,-24,-1,8.23
1647,31,40,7,40,11,-30,89,76,8.235
1648,13,32,2,-34,-30,-2,-26,3,8.24
1649,-16,-17,-27,-74,-15,-13,-9,-19,8.245000000000001
1650,-10,-9,9,7,5,8,11,-13,8.25
1651,-31,-38,-13,-75,-53,9,-51,-35,8.255
1652,-5,2,-14,-42,-10,-13,-8,1,8.26
1653,37,27,21,69,23,4,27,21,8.265
1654,-3,-7,13,28,2,-4,-3,-1,8.27
1655,-7,-9,-8,6,2,3,-8,-8,8.275
1656,-13,-9,-23,35,35,5,1,-7,8.28
1657,-2,1,17,-1,-6,8,-12,-3,8.285
1658,-2,12,-2,-20,-19,-12,6,6,8.290000000000001
1659,1,-3,-26,19,-2,4,2,-6,8.295
1660,7,-1,39,31,-1,4,1,0,8.3
1661,0,9,-2,4,-4,-10,-2,8,8.305
1662,0,11,-1,12,3,-5,-9,7,8.31
1663,2,-4,2,-20,1,0,0,-16,8.315
1664,-23,-18,-15,9,5,13,15,-7,8.32
1665,-3,10,7,4,0,13,8,-10,8.325
1666,14,-1,0,-12,-2,9,7,21,8.33
1667,-4,-9,-6,12,3,-14,-33,-6,8.335
1668,2,-53,-5,15,-3,-20,21,7,8.34
1669,3,-15,18,20,6,12,13,7,8.345
1670,-7,-81,-8,-5,0,5,-5,-14,8.35
1671,-5,70,1,3,7,10,9,-3,8.355
1672,3,-47,6,16,-3,-11,-12,0,8.36
1673,2,-11,-10,-5,2,-4,-6,3,8.365
1674,-10,74,6,3,-7,-10,-8,-11,8.370000000000001
1675,1,94,2,-4,5,4,6,3,8.375
1676,-2,127,-6,10,2,5,2,-1,8.38
1677,2,77,1,2,-2,0,2,4,8.385
1678,4,94,2,-1,-1,-1,1,3,8.39
1679,-3,42,-1,6,4,3,-3,-5,8.395
1680,-5,-78,2,1,-6,-4,-4,-4,8.4
1681,5,-106,1,6,15,3,3,5,8.405
1682,1,-118,-4,1,-4,-1,-3,-3,8.41
1683,-6,-128,-5,-10,-5,2,-1,-6,8.415000000000001
1684,2,-83,1,3,-1,-5,0,2,8.42
1685,0,-21,-4,-6,-4,-3,-4,6,8.425
1686,-2,78,0,-3,-1,0,1,-5,8.43
1687,-1,57,-2,2,-2,1,-1,-2,8.435
1688,3,7,2,-3,-2,-4,-3,1,8.44
1689,-1,23,-3,0,-7,-5,1,1,8.445
1690,-3,-19,1,-1,2,1,2,-4,8.45
1691,1,-8,-3,-2,1,0,1,-1,8.455
1692,-1,30,2,2,0,-6,-3,2,8.46
1693,1,-16,1,7,0,6,6,1,8.465
1694,1,-66,-2,-1,2,3,0,-2,8.47
1695,-2,-75,-2,2,1,-5,-1,1,8.475
1696,-1,-15,0,-2,-3,-5,-8,-3,8.48
1697,-2,-5,1,0,-2,1,5,2,8.485
1698,2,-27,2,7,1,6,2,1,8.49
1699,-2,-38,-1,-7,-1,3,0,0,8.495000000000001
1700,-2,0,0,1,-1,1,-1,0,8.5
1701,0,12,-4,-3,-3,-8,-4,-1,8.505
1702,0,0,-1,-3,-4,-3,-1,-2,8.51
1703,-3,-19,-1,-3,-1,0,-2,-1,8.515
1704,1,11,4,7,-2,-4,0,-1,8.52
1705,-1,20,1,8,6,3,-3,-1,8.525
1706,-2,-14,-2,-1,-2,-2,0,-1,8.53
1707,-1,-15,0,1,0,0,1,-2,8.535
1708,-1,9,-3,-7,-2,-1,1,1,8.540000000000001
1709,-2,25,0,-1,-4,-2,0,1,8.545
1710,-1,11,-2,-2,0,0,-1,0,8.55
1711,0,16,2,5,-1,2,-1,0,8.555
1712,0,20,0,0,4,2,-2,0,8.56
1713,-2,9,-2,-3,-3,-2,2,-1,8.565
1714,1,-4,0,-2,1,1,2,-1,8.57
1715,0,-8,0,2,0,-2,-3,-1,8.575000000000001
1716,-2,3,1,0,-1,-1,0,-1,8.58
1717,0,-3,-4,-6,-1,0,-4,0,8.585
1718,-1,-10,-2,1,-1,-2,0,0,8.59
1719,1,-6,2,10,2,0,0,-2,8.595
1720,1,3,0,-7,-2,0,0,-2,8.6
1721,-2,0,-4,-2,0,0,-1,0,8.605
1722,-1,-1,0,3,-3,-1,1,0,8.61
1723,-1,-1,-2,-6,0,2,-3,-2,8.615
1724,-2,6,0,7,6,-2,0,0,8.620000000000001
1725,0,6,-2,-8,-9,-1,-1,-2,8.625
1726,-1,2,-1,0,1,-3,0,0,8.63
1727,0,1,2,3,-2,-3,-1,-1,8.635
1728,0,1,-5,-5,-1,0,-1,-1,8.64
1729,0,1,-2,-3,-1,-2,-1,0,8.645
1730,-4,-7,-3,-1,-2,-3,-1,-1,8.65
1731,-1,-4,1,1,-2,0,-1,-1,8.655
1732,2,3,0,3,7,3,1,1,8.66
1733,-1,3,0,0,1,1,-1,-2,8.665000000000001
1734,-1,2,0,-2,-4,-2,-5,-1,8.67
1735,1,0,-2,2,2,-1,1,-2,8.675
1736,0,1,-1,-5,-4,-1,1,0,8.68
1737,0,4,0,3,0,-3,0,-2,8.685
1738,-1,5,-2,-5,0,1,0,0,8.69
1739,-3,1,1,1,1,1,-6,-2,8.695
1740,-1,2,-1,-1,-1,0,2,1,8.700000000000001
1741,-2,2,-1,1,-1,0,0,-1,8.705
1742,2,0,0,-6,-3,-2,-3,0,8.71
1743,-2,-1,0,-3,-3,-1,-1,-2,8.715
1744,-2,-1,-1,0,-3,-2,0,-2,8.72
1745,-1,-3,-2,-3,-3,-3,-2,0,8.725
1746,-2,-5,-2,2,3,-1,0,-2,8.73
1747,-2,-1,0,3,-1,-2,1,-1,8.735
1748,0,1,-1,-1,0,0,-1,0,8.74
1749,-1,0,3,6,0,-2,-2,1,8.745000000000001
1750,1,0,-4,-6,-3,0,-1,-1,8.75
1751,-2,-3,-1,-3,-1,-1,0,-2,8.755
1752,1,1,1,4,-2,-4,-1,-1,8.76
1753,-2,-2,-3,-6,-3,-2,-1,0,8.765
1754,-2,0,2,7,1,0,-1,0,8.77
1755,0,-2,-3,-7,1,1,1,1,8.775
1756,0,-2,-1,-1,-3,0,-1,0,8.78
1757,-1,-3,-1,0,0,-2,-2,-1,8.785
1758,0,0,0,5,-2,-1,-1,-1,8.790000000000001
1759,-1,-1,-1,-1,2,0,1,0,8.795
1760,-2,-1,-3,-2,-4,-1,-2,-3,8.8
1761,-1,-1,-3,-5,-3,0,1,0,8.805
1762,-2,-2,0,0,1,0,-1,0,8.81
1763,0,-4,-4,-5,-4,-2,-1,-2,8.815
1764,-1,-3,-2,0,-1,1,1,0,8.82
1765,-2,-5,2,-1,-2,0,-1,-3,8.825000000000001
1766,0,-3,-2,-6,-2,0,0,-1,8.83
1767,0,-2,1,2,-1,-1,0,1,8.835
1768,-2,-1,0,1,0,0,-1,-2,8.84
1769,-2,0,-2,-2,-2,-2,-3,-2,8.845
1770,-1,1,-2,-2,-2,-2,-2,-2,8.85
1771,0,1,0,3,0,1,-1,-1,8.855
1772,-1,1,-1,-6,-3,-1,0,-2,8.86
1773,2,1,0,1,1,0,-2,0,8.865
1774,0,1,-2,0,0,0,2,-1,8.870000000000001
1775,0,5,0,0,-1,-2,-1,-1,8.875
1776,-1,6,-2,0,-1,1,0,0,8.88
1777,-2,7,4,9,2,0,-2,-2,8.885
1778,-2,3,-2,-6,0,0,-1,1,8.89
1779,0,1,-2,-3,-2,1,1,-2,8.895
1780,0,13,-2,0,1,-2,-1,-1,8.9
1781,1,5,-1,0,2,0,1,-1,8.905
1782,-1,3,-2,0,-3,-2,-1,1,8.91
1783,-1,-4,1,-1,-2,-2,-2,-1,8.915000000000001
1784,0,-8,0,1,1,2,-1,0,8.92
1785,1,-5,-3,-2,-3,-1,0,-1,8.925
1786,1,-5,0,1,1,0,0,0,8.93
1787,-2,-3,0,1,2,0,-4,0,8.935
1788,-2,-3,-3,-6,-5,-2,-2,-1,8.94
1789,1,-3,-2,-2,-1,0,-2,-1,8.945
1790,0,-4,0,-1,-1,1,1,-1,8.950000000000001
1791,0,-3,-3,-2,-1,0,0,0,8.955
1792,-1,-2,1,1,0,0,-2,-3,8.96
1793,-1,-2,0,1,-1,0,0,-1,8.965
1794,1,0,-1,-2,2,1,0,-2,8.97
1795,0,0,0,-1,0,0,-3,-1,8.975
1796,2,-4,0,0,0,-3,-2,1,8.98
1797,-1,-1,-3,-3,-5,-1,0,0,8.985
1798,0,0,-2,-1,1,-2,-2,-1,8.99
1799,0,1,-1,0,-1,-1,0,0,8.995000000000001
1800,-2,-4,0,-1,-5,-3,-2,-1,9.0
1801,-1,1,1,4,8,2,0,0,9.005
1802,-3,0,-1,-2,-2,-2,0,-1,9.01
1803,-1,0,-1,2,-2,-1,1,0,9.015
1804,0,-1,0,-1,0,0,-1,-2,9.02
1805,-1,-4,-2,-5,-2,-1,-2,-1,9.025
1806,-1,-1,-4,-2,-3,-3,-3,-1,9.03
1807,0,0,1,0,0,-1,-2,-2,9.035
1808,0,-2,0,2,5,0,0,-2,9.040000000000001
1809,0,0,0,-2,-3,-3,0,-1,9.045
1810,1,1,2,2,0,2,0,-1,9.05
1811,0,-3,1,-1,-1,-2,-1,1,9.055
1812,1,-1,-3,-2,1,-1,-2,1,9.06
1813,-1,0,0,-2,-2,-1,0,-2,9.065
1814,-1,1,1,2,0,-2,0,-2,9.07
1815,-1,-3,-4,-6,-2,-1,0,-1,9.075000000000001
1816,-2,-1,1,1,0,1,0,1,9.08
1817,0,0,-1,-1,1,-1,0,1,9.085
1818,-1,-1,-1,-1,-3,-1,0,0,9.09
1819,-1,-1,-2,2,2,0,-1,-2,9.095
1820,-3,0,-2,-7,-1,1,-1,-2,9.1
1821,-1,0,-1,0,-1,-1,-1,-1,9.105
1822,-4,-3,-1,0,-3,-3,-1,-2,9.11
1823,-2,-2,-1,1,-1,0,0,-1,9.115
1824,0,-2,-1,0,-1,-2,0,-1,9.120000000000001
1825,-1,0,2,1,1,1,-1,-2,9.125
1826,-1,1,-1,-3,-2,-2,-1,-2,9.13
1827,-2,1,-2,-1,-1,-2,-1,1,9.135
1828,-1,1,0,0,-4,-1,-2,-1,9.14
1829,0,0,0,0,-2,-1,0,0,9.145
1830,1,-1,-1,-1,1,0,-1,0,9.15
1831,1,1,0,7,1,1,0,0,9.155
1832,0,-3,-4,-15,-5,-1,0,1,9.16
1833,-2,-2,-2,1,1,-1,-1,0,9.165000000000001
1834,0,-1,-1,-2,0,1,-2,-3,9.17
1835,-1,-1,-2,0,-3,0,1,-1,9.175
1836,0,0,0,5,2,1,-2,0,9.18
1837,-1,-2,-2,-2,-2,-2,-1,0,9.185
1838,-1,-1,3,-4,-4,1,-1,1,9.19
1839,1,-1,-2,-5,-1,0,-2,-1,9.195
1840,0,2,2,2,1,-1,0,-2,9.200000000000001
1841,-2,-1,-5,-6,0,0,-1,0,9.205
1842,0,1,0,5,1,0,0,0,9.21
1843,-1,-1,-1,-4,-3,-1,-1,-1,9.215
1844,-1,-3,2,3,0,1,0,-1,9.22
1845,2,1,0,-1,0,-1,0,1,9.225
1846,0,-1,-3,1,0,-4,-2,0,9.23
1847,-2,0,0,0,-2,-1,-1,-1,9.235
1848,0,0,-1,-2,-1,-1,-1,0,9.24
1849,-3,0,-2,-3,1,1,-1,-2,9.245000000000001
1850,-2,-2,-2,-5,-2,-3,1,-2,9.25
1851,0,-2,1,1,2,-1,-1,0,9.255
1852,-2,-3,0,-3,-4,-2,-1,-1,9.26
1853,-1,-1,0,0,0,0,-1,-1,9.265
1854,0,0,1,1,-1,0,-1,0,9.27
1855,-2,-2,-3,-4,-1,-2,-2,-1,9.275
1856,-1,-1,-2,2,-1,1,0,0,9.28
1857,1,-2,1,0,-3,0,0,0,9.285
1858,-1,-2,-1,-4,-2,-1,0,-2,9.290000000000001
1859,0,0,1,2,1,0,1,0,9.295
1860,-3,0,-1,0,2,-1,-1,-1,9.3
1861,-1,-2,-2,1,-2,-1,0,0,9.305
1862,0,-2,-2,1,-1,-1,-1,0,9.31
1863,0,0,-2,0,0,0,-1,-2,9.315
1864,-2,1,0,2,0,-1,0,0,9.32
1865,-1,-1,-1,-5,0,-1,-1,0,9.325000000000001
1866,1,0,-1,-1,-1,1,0,1,9.33
1867,-2,-1,-5,-5,0,-1,-1,-1,9.335
1868,2,-1,-2,3,1,0,-1,-2,9.34
1869,0,3,0,5,1,-2,0,-1,9.345
1870,-3,-2,-1,-3,-1,1,-2,-1,9.35
1871,0,-2,1,-1,-2,-2,-1,0,9.355
1872,-1,0,-1,-1,1,-2,-1,-1,9.36
1873,0,-1,0,0,-1,-1,-1,-2,9.365
1874,-2,-2,-2,-2,-3,-2,0,-1,9.370000000000001
1875,0,-1,-1,2,1,-3,-2,-1,9.375
1876,-2,-1,-2,-3,-2,1,0,0,9.38
1877,-1,-1,0,-2,-2,-1,-1,1,9.385
1878,0,-1,-2,2,0,0,1,-1,9.39
1879,1,0,1,7,-1,-1,1,-1,9.395
1880,-2,-2,-2,-5,-3,1,-2,-1,9.4
1881,0,0,-1,-3,0,0,-3,-3,9.405
1882,-1,-2,0,0,-1,0,0,0,9.41
1883,-1,-1,-1,0,0,-1,-1,1,9.415000000000001
1884,0,1,0,-1,-3,-4,-1,0,9.42
1885,-2,0,0,-2,-1,-1,-2,-1,9.425
1886,0,-2,0,4,1,0,0,-2,9.43
1887,-1,-1,-5,-9,-1,1,-1,-1,9.435
1888,-1,-2,-2,0,0,0,1,-1,9.44
1889,-2,-2,-2,-4,-3,0,0,0,9.445
1890,0,0,1,3,2,1,-1,-1,9.450000000000001
1891,-2,0,1,0,-2,0,-1,-2,9.455
1892,-1,0,-3,-6,-5,-1,-1,-3,9.46
1893,-1,-1,-2,0,1,-2,-1,-2,9.465
1894,-2,-1,-2,-5,-3,-1,-1,-1,9.47
1895,0,0,-4,-3,-1,0,-1,1,9.475
1896,0,-1,0,3,-1,1,1,-2,9.48
1897,0,-1,-1,-2,-2,-1,-1,0,9.485
1898,-1,1,-3,-2,-1,-1,-1,0,9.49
1899,-2,-1,0,-3,-1,-3,-2,0,9.495000000000001
1900,0,0,-1,1,0,-1,1,1,9.5
1901,0,0,-1,-3,-2,-3,-2,0,9.505
1902,0,-2,-5,-7,-2,-1,-2,-1,9.51
1903,-2,-2,0,-3,-2,0,-2,-1,9.515
1904,-1,0,2,5,2,0,0,-1,9.52
1905,0,-1,-1,-10,-7,1,-1,-1,9.525
1906,-3,-2,-2,-2,0,-2,0,-1,9.53
1907,-1,-2,0,0,-3,-2,-1,-1,9.535
1908,1,-2,0,0,1,0,-1,0,9.540000000000001
1909,-1,0,1,7,1,-1,-3,0,9.545
1910,-2,-3,0,-5,-6,-4,0,-3,9.55
1911,1,0,-2,0,1,0,1,-3,9.555
1912,-3,-3,0,-1,0,-1,0,-1,9.56
1913,-1,-2,0,3,-1,-2,0,-2,9.565
1914,0,1,1,2,2,1,0,0,9.57
1915,0,-1,-1,-6,-2,-1,0,0,9.575000000000001
1916,-1,0,-1,4,1,1,-1,1,9.58
1917,-1,-1,1,4,3,0,0,0,9.585
1918,-1,1,-1,-1,1,-1,0,-1,9.59
1919,-1,-1,1,1,-1,-1,1,0,9.595
1920,0,-3,0,-7,-1,-3,-1,-1,9.6
1921,-2,-1,0,-2,-1,-1,-1,-2,9.605
1922,0,-2,0,2,-2,0,-1,-1,9.61
1923,-1,1,-2,0,-2,-1,-1,0,9.615
1924,-1,-1,-2,-3,-3,-2,0,-2,9.620000000000001
1925,-2,-3,-1,4,3,-1,1,-1,9.625
1926,0,0,1,-1,-1,-2,-1,-1,9.63
1927,-1,-1,-1,-2,-1,0,0,-1,9.635
1928,-1,0,-1,0,0,-1,-1,0,9.64
1929,0,0,-1,-2,-1,1,0,0,9.645
1930,0,-1,-1,2,3,0,-1,0,9.65
1931,-2,-2,2,-3,0,-3,-1,-1,9.655
1932,1,0,-2,-1,-2,0,-1,-1,9.66
1933,0,-1,0,-1,1,-1,-1,-1,9.665000000000001
1934,0,0,-4,-6,-4,0,0,-1,9.67
1935,-2,0,-1,3,0,1,0,0,9.675
1936,-1,-2,0,-3,-2,-1,-1,-2,9.68
1937,-2,0,-3,-1,0,1,0,0,9.685
1938,0,0,3,0,0,-1,0,-1,9.69
1939,0,0,-1,-1,0,1,0,0,9.695
1940,-1,0,-1,-2,-2,-2,0,-1,9.700000000000001
1941,0,0,-1,1,-2,-3,-1,-2,9.705
1942,-1,-2,0,0,-3,-1,-1,-2,9.71
1943,-1,0,0,-2,-2,-1,-2,-1,9.715
1944,-1,2,-1,1,0,1,-1,0,9.72
1945,2,-1,0,-3,-3,-1,-1,-1,9.725
1946,-1,0,-1,1,1,-2,-2,0,9.73
1947,-1,-2,0,1,2,-2,0,-1,9.735
1948,-2,-3,0,-3,-1,-2,-1,-2,9.74
1949,-1,-3,-3,-5,-2,0,-1,-1,9.745000000000001
1950,-1,-1,1,0,-1,0,-1,0,9.75
1951,-1,-1,-1,0,-2,-1,-1,1,9.755
1952,1,-2,-1,0,0,-1,-1,0,9.76
1953,-2,0,0,-2,0,-1,-1,0,9.765
1954,0,-2,-1,2,0,0,-1,-1,9.77
1955,1,0,2,2,0,0,-1,-1,9.775
1956,-1,0,0,1,-1,-1,2,-2,9.78
1957,-1,-1,-2,-4,-2,-2,-1,0,9.785
1958,0,-3,0,0,-1,0,-2,0,9.790000000000001
1959,-1,0,-1,-3,-2,-1,-1,-1,9.795
1960,-2,0,-2,-2,-1,-1,-1,-2,9.8
1961,0,2,1,7,1,-1,0,0,9.805
1962,-2,0,-2,-5,-1,-2,1,0,9.81
1963,0,-2,-2,-2,0,0,0,0,9.815
1964,0,-2,-3,-2,-3,1,0,-2,9.82
1965,-1,0,-1,0,2,0,-2,-1,9.825000000000001
1966,-1,0,-1,-1,-1,-1,-1,0,9.83
1967,-3,-3,-1,8,4,-2,-1,-3,9.835
1968,-2,-2,-3,-6,-2,-1,0,-1,9.84
1969,-1,-2,0,-1,-1,1,0,-1,9.845
1970,0,-1,-1,2,1,-1,-1,-2,9.85
1971,0,0,0,-5,-3,0,-1,-1,9.855
1972,0,-1,-2,2,0,0,0,-1,9.86
1973,-1,-2,-1,-5,-3,-2,1,-2,9.865
1974,0,-2,-2,-1,-1,0,-2,-2,9.870000000000001
1975,-1,-1,0,2,-2,0,-1,-1,9.875
1976,0,0,-1,-6,-1,-1,-1,0,9.88
1977,-2,-2,-1,2,-1,-1,1,0,9.885
1978,-1,-1,-2,-1,-1,0,0,-1,9.89
1979,-1,1,-3,-1,0,-1,-1,1,9.895
1980,-1,-2,1,8,3,1,0,0,9.9
1981,-2,0,0,-2,-4,-2,0,-2,9.905
1982,0,1,-1,-3,1,-2,0,0,9.91
1983,-1,-2,0,-2,-3,-1,-1,-1,9.915000000000001
1984,0,1,-1,1,1,-2,-2,-1,9.92
1985,-1,0,-1,0,-3,-3,-2,-1,9.925
1986,-1,-2,-2,-3,1,0,-1,-1,9.93
1987,2,-1,0,-4,1,-1,1,0,9.935
1988,1,2,-2,2,-2,0,0,1,9.94
1989,0,-1,0,-6,-2,0,-2,-1,9.945
1990,-2,-2,-1,-5,-3,-2,-1,-1,9.950000000000001
1991,-2,-2,-1,0,-1,0,-2,-1,9.955
1992,0,0,-1,-3,-1,1,-1,-3,9.96
1993,-1,-1,0,4,1,-1,-2,-2,9.965
1994,0,-1,-1,1,0,0,1,-1,9.97
1995,0,-3,-1,-3,-2,0,0,-1,9.975
1996,-3,-1,1,-1,3,-3,-1,0,9.98
1997,-2,0,0,2,2,0,1,0,9.985
1998,-2,0,-1,-2,-3,-3,-3,0,9.99
1999,0,-2,-2,0,0,-1,-1,-1,9.995000000000001
2000,1,-1,-1,-2,-4,-1,-2,-1,10.0
2001,-1,-1,-4,-3,-2,-2,-1,-2,10.005
2002,-2,1,0,1,0,0,1,-2,10.01
2003,-2,-3,0,-1,-2,-2,-2,1,10.015
2004,0,-1,0,-1,-3,-1,-2,0,10.02
2005,2,2,-2,-5,1,-1,-1,0,10.025
2006,0,2,0,1,0,0,1,-1,10.03
2007,-1,-1,0,3,-1,-1,-2,-1,10.035
2008,-1,-2,0,-3,-2,-1,-1,-1,10.040000000000001
2009,0,0,-1,1,3,-1,-2,-1,10.045
2010,0,-1,0,1,0,-2,-3,0,10.05
2011,0,1,-1,0,0,-1,-2,-1,10.055
2012,-2,-1,0,1,-1,-1,-2,-2,10.06
2013,0,-1,0,-1,-3,-2,1,0,10.065
2014,1,0,-1,1,0,0,1,0,10.07
2015,0,2,-1,1,0,-1,2,-1,10.075000000000001
2016,0,-1,-1,0,0,1,0,0,10.08
2017,0,-1,0,1,1,1,-2,0,10.085
2018,-3,-1,-1,-2,-2,-2,-2,-2,10.09
2019,-2,0,-2,-2,-2,-2,-3,-1,10.095
2020,-1,-1,-1,0,0,-1,0,0,10.1
2021,0,-1,-2,-3,0,0,0,-1,10.105
2022,0,-3,1,5,0,-1,-2,-2,10.11
2023,1,-1,-3,-4,-4,-1,0,-4,10.115
2024,0,-2,0,0,-4,-2,0,-1,10.120000000000001
2025,0,-1,2,5,2,1,0,0,10.125
2026,0,0,-1,-4,-2,-1,-2,1,10.13
2027,-2,1,2,0,-2,0,0,0,10.135
2028,-1,-1,-2,-4,0,-2,-1,-2,10.14
2029,0,1,-2,-2,-6,-2,0,-1,10.145
2030,-1,-2,0,1,0,0,-4,-1,10.15
2031,-2,-2,-1,1,-2,-1,1,0,10.155
2032,0,0,-1,0,1,-2,0,0,10.16
2033,-2,0,-2,-1,-1,-1,-1,0,10.165000000000001
2034,-1,-1,-2,-1,-2,-1,-2,-2,10.17
2035,0,0,1,0,0,-1,-1,-1,10.175
2036,-3,-2,-1,0,-1,0,-3,1,10.18
2037,-2,-2,-1,-1,0,0,-1,-3,10.185
2038,0,-1,-1,0,-1,-1,0,-1,10.19
2039,-2,0,1,4,0,0,-2,-2,10.195
2040,1,2,-2,-5,-2,0,1,-1,10.200000000000001
2041,-1,0,-2,-3,-3,-1,-1,1,10.205
2042,0,-1,0,4,1,0,0,0,10.21
2043,0,-2,-3,-5,-4,-3,-1,-2,10.215
2044,0,0,-1,0,2,0,0,0,10.22
2045,-2,-3,2,0,-2,1,0,-1,10.225
2046,-1,0,-1,0,-1,-1,1,-2,10.23
2047,-2,-1,0,0,1,0,0,0,10.235
2048,-1,-2,1,-2,-2,-1,-1,-2,10.24
2049,0,-2,-1,-3,-1,-1,-1,0,10.245000000000001
2050,0,-1,-1,-2,-3,-2,-1,0,10.25
2051,-2,-1,0,0,0,-1,0,-1,10.255
2052,-1,-3,-2,-4,-2,-4,-2,-3,10.26
2053,-1,0,1,5,4,0,-2,-2,10.265
2054,0,-1,-2,-2,-2,-1,0,-2,10.27
2055,1,0,-3,-7,-2,0,-1,-2,10.275
2056,-4,-2,1,6,0,0,-3,-2,10.28
2057,-2,-1,-1,-1,-2,-2,-1,0,10.285
2058,0,-2,-2,-3,-2,-1,-2,0,10.290000000000001
2059,-2,0,1,-3,-1,1,-1,-1,10.295
2060,0,0,0,4,1,0,-1,0,10.3
2061,0,-2,0,-2,0,1,-3,-1,10.305
2062,1,0,-1,-1,-2,-1,0,-1,10.31
2063,-1,-1,-1,2,0,-1,1,0,10.315
2064,-1,0,0,-1,-2,-1,0,-1,10.32
2065,-1,0,0,0,-2,0,0,0,10.325000000000001
2066,-2,-1,-2,-4,-1,-1,-1,0,10.33
2067,-1,-2,-1,0,1,-2,-1,-2,10.335
2068,1,-1,0,-2,-5,0,-1,-1,10.34
2069,1,0,-2,-5,-2,-3,-1,-1,10.345
2070,1,3,-1,0,-1,-1,-1,-1,10.35
2071,-2,-1,1,1,-2,-1,-2,-3,10.355
2072,-3,-4,-2,-1,0,-2,0,-1,10.36
2073,-1,-2,-1,-3,0,-1,1,-1,10.365
2074,-1,0,0,-3,-1,1,-2,-1,10.370000000000001
2075,-1,0,-3,0,0,-1,-1,1,10.375
2076,1,-1,-1,-2,-2,-3,-1,0,10.38
2077,1,0,-1,2,2,0,0,-1,10.385
2078,-1,-1,1,0,0,-1,1,0,10.39
2079,-1,2,-1,0,0,0,-3,-1,10.395
2080,-1,0,-2,-3,0,-2,-2,-1,10.4
2081,-2,0,-1,0,-1,-2,0,-1,10.405
2082,0,-2,-1,0,0,-1,-2,0,10.41
2083,0,-2,-1,0,-1,-1,1,0,10.415000000000001
2084,-2,1,-1,-3,0,0,1,1,10.42
2085,1,-2,0,0,4,0,-2,0,10.425
2086,-2,-1,0,-1,-3,1,0,-1,10.43
2087,0,-1,-3,-1,1,1,-1,0,10.435
2088,0,-1,0,1,1,0,-1,0,10.44
2089,1,-2,-1,1,-2,1,-1,-2,10.445
2090,-1,-1,0,-5,-3,-2,0,-2,10.450000000000001
2091,0,0,-3,-2,2,0,-1,0,10.455
2092,-1,2,-5,-6,-6,-2,-2,0,10.46
2093,-4,-2,0,0,0,0,-2,1,10.465
2094,1,0,-3,-3,-2,-1,-1,-2,10.47
2095,-1,0,-3,-1,-1,-1,0,-2,10.475
2096,-2,0,0,5,3,2,0,-1,10.48
2097,-2,-3,-1,0,-3,-2,0,-1,10.485
2098,-2,0,-2,-1,-1,-1,2,1,10.49
2099,0,-2,2,1,1,-2,-1,0,10.495000000000001
2100,-1,-1,-2,1,0,-1,-1,-3,10.5
2101,0,1,-1,0,-2,0,-1,-1,10.505
2102,-2,-1,1,3,2,0,-1,-1,10.51
2103,-2,-1,-1,-2,-3,-3,-1,0,10.515
2104,-1,-2,1,0,1,0,-1,0,10.52
2105,-1,0,-2,-3,-2,-2,-1,0,10.525
2106,0,-1,-3,-2,2,0,-1,0,10.53
2107,-1,2,-1,-2,0,-1,-1,0,10.535
2108,0,2,-1,-2,-5,0,-1,-3,10.540000000000001
2109,0,-1,-2,-2,-3,-1,0,-1,10.545
2110,-1,0,-1,1,0,0,-2,0,10.55
2111,0,-1,1,-2,-1,0,0,-1,10.555
2112,0,0,1,2,3,-1,-2,-1,10.56
2113,0,-1,-1,-2,-3,-2,-1,-1,10.565
2114,1,0,0,4,-1,0,0,-3,10.57
2115,1,-2,0,-2,-2,-2,0,0,10.575000000000001
2116,-1,0,-1,1,-3,0,0,-2,10.58
2117,-1,1,0,1,-2,-2,-1,0,10.585
2118,-1,0,0,4,2,-1,-1,0,10.59
2119,-4,-3,0,2,-4,-2,-2,-4,10.595
2120,0,0,0,0,0,-1,-1,-1,10.6
2121,0,0,-2,-4,-2,1,-2,-2,10.605
2122,-1,0,-1,-2,0,-1,-3,-1,10.61
2123,-1,-2,-3,-4,-5,1,2,-1,10.615
2124,0,-1,-1,4,1,-1,-1,0,10.620000000000001
2125,-1,-2,-1,-5,-3,1,-2,0,10.625
2126,-1,0,-1,2,-1,-1,-1,1,10.63
2127,0,1,-1,-2,0,-1,-1,-1,10.635
2128,0,-2,-2,-3,1,0,-1,0,10.64
2129,-1,1,-2,0,-2,0,0,-1,10.645
2130,-3,-1,-2,-4,-3,-1,-1,0,10.65
2131,0,0,0,1,0,-1,-1,-2,10.655
2132,-1,-1,-3,-3,-1,-2,0,0,10.66
2133,1,1,3,4,5,-1,-2,0,10.665000000000001
2134,1,-2,0,-6,-1,-1,-1,-1,10.67
2135,0,0,-3,-1,0,-1,-2,-1,10.675
2136,-1,3,-1,-8,-4,0,0,-1,10.68
2137,-1,0,-1,4,-1,-2,-1,-3,10.685
2138,-2,-1,-2,-1,-2,-1,-1,0,10.69
2139,-1,-1,1,2,1,0,0,-1,10.695
2140,-1,-3,-2,-4,-4,-1,2,-2,10.700000000000001
2141,-1,-2,-1,-9,-3,-1,0,-1,10.705
2142,0,-1,-1,0,-2,0,0,0,10.71
2143,-2,0,-3,-4,-2,0,-1,0,10.715
2144,0,0,-2,-2,-3,-1,-2,0,10.72
2145,2,1,-1,1,3,1,-1,-2,10.725
2146,0,-1,-2,-1,0,-1,-2,-1,10.73
2147,0,-2,1,0,-3,1,-2,0,10.735
2148,-1,0,1,1,2,0,-1,-2,10.74
2149,-1,1,0,0,-1,-3,0,-2,10.745000000000001
2150,-3,-1,0,1,1,0,-2,-3,10.75
2151,0,0,-1,-5,-1,-1,0,-1,10.755
2152,0,-2,-1,3,-1,-1,0,-2,10.76
2153,0,-2,-1,4,2,1,0,0,10.765
2154,0,-1,0,-3,-5,-3,-1,-2,10.77
2155,0,0,0,-1,-1,0,0,-1,10.775
2156,-3,-1,-5,1,0,0,-1,-1,10.78
2157,-2,0,0,-3,-2,-2,1,-1,10.785
2158,-1,1,-1,-3,-1,-2,-1,-1,10.790000000000001
2159,-2,-2,-1,0,-3,0,-2,-1,10.795
2160,1,1,1,-3,-1,-1,1,1,10.8
2161,-2,-1,1,5,1,0,-2,-1,10.805
2162,0,-1,-4,-7,-1,-1,-1,0,10.81
2163,0,-1,-2,-1,-2,-1,0,1,10.815
2164,-1,-4,2,5,2,1,-1,1,10.82
2165,-3,-2,-2,-8,-5,-4,-1,-1,10.825000000000001
2166,1,0,-3,-8,-3,-1,1,0,10.83
2167,1,0,1,5,1,1,-1,1,10.835
2168,-1,3,-1,-1,0,-1,-1,-1,10.84
2169,-1,-1,-2,-1,1,0,-1,0,10.845
2170,0,-1,-1,3,0,-1,-1,-2,10.85
2171,-1,0,-1,0,2,-2,-3,-2,10.855
2172,0,0,0,-5,-6,-2,0,-1,10.86
2173,-1,-2,1,4,2,1,0,0,10.865
2174,-2,0,2,1,1,0,-1,1,10.870000000000001
2175,-1,0,0,0,0,-1,1,-1,10.875
2176,0,0,-1,0,-1,-1,-3,0,10.88
2177,-2,1,-3,-5,-3,-2,0,-2,10.885
2178,-2,-1,1,6,0,0,0,0,10.89
2179,-1,-2,-3,-9,-5,-1,-1,1,10.895
2180,-1,-1,-1,-3,1,0,0,2,10.9
2181,0,-3,-1,2,-5,-1,-2,-1,10.905
2182,1,1,-2,0,5,0,0,1,10.91
2183,-1,-1,0,0,1,-1,-1,-2,10.915000000000001
2184,-2,-2,0,1,1,-1,0,-1,10.92
2185,0,0,-1,-2,-4,2,-1,-1,10.925
2186,-1,-1,0,2,-1,-1,-1,-2,10.93
2187,0,1,-3,-4,0,-2,0,-1,10.935
2188,0,0,0,-2,0,-1,0,0,10.94
2189,-2,-2,0,0,-3,-1,-2,-1,10.945
2190,-1,-3,0,2,2,0,0,-1,10.950000000000001
2191,-1,0,-1,1,-1,-1,-1,-2,10.955
2192,-1,0,0,-1,-2,-1,-1,-2,10.96
2193,-1,-1,0,-1,2,-3,-1,0,10.965
2194,-2,-1,0,-4,-3,-1,-1,-1,10.97
2195,-2,-1,-1,6,3,-1,-1,0,10.975
2196,0,-1,0,5,0,1,0,-2,10.98
2197,-1,-2,-3,-4,-2,-2,0,-1,10.985
2198,0,-1,-1,-6,-3,1,0,0,10.99
2199,1,-1,1,-1,-2,-3,0,-1,10.995000000000001
2200,0,-2,-2,0,0,-3,-1,-1,11.0
2201,0,-1,-1,-2,-1,1,0,-2,11.005
2202,0,-1,0,1,-2,0,0,1,11.01
2203,-3,-2,-1,-3,-1,-1,-2,-1,11.015
2204,1,1,-3,0,-3,-1,-2,0,11.02
2205,-2,-2,-1,0,1,-1,1,1,11.025
2206,0,-1,1,7,2,0,-1,-2,11.03
2207,0,-2,-2,0,-1,2,0,-1,11.035
2208,0,-1,-2,-2,-3,-1,-2,0,11.040000000000001
2209,2,3,-2,-2,-4,1,-1,-1,11.045
2210,-1,-3,-5,-1,1,-1,-2,-2,11.05
2211,-2,0,0,-3,-3,-1,0,0,11.055
2212,-2,-1,-1,-2,0,-2,-1,-1,11.06
2213,0,-2,-1,3,1,1,0,1,11.065
2214,-3,-1,-1,-7,-2,-4,-1,0,11.07
2215,-2,-2,0,-1,-1,0,-1,-2,11.075000000000001
2216,0,-2,-2,-1,2,0,1,-1,11.08
2217,-1,-1,-1,1,1,-2,-1,-2,11.085
2218,0,0,-2,-2,-4,-2,2,-1,11.09
2219,-2,-1,-4,0,2,0,-1,0,11.095
2220,-3,0,1,6,0,1,1,-1,11.1
2221,0,-2,-5,-9,-3,-3,-3,-1,11.105
2222,-1,-2,-1,-1,0,-1,-2,-1,11.11
2223,1,-2,0,-1,-4,-2,0,-1,11.115
2224,-2,-2,-1,-1,-1,1,0,-1,11.120000000000001
2225,-2,-2,1,3,3,0,-1,-1,11.125
2226,-1,-1,-2,-1,0,1,-1,0,11.13
2227,-2,0,0,1,0,0,-2,1,11.135
2228,0,-1,-4,-3,-1,-2,0,-1,11.14
2229,-2,1,0,1,-2,0,-1,-1,11.145
2230,0,1,-3,-4,0,0,0,0,11.15
2231,0,-1,1,3,2,-3,2,-1,11.155
2232,-1,-2,-1,1,-1,0,-1,0,11.16
2233,1,-1,-2,-6,-4,-1,0,-2,11.165000000000001
2234,0,-2,0,2,1,-1,-1,-1,11.17
2235,0,0,-1,-2,-1,-1,-1,-2,11.175
2236,0,0,-1,-5,-1,-1,-2,-1,11.18
2237,-1,-2,1,2,1,-1,0,0,11.185
2238,-2,0,-1,1,-2,0,0,-1,11.19
2239,-1,3,0,4,0,-1,0,-1,11.195
2240,-3,-4,0,-4,-2,-2,-2,-1,11.200000000000001
2241,0,0,0,-5,-3,-1,-1,1,11.205
2242,1,-2,-1,1,4,3,0,0,11.21
2243,0,-2,-2,-3,-2,-1,0,0,11.215
2244,0,0,-2,-4,-1,0,0,-1,11.22
2245,1,1,1,3,1,1,-2,-1,11.225
2246,-2,-2,-1,1,-3,-3,-1,-2,11.23
2247,0,-2,0,2,-2,-1,-1,-2,11.235
2248,0,-1,-4,-2,1,-5,-5,-2,11.24
2249,-2,0,1,4,2,1,3,1,11.245000000000001
2250,-1,-1,-4,-14,-4,0,1,-1,11.25
2251,1,-4,-2,-2,0,0,5,1,11.255
2252,0,0,0,0,-3,0,-2,-1,11.26
2253,2,-2,-3,-3,-5,-1,-1,-1,11.265
2254,-2,-1,1,4,1,-1,-3,-2,11.27
2255,0,1,0,-3,-3,-2,-1,-1,11.275
2256,0,-1,1,3,1,-1,2,1,11.28
2257,-2,-1,0,0,3,-3,-2,-2,11.285
2258,-1,1,2,3,0,3,2,0,11.290000000000001
2259,-3,-4,-3,-2,-1,2,1,-1,11.295
2260,0,2,-2,0,0,2,5,0,11.3
2261,0,0,-3,-1,0,1,-18,-5,11.305
2262,-2,-3,5,14,-1,-8,-1,-5,11.31
2263,2,-2,-5,-10,3,12,12,5,11.315
2264,-1,-3,0,6,-1,2,6,0,11.32
2265,-2,0,-6,-8,-1,1,-10,-2,11.325000000000001
2266,-4,-4,-2,-18,-12,-7,13,2,11.33
2267,5,2,-1,15,-1,-4,2,6,11.335
2268,5,0,2,-4,-4,-15,-3,6,11.34
2269,9,6,7,5,2,1,3,3,11.345
2270,0,2,-3,5,0,-5,-11,-6,11.35
2271,-5,-3,-2,5,-3,-3,-3,-5,11.355
2272,-3,-4,-3,-2,4,6,3,-4,11.36
2273,-12,-7,-4,-8,-3,-3,-3,-5,11.365
2274,-1,-1,0,-2,2,5,-5,-4,11.370000000000001
2275,-3,7,-4,-7,1,-4,-10,-6,11.375
2276,0,5,-7,-8,-10,-5,3,1,11.38
2277,5,5,9,1,-2,-1,3,4,11.385
2278,3,2,-5,9,9,4,6,4,11.39
2279,-9,2,5,-5,-1,6,-5,3,11.395
2280,4,9,3,1,-12,-9,-8,-5,11.4
2281,5,-1,-15,1,-12,-10,7,4,11.405
2282,12,4,7,-11,3,1,3,3,11.41
2283,4,11,3,16,15,1,-12,-1,11.415000000000001
2284,-12,8,-2,-1,4,3,-4,-9,11.42
2285,-10,2,0,13,0,5,-8,-11,11.425
2286,-3,0,-2,-5,1,8,11,-1,11.43
2287,-3,-14,-2,-15,-12,-17,-4,7,11.435
2288,9,-11,0,6,3,-2,-21,-7,11.44
2289,-6,-20,-15,-17,1,1,9,-4,11.445
2290,6,-10,15,21,0,-1,18,24,11.450000000000001
2291,7,5,18,0,-6,6,4,2,11.455
2292,-2,-16,-5,-11,1,12,6,-7,11.46
2293,-15,-13,0,-14,5,4,-25,-7,11.465
2294,3,1,-12,-29,-17,-7,21,4,11.47
2295,-7,-2,10,55,23,3,-6,-3,11.475
2296,2,0,-10,-6,-9,-10,-4,-3,11.48
2297,0,3,3,-16,1,7,-1,-5,11.485
2298,-5,-15,-36,-63,-47,-13,-11,-10,11.49
2299,3,3,14,59,21,-2,-5,4,11.495000000000001
2300,11,21,-7,-15,-12,3,-12,-1,11.5
2301,-18,28,16,64,39,3,-32,-20,11.505
2302,-19,58,-1,-22,-5,-10,13,1,11.51
2303,35,56,-17,-31,-22,-3,37,27,11.515
2304,-3,27,-8,1,10,15,17,2,11.52
2305,20,2,23,13,-18,-3,13,14,11.525
2306,7,2,9,9,2,-9,-43,-7,11.53
2307,-20,81,-10,-39,-19,-12,-35,-26,11.535
2308,-5,96,-2,6,-10,-16,15,1,11.540000000000001
2309,3,77,-9,-15,-13,13,7,0,11.545
2310,-8,4,-6,3,0,14,-1,3,11.55
2311,8,-40,-4,-12,2,-19,8,10,11.555
2312,3,-46,6,-10,2,3,-20,-2,11.56
2313,-9,-64,-10,-7,4,-4,0,-2,11.565
2314,-2,-48,11,58,21,13,17,-4,11.57
2315,-9,-53,-1,2,2,4,8,-8,11.575000000000001
2316,-3,-36,15,-30,-2,8,-13,5,11.58
2317,2,-39,-12,-15,-22,-28,12,-1,11.585
2318,0,-36,-10,26,37,16,-26,-3,11.59
2319,-7,-54,10,-47,-42,-12,7,-13,11.595
2320,-4,-52,6,67,45,2,-4,10,11.6
2321,6,-23,11,-6,-19,-9,9,16,11.605
2322,9,-2,-15,-11,-7,-11,-24,-12,11.61
2323,-18,-38,-14,-23,-9,5,-7,-25,11.615
2324,-9,-24,0,-38,-8,5,27,5,11.620000000000001
2325,11,0,-1,46,22,12,5,16,11.625
2326,7,-2,12,67,20,-4,-13,-4,11.63
2327,-3,5,-11,-36,5,9,11,6,11.635
2328,10,17,9,-1,-12,-19,-6,-1,11.64
2329,-4,-3,-18,-16,9,17,16,-3,11.645
2330,-13,-14,-7,-36,-27,-18,-1,-9,11.65
2331,5,7,21,40,18,-7,-32,-6,11.655
2332,-8,-15,17,17,-27,17,23,0,11.66
2333,-2,-12,-2,6,2,-24,15,14,11.665000000000001
2334,13,4,5,34,17,15,-32,0,11.67
2335,-2,-15,4,46,13,8,8,2,11.675
2336,5,-13,-18,1,3,-19,65,24,11.68
2337,13,19,13,16,13,8,-9,-3,11.685
2338,-18,-5,-8,-7,-11,15,40,-4,11.69
2339,-5,9,-13,-6,-14,-20,-55,-11,11.695
2340,12,12,14,40,46,15,-12,-8,11.700000000000001
2341,-17,-1,-4,7,-28,7,22,-8,11.705
2342,7,10,24,-6,32,-11,-37,4,11.71
2343,6,1,-4,-8,-16,-6,26,21,11.715
2344,13,9,29,64,28,-3,-25,-3,11.72
2345,-25,-27,-36,-10,-4,1,16,-16,11.725
2346,4,16,17,-82,-35,1,-66,-28,11.73
2347,15,-31,-37,-51,0,-13,39,16,11.735
2348,-2,-31,-8,10,-26,-18,16,17,11.74
2349,14,-12,47,-19,23,8,-10,3,11.745000000000001
2350,-19,-27,-36,-9,-36,-16,29,-5,11.75
2351,-12,8,22,-52,-5,46,28,-33,11.755
2352,-3,-1,-15,5,2,-18,-31,13,11.76
2353,11,10,13,17,-31,-37,-19,16,11.765
2354,5,-5,-15,20,15,8,-7,-2,11.77
2355,-13,-23,-9,-43,-28,-17,7,-8,11.775
2356,-10,2,0,7,23,27,-29,-27,11.78
2357,7,-3,-6,11,6,11,36,26,11.785
2358,-2,-29,-25,-51,-52,-15,17,10,11.790000000000001
2359,8,-31,29,73,48,29,-24,-1,11.795
2360,-10,-9,-1,-47,-29,-6,-19,-22,11.8
2361,9,-16,13,51,53,-10,-61,-4,11.805
2362,11,-3,14,44,27,7,75,30,11.81
2363,-2,-1,-57,-74,-49,13,-3,-4,11.815
2364,-21,-38,20,86,47,10,-11,-14,11.82
2365,-2,-8,-33,-27,-44,-25,-7,-10,11.825000000000001
2366,-8,-22,39,-3,-31,-9,-68,-27,11.83
2367,-6,14,-16,15,35,-15,37,11,11.835
2368,14,54,6,-18,-20,8,43,29,11.84
2369,-7,21,-8,-57,-20,4,-20,-21,11.845
2370,-11,19,-17,-15,14,-9,-4,-3,11.85
2371,8,13,7,-25,-27,-7,-23,5,11.855
2372,2,4,-4,20,24,-3,6,9,11.86
2373,3,30,16,36,16,11,-2,-6,11.865
2374,-3,8,-4,-6,5,21,8,-5,11.870000000000001
2375,0,4,42,106,31,13,36,10,11.875
2376,-19,-25,-46,-82,-19,0,-24,-19,11.88
2377,-9,-2,-29,-52,-29,2,2,-6,11.885
2378,32,39,72,77,38,-8,7,21,11.89
2379,7,16,-6,13,-1,-3,-46,-5,11.895
2380,-10,18,-9,-49,-27,-5,56,7,11.9
2381,-9,29,-53,-61,3,-9,-12,-20,11.905
2382,-3,28,16,-32,-40,20,28,4,11.91
2383,21,32,41,82,55,-15,-8,38,11.915000000000001
2384,10,24,-8,-7,-16,-9,-24,-4,11.92
2385,-11,3,14,-19,24,37,-1,-13,11.925
2386,-14,2,-27,-20,-31,-12,25,-11,11.93
2387,10,16,-2,-14,-16,-14,-32,-8,11.935
2388,1,-1,-11,-26,-28,-3,-16,-12,11.94
2389,-13,-29,-29,-26,-17,-27,13,-5,11.945
2390,6,-22,17,11,15,1,-26,3,11.950000000000001
2391,-16,4,39,51,24,24,45,16,11.955
2392,4,8,4,-21,-9,-18,-21,-4,11.96
2393,-1,-4,-28,39,6,3,-24,-13,11.965
2394,-13,3,35,-22,10,14,7,-15,11.97
2395,0,11,-19,-12,-8,-4,38,9,11.975
2396,-6,27,-2,23,1,-23,-44,4,11.98
2397,11,7,35,45,8,17,44,17,11.985
2398,-26,-1,-41,-11,28,19,-11,-27,11.99
2399,-2,-16,-6,-23,-48,-24,-4,-3,11.995000000000001
2400,2,11,1,-19,10,2,12,9,12.0
2401,2,25,32,65,23,-1,-6,-2,12.005
2402,3,3,-39,-14,-21,-28,-2,9,12.01
2403,-6,-1,1,-97,-23,11,2,-19,12.015
2404,3,-9,-36,58,21,16,15,1,12.02
2405,-6,-3,12,-118,-52,-5,-21,-14,12.025
2406,2,-5,-14,26,12,-8,15,17,12.030000000000001
2407,3,10,-35,-15,-43,-22,-17,-4,12.035
2408,-6,1,59,35,49,13,1,-23,12.040000000000001
2409,-18,-23,-48,-69,-27,13,-43,1,12.045
2410,28,24,17,40,8,-47,5,27,12.05
2411,15,21,7,24,40,-2,-3,7,12.055
2412,1,-6,-17,-18,-33,5,-17,-8,12.06
2413,-14,-10,26,35,21,8,31,-10,12.065
2414,-7,-16,-1,27,38,15,-48,-14,12.07
2415,1,-7,-24,-9,-11,8,28,10,12.075000000000001
2416,-1,7,23,-3,-3,14,32,2,12.08
2417,28,22,18,45,32,1,22,34,12.085
2418,-21,1,-32,-102,-66,-1,-7,-10,12.09
2419,-1,-3,33,90,36,-15,-41,-8,12.095
2420,19,0,-29,10,-5,15,31,18,12.1
2421,6,4,-5,-9,-15,-9,9,-3,12.105
2422,-1,-11,16,-25,-34,-3,16,-3,12.11
2423,-16,-2,-53,-57,-43,-12,-47,-16,12.115
2424,-2,-10,38,50,14,-7,-19,-14,12.120000000000001
2425,4,-18,-21,93,52,5,25,11,12.125
2426,8,2,39,-15,-5,10,0,3,12.13
2427,-12,-17,-18,4,8,15,12,-6,12.135
2428,-24,-16,-5,-42,-7,5,-32,-27,12.14
2429,13,2,7,-2,-32,-31,35,19,12.145
2430,8,-2,-20,5,13,31,22,16,12.15
2431,-1,8,-26,-99,-2,-5,38,5,12.155000000000001
2432,-5,23,36,50,-1,-5,-2,-2,12.16
2433,-6,11,-5,-78,-13,3,-53,-22,12.165000000000001
2434,8,-4,2,37,19,-17,1,1,12.17
2435,14,-9,11,61,60,22,22,18,12.175
2436,-10,4,-16,-4,-18,-16,2,-1,12.18
2437,-7,-6,59,33,1,25,-22,-12,12.185
2438,2,3,-32,-7,-24,-18,5,3,12.19
2439,-14,5,2,3,0,4,-51,-26,12.195
2440,13,-24,17,31,13,-5,4,4,12.200000000000001
2441,4,-5,-28,-63,-12,0,35,15,12.205
2442,-10,17,36,11,25,-8,-11,-7,12.21
2443,6,-2,9,-21,-29,4,-53,-18,12.215
2444,-7,-24,-29,-48,-20,-1,1,-1,12.22
2445,19,13,2,42,10,-8,46,21,12.225
2446,12,20,-7,1,7,12,27,11,12.23
2447,-22,7,32,-5,2,-5,-10,-8,12.235
2448,1,10,-63,-29,-9,-14,-48,-11,12.24
2449,-5,-1,-2,-69,-59,-25,-30,-13,12.245000000000001
2450,-1,-16,11,68,21,21,-2,-9,12.25
2451,1,1,20,47,18,8,58,26,12.255
2452,4,14,-22,-67,-46,-24,-37,5,12.26
2453,-10,-3,-56,29,11,-23,1,-2,12.265
2454,0,20,70,-2,-1,5,-10,-8,12.27
2455,-9,-7,-26,-41,-18,-7,-21,-22,12.275
2456,-3,-12,9,-24,-30,17,45,11,12.280000000000001
2457,8,-16,-12,-11,16,14,-34,-11,12.285
2458,-7,-15,-17,112,95,0,-11,-7,12.290000000000001
2459,-13,6,-5,-56,-47,9,-9,-2,12.295
2460,24,12,25,-13,-7,3,-2,-3,12.3
2461,-4,15,-14,-12,-37,-53,36,25,12.305
2462,6,0,14,18,21,17,15,4,12.31
2463,-6,5,8,-1,-18,-18,-8,-2,12.315
2464,3,2,-42,21,36,18,-7,1,12.32
2465,-7,-16,43,33,22,18,-19,-12,12.325000000000001
2466,4,-2,-35,-65,-41,-21,2,10,12.33
2467,-1,3,16,29,28,10,0,-8,12.335
2468,-4,-3,8,27,-7,-10,9,0,12.34
2469,2,2,24,35,39,18,-4,-5,12.345
2470,-7,1,-7,-21,-17,1,0,-1,12.35
2471,11,-8,-7,38,12,4,4,2,12.355
2472,-2,-2,-6,-24,-4,-5,3,8,12.36
2473,-7,8,4,2,-1,4,-1,-5,12.365
2474,0,-6,-24,-18,-10,1,0,1,12.370000000000001
2475,16,-3,-4,-8,-7,-12,-14,1,12.375
2476,-17,13,9,-20,-4,-15,10,-9,12.38
2477,6,-8,-4,-12,-1,7,-6,7,12.385
2478,-1,-17,-7,-9,-5,8,10,1,12.39
2479,-3,6,-20,3,9,14,8,-2,12.395
2480,6,16,24,1,2,-1,7,4,12.4
2481,-3,1,6,14,4,8,-1,3,12.405000000000001
2482,4,36,-6,-7,-8,-17,-12,-1,12.41
2483,-4,66,0,-3,-4,-15,1,-9,12.415000000000001
2484,-6,110,-8,-8,7,6,-11,4,12.42
2485,-5,127,1,-3,-2,3,-5,-4,12.425
2486,-4,58,-7,-5,-7,-4,1,5,12.43
2487,-1,110,-11,-3,-4,5,10,0,12.435
2488,2,87,15,0,8,-2,9,3,12.44
2489,2,74,4,6,-2,0,-5,-1,12.445
2490,-6,-36,-10,-6,-5,-8,-3,-4,12.450000000000001
2491,-1,-62,-3,5,6,0,1,1,12.455
2492,-1,-128,-7,-4,1,0,-1,2,12.46
2493,-5,-109,10,0,0,-3,-2,-5,12.465
2494,-4,-40,0,-3,-8,5,-7,-5,12.47
2495,1,-64,5,3,-3,-7,-4,3,12.475
2496,-1,-27,-5,3,12,3,6,2,12.48
2497,-6,10,-5,-2,-2,2,0,-4,12.485
2498,-1,127,-11,-14,-11,-9,-4,-3,12.49
2499,4,51,1,0,2,0,1,2,12.495000000000001
2500,-4,-28,1,4,-4,-2,4,-2,12.5
2501,4,-64,-2,-9,-6,-4,-3,0,12.505
2502,-1,-89,-3,0,4,5,3,1,12.51
2503,-2,-87,0,-5,-2,-4,-1,1,12.515
2504,2,-68,3,2,0,-2,2,-2,12.52
2505,-3,-68,-2,-5,-4,-6,-10,-3,12.525
2506,-4,-57,-1,-6,-9,1,-1,0,12.530000000000001
2507,-2,-55,1,3,6,9,8,2,12.535
2508,-2,-32,-7,-7,0,3,-2,0,12.540000000000001
2509,5,-23,12,10,5,2,0,0,12.545
2510,1,-30,-5,-7,-4,-5,5,-3,12.55
2511,-2,-37,-3,-5,-1,1,-3,-4,12.555
2512,1,-56,1,3,1,-2,-3,0,12.56
2513,0,-74,-1,-3,-4,-1,4,-2,12.565
2514,-2,-91,-3,1,3,-2,-7,-1,12.57
2515,0,-84,-3,-3,-4,-3,-2,1,12.575000000000001
2516,-3,-50,1,-3,-2,-1,1,0,12.58
2517,-1,-42,-2,-7,-5,2,-3,-1,12.585
2518,-1,-30,-1,2,1,-1,-1,1,12.59
2519,2,-21,0,10,3,-1,0,-1,12.595
2520,-4,-7,3,3,-3,0,-1,-2,12.6
2521,-2,0,-4,-4,-4,-2,0,1,12.605
2522,-1,1,-1,8,1,0,-4,-1,12.61
2523,-1,5,-6,-12,-3,-3,-1,-1,12.615
2524,3,13,2,-1,-3,2,-1,0,12.620000000000001
2525,1,35,5,2,2,-1,1,-1,12.625
2526,-1,20,-12,-5,-3,-1,0,-3,12.63
2527,-2,24,-1,-5,0,-2,-5,-2,12.635
2528,-1,22,-1,-3,-1,-2,0,-1,12.64
2529,4,19,-1,5,2,0,-1,0,12.645
2530,1,16,-2,-2,1,-8,-1,0,12.65
2531,-4,13,-3,0,-1,8,7,1,12.655000000000001
2532,-1,19,9,1,1,-1,0,-2,12.66
2533,2,3,-2,2,1,-1,3,-1,12.665000000000001
2534,0,0,-3,-5,-2,0,-5,-1,12.67
2535,1,10,6,5,1,-4,-3,-2,12.675
2536,0,-2,-2,1,-1,-3,2,0,12.68
2537,-3,-4,-7,-11,-3,1,-1,-1,12.685
2538,-1,-2,2,-3,-1,-1,0,-1,12.69
2539,-2,3,-1,-1,-1,-2,0,1,12.695
2540,-1,7,0,1,0,2,-2,-1,12.700000000000001
2541,-2,7,0,1,0,-1,-3,-1,12.705
2542,-1,6,-5,-3,-1,-1,-1,-1,12.71
2543,1,8,1,4,0,0,2,-1,12.715
2544,-1,6,-4,-7,-3,-1,-2,-2,12.72
2545,-1,3,1,5,1,1,1,0,12.725
2546,-2,7,2,-6,-3,-1,0,0,12.73
2547,0,4,1,1,0,-3,-5,-2,12.735
2548,0,6,-4,-2,-1,-2,0,1,12.74
2549,-2,5,-1,3,0,-2,0,-2,12.745000000000001
2550,-1,3,-1,2,2,2,-6,-1,12.75
2551,-3,-3,-1,-2,-2,-10,-3,0,12.755
2552,0,1,-3,-3,1,2,4,-1,12.76
2553,0,2,-1,-3,-1,-1,-3,0,12.765
2554,2,1,2,1,-1,0,3,0,12.77
2555,-2,2,2,0,-3,-2,-2,0,12.775
2556,-3,5,-4,-6,-1,-1,-4,0,12.780000000000001
2557,-1,3,3,3,-1,-2,2,0,12.785
2558,1,3,-2,-2,-1,-1,-2,-1,12.790000000000001
2559,-2,2,1,1,-2,0,0,-1,12.795
2560,2,2,-1,-2,1,-3,0,0,12.8
2561,-1,1,-4,-3,-5,-1,-2,0,12.805
2562,0,3,-1,0,0,1,0,1,12.81
2563,2,4,0,1,-2,1,0,0,12.815
2564,-2,4,0,2,-2,-3,-3,-2,12.82
2565,-3,-2,-1,-3,0,0,0,-2,12.825000000000001
2566,0,2,1,1,-1,-1,2,0,12.83
2567,1,-1,-3,-2,2,1,0,-1,12.835
2568,2,-1,-1,0,-2,0,-1,-1,12.84
2569,0,2,0,1,0,-2,-13,-1,12.845
2570,-2,1,-1,1,-1,-5,6,1,12.85
2571,-2,1,-3,-6,-2,3,2,0,12.855
2572,-2,3,-3,1,0,0,-1,-1,12.86
2573,-1,3,-3,-4,-1,0,2,-1,12.865
2574,0,0,-1,-4,-4,-2,-5,-2,12.870000000000001
2575,0,2,-1,-1,0,-3,-4,-1,12.875
2576,-1,2,0,-1,-1,-1,-3,0,12.88
2577,-1,2,0,1,0,3,4,1,12.885
2578,-3,3,1,0,-1,0,-3,-1,12.89
2579,0,0,-5,-5,0,0,2,0,12.895
2580,1,1,1,-4,-1,0,-1,1,12.9
2581,2,1,-1,2,2,-3,1,0,12.905000000000001
2582,1,-2,-3,-10,-2,0,0,-2,12.91
2583,-1,0,0,3,-2,0,-2,-1,12.915000000000001
2584,-1,1,-1,3,-1,-1,-3,-1,12.92
2585,0,1,1,1,2,-2,0,-2,12.925
2586,0,-1,-2,0,1,3,0,0,12.93
2587,0,0,1,-3,-3,-3,-3,-1,12.935
2588,-1,0,-5,-4,-1,0,1,-1,12.94
2589,-2,0,1,7,2,-2,1,-1,12.945
2590,-1,0,-3,-10,-7,-2,-4,-1,12.950000000000001
2591,-2,0,-1,1,2,2,1,-1,12.955
2592,0,-2,0,0,0,-2,1,-2,12.96
2593,-1,-1,-1,-2,-3,0,0,-2,12.965
2594,-1,3,2,6,1,2,-4,0,12.97
2595,-1,0,0,-1,0,-6,-5,0,12.975
2596,0,-1,-1,-3,-4,5,6,2,12.98
2597,0,-4,-2,0,-1,-3,0,1,12.985
2598,1,-1,2,3,0,4,0,-1,12.99
2599,-1,0,-3,-5,-1,-3,-6,-2,12.995000000000001
2600,-1,2,2,4,1,-1,1,0,13.0
2601,0,0,-3,-6,-2,0,-1,0,13.005
2602,0,0,-1,-1,0,-2,0,0,13.01
2603,-2,3,3,1,0,0,-2,-2,13.015
2604,3,1,1,4,-1,-3,-3,-1,13.02
2605,-5,-5,-3,-7,-4,0,-2,-2,13.025
2606,0,1,0,-2,0,0,2,-1,13.030000000000001
2607,-1,-3,-1,3,0,1,-2,-1,13.035
2608,0,1,0,0,2,0,0,-1,13.040000000000001
2609,1,1,1,1,0,-1,-1,-1,13.045
2610,-6,-2,-1,-5,-5,-2,-2,-2,13.05
2611,2,0,1,2,5,1,3,-1,13.055
2612,-3,-2,-4,-3,-2,-2,-2,1,13.06
2613,2,2,-1,-1,-2,1,-1,1,13.065
2614,-2,0,0,5,1,-2,1,-2,13.07
2615,1,-1,-4,-3,-1,-1,0,0,13.075000000000001
2616,0,-3,2,0,-1,0,2,-1,13.08
2617,-1,1,0,0,-1,0,-1,-1,13.085
2618,0,-1,-2,0,0,-1,0,-1,13.09
2619,-1,-2,-3,-3,-3,1,-2,-1,13.095
2620,-1,0,-2,-1,-1,-2,-2,-1,13.1
2621,-1,-2,-3,-1,-1,-2,1,-1,13.105
2622,2,1,2,2,-2,-4,-1,0,13.11
2623,-1,-3,-2,-1,0,4,2,0,13.115
2624,-3,-2,-2,-3,-1,-2,-2,-2,13.120000000000001
2625,-1,-1,1,1,2,-2,-2,-1,13.125
2626,1,1,-1,0,-1,-3,2,-1,13.13
2627,0,-1,1,2,-4,-5,-3,-1,13.135
2628,-3,-1,-2,-7,-1,7,3,0,13.14
2629,0,1,-1,1,1,1,1,1,13.145
2630,-2,-2,-3,-4,0,1,-1,0,13.15
2631,-1,-1,-1,-2,-4,-1,0,0,13.155000000000001
2632,1,2,0,4,2,-1,-4,-1,13.16
2633,1,0,-1,1,0,0,0,-1,13.165000000000001
2634,1,2,1,2,2,-2,-1,2,13.17
2635,-3,0,0,-2,-1,-1,1,-1,13.175
2636,-4,-3,1,4,-1,-5,-3,-3,13.18
2637,0,-1,-2,-6,-2,0,-4,-1,13.185
2638,1,0,1,2,-2,-2,-7,-2,13.19
2639,-1,-2,-1,-3,-2,-3,8,-1,13.195
2640,1,0,0,-4,-2,1,0,-1,13.200000000000001
2641,0,1,0,4,-1,-4,2,-1,13.205
2642,-6,-3,-3,-1,0,1,0,-2,13.21
2643,1,0,-2,-1,-1,-2,-4,-2,13.215
2644,-3,0,2,0,-3,-5,-3,0,13.22
2645,-2,-3,-1,-3,1,0,-1,0,13.225
2646,1,0,-3,-6,-4,0,-1,0,13.23
2647,-3,3,-1,0,-2,-1,-3,0,13.235
2648,1,-1,0,-1,-2,-4,-1,-1,13.24
2649,0,1,-2,1,1,-1,-2,-2,13.245000000000001
2650,0,0,-3,-1,-3,-1,0,0,13.25
2651,-1,-2,-1,1,0,1,-1,-1,13.255
2652,1,-1,-1,0,-2,-1,2,0,13.26
2653,-2,-2,-1,-2,-3,0,1,-1,13.265
2654,0,0,-1,-1,1,-1,1,-1,13.27
2655,2,0,0,-1,0,-1,0,-1,13.275
2656,-5,-2,-4,-3,1,-2,-3,-2,13.280000000000001
2657,0,1,0,2,-1,-3,-1,-2,13.285
2658,0,0,0,1,-1,-1,2,-1,13.290000000000001
2659,-2,-2,-1,1,-1,0,-3,-2,13.295
2660,0,0,-1,1,-2,-4,-2,-1,13.3
2661,-3,-1,-1,-3,-2,0,0,-1,13.305
2662,-1,-1,-2,0,2,2,0,-1,13.31
2663,-3,2,1,-1,0,0,0,-1,13.315
2664,-1,-2,-1,2,0,1,2,0,13.32
2665,-2,-1,-1,-3,-2,0,0,-1,13.325000000000001
2666,-2,-2,1,-1,-1,-2,-2,-1,13.33
2667,0,-2,-1,1,1,-1,-3,-2,13.335
2668,-1,0,-1,-3,-3,1,3,0,13.34
2669,0,-1,-2,0,-1,0,-2,0,13.345
2670,0,1,2,3,-2,1,1,0,13.35
2671,1,1,-1,3,4,0,1,1,13.355
2672,0,-2,0,-4,-2,-2,-4,-2,13.36
2673,-3,-1,-3,-1,-2,1,-1,0,13.365
2674,-3,0,-1,-2,-1,-2,-2,-1,13.370000000000001
2675,-2,-3,1,-1,-1,0,0,0,13.375
2676,0,-1,0,-1,1,-2,-2,-2,13.38
2677,-1,-2,-4,-7,-2,-1,1,-1,13.385
2678,0,1,1,1,1,0,-2,0,13.39
2679,0,0,-2,0,-2,-3,-1,-2,13.395
2680,0,0,-2,-3,-1,0,0,-2,13.4
2681,-1,0,1,1,0,0,-2,0,13.405000000000001
2682,-2,0,-1,-4,0,-3,0,-1,13.41
2683,-1,-2,-3,-4,-3,-2,-1,-1,13.415000000000001
2684,-2,-3,1,0,0,1,-2,-1,13.42
2685,2,1,0,0,-2,-2,-1,-1,13.425
2686,-3,0,-2,0,-2,0,-1,-1,13.43
2687,-1,-1,0,-1,-1,-2,-2,1,13.435
2688,-1,0,-3,-1,0,-2,1,1,13.44
2689,-2,-3,0,2,-2,-1,-2,0,13.445
2690,-1,-1,-1,-2,0,0,0,0,13.450000000000001
2691,-1,-3,-1,0,-1,0,0,-2,13.455
2692,-2,0,0,3,-1,0,-1,-1,13.46
2693,1,2,-2,0,1,-3,-5,-2,13.465
2694,0,-2,0,-2,-1,2,2,-1,13.47
2695,-1,0,0,1,1,0,-1,-1,13.475
2696,0,-2,-1,-4,-2,-1,-2,-1,13.48
2697,-1,-1,1,2,-1,-1,0,0,13.485
2698,1,-2,-1,-1,0,-2,-2,-2,13.49
2699,-1,0,-4,-4,-2,-1,0,0,13.495000000000001
2700,3,1,0,3,-1,2,-1,1,13.5
2701,-2,-3,-2,-4,-1,-2,0,-1,13.505
2702,-1,-2,-1,0,-1,0,-3,-2,13.51
2703,1,1,2,-3,-2,0,0,0,13.515
2704,0,2,1,2,0,-4,-4,-1,13.52
2705,-2,-1,-2,-2,-2,1,3,-1,13.525
2706,-2,-1,-4,-4,-1,-1,-1,-1,13.530000000000001
2707,-2,0,3,3,-1,-1,-4,-3,13.535
2708,0,1,-4,-2,0,0,2,0,13.540000000000001
2709,-2,-1,0,-1,0,0,-2,1,13.545
2710,1,-1,1,3,-2,-2,-1,-1,13.55
2711,-2,-1,-1,1,0,1,1,0,13.555
2712,-2,-2,0,2,-1,-1,1,1,13.56
2713,-1,-1,-3,-8,-3,0,-1,-1,13.565
2714,-3,-1,-1,-1,-1,-4,0,0,13.57
2715,-1,0,-2,2,-2,-1,-1,0,13.575000000000001
2716,1,-1,0,0,0,-2,0,-2,13.58
2717,-3,-3,-3,-1,1,0,0,1,13.585
2718,2,-1,0,2,-3,-1,-2,0,13.59
2719,-1,-1,0,2,0,-2,1,-1,13.595
2720,-3,0,-2,0,-2,-1,-1,-2,13.6
2721,1,-2,-2,-3,0,1,-1,-1,13.605
2722,0,-1,-2,-1,-1,1,-2,-2,13.61
2723,0,2,-1,0,0,-1,-1,-1,13.615
2724,2,-2,-2,-1,-2,0,-1,-1,13.620000000000001
2725,-3,-3,0,2,-2,-3,-4,-2,13.625
2726,0,-1,-1,-3,0,1,6,1,13.63
2727,-1,-2,-3,-5,-3,-1,0,-2,13.635
2728,-2,-3,-1,-3,0,-1,0,-1,13.64
2729,0,0,0,2,0,-1,-1,-1,13.645
2730,-2,0,-1,-2,-1,-1,-2,-3,13.65
2731,0,-2,-1,-3,-4,0,-2,0,13.655000000000001
2732,-1,-1,1,1,1,-1,-2,-1,13.66
2733,-1,-1,-1,-1,-2,1,1,-1,13.665000000000001
2734,1,0,-1,0,1,2,-2,-1,13.67
2735,-3,-1,-1,0,0,-1,0,-1,13.675
2736,-1,-2,-5,-5,-1,1,-3,-1,13.68
2737,0,-1,1,0,0,-1,3,0,13.685
2738,-1,0,-2,0,-2,-1,1,0,13.69
2739,-1,-1,-2,-4,0,0,0,-1,13.695
2740,-4,-2,-1,0,0,-1,-1,-1,13.700000000000001
2741,1,-1,-2,-2,-3,-2,-2,-1,13.705
2742,-1,-1,2,-1,-3,0,-1,0,13.71
2743,-1,-1,-3,0,4,-1,-1,0,13.715
2744,0,-1,0,-2,-2,-1,1,-2,13.72
2745,1,1,-1,3,2,2,-1,-2,13.725
2746,1,0,-1,-2,0,-2,-1,-2,13.73
2747,-1,-1,-1,0,-2,0,-1,-1,13.735
2748,0,1,2,0,-3,-2,-2,-2,13.74
2749,-3,0,-1,0,1,2,-1,0,13.745000000000001
2750,-1,-3,-2,-5,1,0,0,0,13.75
2751,0,1,-1,-1,0,-2,-1,-3,13.755
2752,0,3,-1,-4,1,3,3,0,13.76
2753,-2,1,1,0,0,-2,0,0,13.765
2754,-2,-2,-1,2,-2,0,-1,-2,13.77
2755,1,-2,1,-3,-1,-1,0,0,13.775
2756,0,-4,-3,-1,-1,0,-1,0,13.780000000000001
2757,0,-1,0,-2,-2,-2,0,1,13.785
2758,-1,-1,0,-1,-1,0,-2,0,13.790000000000001
2759,1,-1,-2,1,0,-1,1,-1,13.795
2760,0,-2,0,2,-2,-2,-2,-1,13.8
2761,0,-1,-3,-4,-1,-2,-1,0,13.805
2762,-1,0,0,-1,-3,-2,0,-1,13.81
2763,1,3,-1,-1,-1,-1,-2,-1,13.815
2764,0,1,1,0,-2,-1,3,1,13.82
2765,-5,-6,-2,1,-2,-1,-3,-1,13.825000000000001
2766,-2,-2,-2,-1,0,-2,-2,0,13.83
2767,-1,1,0,2,-1,-1,-1,0,13.835
2768,-1,1,-2,-3,-1,0,-1,-1,13.84
2769,2,0,1,-2,-3,-2,0,0,13.845
2770,-2,1,0,0,-1,0,-1,1,13.85
2771,-1,-2,0,-2,0,0,0,-2,13.855
2772,-2,-3,-1,6,2,0,-1,0,13.86
2773,1,0,-1,-5,-2,-1,1,0,13.865
2774,-2,1,1,4,1,0,0,-2,13.870000000000001
2775,-3,-2,-3,-5,0,1,-1,0,13.875
2776,-1,-2,1,-6,-3,0,-1,-1,13.88
2777,0,1,0,2,0,-1,0,-2,13.885
2778,2,-1,0,3,-1,0,-2,-1,13.89
2779,-2,-2,1,-2,-3,-1,1,-1,13.895
2780,-1,-1,1,2,-2,-2,-5,-2,13.9
2781,1,0,-1,0,-1,2,1,-1,13.905000000000001
2782,1,0,-2,-3,1,0,2,0,13.91
2783,1,-3,-2,0,0,-2,0,0,13.915000000000001
2784,-3,-1,-3,-2,-2,-2,-3,1,13.92
2785,-3,-1,0,0,0,0,-2,-2,13.925
2786,-1,-2,-1,0,-2,1,-1,-1,13.93
2787,0,1,-2,-5,-2,-2,-2,-1,13.935
2788,1,-1,0,4,0,1,0,-2,13.94
2789,1,-2,0,-2,-3,-3,-2,-3,13.945
2790,-1,0,0,1,-1,3,0,0,13.950000000000001
2791,1,1,-3,-2,2,0,-1,-1,13.955
2792,1,1,-4,-6,-1,1,3,0,13.96
2793,-1,-1,0,2,-1,-2,-1,0,13.965
2794,-3,0,3,-1,1,-3,0,-1,13.97
2795,-1,-1,0,2,1,0,-3,-2,13.975
2796,0,0,-2,-3,-2,0,2,0,13.98
2797,-1,1,2,3,2,-1,0,-1,13.985
2798,-1,-1,-2,-3,-3,-1,0,-1,13.99
2799,0,-1,-2,-1,-3,0,-1,-2,13.995000000000001
2800,-2,-1,-2,-2,1,-2,-1,-2,14.0
2801,-1,-1,1,2,1,1,-1,-1,14.005
2802,0,-1,-2,-2,-1,-3,-1,1,14.01
2803,-2,-2,-1,-1,-2,0,-2,0,14.015
2804,-1,-1,0,-5,-2,-1,-2,-1,14.02
2805,-1,1,0,-1,-2,0,-1,-1,14.025
2806,-3,-1,-1,1,2,0,1,0,14.030000000000001
2807,-1,-1,-1,1,-2,-3,-3,0,14.035
2808,-2,0,2,3,-1,0,3,1,14.040000000000001
2809,0,-3,-2,3,1,0,-1,-2,14.045
2810,-1,-3,-3,-7,-2,1,-2,-1,14.05
2811,-1,-1,0,-1,-2,-3,0,0,14.055
2812,-1,0,1,-2,0,-1,-3,-2,14.06
2813,0,1,0,0,-1,-5,0,0,14.065
2814,-2,-2,-1,1,-2,1,0,-1,14.07
2815,-1,-1,-4,0,-1,-2,-1,-1,14.075000000000001
2816,0,-1,-1,3,-1,-1,-2,0,14.08
2817,-2,-1,-3,-8,-3,-1,-2,-1,14.085
2818,0,-1,-2,-1,-1,-4,0,0,14.09
2819,0,0,1,1,1,-1,-1,-1,14.095
2820,-3,-1,0,-3,-3,-1,-2,-1,14.1
2821,-1,0,-2,-1,-2,-1,1,-2,14.105
2822,1,1,0,1,0,-2,-2,0,14.11
2823,-4,-3,-2,1,0,2,1,-1,14.115
2824,1,-2,-3,0,0,-2,-1,-1,14.120000000000001
2825,-2,-2,0,1,-4,-2,-2,0,14.125
2826,0,-2,-3,-4,1,2,-2,-2,14.13
2827,-1,-2,0,1,-2,-2,1,-2,14.135
2828,-2,0,0,-1,-2,0,-1,-2,14.14
2829,0,0,2,-1,-2,-1,-2,0,14.145
2830,0,-4,-4,-2,2,0,2,-1,14.15
2831,1,0,1,0,-2,0,-1,2,14.155000000000001
2832,0,-1,-1,3,1,0,0,-2,14.16
2833,-2,-1,-2,-2,-1,-1,1,1,14.165000000000001
2834,-1,2,2,1,-1,-4,-4,0,14.17
2835,-2,0,-1,-5,-2,0,2,-3,14.175
2836,-1,0,0,-1,-2,0,0,0,14.18
2837,-1,0,-3,-3,-1,2,1,-1,14.185
2838,-1,-2,0,1,-2,0,-5,-2,14.19
2839,0,-3,-3,-6,-4,-1,-1,-2,14.195
2840,0,-1,-1,1,0,-1,-1,0,14.200000000000001
2841,-2,-3,-2,1,-2,0,-1,-3,14.205
2842,0,2,-1,-2,-3,-3,-2,0,14.21
2843,0,1,2,4,2,0,-3,1,14.215
2844,-1,-1,-3,-1,-2,-3,-2,-2,14.22
2845,1,0,-2,-2,3,1,-5,-2,14.225
2846,-2,-1,-3,-2,-1,-2,2,0,14.23
2847,-1,0,1,1,-2,-1,1,0,14.235
2848,0,-1,-1,0,1,-1,0,1,14.24
2849,0,-2,1,-1,-1,-1,-1,-1,14.245000000000001
2850,-1,1,-1,0,-1,-1,-2,-2,14.25
2851,-1,0,0,-1,0,-2,0,-1,14.255
2852,0,-1,-1,-2,-1,-1,-2,-2,14.26
2853,0,-1,-1,-1,0,0,1,0,14.265
2854,1,0,-4,-3,0,1,0,0,14.27
2855,-2,-1,-1,2,-3,-3,0,-1,14.275
2856,-2,-3,0,-2,-1,2,0,-2,14.280000000000001
2857,1,-1,0,0,-1,-1,1,0,14.285
2858,-1,-2,0,2,-3,0,1,0,14.290000000000001
2859,0,-2,0,-4,-3,-3,-6,-2,14.295
2860,-1,0,-1,-2,-2,0,-1,0,14.3
2861,-1,-1,-2,-4,0,1,3,1,14.305
2862,0,-1,0,4,-2,0,-2,-1,14.31
2863,0,1,1,3,1,-1,-1,0,14.315
2864,0,-3,1,-1,3,0,0,-1,14.32
2865,1,1,0,0,-1,-2,-1,-1,14.325000000000001
2866,-2,-1,-1,-2,1,-1,-2,-1,14.33
2867,0,0,-2,0,-4,-1,1,-1,14.335
2868,-1,1,-1,-2,-1,0,-2,3,14.34
2869,-1,-1,-1,3,-2,-1,-1,0,14.345
2870,0,-1,-2,-2,-2,-2,0,-2,14.35
2871,-1,-1,-1,-1,-1,1,-1,-1,14.355
2872,-2,-2,-2,1,-2,-2,1,-1,14.36
2873,-1,0,0,2,2,-1,-1,-1,14.365
2874,-2,-1,0,-4,-4,-2,-3,-1,14.370000000000001
2875,-3,-3,-2,-3,0,1,-3,-2,14.375
2876,0,-1,-1,1,-2,2,2,-2,14.38
2877,0,-1,-1,-1,-1,-2,-3,1,14.385
2878,0,0,1,3,2,0,0,0,14.39
2879,-1,0,1,1,2,0,1,1,14.395
2880,-2,-1,-2,-4,-3,0,-1,-1,14.4
2881,0,-3,-1,1,-1,-3,0,-2,14.405000000000001
2882,0,-3,-1,-1,-2,-2,0,1,14.41
2883,-2,1,-2,-3,-2,-2,0,-1,14.415000000000001
2884,-1,0,-1,-2,-2,-2,0,0,14.42
2885,-2,0,0,0,1,0,0,0,14.425
2886,0,0,-1,1,-1,-3,0,0,14.43
2887,-1,-1,-2,-4,-1,-1,0,0,14.435
2888,0,-1,-1,-1,1,-3,0,0,14.44
2889,-2,0,0,0,0,1,0,-1,14.445
2890,-3,-2,-2,-5,-3,1,0,-2,14.450000000000001
2891,1,1,-1,2,-1,-1,-3,-1,14.455
2892,-2,1,-1,-1,0,1,-1,-3,14.46
2893,-2,-1,1,3,0,-2,-1,-1,14.465
2894,-1,-1,2,2,2,0,-2,-1,14.47
2895,-1,-1,0,-2,-1,0,-3,-1,14.475
2896,-1,0,-1,-2,-1,-1,-3,-1,14.48
2897,1,0,0,0,-2,-1,-3,-3,14.485
2898,-2,0,-1,-1,1,-1,0,0,14.49
2899,-1,0,0,0,-1,-2,4,0,14.495000000000001
2900,1,1,0,2,5,0,-3,1,14.5
2901,-1,-1,-2,-2,-3,0,0,0,14.505
2902,-1,-1,-3,-8,-2,0,-1,-2,14.51
2903,2,-1,0,4,0,-1,-3,-2,14.515
2904,-2,-2,-2,-1,-3,-3,1,0,14.52
2905,-3,-3,-2,-1,1,-3,-2,0,14.525
2906,0,-2,-1,-2,-2,-1,-1,0,14.530000000000001
2907,-2,-2,-1,-4,-2,-1,0,-1,14.535
2908,0,-2,-1,2,0,1,-1,-2,14.540000000000001
2909,-1,-1,-3,-4,-2,-3,-1,-1,14.545
2910,-1,0,1,-1,-3,-1,-2,-1,14.55
2911,2,0,1,4,3,1,-1,0,14.555
2912,0,0,-2,-4,-3,-3,-1,-1,14.56
2913,-2,0,-2,-3,0,-1,0,-1,14.565
2914,-2,-2,0,0,-1,0,-1,0,14.57
2915,0,-1,-1,-2,-1,-1,3,1,14.575000000000001
2916,-1,-2,-2,2,0,-1,-1,-2,14.58
2917,0,1,-2,-3,-1,-2,0,-1,14.585
2918,-2,0,0,1,-2,-1,-2,0,14.59
2919,0,-1,-1,1,-4,-1,-3,-1,14.595
2920,1,-1,0,4,0,0,-1,-1,14.6
2921,1,-1,0,0,1,1,-1,0,14.605
2922,-1,-4,-2,2,1,-1,-1,-1,14.61
2923,-1,-1,-1,-3,-2,-3,-3,-2,14.615
2924,-1,-1,1,1,-1,0,0,-2,14.620000000000001
2925,1,-1,1,3,1,1,0,2,14.625
2926,-1,0,-1,-3,-1,-2,-1,0,14.63
2927,0,-2,0,-4,0,-1,0,0,14.635
2928,0,0,-1,0,0,-3,-4,-2,14.64
2929,-3,-1,-2,-4,-3,-1,1,-1,14.645
2930,-1,-2,0,1,-1,-1,0,-1,14.65
2931,0,0,-3,-2,0,0,-2,-1,14.655000000000001
2932,-1,1,1,-1,1,-1,0,-1,14.66
2933,-1,-1,0,-3,-4,-1,-3,-2,14.665000000000001
2934,0,-2,-1,0,2,-2,-3,-2,14.67
2935,-2,0,1,1,-2,-1,1,-2,14.675
2936,-2,-2,-3,-6,-2,0,-2,-1,14.68
2937,-2,0,-2,0,-4,-1,-2,0,14.685
2938,1,2,1,6,2,1,-1,-2,14.69
2939,-2,0,-3,-4,2,-1,-4,-1,14.695
2940,-2,0,-2,-2,-1,0,-1,1,14.700000000000001
2941,0,-4,0,2,-3,0,0,-1,14.705
2942,1,-3,-2,-3,-2,0,-2,-2,14.71
2943,-2,-1,-2,0,-1,0,-1,0,14.715
2944,0,-1,0,-1,1,0,0,-1,14.72
2945,-1,0,-1,-3,1,-1,0,-1,14.725
2946,0,0,-2,2,0,-1,0,0,14.73
2947,0,1,0,0,0,-1,2,0,14.735
2948,-1,0,-3,-2,-3,-1,-2,0,14.74
2949,0,-2,-1,4,2,1,-1,-2,14.745000000000001
2950,-2,0,-2,-2,0,0,1,0,14.75
2951,1,-3,-2,-5,-2,0,-1,0,14.755
2952,-2,-2,1,-2,-3,-2,-2,-1,14.76
2953,0,1,3,4,3,0,2,-1,14.765
2954,0,-1,0,-1,-3,-1,-2,-1,14.77
2955,-1,-2,0,1,-1,0,1,1,14.775
2956,-1,1,0,1,0,-1,1,0,14.780000000000001
2957,-2,-1,-1,-2,-1,-1,-3,-1,14.785
2958,-1,-1,-1,-2,-2,-1,0,1,14.790000000000001
2959,-2,-2,0,1,1,-1,-2,0,14.795
2960,0,-1,-3,-7,-2,0,-1,-1,14.8
2961,1,-1,-1,-1,-1,-2,-2,-1,14.805
2962,0,1,-1,-1,-1,-1,-1,-1,14.81
2963,-1,-2,-2,-3,-3,-1,0,-2,14.815
2964,0,-1,2,2,-1,-1,1,-2,14.82
2965,-1,-1,-2,-3,-1,0,-2,-1,14.825000000000001
2966,1,-1,-3,-4,0,-1,-1,-1,14.83
2967,-2,0,1,2,2,1,-1,-1,14.835
2968,-1,-2,1,-2,-3,-1,-1,-2,14.84
2969,1,1,-1,-4,-1,-1,1,-2,14.845
2970,-1,-1,-1,-2,-4,-1,-1,-2,14.85
2971,-1,-1,-2,-3,-3,1,0,-3,14.855
2972,-1,-1,0,2,-1,0,1,0,14.86
2973,-2,-3,-1,-1,-2,1,-1,-1,14.865
2974,0,0,1,-3,-1,0,1,0,14.870000000000001
2975,-1,-2,4,5,0,0,-3,0,14.875
2976,0,-2,-2,-4,1,0,-2,0,14.88
2977,-1,-2,-3,-2,-1,0,6,-1,14.885
2978,-1,-1,1,3,0,2,0,0,14.89
2979,1,-1,1,1,-2,-2,0,-2,14.895
2980,0,-1,-2,-3,-1,-1,-2,-3,14.9
2981,1,0,1,4,0,-1,-2,-1,14.905000000000001
2982,-4,-1,-5,-5,1,0,-1,-1,14.91
2983,-1,0,1,-1,0,-1,0,0,14.915000000000001
2984,-1,-1,-1,-3,-1,-3,-1,0,14.92
2985,-2,2,2,2,0,-2,0,-1,14.925
2986,0,-2,-2,-3,-2,-1,-1,-3,14.93
2987,0,-1,-3,-1,-2,-3,-2,0,14.935
2988,-1,1,0,3,0,0,0,1,14.94
2989,0,0,-3,-2,-3,-2,-2,1,14.945
2990,-1,-1,1,5,3,-1,0,-1,14.950000000000001
2991,1,-1,-3,-5,-2,-3,0,-2,14.955
2992,0,-1,1,0,-1,-1,0,0,14.96
2993,-2,-2,-1,-2,-1,1,0,-1,14.965
2994,-2,0,1,0,-3,-1,0,-1,14.97
2995,-2,0,-2,3,1,0,0,-1,14.975
2996,-1,-2,-3,0,-1,-2,-1,-2,14.98
2997,-1,-1,1,-3,-1,-1,-2,0,14.985
2998,0,-2,1,3,1,-2,-2,-1,14.99
2999,-2,-1,-4,-7,-2,0,2,0,14.995000000000001
3000,0,-2,-2,-2,1,0,-1,0,15.0
3001,0,1,-4,1,2,-2,-1,-1,15.005
3002,0,-1,-1,-2,-3,1,-1,-2,15.01
3003,-1,1,1,-1,-3,0,-2,0,15.015
3004,0,-2,-2,2,0,0,-1,-1,15.02
3005,0,-2,-1,-4,-4,-1,-1,-1,15.025
3006,0,-2,-1,2,1,-1,0,-1,15.030000000000001
3007,0,-2,-1,-1,1,-1,-3,-1,15.035
3008,-1,-1,-1,1,0,-3,0,-1,15.040000000000001
3009,0,-1,0,-2,-4,1,1,1,15.045
3010,-1,1,-1,0,1,-2,2,0,15.05
3011,-1,-2,-2,2,1,0,-4,-2,15.055
3012,-2,0,1,-2,-3,0,2,-1,15.06
3013,-1,0,-4,-3,0,1,-1,-1,15.065
3014,-2,-1,3,1,-3,-1,0,-1,15.07
3015,1,-2,-6,-5,0,2,-1,-1,15.075000000000001
3016,0,-2,-1,1,0,0,-3,0,15.08
3017,-1,0,-2,2,1,0,-2,0,15.085
3018,0,-1,-1,-2,0,-1,-1,-2,15.09
3019,-1,-1,-1,1,-1,-1,0,0,15.095
3020,-1,-1,-1,0,-1,0,-3,-1,15.1
3021,-2,-3,-3,-6,-3,-1,-1,-2,15.105
3022,1,-1,0,2,3,-1,-2,-2,15.11
3023,-1,0,1,2,-1,-3,0,-2,15.115
3024,-2,-2,-3,-5,-2,-2,0,-1,15.120000000000001
3025,-1,1,0,0,1,-2,-1,1,15.125
3026,-2,-2,-2,0,0,-2,-2,-1,15.13
3027,-1,0,-1,-5,-3,-1,-2,0,15.135
3028,-1,-2,0,6,1,-1,-1,-1,15.14
3029,1,-2,-1,-2,-1,-1,-1,-2,15.145
3030,-1,-1,-3,-2,-2,0,-1,1,15.15
3031,-1,0,0,0,-1,0,2,-2,15.155000000000001
3032,-1,1,-1,0,1,2,0,-1,15.16
3033,-1,-2,0,0,-1,-1,-1,-1,15.165000000000001
3034,0,-1,0,3,1,0,1,0,15.17
3035,0,0,-2,-3,0,-1,0,-1,15.175
3036,0,-1,1,-5,-2,-2,-3,-2,15.18
3037,-1,0,2,-2,-1,-2,0,-3,15.185
3038,1,1,-2,-1,1,0,3,1,15.19
3039,-3,-2,2,2,-1,0,-2,-2,15.195
3040,1,0,0,1,0,-2,2,-1,15.200000000000001
3041,1,1,0,1,2,-1,-1,0,15.205
3042,0,-1,-3,-7,-6,-2,-2,-3,15.21
3043,0,0,1,0,0,-2,2,0,15.215
3044,0,-1,-2,0,0,1,1,-2,15.22
3045,-2,-2,-3,-7,-2,-2,-2,-1,15.225
3046,0,0,1,7,-2,1,-1,-1,15.23
3047,0,-1,0,-4,2,1,1,0,15.235
3048,0,0,1,2,-1,-2,-1,0,15.24
3049,0,0,0,0,0,1,1,0,15.245000000000001
3050,-3,0,-1,0,0,-2,0,-1,15.25
3051,-3,-1,-1,4,-1,-1,-2,-1,15.255
3052,-3,-2,0,0,-2,-1,-1,-1,15.26
3053,-1,-1,0,-3,-1,-1,-1,0,15.265
3054,0,-1,-1,-5,-1,-1,-1,-1,15.27
3055,0,-3,-2,-1,1,-1,-1,0,15.275
3056,0,2,-2,0,-1,0,0,-2,15.280000000000001
3057,-2,0,-2,0,-3,-2,-2,-3,15.285
3058,1,-1,1,1,0,1,-2,-1,15.290000000000001
3059,0,0,-1,1,-1,-2,0,1,15.295
3060,1,-1,-1,-1,-3,-2,-2,1,15.3
3061,-1,-2,-1,2,1,0,0,1,15.305
3062,-3,-2,-1,-7,-3,-2,-2,-1,15.31
3063,0,-3,-2,0,-1,1,-2,0,15.315
3064,1,0,-2,1,-1,0,0,-2,15.32
3065,0,-2,1,-2,-1,0,-1,-2,15.325000000000001
3066,0,0,-2,-4,-4,-2,-1,-1,15.33
3067,-1,-2,0,-3,0,-2,-3,-3,15.335
3068,-1,-2,-2,0,0,-1,-1,-1,15.34
3069,0,-1,-2,5,2,-1,0,1,15.345
3070,0,1,-1,-3,-2,1,0,0,15.35
3071,-1,0,-2,-4,1,0,-1,-2,15.355
3072,0,-1,2,-1,-1,-2,0,1,15.36
3073,0,-1,-1,0,0,-2,-1,-2,15.365
3074,1,-4,-3,-3,1,-1,-3,0,15.370000000000001
3075,-1,-1,-1,1,-4,1,2,0,15.375
3076,0,2,0,3,2,1,-1,0,15.38
3077,-1,-1,0,-1,-2,-1,-2,-2,15.385
3078,-1,-2,2,0,2,1,2,0,15.39
3079,0,-1,0,0,0,0,-1,0,15.395
3080,-1,-3,-1,-7,-4,-2,-2,-1,15.4
3081,-1,-2,-3,1,2,0,0,-1,15.405000000000001
3082,-1,0,2,6,1,-1,0,-1,15.41
3083,0,-3,-4,-4,-2,-1,0,-2,15.415000000000001
3084,-3,-2,-3,-2,-1,-1,0,0,15.42
3085,-2,1,-1,0,-2,0,-1,-2,15.425
3086,-2,0,-1,-1,-2,-3,-1,-1,15.43
3087,0,-1,1,2,-2,0,-2,0,15.435
3088,1,1,0,-1,1,-1,0,0,15.44
3089,0,0,0,-2,1,0,0,-2,15.445
3090,0,0,1,5,0,-1,0,-4,15.450000000000001
3091,-2,-1,0,-3,-2,-1,-3,-1,15.455
3092,0,-1,-2,-1,-2,1,0,-1,15.46
3093,0,0,2,6,0,-3,1,1,15.465
3094,-1,-3,-1,-7,-3,0,0,0,15.47
3095,0,0,-1,1,0,-1,0,-1,15.475
3096,0,-2,-1,-3,-1,1,0,-1,15.48
3097,-1,-1,-2,0,0,0,-1,0,15.485000000000001
3098,-2,-2,-2,0,-1,1,0,-1,15.49
3099,-1,-1,1,1,-3,-1,-4,-2,15.495000000000001
3100,0,-1,-3,-4,-2,-2,1,-2,15.5
3101,0,0,-1,-3,-3,-2,1,0,15.505
3102,0,2,0,2,2,-2,-3,-1,15.51
3103,-2,-1,-3,-5,0,0,1,-1,15.515
3104,-1,0,1,1,-1,-1,-2,0,15.52
3105,-1,-2,-2,-1,-2,0,-2,-1,15.525
3106,0,-1,-1,-4,-2,-2,0,2,15.530000000000001
3107,-1,-1,-1,1,3,-2,0,0,15.535
3108,0,1,0,-3,-2,1,-2,0,15.540000000000001
3109,-1,-2,0,1,0,-1,0,-2,15.545
3110,-1,-1,0,-2,-2,0,-1,-2,15.55
3111,-1,1,-2,-4,-1,-1,-3,-1,15.555
3112,-1,-2,0,1,-1,-1,0,-1,15.56
3113,-1,0,-2,-4,0,2,-3,-1,15.565
3114,-1,2,2,4,-1,0,0,-2,15.57
3115,1,-3,-1,0,-2,-1,2,0,15.575000000000001
3116,1,-1,-1,3,-1,-1,1,0,15.58
3117,0,-2,-1,-1,-1,-1,0,1,15.585
3118,-1,-2,0,4,-1,1,0,-1,15.59
3119,-2,-1,-2,-5,-1,-4,-4,-2,15.595
3120,0,-2,-3,-2,1,1,0,0,15.6
3121,-1,0,-1,-1,1,-1,1,0,15.605
3122,0,-1,-4,-4,-1,-2,-1,-1,15.610000000000001
3123,1,3,6,7,-1,-1,1,0,15.615
3124,0,-2,1,2,-1,-2,-3,0,15.620000000000001
3125,0,-1,-1,-6,-2,1,-1,-1,15.625
3126,0,-2,-2,-5,-3,1,-1,0,15.63
3127,-1,-1,-1,1,1,1,-2,-1,15.635
3128,-1,0,0,-1,1,-1,1,0,15.64
3129,0,0,-2,0,-3,-1,-1,-1,15.645
3130,-6,-5,-1,-4,-3,0,-2,0,15.65
3131,1,-1,1,3,2,2,2,-1,15.655000000000001
3132,-2,-3,-3,-4,-7,-1,-1,-1,15.66
3133,2,0,-1,0,4,-1,0,-1,15.665000000000001
3134,-1,0,0,1,-3,-3,-3,-2,15.67
3135,1,1,-2,-1,-2,-2,4,0,15.675
3136,1,-1,0,1,1,-2,0,-2,15.68
3137,1,1,0,-1,-4,0,-3,1,15.685
3138,-1,0,-1,-3,-1,-1,-1,-2,15.69
3139,-1,-3,0,3,3,4,5,-1,15.695
3140,-5,-4,-1,-2,-4,-1,-4,-2,15.700000000000001
3141,-2,-3,0,-5,-3,-7,-4,-2,15.705
3142,3,5,-2,1,0,-2,-2,2,15.71
3143,1,2,-3,-3,-2,-3,-3,-2,15.715
3144,1,1,-2,3,3,2,1,-1,15.72
3145,-6,-5,-2,-4,-1,0,0,-3,15.725
3146,0,-3,3,2,0,-1,0,-1,15.73
3147,2,-1,0,-4,-6,-1,-3,0,15.735000000000001
3148,-4,-3,0,0,2,-2,-2,-1,15.74
3149,2,1,4,8,-2,1,1,1,15.745000000000001
3150,-3,-2,-9,-17,0,-2,-2,-3,15.75
3151,-4,-3,2,9,1,-1,-1,-4,15.755
3152,-5,1,-3,-4,-4,-2,-3,-4,15.76
3153,2,0,1,4,3,3,4,0,15.765
3154,4,0,-2,3,2,-2,-6,0,15.77
3155,-3,-3,-4,-13,-4,5,2,0,15.775
3156,-7,-2,1,12,2,-2,1,-1,15.780000000000001
3157,3,-2,-3,3,-1,-4,9,6,15.785
3158,4,3,2,-4,1,3,-2,-2,15.790000000000001
3159,-3,0,-7,-16,-19,-15,-8,0,15.795
3160,4,9,8,26,25,9,7,7,15.8
3161,-4,4,-1,12,-2,1,-9,-3,15.805
3162,0,6,2,14,3,0,-1,-3,15.81
3163,-10,-4,-3,3,2,2,-5,-4,15.815
3164,-4,3,-9,-25,-19,-5,1,-5,15.82
3165,1,8,9,6,15,6,5,2,15.825000000000001
3166,1,0,-3,0,4,1,2,2,15.83
3167,1,12,-5,2,-3,-1,0,-1,15.835
3168,3,8,-2,-21,-5,0,-4,0,15.84
3169,1,3,-3,5,1,1,-5,-2,15.845
3170,-3,-4,5,2,-13,-3,7,-3,15.85
3171,-4,-10,-2,-5,12,4,4,1,15.855
3172,-1,-10,-5,-6,-15,-5,-29,-8,15.860000000000001
3173,3,-8,-2,-11,-2,-2,5,-3,15.865
3174,-7,-9,2,-10,-7,6,13,7,15.870000000000001
3175,11,-2,0,22,14,-8,7,10,15.875
3176,-10,-7,5,26,8,-6,-7,-3,15.88
3177,-6,-19,-13,-49,-15,3,-17,-17,15.885
3178,6,-4,-1,28,15,0,6,10,15.89
3179,5,0,7,-13,-15,-7,15,4,15.895
3180,-5,-9,3,7,3,3,-1,0,15.9
3181,-1,2,0,4,-8,-13,-28,-1,15.905000000000001
3182,-3,0,-9,-13,-3,9,27,-4,15.91
3183,-4,11,-23,-55,-29,-21,-25,0,15.915000000000001
3184,22,23,18,49,16,-1,23,8,15.92
3185,-23,4,-4,-50,-29,-3,-23,-14,15.925
3186,-3,-1,-3,28,13,-1,-14,-3,15.93
3187,0,1,22,24,30,25,14,4,15.935
3188,-3,3,-4,1,-3,-1,2,-2,15.94
3189,5,62,7,13,1,0,18,7,15.945
3190,1,63,-5,10,14,4,-5,1,15.950000000000001
3191,-8,87,-14,-24,-16,-1,-25,-11,15.955
3192,-3,120,-6,-38,-19,-6,-2,-8,15.96
3193,8,94,21,8,27,7,27,12,15.965
3194,10,54,7,1,-18,-8,-11,10,15.97
3195,0,-28,-13,24,39,18,-16,-9,15.975
3196,-4,-59,10,2,-19,-11,28,6,15.98
3197,0,-62,-32,-68,-46,-16,33,-4,15.985000000000001
3198,-9,-70,-3,18,22,0,-53,-15,15.99
3199,-6,-47,5,-63,9,-25,4,7,15.995000000000001
3200,10,-39,3,39,14,16,7,6,16.0
3201,-6,-66,-9,-6,-7,-10,-10,-5,16.005
3202,11,-25,15,-14,-17,-9,-7,0,16.01
3203,-8,-62,-13,39,2,21,12,-20,16.015
3204,-2,-35,0,-62,-18,-11,15,9,16.02
3205,-3,-38,27,64,19,22,24,13,16.025
3206,-12,-51,-32,-18,-21,-16,-51,-16,16.03
3207,9,-11,6,-35,-14,3,-14,-5,16.035
3208,-2,-22,-12,-6,4,7,36,17,16.04
3209,9,-4,5,54,16,4,-1,1,16.045
3210,-1,-2,9,-10,-7,-4,16,-3,16.05
3211,-3,8,-1,-11,-22,-10,13,12,16.055
3212,-7,-17,-26,33,15,12,-46,-24,16.06
3213,-7,-14,-26,-64,-24,-12,-16,-2,16.065
3214,-3,5,43,48,34,7,7,-4,16.07
3215,0,1,-1,15,-13,3,7,-2,16.075
3216,14,18,38,44,40,-5,1,21,16.080000000000002
3217,-12,-6,-25,-29,-25,-3,5,-9,16.085
3218,-9,-3,-26,-18,8,-7,-45,-14,16.09
3219,1,6,-8,-31,-15,-3,23,1,16.095
3220,-2,-2,34,-64,-7,-4,-26,0,16.1
3221,26,4,1,33,-1,-28,2,13,16.105
3222,-14,-4,-10,-27,-3,-1,10,-2,16.11
3223,-6,-4,8,61,9,3,-21,-9,16.115000000000002
3224,-6,-5,-16,-9,7,8,-5,-11,16.12
3225,0,-3,-24,5,16,9,-15,-5,16.125
3226,-4,-13,27,63,27,18,43,9,16.13
3227,-1,-5,-4,17,7,-3,-16,4,16.135
3228,-3,-17,-25,-24,-16,5,-16,-20,16.14
3229,-1,-6,5,12,-16,-14,-17,3,16.145
3230,6,-15,-4,-40,-25,2,42,22,16.15
3231,3,16,44,20,14,1,-1,1,16.155
3232,16,-14,-3,15,-1,-17,-5,3,16.16
3233,-9,-4,-14,-44,-13,4,-26,-17,16.165
3234,-19,-20,-41,1,-16,5,7,-11,16.17
3235,19,32,69,48,34,18,15,4,16.175
3236,-19,-2,-80,-44,-40,-18,-24,-11,16.18
3237,0,7,44,87,57,15,12,1,16.185
3238,7,14,1,12,-13,-2,-2,-1,16.19
3239,-2,-14,-16,-11,3,9,24,10,16.195
3240,11,19,8,-5,-9,-4,27,15,16.2
3241,-13,-13,-2,-17,7,34,-16,-30,16.205000000000002
3242,-3,-21,-12,-26,-20,-26,-5,6,16.21
3243,13,-5,-22,-11,-26,-19,1,17,16.215
3244,-5,-12,12,-61,-40,-1,-8,-12,16.22
3245,-2,-2,1,46,15,-17,12,12,16.225
3246,-3,6,6,-4,-12,7,-57,-21,16.23
3247,-1,-6,-13,0,-1,-1,28,-1,16.235
3248,-3,20,22,16,17,7,22,12,16.240000000000002
3249,-5,11,-2,-6,-3,2,-9,-5,16.245
3250,-5,33,14,-10,-6,0,-5,-8,16.25
3251,-20,-8,-47,-38,-29,-11,-10,-12,16.255
3252,-4,1,-2,23,16,4,2,4,16.26
3253,18,17,31,-7,8,6,4,8,16.265
3254,5,6,-2,-15,10,6,-19,1,16.27
3255,-1,-11,22,11,4,-2,34,-3,16.275
3256,19,13,20,19,-18,-29,-5,23,16.28
3257,3,15,13,40,32,-1,-26,-4,16.285
3258,-15,-3,-14,-13,-2,8,38,-9,16.29
3259,-2,-10,-28,-19,-14,0,-22,-9,16.295
3260,3,-1,11,80,20,18,15,1,16.3
3261,9,5,-10,-40,-32,-31,-14,10,16.305
3262,11,6,-12,-35,-4,5,6,3,16.31
3263,-17,5,3,29,8,7,-12,-6,16.315
3264,-15,-2,13,28,52,3,0,-11,16.32
3265,-5,-7,-37,-32,-24,-5,10,2,16.325
3266,7,-10,15,-14,-8,5,-14,6,16.330000000000002
3267,0,-10,14,34,28,12,11,2,16.335
3268,3,-3,-12,-31,-28,-12,-26,-11,16.34
3269,-2,0,2,-35,-11,3,12,2,16.345
3270,4,4,-7,-21,12,-9,-1,-4,16.35
3271,15,-1,-27,-51,-36,-16,-5,11,16.355
3272,-8,16,25,-23,-15,3,5,-13,16.36
3273,-20,-11,-12,-41,-1,6,-58,-16,16.365000000000002
3274,14,0,-2,51,-5,-16,67,22,16.37
3275,12,5,15,16,30,17,-5,8,16.375
3276,4,-1,-38,-76,-53,-11,24,9,16.38
3277,9,7,22,8,-12,-4,1,4,16.385
3278,-9,-2,-24,-58,-1,4,-21,-10,16.39
3279,-18,-1,9,79,60,15,-13,-13,16.395
3280,-8,-11,-15,-58,-6,2,1,-8,16.4
3281,-9,2,-21,-15,-9,-4,6,-5,16.405
3282,0,9,58,38,21,-4,10,7,16.41
3283,-4,4,-16,35,-3,-3,-45,-12,16.415
3284,-8,-3,12,-6,4,8,21,1,16.42
3285,13,-5,7,-20,-17,3,7,8,16.425
3286,0,7,-2,16,20,1,-11,1,16.43
3287,-8,-4,-12,-50,-24,-5,8,-10,16.435
3288,-18,-4,-30,-9,-8,-24,-43,-10,16.44
3289,12,16,37,46,9,-12,-57,-9,16.445
3290,-1,-1,-13,15,9,14,16,-3,16.45
3291,5,4,4,-69,-43,-23,63,35,16.455000000000002
3292,15,15,11,56,10,18,-13,-4,16.46
3293,-10,-1,2,47,26,6,24,-6,16.465
3294,3,1,-2,8,-7,-8,-35,-7,16.47
3295,-6,-15,-24,1,5,5,3,-10,16.475
3296,-2,-5,15,19,25,13,37,13,16.48
3297,-1,-5,1,24,-5,2,16,-1,16.485
3298,6,-4,-9,2,-21,-8,-3,-4,16.490000000000002
3299,-7,-5,41,-22,-13,6,-16,-7,16.495
3300,2,-13,-50,-48,-11,-20,-43,-11,16.5
3301,-11,-13,-2,-14,-12,10,17,-5,16.505
3302,-12,-6,4,2,20,-11,4,6,16.51
3303,3,6,-13,1,-2,-9,15,2,16.515
3304,5,22,3,3,-6,-6,-8,15,16.52
3305,-3,7,12,9,16,6,-41,-12,16.525
3306,6,-15,-32,-44,-41,-14,44,7,16.53
3307,9,13,25,-29,18,9,-18,-2,16.535
3308,-9,-14,6,32,3,6,-9,-14,16.54
3309,-5,-1,-7,21,12,2,44,18,16.545
3310,-12,6,2,-1,-8,2,-12,-12,16.55
3311,5,16,-16,-34,-24,-20,-5,5,16.555
3312,4,-8,-13,25,14,4,-11,-6,16.56
3313,-14,5,21,9,0,5,48,3,16.565
3314,8,5,0,-52,-6,-11,-45,2,16.57
3315,-5,4,-4,56,11,-10,-25,-6,16.575
3316,1,9,0,-56,-13,4,8,0,16.580000000000002
3317,0,-7,-38,7,27,8,15,1,16.585
3318,2,6,18,9,1,4,16,5,16.59
3319,-4,0,0,10,-10,-3,-23,-14,16.595
3320,-11,-12,2,22,11,3,-8,-13,16.6
3321,27,9,11,7,10,-5,31,28,16.605
3322,7,8,0,40,4,-2,12,13,16.61
3323,7,3,-10,22,11,-3,-20,-9,16.615000000000002
3324,-21,-3,31,47,14,19,29,3,16.62
3325,-3,-5,-13,-18,-8,-6,-10,-15,16.625
3326,12,13,6,8,-1,2,1,9,16.63
3327,0,-7,-10,9,-28,-10,3,1,16.635
3328,10,0,2,32,28,1,-7,0,16.64
3329,-13,0,-9,-31,-17,-8,4,-2,16.645
3330,3,2,19,23,14,9,-10,-2,16.65
3331,7,-9,-16,1,3,12,-7,-5,16.655
3332,-23,-9,5,-49,-49,-11,-2,-8,16.66
3333,12,-2,-6,-1,1,-12,-17,4,16.665
3334,-5,12,10,-42,-7,-6,-47,-16,16.67
3335,-8,-10,-3,-16,-17,11,24,3,16.675
3336,16,2,-17,-18,5,7,-16,8,16.68
3337,-5,-5,2,22,-6,-2,-20,-11,16.685
3338,-14,-4,-5,29,17,-6,7,-8,16.69
3339,26,21,17,-35,-18,-6,58,37,16.695
3340,11,9,-11,-40,-6,-6,-19,3,16.7
3341,-7,-7,-33,-18,-19,-12,-10,-13,16.705000000000002
3342,-12,-9,20,2,13,23,16,-12,16.71
3343,-11,-11,-3,38,22,-2,-10,-5,16.715
3344,7,2,20,40,17,2,27,8,16.72
3345,7,13,14,1,0,9,-19,-1,16.725
3346,-14,-21,-22,-34,-29,9,18,-5,16.73
3347,-9,-8,-32,-11,-10,-32,-16,-12,16.735
3348,2,-3,20,0,18,15,-8,-1,16.740000000000002
3349,-7,7,19,-37,-11,-23,0,9,16.745
3350,11,1,-8,29,3,1,-13,3,16.75
3351,-6,-1,8,-16,4,3,3,-5,16.755
3352,-10,-11,-19,20,10,8,-4,-5,16.76
3353,1,4,-2,-46,-7,8,28,5,16.765
3354,11,0,-11,-8,11,7,34,2,16.77
3355,4,-1,17,61,14,-6,-15,12,16.775
3356,7,14,3,-22,-22,-15,-10,5,16.78
3357,-7,-3,-14,19,9,14,-3,-8,16.785
3358,1,-2,-13,-30,-23,-9,-10,5,16.79
3359,-10,6,36,21,0,12,2,-14,16.795
3360,4,-7,-1,33,26,-1,22,2,16.8
3361,8,12,10,7,-16,-8,-1,8,16.805
3362,3,1,17,25,6,3,-6,-2,16.81
3363,-13,-13,-20,-23,-7,1,-10,-9,16.815
3364,-1,0,5,3,6,-4,-5,-2,16.82
3365,1,-4,-1,32,27,11,1,-1,16.825
3366,-4,-5,-15,-17,-17,-10,-2,-3,16.830000000000002
3367,-1,10,18,-34,-7,-6,1,0,16.835
3368,3,0,-10,-1,-2,5,0,-2,16.84
3369,-1,-8,3,-2,-6,-12,3,-1,16.845
3370,-5,-3,0,16,13,-4,10,2,16.85
3371,-3,6,-10,-14,-4,-5,-14,-4,16.855
3372,9,3,-6,11,-1,-4,9,7,16.86
3373,-1,3,11,2,-3,-4,-16,-2,16.865000000000002
3374,5,-3,-16,12,3,6,10,6,16.87
3375,-17,6,8,-24,1,8,-6,-8,16.875
3376,-10,27,-1,-12,-6,1,-6,-11,16.88
3377,0,50,-9,-12,-4,-4,4,3,16.885
3378,4,127,1,0,-1,-2,-4,5,16.89
3379,3,127,-1,-8,-1,-1,6,1,16.895
3380,-2,118,-7,-8,-7,0,-2,-1,16.9
3381,-1,4,-12,12,9,1,4,4,16.905
3382,-3,-22,-4,-7,0,-2,-6,-1,16.91
3383,7,-12,-5,2,0,3,-2,4,16.915
3384,-6,-52,9,-1,-5,-6,-3,-3,16.92
3385,2,-91,-5,7,7,4,-1,-3,16.925
3386,-2,-120,6,-4,-4,-6,1,-1,16.93
3387,3,-128,-4,-7,4,9,-3,-1,16.935
3388,1,-128,0,1,-4,-4,3,-2,16.94
3389,0,-110,-6,-6,1,7,-4,-1,16.945
3390,-3,-79,2,-3,-3,-6,4,0,16.95
3391,0,-46,4,-7,-2,0,-4,-2,16.955000000000002
3392,0,-21,-17,-2,-3,-2,-1,-1,16.96
3393,-3,41,4,0,-2,0,1,1,16.965
3394,-3,52,7,3,1,-1,-1,-2,16.97
3395,4,71,-6,-4,-4,-1,-9,1,16.975
3396,-1,35,-2,-6,-7,-7,8,-1,16.98
3397,-2,0,7,2,-1,9,3,-1,16.985
3398,-2,-19,-6,-4,-4,-4,-2,-2,16.990000000000002
3399,2,-39,0,6,7,-1,-1,1,16.995
3400,-1,-34,2,-7,-6,-4,-7,-1,17.0
3401,-4,-5,0,6,3,-1,4,0,17.005
3402,0,-5,3,2,-1,0,0,-1,17.01
3403,1,-17,-9,-5,-4,0,0,-2,17.015
3404,-2,2,4,3,1,0,-1,-1,17.02
3405,-1,10,-4,2,1,-1,0,1,17.025
3406,-2,8,4,0,-4,-1,-2,-1,17.03
3407,1,4,0,2,1,0,-6,-1,17.035
3408,-1,0,0,-4,2,-6,5,0,17.04
3409,-1,8,-4,-10,-7,0,1,-1,17.045
3410,-2,1,-2,-1,1,7,-1,0,17.05
3411,-1,0,-2,2,0,2,0,-2,17.055
3412,-1,6,4,6,0,0,-1,-1,17.06
3413,-1,7,-5,-7,-3,2,-1,-1,17.065
3414,0,10,-1,0,0,-5,0,-1,17.07
3415,0,15,-5,-1,-2,-3,-7,-1,17.075
3416,0,14,-4,-5,-3,0,2,0,17.080000000000002
3417,-1,12,11,4,1,-3,0,-1,17.085
3418,-1,4,-14,0,1,-1,-2,-1,17.09
3419,1,-4,-3,-10,-2,-1,1,-2,17.095
3420,-1,-9,1,-4,-2,1,-4,0,17.1
3421,-1,1,-1,2,1,-2,-1,0,17.105
3422,-2,1,2,2,0,-2,1,-3,17.11
3423,1,-3,3,4,1,-2,3,0,17.115000000000002
3424,-1,2,2,0,-1,-1,-1,1,17.12
3425,1,5,-2,-2,1,2,2,-1,17.125
3426,1,6,-4,-1,-3,1,0,0,17.13
3427,-2,1,-1,-2,-2,-4,0,-2,17.135
3428,0,3,3,7,-2,-2,-2,-1,17.14
3429,0,1,2,0,3,1,3,-1,17.145
3430,-1,4,0,-1,-1,2,4,-1,17.150000000000002
3431,0,1,0,-2,0,3,2,1,17.155
3432,0,3,0,1,-2,-2,-6,-1,17.16
3433,0,2,-2,-2,1,-10,-4,0,17.165
3434,0,0,-1,-4,-1,2,-4,0,17.17
3435,-2,-2,-2,3,-2,-7,0,0,17.175
3436,-1,-2,-1,1,-1,0,-2,-3,17.18
3437,-1,-1,-6,-3,-3,1,0,-1,17.185
3438,0,1,4,0,-3,-1,-1,0,17.19
3439,-2,1,4,5,4,2,-1,-1,17.195
3440,0,-1,-2,-4,0,-2,0,-1,17.2
3441,1,2,-1,0,-1,-2,-1,-2,17.205000000000002
3442,-1,2,8,5,0,-2,-2,-2,17.21
3443,0,-1,-4,-10,-4,2,0,-1,17.215
3444,0,2,0,0,2,-1,0,-1,17.22
3445,-1,-1,-1,-6,-4,2,-1,-1,17.225
3446,-2,4,1,2,7,1,0,-1,17.23
3447,-2,3,2,4,-1,-2,-1,-1,17.235
3448,0,3,-4,-4,2,1,-3,1,17.240000000000002
3449,0,0,-3,0,0,2,0,-1,17.245
3450,0,-2,0,-2,-4,-4,-3,-2,17.25
3451,-1,-2,-2,0,-1,1,1,-1,17.255
3452,-1,-3,-6,-10,-2,1,-1,-1,17.26
3453,-3,0,3,3,-3,-1,1,0,17.265
3454,-3,-3,-6,-10,-2,0,1,-1,17.27
3455,2,-2,0,2,2,-4,-1,1,17.275000000000002
3456,-1,-3,1,2,-2,-2,0,-1,17.28
3457,0,-1,1,0,2,1,-6,-1,17.285
3458,-1,0,-2,0,0,-3,5,0,17.29
3459,-2,-2,0,0,0,1,-1,-2,17.295
3460,0,1,4,2,-2,0,1,-2,17.3
3461,0,1,-1,-4,-1,-3,-2,-2,17.305
3462,-2,-1,-5,-7,0,-2,-4,1,17.31
