slno,emg1,emg2,emg3,emg4,emg5,emg6,emg7,emg8,Time
0,0,1,5,3,2,0,-2,-1,0.0
1,-2,8,4,3,-2,-1,-4,-3,0.005
2,0,3,-5,-4,-2,-1,-3,0,0.01
3,-2,-8,12,-3,4,2,0,1,0.015
4,0,1,-26,-51,-5,-2,0,0,0.02
5,-1,0,49,79,3,-1,-1,-3,0.025
6,-2,-1,12,-2,1,-1,-2,-3,0.03
7,0,3,5,-4,0,-2,0,-2,0.035
8,2,-1,-22,-26,-8,-2,0,-1,0.04
9,-3,-6,-13,-34,-4,-1,-3,-1,0.045
10,-1,-2,10,-6,-4,-2,1,0,0.05
11,-1,-4,-25,6,7,-1,-1,-1,0.055
12,-2,-6,11,5,5,3,-1,0,0.06
13,-1,-5,-41,-52,-22,-10,-1,0,0.065
14,4,9,35,55,27,14,3,2,0.07
15,1,-1,-9,-24,-10,-5,-2,-1,0.075
16,0,0,4,22,0,-1,-1,-1,0.08
17,0,-2,-10,-15,1,0,1,1,0.085
18,-4,-6,-9,-14,-7,-4,-3,-1,0.09
19,-1,1,-9,10,-3,0,0,-3,0.095
20,-5,-11,10,17,5,-1,0,-2,0.1
21,0,-3,-8,1,-1,-2,-1,-2,0.105
22,-2,-1,-9,14,1,1,0,-1,0.11
23,-1,1,20,11,1,0,-1,-2,0.115
24,-4,-6,-17,12,4,0,-1,-2,0.12
25,0,3,-29,7,1,0,1,0,0.125
26,-2,0,23,-9,-1,-2,-3,0,0.13
27,2,3,23,-6,1,0,1,1,0.135
28,-1,-1,-18,-23,-6,-2,-2,-2,0.14
29,-2,0,7,9,2,-1,-3,-2,0.145
30,-1,-2,-25,-5,-2,1,0,-2,0.15
31,-2,0,-7,-9,-1,-3,0,-2,0.155
32,-1,-3,-3,0,-2,0,-3,0,0.16
33,-1,-2,-6,-53,-9,-2,1,-1,0.165
34,-1,-4,7,42,6,-1,-1,-3,0.17
35,-2,-1,1,-6,-2,0,-2,-1,0.17500000000000002
36,-1,-1,-2,-10,-3,-1,-1,-1,0.18
37,-1,-4,6,-27,-9,-3,-2,0,0.185
38,-2,-3,-1,8,11,3,0,-1,0.19
39,0,-3,-17,-13,-5,-3,0,0,0.195
40,-1,3,9,22,7,5,-2,-1,0.2
41,-2,1,-9,10,-2,0,0,0,0.20500000000000002
42,-2,3,16,-26,-9,-5,-1,-2,0.21
43,2,-1,6,12,1,1,-2,-1,0.215
44,0,0,-4,3,-5,-3,-1,-2,0.22
45,0,-2,3,7,1,-3,-1,0,0.225
46,0,1,-25,-54,-6,-1,1,1,0.23
47,-3,-1,1,77,7,-1,-2,-2,0.23500000000000001
48,0,4,26,0,-3,-2,2,-2,0.24
49,-2,-3,-27,-8,2,3,-2,-1,0.245
50,-1,-1,21,17,-1,-1,-2,-1,0.25
51,-1,5,4,-19,-2,0,0,1,0.255
52,0,-7,-13,-4,-1,-1,0,0,0.26
53,-2,-2,-3,18,1,1,-2,-3,0.265
54,1,1,3,-12,-3,-1,0,2,0.27
55,-2,-1,-4,-13,-5,-2,-2,-1,0.275
56,0,2,13,15,-6,-4,-2,-1,0.28
57,-2,-3,-8,-33,4,-5,-2,-3,0.28500000000000003
58,-1,0,-7,8,-4,-2,-3,-1,0.29
59,-2,-13,-9,15,29,19,2,1,0.295
60,1,1,-17,-24,0,-1,2,0,0.3
61,0,0,29,26,10,-3,-2,-2,0.305
62,-1,-1,-33,-26,-17,-8,-3,-1,0.31
63,0,0,0,20,-3,0,0,0,0.315
64,-2,-2,-26,-17,-7,-1,-1,0,0.32
65,0,6,44,9,0,2,0,1,0.325
66,-1,-5,0,18,6,2,-1,-2,0.33
67,1,-1,-11,-24,-13,-4,-1,0,0.335
68,1,-1,-3,-1,1,1,0,0,0.34
69,0,-1,-18,15,-7,-2,0,-1,0.34500000000000003
70,0,5,6,-4,7,1,1,0,0.35000000000000003
71,-2,-5,-7,-16,-6,-3,0,-1,0.355
72,-3,0,6,19,-8,-6,-4,-3,0.36
73,-2,-3,-1,-1,-4,-4,-1,-1,0.365
74,1,1,11,-3,13,10,1,1,0.37
75,-3,-1,-12,-19,-37,-17,-5,-3,0.375
76,1,0,13,28,57,25,9,4,0.38
77,-2,-1,-6,-6,-30,-11,-3,-1,0.385
78,0,-5,0,5,-10,-7,-4,-2,0.39
79,1,4,0,-15,23,12,0,0,0.395
80,-4,-2,-4,-3,-66,-22,-7,-4,0.4
81,2,2,11,14,59,30,8,3,0.405
82,-1,0,-8,5,-1,-4,1,-2,0.41000000000000003
83,-2,-4,1,1,-6,-9,-4,-3,0.41500000000000004
84,-1,-2,6,-14,13,0,-2,-1,0.42
85,0,2,-6,-18,-9,-2,-3,-1,0.425
86,0,-1,1,19,2,-3,1,-1,0.43
87,0,1,-3,-27,-19,-9,-1,-3,0.435
88,1,1,6,11,8,2,1,1,0.44
89,-2,-2,-20,-3,-17,-5,-3,-1,0.445
90,-3,-3,5,-11,-2,-2,-2,-1,0.45
91,1,2,1,11,8,2,0,0,0.455
92,-1,-3,-1,-28,-29,-10,-5,-3,0.46
93,2,3,0,21,21,13,5,3,0.465
94,1,-9,-1,9,14,13,2,3,0.47000000000000003
95,0,-2,-5,6,-4,-1,-2,-1,0.47500000000000003
96,2,12,7,1,13,7,0,1,0.48
97,-4,-16,-4,0,-17,-11,-4,-1,0.485
98,-2,2,-1,0,-6,-4,-2,0,0.49
99,-2,-3,2,0,3,0,-2,0,0.495
100,-1,-6,-5,2,9,2,0,-2,0.5
101,1,3,6,-6,-10,-5,-3,-2,0.505
102,-2,2,0,-3,-3,0,0,0,0.51
103,1,-5,-2,0,4,1,0,1,0.515
104,-1,-2,2,-8,-6,-3,0,-1,0.52
105,0,-1,4,9,1,-2,0,-1,0.525
106,0,-1,3,0,-6,-3,-1,-1,0.53
107,-1,3,-5,-2,-2,-4,-1,-1,0.535
108,-2,-3,-2,0,4,-1,-2,-1,0.54
109,-2,-2,3,0,-5,-3,-2,-1,0.545
110,5,10,-4,-1,3,1,0,0,0.55
111,-5,-11,0,0,-4,-2,-1,-2,0.555
112,0,0,-1,-5,2,1,1,0,0.56
113,-1,15,3,8,0,-1,0,0,0.5650000000000001
114,-7,-32,-8,-4,-6,-5,-1,-3,0.5700000000000001
115,1,5,-2,-4,-2,0,-1,-1,0.5750000000000001
116,-1,-3,0,1,2,-1,-2,-1,0.58
117,1,0,-2,-6,-4,-3,-2,0,0.585
118,1,9,2,-2,-4,-1,0,0,0.59
119,0,0,2,5,6,3,2,1,0.595
120,-1,-3,-1,-2,-1,-1,0,0,0.6
121,-3,0,0,-4,-2,-2,0,-1,0.605
122,-1,3,0,-2,-1,-2,-1,-2,0.61
123,-2,-5,-3,-3,-3,-2,-1,-1,0.615
124,1,4,1,1,-3,-1,-1,1,0.62
125,-1,-4,1,-2,-2,-1,-1,0,0.625
126,-3,-1,-2,1,1,1,-1,-1,0.63
127,0,2,-3,-9,-1,1,0,-2,0.635
128,1,-1,1,6,-5,-3,-1,-1,0.64
129,0,-3,0,2,4,-1,0,-1,0.645
130,-1,1,-1,-3,-6,-4,-1,-1,0.65
131,0,3,-1,1,1,-1,1,0,0.655
132,-2,-2,-1,-6,-2,-3,-1,-2,0.66
133,0,-3,-1,2,5,1,-2,-1,0.665
134,1,6,1,-1,-9,-1,0,1,0.67
135,0,2,0,1,1,2,-2,-1,0.675
136,-1,-1,-1,-2,1,-3,-2,-1,0.68
137,-2,-1,-2,-2,-3,-1,-1,0,0.685
138,1,1,0,-3,-7,-3,-1,-2,0.6900000000000001
139,-1,0,0,2,1,0,-1,-1,0.6950000000000001
140,0,-2,-2,0,2,0,2,0,0.7000000000000001
141,-1,-1,0,-3,-3,0,-1,-2,0.705
142,0,2,0,0,1,0,0,0,0.71
143,-1,-2,-5,0,-1,-2,-3,-1,0.715
144,-3,0,0,1,2,0,-4,-2,0.72
145,0,0,-1,-3,-1,3,10,0,0.725
146,-2,0,-1,-2,0,-3,-6,-4,0.73
147,-2,1,1,-1,2,0,7,2,0.735
148,0,-1,1,-1,2,2,0,1,0.74
149,-1,-2,1,0,0,1,-1,1,0.745
150,-1,-1,-1,0,1,-1,1,0,0.75
151,-2,-1,-1,0,-2,-2,-8,-2,0.755
152,0,-3,-4,-1,-1,-1,-5,-2,0.76
153,0,-3,-1,-3,-2,-2,-1,-1,0.765
154,0,0,-1,0,0,-1,-2,-2,0.77
155,0,-1,-2,0,0,0,-1,0,0.775
156,-1,-1,0,-2,-2,-1,0,0,0.78
157,-2,-1,-2,-1,-1,-1,1,-1,0.785
158,-1,1,-1,-1,-2,-4,-5,-4,0.79
159,-2,1,0,-4,-1,-1,-8,0,0.795
160,3,5,1,1,1,1,11,3,0.8
161,-1,-9,-1,-1,-1,-3,-6,-1,0.805
162,-4,-2,-3,0,0,1,-1,0,0.81
163,1,1,1,0,-3,-2,-2,-3,0.8150000000000001
164,-2,1,-2,1,-1,-3,-6,-2,0.8200000000000001
165,-1,-1,-3,-2,-2,-2,-1,-2,0.8250000000000001
166,1,-2,-1,-1,-1,-1,-3,-1,0.8300000000000001
167,-2,-2,-1,0,-1,-1,1,-1,0.835
168,-4,-1,-1,-2,-1,-2,0,-1,0.84
169,0,2,1,0,-3,0,-2,-1,0.845
170,0,-2,-1,-2,0,0,0,1,0.85
171,0,-2,0,-1,-1,0,-1,-1,0.855
172,0,-2,0,0,0,-2,1,1,0.86
173,-2,1,-3,-4,-3,-5,3,-3,0.865
174,1,1,0,-2,3,3,1,0,0.87
175,0,1,-1,0,-1,-3,2,0,0.875
176,-2,-2,0,-2,-3,-2,-5,-4,0.88
177,0,1,2,-1,-1,2,-2,1,0.885
178,-1,0,-4,-1,2,-1,3,0,0.89
179,-2,0,0,-1,-2,-2,-3,-2,0.895
180,-1,-3,-1,0,0,0,0,-2,0.9
181,0,3,0,-3,-1,1,0,3,0.905
182,-1,-2,2,2,1,-1,-2,0,0.91
183,0,-1,-1,-1,0,1,1,1,0.915
184,-2,-3,-3,2,0,-4,-6,-2,0.92
185,-1,-2,-1,-1,-4,-2,-2,0,0.925
186,1,6,0,2,0,0,1,0,0.93
187,-4,-6,-2,0,-1,1,1,-1,0.935
188,0,-1,-5,-2,-1,-1,1,-2,0.9400000000000001
189,0,-5,-1,1,1,-3,-8,-2,0.9450000000000001
190,-1,-12,-2,-1,-3,1,5,3,0.9500000000000001
191,-2,20,2,-1,0,-2,0,-2,0.9550000000000001
192,0,-2,1,-2,0,3,4,1,0.96
193,-3,-8,-2,0,-2,-2,-3,-1,0.965
194,-1,1,-1,-1,-1,0,0,0,0.97
195,2,-2,0,0,2,2,1,1,0.975
196,0,1,0,-2,-1,0,-1,-1,0.98
197,-1,2,-1,1,-1,-2,-2,-2,0.985
198,0,-1,-1,-1,-3,-1,-2,-1,0.99
199,-2,-6,-3,-2,-2,-2,3,-3,0.995
200,-3,-1,1,-3,-3,-2,-3,-2,1.0
201,-1,-1,-1,0,-1,3,1,-2,1.0050000000000001
202,-1,-1,-2,0,-2,-1,-1,-2,1.01
203,-1,-2,1,0,-1,0,-1,-1,1.0150000000000001
204,0,0,0,0,0,0,0,0,1.02
205,1,2,0,-1,2,-2,1,0,1.025
206,-1,0,0,-1,-2,-1,-2,-2,1.03
207,2,-2,-3,0,0,-1,-1,-1,1.035
208,0,-3,-1,0,-1,-2,-1,0,1.04
209,-2,1,0,-1,1,0,-1,-1,1.045
210,1,-1,-1,-1,-2,-2,-2,-2,1.05
211,-1,-5,-2,-2,-4,-5,-1,0,1.055
212,0,0,-1,-2,0,-1,0,-1,1.06
213,0,0,0,0,1,-1,1,0,1.065
214,0,1,-1,0,0,0,-1,-1,1.07
215,-1,-2,1,-1,-1,3,2,1,1.075
216,0,1,-1,-3,-6,-1,-1,1,1.08
217,-4,-7,-1,3,10,2,2,1,1.085
218,-1,-1,-2,-2,0,-2,-1,1,1.09
219,-2,1,0,-3,-2,-1,-2,0,1.095
220,0,-3,-1,-2,-1,-1,-2,-3,1.1
221,1,-2,0,-1,-2,1,1,0,1.105
222,-2,2,1,1,3,4,1,0,1.11
223,-2,-3,-2,-3,-2,-2,-2,-2,1.115
224,-1,-2,0,0,-2,-2,-3,-2,1.12
225,1,3,0,-2,-1,-1,-2,-1,1.125
226,0,2,-1,-11,-3,-4,-1,-1,1.1300000000000001
227,-2,-5,2,14,11,4,-1,-1,1.135
228,-2,2,2,-15,-13,-5,-2,-1,1.1400000000000001
229,2,-1,-8,-2,-13,-6,-2,-2,1.145
230,-2,-3,6,20,20,10,3,2,1.1500000000000001
231,-3,-5,-7,-5,-4,-2,0,0,1.155
232,0,4,3,-26,-7,-1,-3,0,1.16
233,1,3,3,17,15,-1,0,0,1.165
234,-2,-10,-2,0,-11,-1,-1,0,1.17
235,4,5,-1,4,1,-1,1,2,1.175
236,-1,8,-3,2,2,0,-1,-1,1.18
237,-3,-6,-5,-16,-12,-2,-4,0,1.185
238,0,9,-1,-4,-3,-3,-2,-4,1.19
239,-1,3,2,-1,0,-2,-1,0,1.195
240,2,-6,-3,1,0,-1,1,0,1.2
241,0,3,3,0,2,1,1,1,1.205
242,-1,-5,-1,3,2,0,-1,-1,1.21
243,-3,-6,-3,-10,-8,-4,-3,-3,1.215
244,1,3,0,5,1,-1,0,-1,1.22
245,-1,-5,-1,7,6,5,1,-1,1.225
246,0,-2,1,-6,-3,-1,-1,-1,1.23
247,1,0,4,-8,-10,-6,0,-3,1.235
248,-4,-12,-22,4,-2,-2,-2,-2,1.24
249,2,6,27,3,10,5,0,0,1.245
250,0,0,-6,0,0,-3,1,-3,1.25
251,-3,-5,-14,-17,-1,-2,-3,-2,1.2550000000000001
252,1,3,25,21,-30,-6,-3,-1,1.26
253,0,-12,-12,-5,6,1,0,-1,1.2650000000000001
254,3,4,-2,-2,5,-1,0,2,1.27
255,-3,-4,-5,-9,-16,-3,0,-4,1.2750000000000001
256,-1,5,-2,11,28,8,4,2,1.28
257,0,10,-5,-3,-5,-2,0,-1,1.285
258,-1,-6,5,7,3,0,-1,0,1.29
259,-2,4,-10,-6,-2,-2,-3,0,1.295
260,-8,-18,-6,-8,1,-1,0,-1,1.3
261,-1,-1,1,0,-8,-2,1,0,1.305
262,-3,15,-3,-5,0,-1,-1,-1,1.31
263,-2,-13,6,7,2,0,-1,-1,1.315
264,1,3,1,-1,1,1,0,0,1.32
265,1,11,2,1,2,3,1,0,1.325
266,-1,-13,0,-5,-12,-3,-2,0,1.33
267,2,2,-3,1,5,0,0,-1,1.335
268,-1,-1,0,3,5,-1,0,-2,1.34
269,1,-3,-7,-5,-7,-2,-1,-1,1.345
270,0,4,2,0,-3,1,-3,0,1.35
271,-1,3,6,6,2,-2,-2,-1,1.355
272,-1,-2,-4,-4,3,1,-1,0,1.36
273,-1,1,-1,-1,-1,1,-1,0,1.365
274,-1,1,0,-5,-7,-4,0,-1,1.37
275,-1,-3,4,8,12,2,0,-1,1.375
276,1,4,-1,-7,-2,-1,-2,-1,1.3800000000000001
277,-3,-2,-5,-9,-14,-3,-1,0,1.385
278,0,-4,1,1,2,3,-1,0,1.3900000000000001
279,-1,-2,-2,-2,-24,-6,-3,-2,1.395
280,1,2,2,16,26,8,2,0,1.4000000000000001
281,-1,-1,-1,-2,-3,-2,-2,0,1.405
282,-1,-4,-5,-5,-1,-1,-2,0,1.41
283,-2,2,2,-8,-2,-2,-2,-3,1.415
284,-2,-1,-2,-5,-10,-3,-2,-1,1.42
285,-1,-3,-2,3,0,1,-1,-1,1.425
286,1,0,0,-4,0,-3,0,-2,1.43
287,-1,0,2,1,-5,-1,1,-1,1.435
288,0,2,-10,-1,0,-2,-2,0,1.44
289,-1,-8,7,5,8,0,0,0,1.445
290,3,2,-14,-2,-1,-2,-2,0,1.45
291,-2,1,0,4,5,0,-1,-1,1.455
292,0,-3,8,-1,-2,0,0,0,1.46
293,0,-2,-14,-5,-8,-3,-3,0,1.465
294,0,-1,4,0,1,-1,0,0,1.47
295,0,0,-7,2,2,-1,-1,-1,1.475
296,0,0,-7,-5,-4,-2,0,-1,1.48
297,0,1,6,-2,-2,1,1,-2,1.485
298,-1,-2,-4,-3,3,0,0,-2,1.49
299,1,-1,0,7,15,2,0,2,1.495
300,-1,-3,3,3,-6,-2,-1,0,1.5
301,2,1,-1,1,-2,-3,-1,0,1.5050000000000001
302,-3,-6,-5,-4,-4,-3,-2,-4,1.51
303,-1,-2,-2,-8,-2,-1,-1,-2,1.5150000000000001
304,0,-1,5,-1,2,0,0,1,1.52
305,-3,-1,-5,6,7,0,-1,-1,1.5250000000000001
306,-3,-1,0,0,-5,-2,0,-1,1.53
307,-3,2,5,-5,4,0,-2,-2,1.5350000000000001
308,1,-4,2,9,-5,-3,-2,-2,1.54
309,0,2,2,-4,-2,-1,-1,0,1.545
310,-2,2,6,0,-4,-2,0,-1,1.55
311,-3,-12,-12,0,-1,-1,1,-2,1.555
312,-3,0,-2,-9,-2,-1,0,-1,1.56
313,0,-1,-1,0,1,0,-1,-1,1.565
314,-2,-2,-3,0,-3,-2,-1,0,1.57
315,0,2,3,-2,4,2,-1,-1,1.575
316,-2,-2,-7,-4,1,-2,-3,-1,1.58
317,-2,1,-6,-5,-5,-4,-1,-2,1.585
318,-1,-8,-5,0,3,0,-1,0,1.59
319,0,6,24,6,-2,0,-2,-2,1.595
320,1,0,1,-2,-2,-2,0,0,1.6
321,0,2,-9,-1,8,0,0,0,1.605
322,-2,-1,0,-3,-6,-3,1,-1,1.61
323,0,2,-5,2,6,0,0,-1,1.615
324,-2,-3,-5,-2,-1,0,-2,-2,1.62
325,-1,-3,1,-2,-9,-2,0,0,1.625
326,0,2,-1,0,1,0,-3,0,1.6300000000000001
327,0,-7,-5,0,4,1,0,-1,1.635
328,-2,1,2,-2,-7,0,-1,-1,1.6400000000000001
329,-1,-5,-1,-9,-10,-4,-1,-2,1.645
330,0,1,11,9,15,2,1,1,1.6500000000000001
331,0,3,1,8,-2,2,-1,0,1.655
332,3,2,0,1,6,3,1,-1,1.6600000000000001
333,-1,-3,1,-1,-1,1,-2,0,1.665
334,-2,-1,-5,-5,-6,-1,-1,-3,1.67
335,-2,-5,-11,-10,-8,-5,-3,-1,1.675
336,1,4,7,0,3,0,0,0,1.68
337,0,-1,-3,1,-4,-2,0,-1,1.685
338,0,0,4,-2,-2,-1,-3,-1,1.69
339,1,-1,-6,5,6,1,1,2,1.695
340,-1,-3,-2,-6,-5,-1,-2,-3,1.7
341,-1,3,1,1,7,-1,-2,-2,1.705
342,-1,-3,-7,-2,-5,0,0,-2,1.71
343,0,2,5,1,6,0,-1,0,1.715
344,-1,-1,-1,-3,-7,-3,-1,-1,1.72
345,-1,-1,1,2,1,-1,-2,-1,1.725
346,-1,-2,0,0,-1,-1,-1,-1,1.73
347,-1,-1,0,-5,-9,-4,-2,-1,1.735
348,-3,-3,-4,0,2,-1,-1,0,1.74
349,-1,-1,0,0,4,2,1,-1,1.745
350,0,-1,0,-3,-1,-1,-1,-1,1.75
351,0,4,-5,-3,-7,-3,0,0,1.7550000000000001
352,0,-9,-3,-1,4,0,0,0,1.76
353,-4,-2,-6,3,-1,-3,-3,-1,1.7650000000000001
354,1,5,16,5,11,3,0,0,1.77
355,-2,-4,-7,-4,-10,-1,0,-2,1.7750000000000001
356,1,5,1,2,1,0,-1,1,1.78
357,-1,-3,-6,-3,1,0,0,-1,1.7850000000000001
358,0,3,-9,0,-4,-4,-3,0,1.79
359,-1,0,18,-1,-1,-1,-2,-3,1.795
360,-2,0,-4,-2,-3,-1,-1,1,1.8
361,-1,-3,-2,-1,-3,-2,-1,-1,1.805
362,0,-1,-4,3,3,3,0,-2,1.81
363,-1,0,-4,0,0,-1,-1,-1,1.815
364,-1,1,-1,0,0,0,-1,-1,1.82
365,-2,1,4,0,-5,-2,1,0,1.825
366,-1,-2,-2,-5,-6,-1,-1,-2,1.83
367,-1,-1,-4,-1,1,-1,-2,0,1.835
368,-2,0,3,1,-1,-2,0,-1,1.84
369,2,3,3,-1,-1,0,-1,0,1.845
370,-1,-2,1,-8,-6,-4,-1,-2,1.85
371,-1,-3,-13,4,4,1,0,2,1.855
372,0,0,11,2,2,2,1,0,1.86
373,1,-1,-3,4,7,1,0,0,1.865
374,-1,-2,4,-3,-5,-3,-2,0,1.87
375,0,2,0,-3,-7,0,-1,-1,1.875
376,-1,-2,-4,-5,-3,0,-3,1,1.8800000000000001
377,1,3,12,2,-3,1,1,1,1.885
378,-4,-4,-2,-2,-4,-3,-3,0,1.8900000000000001
379,-1,-2,-7,-2,2,-2,0,2,1.895
380,0,5,5,0,0,-1,0,-1,1.9000000000000001
381,0,-2,-2,-3,-1,0,-2,0,1.905
382,-2,1,-5,-1,-4,-1,-2,0,1.9100000000000001
383,-1,-1,1,-4,-7,0,-1,-2,1.915
384,-2,-6,-12,3,7,1,0,-1,1.92
385,0,1,9,-5,-4,0,0,-1,1.925
386,-1,-1,-2,0,2,0,0,-1,1.93
387,0,1,-2,2,-3,-1,0,1,1.935
388,-2,0,1,-3,-5,-2,0,-1,1.94
389,-1,0,2,-3,1,-1,-2,-1,1.945
390,-2,1,2,-4,-2,-1,-1,-1,1.95
391,-3,-4,3,5,8,-1,-1,-2,1.955
392,0,1,-2,-6,-19,-5,-2,0,1.96
393,1,-1,-1,8,16,5,1,0,1.965
394,1,0,-1,1,1,1,-1,-2,1.97
395,1,-4,-21,-8,-9,-3,-1,-1,1.975
396,1,8,29,9,14,3,2,1,1.98
397,-1,-2,-5,-7,-5,-3,-2,-1,1.985
398,0,-2,-6,-2,-4,-3,0,0,1.99
399,-1,2,6,-1,4,0,0,-1,1.995
400,0,0,-17,0,1,0,0,-3,2.0
401,-3,0,-10,-5,-4,-1,-1,-1,2.005
402,-1,1,8,5,3,0,0,2,2.0100000000000002
403,0,-3,0,-6,-4,-1,0,-1,2.015
404,-1,-2,-16,1,1,-1,-1,1,2.02
405,-2,-3,4,0,0,-1,-1,-1,2.025
406,-2,-4,-12,-3,-7,-1,-1,-2,2.0300000000000002
407,-1,2,4,1,5,0,1,-1,2.035
408,2,-2,-5,-3,-2,0,0,-1,2.04
409,-1,1,-5,-2,-4,-1,-1,-2,2.045
410,0,-1,1,1,0,-1,-1,1,2.05
411,0,-1,3,-2,-3,-1,-4,0,2.055
412,-2,-1,2,-2,0,-1,-2,-1,2.06
413,-1,-1,-3,-2,-4,-3,-1,-1,2.065
414,0,-3,-2,-1,-2,-2,-1,-3,2.07
415,-1,6,6,2,3,1,2,1,2.075
416,-1,-8,-6,-1,-4,0,0,0,2.08
417,-3,-8,-23,-1,-3,-2,-2,-1,2.085
418,0,9,21,-3,-4,-1,-2,0,2.09
419,1,-3,13,1,-2,0,-1,-2,2.095
420,-1,1,-6,-1,2,-1,0,-1,2.1
421,0,-1,5,-6,-13,-5,-1,0,2.105
422,1,2,-19,10,16,4,0,-1,2.11
423,-1,-1,7,-4,-5,-1,-1,0,2.115
424,0,-2,2,-2,-2,0,0,0,2.12
425,-1,-1,0,1,0,0,2,0,2.125
426,-3,-3,-8,-6,-4,-1,0,-1,2.13
427,-1,-3,-2,1,3,-1,-1,0,2.1350000000000002
428,-2,0,-2,-1,-1,-1,-1,-2,2.14
429,-1,1,2,-1,-4,-3,-1,-2,2.145
430,0,-1,0,-1,3,-2,0,-1,2.15
431,1,1,-4,-3,-5,0,1,-1,2.1550000000000002
432,-1,-5,0,1,5,0,-1,-1,2.16
433,-1,0,2,1,1,0,0,-2,2.165
434,-1,-4,2,0,1,-1,-1,-2,2.17
435,-1,3,-3,0,0,-1,2,-3,2.1750000000000003
436,-2,-7,-1,-3,-6,-2,-1,-1,2.18
437,0,2,3,1,4,2,1,1,2.185
438,-1,-4,0,-1,-4,-1,0,-2,2.19
439,0,1,8,1,-1,1,-2,-1,2.195
440,1,4,-4,0,-2,-1,1,0,2.2
441,0,-3,9,3,5,-2,-2,-1,2.205
442,-1,-1,-11,-4,-6,-1,-2,0,2.21
443,-1,-2,-9,-3,-1,-1,-2,0,2.215
444,0,2,7,-3,-2,-2,0,-1,2.22
445,1,-2,-13,3,9,2,0,-1,2.225
446,-3,-2,17,-8,-5,-4,0,-1,2.23
447,-1,-2,-6,5,3,1,-1,-1,2.235
448,-1,0,-3,-4,-3,-1,-3,-1,2.24
449,-1,1,-1,2,2,-1,-1,1,2.245
450,-1,-2,2,-1,-1,-1,-1,-1,2.25
451,-1,1,0,-4,-1,-1,0,-1,2.255
452,-2,-6,-4,-6,-11,-5,1,-2,2.2600000000000002
453,0,3,2,4,14,5,0,-1,2.265
454,1,-4,3,3,-1,0,0,0,2.27
455,-1,1,-3,-2,-1,-1,-3,0,2.275
456,1,1,-3,3,2,-1,-1,1,2.2800000000000002
457,-2,-5,-2,-6,-10,-2,-2,-1,2.285
458,0,3,-4,1,-1,-3,-2,-1,2.29
459,0,-1,11,-2,2,1,0,1,2.295
460,-1,-6,2,2,-3,2,1,-1,2.3000000000000003
461,-1,-4,-3,-4,-7,-2,-2,-2,2.305
462,-1,-4,-10,-2,-1,-2,-2,-1,2.31
463,-1,-2,-6,-3,-7,-2,0,0,2.315
464,0,2,3,3,5,0,-2,0,2.32
465,0,-2,-8,-5,-6,-2,0,-1,2.325
466,-2,-2,1,1,-1,-1,0,-1,2.33
467,-1,1,1,-3,-2,-3,-1,-1,2.335
468,-2,0,0,0,4,0,0,-1,2.34
469,-1,0,2,3,4,-1,0,0,2.345
470,-1,-2,-5,-4,0,-2,-1,-1,2.35
471,-1,-1,-1,-1,-3,-1,1,-1,2.355
472,-1,0,2,-2,2,-1,1,1,2.36
473,-1,2,0,-4,-6,-3,-1,0,2.365
474,-3,-5,-7,0,1,1,1,0,2.37
475,-1,-2,-3,-4,-3,1,1,-1,2.375
476,2,2,2,0,-1,0,0,0,2.38
477,-1,3,-10,-2,-1,-2,-3,-2,2.3850000000000002
478,-1,1,3,0,-3,-3,-1,-1,2.39
479,1,0,-5,2,4,-1,-2,1,2.395
480,-2,-3,-7,-2,-1,-1,0,-3,2.4
481,0,1,9,0,0,0,-3,-1,2.4050000000000002
482,-1,-5,-7,-4,-11,-1,-2,-3,2.41
483,1,-2,-10,4,4,1,0,-1,2.415
484,0,2,11,1,2,0,0,1,2.42
485,0,-1,3,-7,-10,-4,0,0,2.4250000000000003
486,-2,-6,-11,-12,-8,-2,-1,-1,2.43
487,-1,0,3,15,19,5,1,1,2.435
488,-1,1,-4,-2,-2,0,-1,-1,2.44
489,-1,-1,0,-2,-5,-2,-1,-2,2.445
490,0,0,4,-3,0,-2,-1,0,2.45
491,0,1,4,-5,-5,-1,0,-2,2.455
492,-1,-5,-5,0,-1,-1,-1,0,2.46
493,-1,-2,6,-1,-2,-1,-1,-1,2.465
494,-1,3,-5,1,4,0,-1,0,2.47
495,1,-2,-1,-2,-5,0,-1,-1,2.475
496,1,0,-2,1,-4,0,0,1,2.48
497,-1,-1,1,1,-1,0,0,0,2.485
498,-1,3,3,1,3,0,0,-2,2.49
499,-3,-6,-5,-1,-2,-1,-1,-2,2.495
500,-2,3,0,-3,0,-2,-1,-2,2.5
501,-2,-3,-4,1,1,-1,1,-1,2.505
502,-1,-2,-10,2,0,-1,-2,-1,2.5100000000000002
503,-1,5,18,-2,-3,-2,-1,-1,2.515
504,1,-2,-5,-2,0,-1,-1,-3,2.52
505,-1,-3,-1,-5,-8,-1,-1,-1,2.525
506,-1,3,4,5,6,-1,-2,-2,2.5300000000000002
507,-3,-11,-8,2,7,4,0,1,2.535
508,-2,2,2,0,-4,-2,0,0,2.54
509,-1,-2,-14,3,6,-1,-2,0,2.545
510,0,0,-4,-6,-8,-3,-1,-3,2.5500000000000003
511,0,0,-6,-4,-5,-6,-2,0,2.555
512,0,0,13,1,3,2,1,0,2.56
513,-1,1,0,-2,-4,2,0,-1,2.565
514,0,-1,5,3,0,0,0,1,2.57
515,0,-2,-4,-3,-2,-2,0,-1,2.575
516,0,0,-2,0,1,0,-1,-2,2.58
517,-1,-1,3,0,-1,-1,1,-1,2.585
518,1,1,3,1,1,0,-1,0,2.59
519,0,-3,-2,-1,-1,-1,-2,-3,2.595
520,-1,-3,-7,-1,-1,-1,-2,0,2.6
521,-1,0,4,2,-2,-1,-1,-1,2.605
522,-2,-2,1,3,4,1,1,-1,2.61
523,-2,-2,-7,-4,-7,-3,0,-1,2.615
524,-1,3,5,-2,0,-1,-2,-2,2.62
525,1,-6,-16,1,5,1,-2,-1,2.625
526,0,-4,25,0,-6,1,1,1,2.63
527,-1,-2,-15,-2,-3,-2,-3,-1,2.6350000000000002
528,-2,0,8,-2,-2,-2,-2,0,2.64
529,0,2,0,-5,-5,-1,0,0,2.645
530,0,0,-2,0,5,-1,0,-1,2.65
531,2,0,-1,-3,1,0,0,0,2.6550000000000002
532,-1,-2,-5,-1,-7,-1,-1,-1,2.66
533,-1,0,0,-3,0,-3,-3,-2,2.665
534,-3,-1,-2,-4,-4,0,-2,-2,2.67
535,-1,4,5,1,5,-1,-1,-2,2.6750000000000003
536,0,-1,-7,-2,-7,1,1,-2,2.68
537,-3,-1,8,0,-1,-1,1,0,2.685
538,0,-1,-8,-1,0,2,0,-1,2.69
539,-2,2,4,0,-3,1,-2,0,2.695
540,-1,-3,-3,2,3,-1,-1,-1,2.7
541,-2,-1,2,-2,3,-1,0,-1,2.705
542,0,-1,-3,0,-3,-2,-3,-1,2.71
543,1,-4,-7,-4,-1,0,0,-1,2.715
544,3,3,7,0,-2,-2,-1,-1,2.72
545,-1,-2,0,1,3,1,0,0,2.725
546,1,4,-1,-2,-2,-2,0,0,2.73
547,-2,-4,-5,0,-3,-2,-1,-1,2.735
548,-1,-4,-6,-3,-1,-1,0,-2,2.74
549,-1,-1,-6,-1,-9,-2,-2,-2,2.745
550,-1,-1,-6,2,2,-2,-1,-1,2.75
551,-2,0,-6,-3,-1,-2,-1,1,2.755
552,-1,1,10,1,1,-2,-2,1,2.7600000000000002
553,0,3,1,-3,1,-2,-1,-1,2.765
554,-6,-11,-8,-1,0,0,0,-1,2.77
555,0,2,4,0,-2,-2,-1,0,2.775
556,-3,-2,-9,1,3,1,0,0,2.7800000000000002
557,0,-3,-1,-1,-9,-2,-1,1,2.785
558,0,1,5,2,13,5,0,0,2.79
559,1,3,-4,-16,-7,-2,0,-1,2.795
560,-2,-2,-6,24,16,2,0,1,2.8000000000000003
561,-1,1,5,0,-4,0,-2,-2,2.805
562,-1,1,-1,-3,-7,-3,-1,-1,2.81
563,-1,-2,2,1,2,0,1,-2,2.815
564,-1,2,-4,-10,-5,-2,-1,-2,2.82
565,-1,-2,-6,-2,5,0,-2,-1,2.825
566,-3,1,3,-1,-3,-2,-3,-1,2.83
567,-1,-2,3,2,1,1,1,0,2.835
568,-1,-3,-3,-7,-3,-2,-2,-3,2.84
569,-2,-2,-3,0,4,-1,2,-1,2.845
570,1,5,-8,-6,-5,-2,0,1,2.85
571,-1,-3,10,3,-5,-1,-3,0,2.855
572,-2,-1,-6,-2,-2,-2,-1,0,2.86
573,-2,-1,-4,-1,-1,-2,0,-1,2.865
574,0,0,8,2,1,0,-1,-2,2.87
575,0,1,0,3,-2,-1,0,0,2.875
576,1,2,-2,-4,-1,-1,-1,-1,2.88
577,-1,-2,-1,0,-2,0,-1,-2,2.8850000000000002
578,-1,-2,-2,1,3,0,-1,-1,2.89
579,-2,-1,-1,0,0,-1,-1,0,2.895
580,0,-1,0,0,-1,1,-1,1,2.9
581,1,1,4,-2,-3,-1,-1,0,2.9050000000000002
582,-3,-2,-7,-7,-3,-3,0,-2,2.91
583,-1,-2,7,7,8,3,1,-2,2.915
584,-2,1,3,4,5,2,0,0,2.92
585,1,2,-1,-7,-3,-1,-1,-2,2.9250000000000003
586,-1,-2,-3,5,-1,0,-2,-3,2.93
587,0,4,11,0,-2,-1,0,-1,2.935
588,-3,-11,-12,-4,-3,1,-1,-2,2.94
589,-2,2,7,3,1,0,0,0,2.945
590,-2,-3,-7,-4,-5,-1,-1,0,2.95
591,0,2,-1,-4,-2,-2,-2,-1,2.955
592,0,2,3,-1,-1,-2,0,1,2.96
593,1,0,-4,0,0,-1,-1,-1,2.965
594,-1,-3,1,1,0,-1,1,-1,2.97
595,1,-1,-10,3,2,0,-2,1,2.975
596,0,1,0,-2,-1,0,-2,0,2.98
597,-2,-5,-3,0,-1,-2,-1,-1,2.985
598,0,-2,-4,0,-3,-1,0,1,2.99
599,0,-1,2,0,-1,0,-1,0,2.995
600,-1,1,-2,-3,-2,-3,-1,-1,3.0
601,-1,-1,2,1,-1,-1,0,1,3.005
602,-1,-2,0,-3,-4,0,-2,-1,3.0100000000000002
603,-1,0,-3,2,7,-1,-1,-1,3.015
604,1,0,2,-2,-3,0,0,-2,3.02
605,-1,-4,-4,-2,-2,0,0,-1,3.025
606,0,7,20,2,1,-1,-1,0,3.0300000000000002
607,-4,-12,-24,-6,-1,-2,0,-2,3.035
608,0,2,7,-2,2,0,1,-2,3.04
609,0,-2,2,-2,-3,-1,0,-1,3.045
610,-1,0,-4,4,2,0,-2,-1,3.0500000000000003
611,1,-1,-14,-2,-4,1,0,1,3.055
612,-1,0,12,2,-1,-1,-1,0,3.06
613,0,1,3,-3,-3,-2,-1,-2,3.065
614,-1,-5,-10,-2,3,1,0,0,3.0700000000000003
615,-1,1,2,-2,-2,0,0,-2,3.075
616,-1,-4,-10,-4,-4,-1,-1,-2,3.08
617,-2,1,2,1,-1,0,0,0,3.085
618,-1,-1,-1,-1,0,-2,-1,-1,3.09
619,-1,0,5,0,-1,0,-1,-1,3.095
620,0,0,0,-4,-2,-1,0,0,3.1
621,-1,-4,-3,2,1,-2,-1,1,3.105
622,-1,-3,-5,0,0,-1,-2,-2,3.11
623,0,0,0,-3,-6,-2,0,-1,3.115
624,-2,-1,-2,4,10,-1,0,2,3.12
625,0,3,0,4,8,1,-1,-1,3.125
626,-1,-6,-7,-5,-3,-2,1,0,3.13
627,0,2,11,-1,-3,0,0,0,3.1350000000000002
628,-2,-5,-12,-3,-7,-2,0,-1,3.14
629,2,4,10,2,3,3,0,-1,3.145
630,0,1,2,-3,-1,-2,-1,-2,3.15
631,-1,0,-3,-1,-2,-2,-3,-2,3.1550000000000002
632,-2,2,0,-2,-3,0,-2,-1,3.16
633,-1,-2,-8,1,3,2,1,1,3.165
634,-1,-3,-3,2,-6,-2,-3,0,3.17
635,0,2,11,4,7,-1,1,2,3.1750000000000003
636,0,-2,-3,-4,-2,-1,-1,-1,3.18
637,-3,-2,-2,-3,-2,-2,-4,-2,3.185
638,-2,-1,-6,-4,-7,1,0,1,3.19
639,0,0,-4,-2,1,-2,0,-1,3.1950000000000003
640,0,0,1,1,-3,-1,0,0,3.2
641,-2,-7,-7,-4,-2,-3,-3,1,3.205
642,0,2,-2,-2,1,0,1,0,3.21
643,-2,0,2,0,-5,-1,-1,-1,3.215
644,1,1,5,2,3,1,-1,0,3.22
645,-4,-6,-6,-2,-4,-2,-1,-1,3.225
646,-1,2,7,-3,-5,-3,-1,-1,3.23
647,0,0,0,5,15,4,1,1,3.235
648,0,0,-7,-2,-3,-3,0,-3,3.24
649,-2,0,1,-1,-4,-1,1,-2,3.245
650,-1,-1,2,1,0,1,-2,-2,3.25
651,-4,0,-1,-6,-7,-1,-1,-1,3.255
652,-2,-4,-6,4,5,2,1,0,3.2600000000000002
653,-1,-2,-1,0,-4,1,-2,-1,3.265
654,-1,0,-2,0,5,0,1,1,3.27
655,0,0,-1,-1,-2,-2,-1,-1,3.275
656,1,-1,0,-3,1,-1,-2,-2,3.2800000000000002
657,-1,0,-11,-3,-2,-3,-1,-1,3.285
658,-1,3,11,0,0,-1,-2,-2,3.29
659,-1,-2,-1,-1,-7,-1,-2,0,3.295
660,-2,-4,-3,3,5,0,-1,0,3.3000000000000003
661,0,1,7,0,1,0,1,3,3.305
662,1,1,-6,-1,-2,0,-1,0,3.31
663,1,-3,0,-3,-8,0,0,0,3.315
664,0,3,-5,-3,-3,1,0,0,3.3200000000000003
665,-2,-11,-16,0,1,-2,-2,-3,3.325
666,3,7,24,1,0,0,-1,-2,3.33
667,0,2,3,-3,-5,0,-1,-2,3.335
668,-2,-5,-9,-1,-11,-2,-1,-1,3.34
669,-1,3,10,4,7,3,0,-1,3.345
670,-3,-3,-12,2,7,2,1,0,3.35
671,-1,0,-2,1,4,1,-2,-1,3.355
672,-3,0,6,-1,-2,-1,-1,0,3.36
673,-2,0,0,-4,-5,-3,-2,-1,3.365
674,-3,-5,-4,-2,-1,-1,-3,1,3.37
675,-1,-1,0,1,-1,0,0,-1,3.375
676,-1,0,-2,0,2,-2,-1,-1,3.38
677,-1,0,-5,-2,-5,-1,-2,-2,3.3850000000000002
678,1,1,-6,1,2,-1,0,0,3.39
679,-3,-1,10,-3,-3,-1,0,1,3.395
680,0,-2,0,2,5,1,1,-1,3.4
681,-1,0,3,-1,1,0,-2,0,3.4050000000000002
682,0,0,-4,-3,-1,-1,1,0,3.41
683,0,1,-9,-3,-6,-1,1,-1,3.415
684,-2,-9,-8,-1,-8,-1,-2,0,3.42
685,-2,0,10,3,7,1,0,-1,3.4250000000000003
686,-1,-3,-9,-10,-3,-3,1,0,3.43
687,0,1,6,11,10,-1,-2,-1,3.435
688,0,1,4,-7,-7,0,0,1,3.44
689,0,0,-8,9,10,1,-2,0,3.4450000000000003
690,-1,0,2,-4,-7,0,-1,1,3.45
691,2,-3,-15,0,9,-2,1,0,3.455
692,-1,1,0,-4,-3,-2,-1,-2,3.46
693,0,2,6,-5,-2,0,-3,-1,3.465
694,-2,-3,-2,1,-11,-1,0,-2,3.47
695,-2,-2,-21,-3,0,-1,0,-2,3.475
696,1,3,26,2,1,-1,-2,0,3.48
697,-1,0,-3,-7,-9,-3,0,-2,3.485
698,0,0,3,5,11,1,-1,-1,3.49
699,-1,-1,1,-4,-5,0,-1,-1,3.495
700,-2,0,-4,-1,1,-2,0,0,3.5
701,0,-1,-4,-3,-9,-3,0,-1,3.505
702,-1,0,4,0,-2,-1,-2,-1,3.5100000000000002
703,0,-1,7,1,2,1,1,1,3.515
704,-2,-6,-14,-2,0,-1,1,-1,3.52
705,0,4,14,-4,-5,-2,1,-1,3.525
706,0,-2,-6,6,5,1,-2,-1,3.5300000000000002
707,0,-3,-3,-1,-1,0,-2,-1,3.535
708,1,2,0,-1,-2,-1,-2,0,3.54
709,-3,-3,-9,-1,-1,-1,1,-1,3.545
710,-1,-1,-1,2,6,0,1,-1,3.5500000000000003
711,0,0,4,-1,-2,-1,1,-1,3.555
712,2,0,-2,0,0,-1,1,-2,3.56
713,-2,-2,-3,-1,1,-2,-1,-2,3.565
714,-1,0,2,-3,-3,-2,0,-2,3.5700000000000003
715,-2,0,4,1,0,1,-1,1,3.575
716,-3,-1,-6,-3,-5,-2,-1,-1,3.58
717,0,0,-1,5,10,3,-2,0,3.585
718,-1,-2,-4,0,-2,-1,-1,-1,3.59
719,-2,-1,-7,-5,-4,-1,-2,-3,3.595
720,-1,2,5,-1,-2,-1,-2,0,3.6
721,-2,-10,-2,-1,-5,-1,-1,-3,3.605
722,1,2,-3,-2,-1,-1,-2,0,3.61
723,-2,-10,3,0,-1,0,-1,0,3.615
724,-1,5,3,5,-1,1,1,-1,3.62
725,0,1,1,-2,-3,-1,0,0,3.625
726,1,-3,-10,-3,-1,-2,-2,0,3.63
727,0,1,-1,-1,-3,-1,1,0,3.6350000000000002
728,-1,-3,0,-3,-3,0,-2,-2,3.64
729,0,2,-3,0,2,-1,0,-1,3.645
730,1,2,2,-5,-9,-1,0,-1,3.65
731,-2,-1,-4,3,4,-1,-1,-2,3.6550000000000002
732,-1,-3,-3,-2,-1,1,1,0,3.66
733,-2,-1,-2,0,-3,0,-2,-2,3.665
734,-2,-2,-1,-3,-2,-2,-2,-3,3.67
735,0,2,4,-1,0,1,-1,-2,3.6750000000000003
736,-1,-1,-5,1,2,-2,-1,-1,3.68
737,-1,-1,1,-3,-4,-3,0,1,3.685
738,-3,-1,-1,1,3,1,-1,0,3.69
739,1,1,-3,0,1,1,0,1,3.6950000000000003
740,1,0,-6,-1,1,-3,1,-2,3.7
741,1,-4,13,4,1,1,-1,3,3.705
742,0,-2,-1,0,-1,-1,-1,-1,3.71
743,0,2,2,-3,-2,-2,0,0,3.715
744,-2,1,-11,0,4,-1,-1,-1,3.72
745,-1,0,2,-5,-5,-1,-2,-1,3.725
746,1,5,-6,0,-3,-1,-1,0,3.73
747,-1,-1,1,-1,-1,1,1,-1,3.735
748,-1,-3,-4,-4,-4,-2,-3,-1,3.74
749,0,-2,-1,-1,1,0,-1,-2,3.745
750,-1,-2,1,1,6,1,0,0,3.75
751,1,0,-3,-2,-4,-2,-2,-1,3.755
752,-1,-2,0,-3,-1,-1,-3,-1,3.7600000000000002
753,-2,1,-3,-4,-12,-4,-3,-1,3.765
754,2,-3,-1,3,4,2,0,0,3.77
755,-2,0,-1,0,0,-2,-2,-2,3.775
756,0,-2,5,2,2,3,0,0,3.7800000000000002
757,-2,-1,-7,-5,-5,-3,0,-1,3.785
758,-2,-1,-1,-3,-5,-1,0,-1,3.79
759,0,-1,3,-3,-1,0,-1,-1,3.795
760,0,-1,1,3,-1,-2,-2,-1,3.8000000000000003
761,-1,1,-5,-4,-4,-1,-1,-2,3.805
762,0,2,8,4,15,1,-1,0,3.81
763,0,0,2,1,1,2,0,1,3.815
764,-1,-9,-1,-4,-3,-1,-2,0,3.8200000000000003
765,1,3,3,1,2,2,0,0,3.825
766,-2,-3,-3,-2,-6,-3,-1,-2,3.83
767,-1,-1,-2,-3,-2,-1,-2,-2,3.835
768,-2,-2,-17,0,3,1,-1,-1,3.84
769,-1,-1,15,3,0,-1,0,0,3.845
770,0,0,-1,-2,0,-1,-2,0,3.85
771,0,1,3,-3,-12,-2,-1,-1,3.855
772,-2,2,0,-1,2,-2,-1,-3,3.86
773,-1,0,-7,3,13,-1,-2,-2,3.865
774,-3,-4,-6,-1,-4,-3,-1,-2,3.87
775,-3,-2,-4,0,-3,-4,-2,-1,3.875
776,-2,0,6,-1,-1,-2,-1,-1,3.88
777,-2,-2,-6,-4,-5,0,-2,-2,3.8850000000000002
778,-4,-1,-2,-1,-3,-1,-1,0,3.89
779,-3,-2,-5,1,2,-2,-2,-1,3.895
780,-1,2,5,1,-3,-2,-1,-1,3.9
781,-2,-1,-8,1,1,-3,-2,-1,3.9050000000000002
782,-1,-4,-3,-3,-4,-2,-1,-2,3.91
783,0,-2,1,0,1,-1,-1,0,3.915
784,-1,1,-1,-5,-5,-2,-1,0,3.92
785,-1,-1,-8,1,4,1,-2,-1,3.9250000000000003
786,-2,4,2,0,4,-1,0,-2,3.93
787,-3,-6,9,1,-9,-1,-2,-3,3.935
788,0,1,-4,-2,-4,-3,2,-1,3.94
789,0,-3,-6,-1,-2,-3,-1,0,3.9450000000000003
790,-2,0,-5,-2,-5,0,0,-1,3.95
791,0,1,3,0,4,-1,-1,0,3.955
792,0,1,5,0,-2,-1,-1,-1,3.96
793,-3,-1,-4,-4,-6,-4,-1,-3,3.9650000000000003
794,-1,-4,1,-6,-8,-3,0,-1,3.97
795,1,2,-2,6,13,2,0,0,3.975
796,-1,-1,-3,3,-1,1,-3,0,3.98
797,1,-2,0,3,-2,0,-1,-1,3.985
798,0,-1,-1,-2,-1,0,-3,0,3.99
799,-1,0,-6,-6,-4,-3,0,0,3.995
800,-1,0,-8,0,1,1,-2,-1,4.0
801,-1,-1,16,0,-2,-3,-2,-2,4.005
802,0,-1,0,1,-1,1,1,-2,4.01
803,-2,0,-14,0,-2,-1,0,0,4.015
804,1,-4,16,0,2,-2,0,-1,4.0200000000000005
805,-1,0,-7,-3,-3,2,1,-1,4.025
806,0,-1,-8,1,-3,-1,2,0,4.03
807,-1,-1,1,-1,4,-1,1,1,4.035
808,-1,0,-4,-2,-3,-2,0,0,4.04
809,-1,-1,1,-4,-1,-3,-1,-1,4.045
810,1,1,-3,0,0,-4,-3,1,4.05
811,1,3,0,-3,-4,-1,-1,-1,4.055
812,-1,-3,0,1,5,1,-1,-1,4.0600000000000005
813,1,-1,-4,0,-3,0,-2,-2,4.065
814,0,-2,1,-1,-1,1,-1,-2,4.07
815,-3,-4,-3,-2,-6,-2,-1,-1,4.075
816,-3,-3,-3,-2,2,1,-2,-2,4.08
817,-1,-3,-4,1,-4,-1,-1,0,4.085
818,0,0,3,2,0,0,-1,0,4.09
819,1,0,1,-2,-9,-1,-2,0,4.095
820,-3,-4,-6,2,-7,-2,-2,-2,4.1
821,0,0,-1,-9,-7,-3,-1,0,4.105
822,0,2,5,7,10,3,-2,-1,4.11
823,0,-6,0,-1,0,0,0,-2,4.115
824,2,2,-1,-2,5,0,0,-2,4.12
825,-3,-3,-12,-1,0,-1,0,-1,4.125
826,2,2,11,0,-5,-1,-2,1,4.13
827,-1,-7,-6,0,-1,0,-1,-1,4.135
828,0,1,1,-1,-5,-2,0,0,4.14
829,-1,-2,-1,1,1,-1,1,0,4.1450000000000005
830,-2,-3,-3,-4,-1,-1,0,-1,4.15
831,0,2,-2,1,-4,0,0,-1,4.155
832,-1,-2,-2,-4,-2,-1,-1,0,4.16
833,-2,0,1,-1,1,0,-1,-2,4.165
834,-1,0,-4,-3,-6,-3,0,0,4.17
835,1,2,1,2,11,2,-2,-1,4.175
836,-1,-2,-3,1,-5,-2,-2,0,4.18
837,0,1,2,-1,3,1,-2,-2,4.1850000000000005
838,-1,-2,-3,-1,-3,-2,-1,-1,4.19
839,-1,0,2,3,10,0,1,-1,4.195
840,2,-1,4,-2,0,-1,0,0,4.2
841,1,0,-1,1,-2,-1,-1,0,4.205
842,-2,-6,-7,-3,-3,-2,-1,-1,4.21
843,1,-2,1,-4,-8,0,0,1,4.215
844,-1,1,10,5,9,3,0,0,4.22
845,-1,1,-5,0,0,0,-1,-1,4.225
846,2,1,-2,0,-1,-1,-1,-1,4.23
847,-1,1,7,-2,-3,-2,0,-1,4.235
848,0,-2,-8,-9,-5,-2,-2,-2,4.24
849,0,1,1,5,1,-2,-2,0,4.245
850,0,0,-1,1,5,1,0,0,4.25
851,-1,2,-2,1,-8,-1,-2,-1,4.255
852,-2,0,3,-4,-5,-1,0,-2,4.26
853,-3,-4,-1,-2,-4,-1,0,-2,4.265
854,-2,-2,0,-1,-3,-2,-1,-2,4.2700000000000005
855,0,-1,-3,0,1,1,0,0,4.275
856,-3,-3,-7,-1,-2,-3,-2,-1,4.28
857,1,-2,-1,-4,-7,-2,-1,-1,4.285
858,1,0,9,2,7,0,2,0,4.29
859,-2,-1,-1,-2,-5,-2,-1,0,4.295
860,-2,-1,-3,-1,-5,-1,1,-1,4.3
861,-2,-2,3,1,8,2,0,-1,4.305
862,-1,-3,-2,1,4,-1,-1,0,4.3100000000000005
863,0,1,-2,-2,2,-2,-2,-2,4.315
864,-1,-1,-5,-2,-1,-2,-2,0,4.32
865,-1,-4,4,1,-2,2,0,0,4.325
866,-1,1,-10,-3,1,1,-1,-1,4.33
867,0,-1,16,2,0,-1,-1,0,4.335
868,-1,-4,0,2,1,0,-1,-2,4.34
869,-2,2,-6,-5,-3,-2,-2,0,4.345
870,0,-2,-1,-2,-5,1,-2,0,4.3500000000000005
871,-2,0,-12,-1,2,0,1,0,4.355
872,-1,0,15,-1,-3,-3,-1,0,4.36
873,-1,-3,-3,-3,-2,-3,-1,-1,4.365
874,-1,2,1,1,1,-2,0,1,4.37
875,-1,0,-2,0,1,0,-1,-1,4.375
876,0,0,-9,-4,-2,-1,-1,0,4.38
877,-2,-1,-3,5,0,-2,-1,0,4.385
878,-1,-1,2,-2,0,0,-2,-1,4.39
879,-1,-2,-6,-6,-15,-3,0,0,4.3950000000000005
880,0,2,-1,1,6,1,2,-1,4.4
881,-1,-2,-2,0,-5,-1,-1,-2,4.405
882,0,-1,2,1,1,1,-1,0,4.41
883,-1,-1,0,-1,1,0,-2,-1,4.415
884,0,1,-2,-3,-7,-1,-1,-1,4.42
885,0,0,-2,-1,2,-1,-1,-1,4.425
886,-3,-3,-2,-1,-3,-2,-2,-1,4.43
887,1,0,-4,1,3,0,-1,-1,4.4350000000000005
888,0,-3,3,3,-1,-1,-1,-1,4.44
889,-1,-1,-3,-4,-1,0,-1,1,4.445
890,-1,-1,-1,-2,-6,-3,0,-3,4.45
891,-2,-1,0,3,7,2,-1,1,4.455
892,-1,-2,-3,0,-2,0,0,-2,4.46
893,-2,-1,-2,-1,2,-1,1,-1,4.465
894,-1,-3,0,-4,-4,-2,0,-1,4.47
895,-1,1,3,0,-7,-2,-1,0,4.4750000000000005
896,-2,-2,-1,0,2,-2,-2,-1,4.48
897,-1,-1,-8,-1,1,0,-1,1,4.485
898,-1,0,3,-3,0,-1,-1,-1,4.49
899,-1,-2,-2,-10,-9,-1,-1,-3,4.495
900,0,0,-12,11,15,2,-1,0,4.5
901,2,4,21,2,5,2,-1,0,4.505
902,1,1,-7,3,5,1,2,0,4.51
903,0,1,3,-2,0,-3,1,0,4.515
904,-1,-2,0,-2,-10,-3,-3,-2,4.5200000000000005
905,-2,-2,-3,-6,-8,-4,-1,-1,4.525
906,-1,-1,1,0,2,2,-1,0,4.53
907,-2,1,-1,1,1,-1,-3,0,4.535
908,-1,0,-3,-3,-1,-1,0,-3,4.54
909,-1,-1,-1,0,-2,-1,0,0,4.545
910,1,1,-1,1,1,2,-1,-1,4.55
911,0,-1,0,3,-2,-1,1,-1,4.555
912,-2,-1,-2,-6,-4,-2,-2,-1,4.5600000000000005
913,0,4,2,-1,0,2,-1,-1,4.565
914,-2,-10,-13,-3,-7,-3,-1,-1,4.57
915,1,0,7,1,6,-1,0,-1,4.575
916,0,3,6,0,-5,-2,-1,-1,4.58
917,-1,-1,-3,1,1,0,0,-1,4.585
918,0,5,1,0,0,1,-2,1,4.59
919,-1,-7,-13,-3,-2,-2,-2,-1,4.595
920,-2,0,9,-1,6,2,0,-1,4.6000000000000005
921,0,1,-1,3,4,-1,-2,0,4.605
922,-2,-1,-1,-1,-5,-2,-1,0,4.61
923,0,0,-2,1,0,2,-1,0,4.615
924,-1,-2,-2,-3,-4,-4,-1,-2,4.62
925,-2,-1,-2,-2,-4,-2,0,-1,4.625
926,1,-3,0,-1,2,1,-1,-1,4.63
927,-1,1,0,-3,-6,-1,0,-2,4.635
928,-1,-4,-2,0,-3,0,-2,0,4.64
929,-2,-4,-4,0,0,-1,-3,-2,4.6450000000000005
930,-1,0,2,-1,-3,1,0,-1,4.65
931,0,-1,2,-2,0,-2,-1,-1,4.655
932,-2,-3,-3,2,-3,-1,0,-1,4.66
933,-1,-2,-2,-2,0,-3,-2,-1,4.665
934,0,1,1,-1,0,0,1,-1,4.67
935,-2,-3,-12,-5,3,0,0,0,4.675
936,0,4,29,13,3,0,-1,0,4.68
937,0,-1,-6,-2,-5,-2,-1,-1,4.6850000000000005
938,-2,-2,-10,-4,-4,-3,0,-1,4.69
939,1,3,15,1,-1,2,-2,-1,4.695
940,-1,-2,-22,-7,-6,-3,1,-1,4.7
941,-3,-6,9,3,9,2,0,-2,4.705
942,-2,0,2,0,2,-1,-1,-1,4.71
943,0,3,-3,0,-7,-1,0,0,4.715
944,-1,-2,-8,-6,0,-2,-1,0,4.72
945,0,2,1,-2,-5,-1,-2,-2,4.7250000000000005
946,-1,-1,-3,0,0,-1,1,0,4.73
947,0,0,2,0,-1,-1,-3,1,4.735
948,-2,0,0,4,7,1,0,-2,4.74
949,-1,0,-6,-1,-2,-2,2,0,4.745
950,0,1,5,0,-2,-2,-1,-3,4.75
951,-3,-3,-2,1,-1,0,-1,-1,4.755
952,-1,-2,0,-1,-2,-1,-1,-1,4.76
953,-2,-1,-2,-1,-1,1,-1,-1,4.765
954,0,0,1,1,0,-2,0,-1,4.7700000000000005
955,-1,-2,0,0,1,-2,0,0,4.775
956,-1,-4,-8,-5,0,-1,-2,-2,4.78
957,0,0,6,-2,-3,0,-2,-1,4.785
958,-2,0,-9,-1,-5,0,0,0,4.79
959,0,-2,-4,-1,3,-2,-3,-2,4.795
960,-1,-3,-3,-3,-9,-2,-1,-1,4.8
961,-1,3,3,-2,-7,-2,-1,0,4.805
962,0,-5,-6,0,5,5,0,0,4.8100000000000005
963,-1,-2,-16,0,-1,-1,0,-2,4.815
964,-1,-4,9,0,-6,0,-2,0,4.82
965,-1,0,7,0,8,1,1,0,4.825
966,1,0,6,-1,-1,0,-1,0,4.83
967,0,0,-15,1,3,-1,-2,1,4.835
968,-1,0,-5,-3,-2,-1,-2,-1,4.84
969,0,-2,-6,-2,-6,-1,-1,-1,4.845
970,-1,0,2,4,5,1,0,0,4.8500000000000005
971,0,0,7,1,1,0,1,-1,4.855
972,0,0,-1,-1,-1,-3,-1,0,4.86
973,-1,-2,-2,-1,0,0,1,0,4.865
974,-2,1,0,-4,-3,-3,-3,-1,4.87
975,-1,-3,2,-2,-11,-1,1,-2,4.875
976,-1,-1,-1,-1,0,0,1,-2,4.88
977,1,0,-7,-1,0,1,0,0,4.885
978,-1,0,1,-1,-3,-1,-1,0,4.89
979,-3,-2,2,-1,0,-1,-1,0,4.8950000000000005
980,0,4,1,0,5,2,1,0,4.9
981,-5,-7,-5,-4,-1,-2,-2,-1,4.905
982,-2,-6,3,-1,-5,-2,-2,0,4.91
983,-1,4,5,-1,0,-1,-2,-1,4.915
984,-1,-4,-3,-1,0,-2,-1,-2,4.92
985,0,-2,-3,-2,-3,-1,0,-2,4.925
986,1,7,-6,0,0,0,0,-1,4.93
987,-4,-14,16,1,-4,-2,0,-2,4.9350000000000005
988,-3,1,-6,-1,-2,-1,1,1,4.94
989,-2,0,0,0,-4,-3,-4,-2,4.945
990,0,0,6,-1,-3,-1,-2,-1,4.95
991,0,1,-5,1,9,1,0,0,4.955
992,-1,-3,-11,-1,-3,-2,-2,-1,4.96
993,-1,5,12,0,1,-1,0,1,4.965
994,0,1,2,-3,-1,-2,-2,-3,4.97
995,0,0,-3,-2,-2,0,-1,0,4.9750000000000005
996,-3,-3,1,5,4,-1,-2,-1,4.98
997,0,-1,-8,-1,5,2,0,-1,4.985
998,-1,-3,1,1,1,-1,1,-2,4.99
999,0,2,3,-1,-2,0,-1,0,4.995
1000,-2,-1,-4,-5,-4,-1,-1,-1,5.0
1001,-2,0,0,-1,-4,-1,-1,-1,5.005
1002,-1,1,1,2,1,-1,0,0,5.01
1003,-2,-8,-9,-2,3,-1,0,-1,5.015
1004,-1,1,6,-5,-9,-3,-1,-1,5.0200000000000005
1005,0,-1,4,8,17,0,-2,1,5.025
1006,-1,-2,-2,-5,-9,-2,-1,-1,5.03
1007,1,2,2,-6,2,0,-2,-1,5.035
1008,0,2,-9,6,3,2,0,-1,5.04
1009,-1,-6,-4,-4,-5,-1,-1,-2,5.045
1010,-1,0,-3,-1,0,-2,0,1,5.05
1011,-3,-7,-5,0,-3,0,-2,-1,5.055
1012,-1,1,12,-2,-4,-2,-1,-1,5.0600000000000005
1013,1,0,-13,-1,-3,1,0,-1,5.065
1014,0,-2,-1,0,0,-1,-2,-1,5.07
1015,0,2,-6,-3,-5,-1,-1,0,5.075
1016,-1,0,-3,1,9,2,-2,-3,5.08
1017,-1,-4,-3,-2,-5,-2,-1,0,5.085
1018,-1,-2,0,-3,1,-1,-1,-1,5.09
1019,0,1,4,1,0,0,-1,-1,5.095
1020,1,-2,-3,-1,-1,1,-1,-1,5.1000000000000005
1021,1,3,3,-2,0,-2,0,-1,5.105
1022,-1,-1,1,-2,2,-1,-2,0,5.11
1023,0,-1,-3,3,-6,0,-1,-1,5.115
1024,0,-1,-1,-2,-5,-3,-2,1,5.12
1025,-1,-1,1,-4,-9,-1,-2,-3,5.125
1026,0,0,-3,5,11,1,1,1,5.13
1027,0,1,2,0,1,-2,-1,0,5.135
1028,-2,0,-6,-4,-2,-3,-2,-2,5.14
1029,-3,-4,4,-14,-17,-4,-2,-1,5.1450000000000005
1030,1,2,6,19,22,5,1,1,5.15
1031,0,1,2,0,2,0,0,-1,5.155
1032,-2,-1,-2,0,-1,1,-1,-1,5.16
1033,0,0,-12,-1,0,-2,-1,1,5.165
1034,-3,-3,4,-11,-13,-2,-2,0,5.17
1035,-1,-1,-11,1,12,0,1,4,5.175
1036,-2,-3,20,-2,-12,-2,-1,0,5.18
1037,-2,1,-1,2,0,1,-1,-1,5.1850000000000005
1038,0,-1,-4,-2,-3,-2,-2,-2,5.19
1039,-2,2,0,2,-2,0,-1,-1,5.195
1040,-1,-2,-2,-4,1,-2,-1,-2,5.2
1041,0,-1,1,3,5,1,0,0,5.205
1042,0,-1,-2,-2,-7,-1,0,-1,5.21
1043,-2,0,0,-3,-1,-3,-2,-4,5.215
1044,-2,-1,-5,0,1,0,1,-1,5.22
1045,1,-1,5,1,-4,-2,0,-2,5.2250000000000005
1046,1,0,-4,2,8,1,0,0,5.23
1047,-1,0,1,-1,-1,0,-2,-2,5.235
1048,0,0,-3,1,1,-1,-1,0,5.24
1049,-1,2,0,0,3,-2,-1,-1,5.245
1050,-1,0,0,-5,-8,-1,-1,0,5.25
1051,-3,-1,-2,-1,-4,-3,-1,-3,5.255
1052,-1,-1,-11,-1,3,-1,1,-1,5.26
1053,-1,3,2,-1,-6,-1,-2,-2,5.265
1054,-1,-4,5,9,18,3,3,-2,5.2700000000000005
1055,-1,-2,-4,-1,-5,0,-1,0,5.275
1056,0,0,-3,-5,-6,-4,-4,-2,5.28
1057,0,-1,-4,-6,1,0,-1,1,5.285
1058,0,-2,-10,1,-8,-2,-2,0,5.29
1059,0,2,12,0,0,-1,0,1,5.295
1060,-2,-3,-2,1,-2,-2,-1,-3,5.3
1061,0,0,-3,1,2,2,0,0,5.305
1062,-2,-3,0,-6,-6,-1,-2,-1,5.3100000000000005
1063,1,-2,-5,-1,1,-1,0,2,5.315
1064,0,1,-1,-1,-2,0,0,1,5.32
1065,-2,-2,1,0,-3,-1,-2,-3,5.325
1066,-1,-3,-4,1,0,-1,-1,0,5.33
1067,-1,0,-1,-1,-1,1,-2,-1,5.335
1068,-1,1,3,0,2,0,0,0,5.34
1069,0,1,-3,4,2,1,0,-1,5.345
1070,-2,-2,5,-4,-8,-1,-1,-2,5.3500000000000005
1071,0,-2,-6,-1,-1,-1,-1,-2,5.355
1072,0,-1,6,-1,3,1,0,0,5.36
1073,-1,-5,-3,-2,-1,-2,0,0,5.365
1074,-1,4,-2,-2,-7,-2,0,-1,5.37
1075,0,-2,-4,-1,4,1,0,-2,5.375
1076,-1,-3,-5,0,-1,0,-2,0,5.38
1077,1,2,-1,-2,-3,-2,-2,0,5.385
1078,-2,-6,-4,-1,4,1,-1,0,5.39
1079,-1,-4,1,0,0,0,0,-1,5.3950000000000005
1080,-1,0,-2,-1,-3,0,0,-1,5.4
1081,-1,0,1,0,0,-2,1,-1,5.405
1082,-2,0,0,-4,-5,-1,-2,1,5.41
1083,0,-1,1,-2,2,-2,0,-1,5.415
1084,-1,-1,1,-2,-12,-3,-2,-2,5.42
1085,-2,-2,-11,0,7,1,1,-3,5.425
1086,1,2,13,-1,-2,-1,0,-2,5.43
1087,0,1,2,1,-2,-2,-1,0,5.4350000000000005
1088,-1,-1,-1,-1,-2,-1,-1,-1,5.44
1089,-2,-1,0,0,0,1,1,1,5.445
1090,-1,1,-8,-6,-4,-3,-1,-1,5.45
1091,-2,-2,-4,1,2,0,0,-1,5.455
1092,-1,-5,10,-1,1,-1,-1,-1,5.46
1093,0,-1,-15,-5,-1,-1,-1,-1,5.465
1094,1,0,-2,2,-6,-1,-1,-1,5.47
1095,0,2,-3,2,1,1,-1,-1,5.4750000000000005
1096,0,-1,0,-1,-2,-2,-2,-3,5.48
1097,1,2,1,0,1,1,-1,1,5.485
1098,-2,-4,9,-1,-3,-2,2,-1,5.49
1099,0,1,5,-4,0,-1,-1,-1,5.495
1100,-1,1,-7,3,-2,0,1,0,5.5
1101,-1,-1,3,-2,-2,-1,-3,-2,5.505
1102,-1,0,-11,1,2,-2,1,-2,5.51
1103,0,-2,3,-2,-1,-1,-1,-1,5.515
1104,0,1,4,-1,3,0,-1,0,5.5200000000000005
1105,0,-2,4,-1,-3,-1,-2,0,5.525
1106,-1,-1,-3,-3,-1,3,-4,0,5.53
1107,-2,-2,-1,-1,-4,-3,-1,-2,5.535
1108,0,0,-4,-3,2,0,0,0,5.54
1109,0,-3,1,3,1,-1,-2,-2,5.545
1110,0,-1,-2,-3,-6,-3,-1,-2,5.55
1111,-1,0,-3,-1,-1,0,-1,-2,5.555
1112,-2,4,-3,-3,-1,-2,0,0,5.5600000000000005
1113,-2,-6,9,1,0,-2,1,-1,5.565
1114,1,2,-3,2,2,1,-1,0,5.57
1115,-1,-4,2,-3,-9,-2,-3,0,5.575
1116,0,-1,-2,3,9,1,-2,-1,5.58
1117,-1,-2,-1,-3,-2,0,-2,1,5.585
1118,0,-1,-5,-1,3,0,0,0,5.59
1119,-1,1,-3,0,-1,-2,-1,0,5.595
1120,-4,-10,5,-5,-1,-2,-4,-2,5.6000000000000005
1121,1,3,2,0,0,-1,0,0,5.605
1122,-1,0,2,-2,0,0,0,0,5.61
1123,2,3,-3,0,2,-2,-1,-1,5.615
1124,-2,-2,-10,-3,-8,-3,-1,-2,5.62
1125,-1,-1,-2,0,-3,-1,-1,-1,5.625
1126,-3,0,0,1,2,1,0,-2,5.63
1127,-1,-3,-5,-2,-4,-3,1,-3,5.635
1128,-1,-1,-1,-1,1,0,-1,0,5.64
1129,0,-1,2,1,-4,0,0,0,5.6450000000000005
1130,1,3,2,-3,0,-1,-1,-1,5.65
1131,-2,1,0,-1,-6,-2,0,-1,5.655
1132,-1,-6,-1,1,2,0,2,-1,5.66
1133,-1,2,1,4,14,3,1,-1,5.665
1134,0,-1,-2,-2,-3,-1,1,-1,5.67
1135,-2,-1,1,-4,-2,-1,-1,0,5.675
1136,-2,2,-7,-1,-3,0,-2,-4,5.68
1137,-1,-1,-8,-3,-2,0,0,-1,5.6850000000000005
1138,-3,-2,5,-4,-5,-3,-2,-1,5.69
1139,0,5,7,7,7,2,-2,1,5.695
1140,-1,-8,-9,0,-1,-1,0,-1,5.7
1141,-1,2,-5,-2,4,0,1,0,5.705
1142,1,0,-14,1,0,-1,-1,0,5.71
1143,-2,-8,7,-3,-3,-2,0,0,5.715
1144,2,5,3,-1,-1,0,-1,0,5.72
1145,-1,-1,-1,-1,-6,-2,-3,0,5.7250000000000005
1146,0,-1,-1,0,-3,-2,-1,-1,5.73
1147,-3,-6,-6,-2,0,-3,0,-2,5.735
1148,1,-1,-1,0,3,0,1,1,5.74
1149,-3,-1,1,-2,-3,-1,0,-1,5.745
1150,2,4,4,2,0,0,-2,-1,5.75
1151,-1,-1,-3,0,3,1,-2,-2,5.755
1152,-1,3,2,-7,-12,-4,-3,-3,5.76
1153,-1,-2,2,7,18,2,1,-1,5.765
1154,-1,1,6,-2,-5,-2,1,0,5.7700000000000005
1155,-1,1,-4,-1,-3,0,0,-2,5.775
1156,0,-1,0,0,-1,1,-1,0,5.78
1157,-1,-2,0,-7,-10,-4,-3,-2,5.785
1158,-2,-2,-5,1,12,1,-1,0,5.79
1159,-1,-2,2,5,-1,-2,0,0,5.795
1160,-1,-1,-8,-1,-1,0,0,-1,5.8
1161,0,6,13,0,1,-2,-1,-2,5.805
1162,-2,-6,-3,0,-2,0,0,0,5.8100000000000005
1163,1,2,-13,-5,-3,-2,-3,-1,5.815
1164,-1,1,14,1,1,0,-2,-1,5.82
1165,0,0,-9,0,-1,-1,0,-1,5.825
1166,0,-2,-1,-3,-4,-3,0,-2,5.83
1167,0,2,5,1,1,-1,0,-1,5.835
1168,1,-1,-3,0,0,-2,-1,1,5.84
1169,-2,-3,-4,-4,-5,-3,-1,-2,5.845
1170,0,0,6,3,0,1,-1,0,5.8500000000000005
1171,-2,-1,-3,0,-1,0,-1,1,5.855
1172,-1,1,-4,1,2,-2,-1,0,5.86
1173,0,-1,-3,-5,-15,-2,-1,-1,5.865
1174,0,-3,1,5,16,3,2,-1,5.87
1175,1,-1,-3,-3,-2,-1,1,-2,5.875
1176,-2,-1,3,-2,-6,-2,-1,0,5.88
1177,-1,-2,-3,1,-5,0,-1,-1,5.885
1178,-2,-1,-6,-3,-5,-3,-2,-1,5.89
1179,1,4,-3,-2,1,-1,-1,-1,5.8950000000000005
1180,-3,-9,13,1,4,0,0,-3,5.9
1181,0,0,-1,1,-2,-2,-1,1,5.905
1182,-1,0,-4,-2,-6,-3,-2,1,5.91
1183,-1,0,3,-1,1,0,-2,-1,5.915
1184,0,-1,-6,-1,-2,-1,-2,-1,5.92
1185,0,-1,0,-1,3,1,0,-2,5.925
1186,-2,-5,-4,0,-2,-1,-1,-1,5.93
1187,0,2,-1,-3,-2,0,-1,-2,5.9350000000000005
1188,0,3,-3,1,3,-1,-1,-1,5.94
1189,-1,-1,1,-5,-1,-3,0,0,5.945
1190,0,1,-1,4,-1,-1,0,-1,5.95
1191,-4,-10,4,-3,-6,-2,-1,-2,5.955
1192,0,1,-3,0,-2,0,0,1,5.96
1193,1,0,-1,1,1,0,0,0,5.965
1194,-1,-3,-1,-7,-7,-1,-3,-3,5.97
1195,-2,-3,2,-3,-4,-3,-1,-1,5.9750000000000005
1196,1,0,0,1,7,3,0,-2,5.98
1197,-1,-1,0,0,1,-2,-1,-3,5.985
1198,-1,1,4,0,0,0,1,-1,5.99
1199,0,0,-5,-1,-6,-1,-1,-1,5.995
1200,0,-4,3,-1,0,-1,0,-1,6.0
1201,-2,-5,-1,-1,1,1,-2,0,6.005
1202,-2,-1,-1,-1,1,-1,-1,-2,6.01
1203,-3,0,-3,-1,3,-1,-1,-1,6.015000000000001
1204,-1,2,-4,-2,-5,-4,0,-1,6.0200000000000005
1205,0,-2,-13,1,2,-1,0,0,6.025
1206,2,-1,7,0,-1,-1,2,0,6.03
1207,-2,-1,1,-1,-3,0,0,-1,6.035
1208,-3,0,-3,-1,-1,-1,-3,-1,6.04
1209,0,-2,0,2,4,1,1,0,6.045
1210,-1,0,-1,-3,-4,-2,0,-1,6.05
1211,0,-2,-2,3,8,1,1,-1,6.055
1212,-1,-1,1,-3,-5,-2,0,-1,6.0600000000000005
1213,0,3,1,-5,-2,-1,-2,-1,6.065
1214,-1,-7,-7,7,5,1,0,-2,6.07
1215,1,1,-5,-1,0,0,-2,0,6.075
1216,-1,1,7,-3,-3,-1,0,-1,6.08
1217,-1,3,6,-2,-2,-2,-1,-1,6.085
1218,-2,2,-1,-4,-4,-4,-2,0,6.09
1219,-1,-2,-3,-1,-1,1,0,-2,6.095
1220,-1,-1,-3,-1,0,-3,0,-1,6.1000000000000005
1221,1,1,-1,-1,-3,0,-2,1,6.105
1222,-1,-6,4,-3,-2,2,-2,1,6.11
1223,-1,-3,-3,0,1,-1,0,0,6.115
1224,-1,1,-4,1,-1,0,0,-1,6.12
1225,-2,-3,0,0,0,0,-1,-1,6.125
1226,0,2,-3,0,-1,-2,1,-1,6.13
1227,0,-3,-15,-3,2,-1,-1,-2,6.135
1228,1,3,18,2,-1,0,-3,0,6.140000000000001
1229,0,-2,-2,4,6,-1,-1,-1,6.1450000000000005
1230,-1,4,1,-5,-7,-1,-2,-2,6.15
1231,-3,-5,4,4,5,0,-1,-1,6.155
1232,-1,0,-16,-4,-2,-2,0,-2,6.16
1233,-2,-1,13,-2,-6,-2,-1,-3,6.165
1234,2,4,5,0,0,0,1,1,6.17
1235,2,0,0,1,-4,-2,1,0,6.175
1236,-1,-1,-6,-1,-3,-3,-3,-1,6.18
1237,-1,-3,3,-1,0,0,0,-1,6.1850000000000005
1238,-2,-3,-6,0,2,-1,0,0,6.19
1239,-1,2,3,-4,-7,-3,-2,-2,6.195
1240,-2,0,0,1,5,1,-2,0,6.2
1241,-1,0,-6,0,-11,-1,0,-1,6.205
1242,-1,-2,-2,0,1,-1,1,-2,6.21
1243,-1,6,3,-1,-1,-2,0,0,6.215
1244,-2,-11,-6,-3,1,0,-1,-2,6.22
1245,-1,-1,-2,0,3,1,1,-1,6.2250000000000005
1246,-2,-2,-1,0,-1,1,0,0,6.23
1247,-1,1,6,-2,-3,0,-2,-1,6.235
1248,-1,0,-4,-2,-3,0,0,-1,6.24
1249,-1,-3,-6,-1,0,0,0,-1,6.245
1250,2,0,-1,-5,-12,-4,0,-1,6.25
1251,0,-2,-2,8,21,3,0,1,6.255
1252,0,4,3,0,-3,-4,-2,-2,6.26
1253,-3,-12,-9,-3,-2,-1,-2,-1,6.265000000000001
1254,0,0,5,1,0,1,-2,1,6.2700000000000005
1255,-1,1,12,-3,-7,-1,-2,0,6.275
1256,-1,3,2,0,-1,-1,-1,-2,6.28
1257,-2,-2,-16,-2,1,1,0,1,6.285
1258,-2,-3,-3,1,-1,0,-1,-2,6.29
1259,-2,-8,-9,-2,-4,0,-1,-1,6.295
1260,-1,0,-4,1,2,0,-1,0,6.3
1261,1,4,7,-2,-5,-4,-2,-1,6.305
1262,1,-1,0,0,2,1,-1,-1,6.3100000000000005
1263,-1,-2,-2,0,-3,-2,-2,-2,6.315
1264,0,0,1,-4,-6,-2,-1,0,6.32
1265,1,1,4,1,2,2,2,1,6.325
1266,-1,-2,-2,-1,1,0,0,-1,6.33
1267,1,0,1,-2,-4,-1,-1,-1,6.335
1268,2,2,2,-2,-1,0,0,-3,6.34
1269,-1,-5,-3,2,2,-1,-4,-1,6.345
1270,0,2,-2,0,5,-1,0,0,6.3500000000000005
1271,-2,-2,-4,-5,-12,-4,-1,-3,6.355
1272,-2,-4,-16,-4,-1,0,1,-1,6.36
1273,0,7,28,9,10,2,0,-1,6.365
1274,-1,0,-4,4,9,1,-1,0,6.37
1275,-2,-1,5,-5,-9,-3,-1,-2,6.375
1276,-1,-1,-4,0,7,2,-1,0,6.38
1277,-1,0,-5,-10,-9,-3,0,-1,6.385
1278,-1,-3,-4,5,-2,0,1,0,6.390000000000001
1279,0,-1,5,-2,-1,0,0,-1,6.3950000000000005
1280,0,-2,0,2,-3,0,-1,0,6.4
1281,0,1,-3,-3,-3,-1,0,0,6.405
1282,-1,0,4,-4,-5,-1,-2,-2,6.41
1283,1,-1,-8,-3,0,0,-2,-3,6.415
1284,0,-2,5,0,-2,1,0,-1,6.42
1285,0,0,0,-1,-1,1,-2,-1,6.425
1286,0,-1,-6,-5,-2,-2,-1,-1,6.43
1287,-3,-1,-2,0,2,0,-1,-1,6.4350000000000005
1288,-2,-2,2,-3,2,0,-2,-1,6.44
1289,1,-1,-2,1,-8,-1,1,0,6.445
1290,1,1,0,-1,0,-1,-1,0,6.45
1291,-1,2,0,-1,1,-1,0,-2,6.455
1292,-3,-8,-1,-3,-7,-2,0,0,6.46
1293,-2,-2,-2,4,4,-2,-1,-3,6.465
1294,1,-1,0,-2,-1,-1,-1,0,6.47
1295,-2,-5,-5,-2,-4,-2,-1,-1,6.4750000000000005
1296,2,5,8,4,2,2,0,0,6.48
1297,-1,-7,-17,-2,1,0,0,-2,6.485
1298,0,1,19,-4,-8,-1,-2,0,6.49
1299,-1,2,2,4,9,0,-1,-1,6.495
1300,-2,-2,-7,1,-2,-2,1,0,6.5
1301,1,2,-6,1,0,0,-2,1,6.505
1302,-1,0,-6,0,3,-2,-1,-1,6.51
1303,-1,-1,-1,-4,-11,0,-1,1,6.515000000000001
1304,-3,-1,-2,-1,-1,-2,-1,-2,6.5200000000000005
1305,0,1,2,0,-1,-1,0,-1,6.525
1306,-2,0,-4,-2,-6,-1,0,0,6.53
1307,-1,-2,0,0,0,-1,-1,-1,6.535
1308,0,-2,-2,-1,1,0,0,0,6.54
1309,-1,1,3,0,0,-1,1,1,6.545
1310,-1,-3,-4,0,2,-1,-1,-2,6.55
1311,0,4,-1,-2,0,0,-1,0,6.555
1312,-2,-6,-3,1,3,-2,-2,-2,6.5600000000000005
1313,-1,4,6,1,1,0,-2,2,6.565
1314,2,-1,-1,-3,-1,0,0,0,6.57
1315,-1,-3,-3,-3,-4,-3,-2,-1,6.575
1316,1,1,-2,-4,1,-1,0,-1,6.58
1317,0,0,-1,5,5,-1,0,-2,6.585
1318,-2,0,6,0,-1,-2,0,-2,6.59
1319,-1,-2,-10,-2,1,0,-1,-1,6.595
1320,1,3,-2,-5,-6,-1,-1,-2,6.6000000000000005
1321,-1,-1,9,1,1,0,-1,-2,6.605
1322,0,-2,-5,5,16,4,0,-1,6.61
1323,-1,0,11,0,-2,-4,-1,-1,6.615
1324,0,1,-2,1,6,2,1,1,6.62
1325,-1,1,1,-2,-2,-1,-1,-1,6.625
1326,-5,-8,-23,-3,-4,-2,-2,-1,6.63
1327,-2,1,0,-2,-3,-2,-2,1,6.635
1328,-1,-3,-2,1,0,-1,-1,0,6.640000000000001
1329,1,1,0,-4,-4,-3,-2,-2,6.6450000000000005
1330,0,-3,5,-2,-2,-1,1,-1,6.65
1331,-2,-2,-5,-1,-2,0,0,-3,6.655
1332,1,3,8,1,-4,-2,0,0,6.66
1333,-2,-4,-8,-3,0,-1,-1,-1,6.665
1334,0,2,1,-2,-2,0,-1,-1,6.67
1335,-1,-4,-2,1,1,1,0,-2,6.675
1336,-1,1,-1,-1,-1,-2,-2,0,6.68
1337,-1,-1,0,-1,-7,0,0,0,6.6850000000000005
1338,1,1,4,1,-2,-1,-1,0,6.69
1339,-1,0,-3,-2,-7,-1,-2,-1,6.695
1340,1,-2,1,3,9,0,-1,-2,6.7
1341,0,0,-16,-2,-1,0,1,1,6.705
1342,-1,2,10,-3,-3,-2,-2,-1,6.71
1343,0,-3,8,3,-1,0,0,-1,6.715
1344,-1,-3,-13,-4,-3,-1,-2,-1,6.72
1345,0,1,17,1,-2,-1,-1,-1,6.7250000000000005
1346,-1,-2,-8,-1,1,1,-1,2,6.73
1347,2,0,-2,4,11,1,0,0,6.735
1348,-1,1,0,-2,-6,-2,-2,0,6.74
1349,-1,-2,-8,-1,-2,-2,0,0,6.745
1350,0,0,-4,-2,-1,1,-3,0,6.75
1351,-2,-1,6,-2,0,0,-1,-2,6.755
1352,-1,-1,-1,1,1,-1,0,0,6.76
1353,-2,-1,-4,-2,0,-1,0,-3,6.765000000000001
1354,0,-1,-1,-4,-5,-3,0,-2,6.7700000000000005
1355,0,1,-8,-1,1,-3,-2,0,6.775
1356,-3,0,3,-1,3,0,-1,0,6.78
1357,0,1,4,0,-2,0,-1,2,6.785
1358,-2,-4,0,3,2,0,1,0,6.79
1359,-1,3,-3,-3,-1,-1,1,0,6.795
1360,-2,-5,-1,-2,-4,-2,0,1,6.8
1361,-1,-2,0,-4,-2,-3,-2,-1,6.805
1362,-1,1,3,-2,-5,-2,-1,-1,6.8100000000000005
1363,-1,-6,-3,1,-1,1,1,0,6.815
1364,-2,-2,0,0,-3,-2,-2,-3,6.82
1365,0,3,4,1,0,1,-1,1,6.825
1366,-1,-3,-2,0,-2,-2,-2,-1,6.83
1367,-1,-1,-9,-5,-7,-3,-1,-1,6.835
1368,1,0,3,3,1,1,-1,1,6.84
1369,-1,0,-1,-1,-1,-1,0,-2,6.845
1370,0,-3,-1,-1,-2,0,-1,-1,6.8500000000000005
1371,1,0,0,1,6,0,-2,-1,6.855
1372,-1,0,-5,-1,-3,-2,0,-1,6.86
1373,-2,-3,-5,0,2,1,0,-1,6.865
1374,-1,3,2,-3,-2,1,0,-3,6.87
1375,-1,1,4,-1,-2,-1,-2,-1,6.875
1376,1,-8,-6,-3,0,-1,-2,1,6.88
1377,-2,-1,-3,-3,-2,-2,0,0,6.885
1378,-1,1,4,-1,1,1,-1,0,6.890000000000001
1379,-1,-2,-3,-1,1,1,0,1,6.8950000000000005
1380,-1,2,4,-1,-2,-1,1,-2,6.9
1381,0,0,-3,-1,0,-2,-1,0,6.905
1382,-2,-11,-8,-3,-2,-4,-1,-1,6.91
1383,1,0,5,-2,-2,-2,-1,-1,6.915
1384,-1,1,-3,0,-1,-1,1,-1,6.92
1385,-1,-2,-1,0,2,0,0,-1,6.925
1386,0,0,0,1,0,0,-1,-1,6.93
1387,-2,-3,-2,-2,-2,0,-3,-2,6.9350000000000005
1388,2,0,0,0,-2,-1,-1,-1,6.94
1389,1,-2,1,0,-1,-1,-1,0,6.945
1390,-2,-2,0,-1,-1,0,0,1,6.95
1391,-1,3,-4,-2,2,-1,-1,0,6.955
1392,0,5,4,3,4,2,0,0,6.96
1393,-2,-5,-1,1,-6,-3,0,0,6.965
1394,-1,2,-12,-3,-1,1,-1,0,6.97
1395,0,-3,1,4,10,0,0,1,6.9750000000000005
1396,-1,-4,-8,-3,-1,0,-1,1,6.98
1397,-2,4,6,-2,-6,-1,-2,-1,6.985
1398,2,1,0,-2,2,1,1,0,6.99
1399,0,-5,1,6,-1,1,1,-4,6.995
1400,0,2,1,-3,-4,-1,-1,-2,7.0
1401,-1,-4,-6,-3,-1,2,-1,-2,7.005
1402,-1,-4,-1,-1,2,-2,0,-1,7.01
1403,-1,1,2,-8,-5,-2,-1,0,7.015000000000001
1404,0,0,1,4,-1,0,-1,1,7.0200000000000005
1405,0,11,0,1,1,-1,-1,-10,7.025
1406,1,-7,0,0,-2,-2,0,9,7.03
1407,1,1,-4,-3,-4,-1,1,3,7.035
1408,-6,-5,2,1,-2,-1,-3,-10,7.04
1409,0,-1,-3,-2,2,0,-2,-31,7.045
1410,0,4,8,4,0,-4,-5,23,7.05
1411,-1,-8,-5,-3,-1,1,-2,-26,7.055
1412,-6,-19,-4,-7,-3,-1,-3,39,7.0600000000000005
1413,4,-4,1,1,2,1,5,16,7.065
1414,-1,1,-5,-2,-3,-2,-1,-21,7.07
1415,0,-3,3,-1,-7,-4,-2,0,7.075
1416,-1,2,1,-3,-2,0,-1,-17,7.08
1417,-3,-1,-4,-2,3,1,0,-5,7.085
1418,3,-3,-1,-4,-4,-2,0,-1,7.09
1419,2,4,-6,-5,-6,-3,2,12,7.095
1420,-8,0,-8,-15,-6,-4,-7,-19,7.1000000000000005
1421,2,0,8,42,18,-1,-3,-5,7.105
1422,-1,1,-6,-7,4,0,-15,11,7.11
1423,-2,-1,-13,42,2,-5,30,-30,7.115
1424,9,12,9,-76,-6,16,-18,23,7.12
1425,1,-8,18,55,15,-2,20,10,7.125
1426,-56,-3,-5,-48,-19,10,-35,82,7.13
1427,-1,-1,2,77,27,19,31,6,7.135
1428,18,5,-3,1,9,1,-5,7,7.140000000000001
1429,42,-2,-27,-16,-6,-2,4,-24,7.1450000000000005
1430,-60,4,12,-52,-17,-7,1,-18,7.15
1431,17,-20,-5,-20,-13,-9,-46,-86,7.155
1432,-13,13,9,26,-10,-9,-33,-117,7.16
1433,-1,-9,-14,-25,-11,3,20,102,7.165
1434,42,17,-12,6,15,-10,18,86,7.17
1435,-10,7,23,64,26,6,23,45,7.175
1436,13,2,22,84,22,10,34,22,7.18
1437,-7,-6,-15,-92,-25,-15,-43,-44,7.1850000000000005
1438,9,5,-7,6,-18,2,3,-77,7.19
1439,-26,-24,-6,-2,-7,1,-4,-16,7.195
1440,79,14,23,-26,18,2,9,-13,7.2
1441,-29,-3,-1,36,-7,2,-14,-10,7.205
1442,-59,-29,5,40,-10,-26,4,-117,7.21
1443,70,24,8,-30,-3,2,-34,-17,7.215
1444,-21,-14,-50,-73,-11,7,13,-17,7.22
1445,104,4,10,53,18,12,36,101,7.2250000000000005
1446,0,3,37,-32,4,7,10,20,7.23
1447,-33,18,18,-18,-5,-22,-21,-5,7.235
1448,-47,-17,-51,-38,-21,-6,-2,-22,7.24
1449,-58,7,19,22,36,9,-10,-85,7.245
1450,37,-13,28,49,-8,28,15,37,7.25
1451,-79,-10,-69,-113,-35,-23,0,-55,7.255
1452,26,7,21,40,9,-4,2,66,7.26
1453,1,7,27,79,15,-3,-5,-8,7.265000000000001
1454,49,-4,-20,28,4,-1,-3,-16,7.2700000000000005
1455,17,21,23,-78,4,32,13,67,7.275
1456,-49,-42,-65,-74,-45,-36,-7,-65,7.28
1457,9,2,-3,-11,-2,3,12,36,7.285
1458,18,10,0,-13,1,-8,-17,21,7.29
1459,14,-13,2,25,14,7,26,58,7.295
1460,-14,12,32,33,2,4,-33,-62,7.3
1461,-1,-3,-8,-33,4,-2,-11,-55,7.305
1462,-37,14,-12,27,-4,-1,10,-18,7.3100000000000005
1463,24,-2,34,66,14,12,24,86,7.315
1464,21,25,16,-16,8,-8,7,54,7.32
1465,-15,-14,7,-6,-6,-2,-7,-21,7.325
1466,23,-9,-24,-82,-16,-2,-35,-128,7.33
1467,-24,-6,-28,40,3,-22,4,98,7.335
1468,-27,-12,0,-37,-14,0,24,40,7.34
1469,-32,-3,-35,-71,-12,5,6,32,7.345
1470,20,5,21,20,28,6,26,-16,7.3500000000000005
1471,68,5,0,38,-8,4,-23,-73,7.355
1472,-26,22,39,57,8,-3,-28,-33,7.36
1473,28,13,-3,-62,-27,-4,-18,-47,7.365
1474,-22,11,-8,11,-23,-19,-7,29,7.37
1475,69,11,34,32,29,7,-12,-40,7.375
1476,-15,-21,-28,-9,-16,-1,21,48,7.38
1477,-6,4,-42,21,-22,-15,-4,-29,7.385
1478,11,29,68,46,-21,-27,-11,-2,7.390000000000001
1479,-18,-21,0,33,5,11,-8,9,7.3950000000000005
1480,72,7,17,26,17,9,4,-48,7.4
1481,-74,-16,-18,9,-10,1,-10,-6,7.405
1482,25,-23,-17,33,32,7,26,114,7.41
1483,21,18,-16,-128,-8,-7,-3,-111,7.415
1484,-20,12,58,47,-5,-3,-18,17,7.42
1485,22,-16,-40,-46,-12,18,6,-42,7.425
1486,-40,-8,0,-11,44,-11,1,-41,7.43
1487,10,-18,17,12,-43,-15,-56,-81,7.4350000000000005
1488,-12,-1,-9,31,11,4,15,73,7.44
1489,32,20,13,-60,-20,-4,9,-15,7.445
1490,-96,-21,-10,63,17,13,10,-21,7.45
1491,28,-8,15,40,26,17,22,5,7.455
1492,-32,-3,-38,-107,-20,-30,-4,-10,7.46
1493,-18,-1,43,41,6,4,1,23,7.465
1494,82,-14,-88,-128,-37,-2,-8,-54,7.47
1495,-21,20,63,63,17,0,11,29,7.4750000000000005
1496,-41,-15,-21,-46,-40,-5,-2,60,7.48
1497,20,0,48,50,37,30,22,28,7.485
1498,9,-16,-36,-60,-33,-17,-24,-25,7.49
1499,-87,21,-25,-51,-8,-2,4,-78,7.495
1500,46,12,54,40,36,16,8,-12,7.5
1501,-34,-17,-20,32,4,-7,2,32,7.505
1502,-15,-3,39,-25,-21,-1,-21,-41,7.51
1503,4,26,-3,10,-36,-18,0,90,7.515000000000001
1504,14,-35,-56,54,28,19,17,-112,7.5200000000000005
1505,67,37,44,30,-9,-18,-30,-75,7.525
1506,-2,-17,-49,4,19,7,18,64,7.53
1507,-36,1,-42,-117,-38,13,12,45,7.535
1508,-40,3,65,73,33,-18,-21,-45,7.54
1509,67,10,-25,-9,-23,-28,-4,85,7.545
1510,-8,-1,-16,-16,37,16,-8,-75,7.55
1511,4,-25,-23,-17,-7,-8,3,53,7.555
1512,-18,10,-17,-91,-35,-2,12,-38,7.5600000000000005
1513,-32,-14,39,64,41,-3,-14,12,7.565
1514,84,45,43,8,-25,0,18,99,7.57
1515,-72,-23,12,-8,34,5,-11,-53,7.575
1516,36,31,6,91,10,6,-39,-80,7.58
1517,-54,-63,-95,61,49,9,29,-5,7.585
1518,57,33,68,-98,-30,-7,10,106,7.59
1519,0,-32,-59,-55,-45,-7,-6,-36,7.595
1520,-35,33,27,13,24,10,6,1,7.6000000000000005
1521,55,-35,43,11,-5,0,-6,-5,7.605
1522,-82,-5,-46,46,1,8,4,-13,7.61
1523,86,16,22,89,5,-13,5,27,7.615
1524,13,-9,4,-70,0,-1,1,103,7.62
1525,-76,15,-39,-1,-5,0,-17,-102,7.625
1526,66,-14,3,-29,-20,2,-1,-19,7.63
1527,-14,4,2,-47,1,-3,-14,-36,7.635
1528,30,-4,-36,-12,-15,-12,-13,-17,7.640000000000001
1529,-25,14,59,36,14,17,14,61,7.6450000000000005
1530,-20,-11,6,0,-12,-1,2,13,7.65
1531,-35,-11,27,77,79,7,4,-39,7.655
1532,46,17,12,-54,-50,-4,-9,9,7.66
1533,-10,-2,-77,-50,-17,-4,3,55,7.665
1534,-78,-4,-16,-13,4,-3,-25,-96,7.67
1535,30,-18,-47,-22,-38,-20,0,52,7.675
1536,28,-2,43,109,41,11,18,42,7.68
1537,44,20,9,-128,-26,-17,-14,-78,7.6850000000000005
1538,-82,-26,11,127,42,15,18,59,7.69
1539,55,-32,-30,-24,13,18,19,-18,7.695
1540,-17,10,31,32,-18,-32,-14,-62,7.7
1541,-18,28,-10,-74,-15,4,-19,2,7.705
1542,16,13,5,40,-3,2,9,99,7.71
1543,79,35,31,52,16,-4,-25,-15,7.715
1544,-98,-70,-89,-2,5,7,-13,8,7.72
1545,20,50,91,-59,-40,-14,2,-32,7.7250000000000005
1546,-16,-21,-3,-28,20,10,12,22,7.73
1547,-26,-21,-77,7,-6,9,9,27,7.735
1548,41,29,95,70,15,2,16,50,7.74
1549,-28,-39,-128,90,11,-22,9,-19,7.745
1550,64,13,28,-106,-18,12,-15,-44,7.75
1551,-47,-14,15,-22,-33,-42,-31,-29,7.755
1552,83,1,-73,-103,-25,8,28,-22,7.76
1553,-19,-2,65,72,46,23,-2,-22,7.765000000000001
1554,55,1,34,19,-3,5,16,48,7.7700000000000005
1555,-95,22,-7,-64,-32,-13,-16,-69,7.775
1556,40,-32,-44,28,11,1,-2,65,7.78
1557,-13,9,47,23,-7,0,-6,-4,7.785
1558,-45,-15,-50,-5,7,0,17,19,7.79
1559,93,13,51,-31,20,15,-4,-4,7.795
1560,-29,27,-43,-88,-73,-16,18,71,7.8
1561,-12,-18,36,60,51,10,-8,-46,7.805000000000001
1562,98,35,28,38,16,-6,-21,-27,7.8100000000000005
1563,-104,-36,-40,-38,-34,-1,8,-12,7.815
1564,-59,-45,-56,-24,29,16,6,-64,7.82
1565,-4,-19,-22,-80,-33,-7,12,77,7.825
1566,37,-1,-7,-64,-56,-38,-24,-69,7.83
1567,-46,11,21,70,63,18,20,35,7.835
1568,48,-6,-62,-5,-18,6,-6,-3,7.84
1569,-31,15,51,-1,13,-3,-14,16,7.845
1570,-4,-23,-42,13,13,-4,-20,-80,7.8500000000000005
1571,116,38,12,-26,-16,23,25,85,7.855
1572,-72,-16,5,14,-3,-29,9,-13,7.86
1573,74,-15,-37,24,-7,-1,6,85,7.865
1574,-47,4,76,127,32,2,-27,-25,7.87
1575,67,55,-18,-54,-23,-1,2,-60,7.875
1576,-96,-16,3,-52,-1,9,4,33,7.88
1577,3,15,1,-44,-8,-1,-1,-78,7.885
1578,6,5,3,6,-9,-5,9,20,7.890000000000001
1579,-30,-13,29,62,2,-5,-6,34,7.8950000000000005
1580,54,12,-6,-41,35,16,2,42,7.9
1581,6,-3,-128,-83,-58,-15,-1,-31,7.905
1582,-43,-2,67,31,-3,-18,-13,-24,7.91
1583,-8,4,56,41,13,18,10,13,7.915
1584,53,16,37,21,12,-5,-13,-26,7.92
1585,-8,16,4,-13,-13,6,20,30,7.925
1586,-42,-37,-76,42,-1,-4,-7,38,7.930000000000001
1587,-41,-7,18,37,-21,-2,25,51,7.9350000000000005
1588,-14,12,3,28,-2,-4,-30,-59,7.94
1589,11,-27,24,-13,13,-1,-5,5,7.945
1590,25,39,-18,-54,-16,5,9,-59,7.95
1591,-2,-30,2,-46,6,-10,-10,-22,7.955
1592,-44,-13,15,21,14,12,9,-7,7.96
1593,-19,7,-17,-19,-9,1,6,-1,7.965
1594,-10,-10,-38,-73,-6,-6,3,2,7.97
1595,16,9,20,18,-12,-5,-2,5,7.9750000000000005
1596,23,11,9,72,70,18,-4,2,7.98
1597,20,17,15,17,-11,-4,0,18,7.985
1598,-38,-22,-9,-42,9,5,-1,-9,7.99
1599,25,15,-10,5,-15,-11,-9,-10,7.995
1600,-41,-23,20,-89,-51,-5,4,-18,8.0
1601,-4,-5,31,26,30,1,-9,4,8.005
1602,9,16,-42,-3,-7,0,2,-10,8.01
1603,-32,-32,-39,-57,-5,-5,-13,-57,8.015
1604,23,18,18,37,-10,-4,9,74,8.02
1605,-10,-22,-5,-6,-4,1,2,-13,8.025
1606,-6,22,25,-15,-6,2,-4,9,8.03
1607,-9,-13,-21,-10,-2,-8,1,-17,8.035
1608,13,3,8,2,3,2,-2,0,8.040000000000001
1609,-11,-18,8,27,-2,1,1,2,8.045
1610,22,-1,5,67,17,4,1,8,8.05
1611,-14,11,-7,26,1,1,-4,12,8.055
1612,11,-14,-8,46,4,-2,-1,-16,8.06
1613,4,22,-6,-56,-15,0,1,8,8.065
1614,5,-20,28,61,38,8,8,5,8.07
1615,43,-7,-44,-55,-2,-6,-6,29,8.075
1616,-36,3,36,-39,0,-3,-6,-48,8.08
1617,-4,-20,-16,-17,-8,-7,-10,-25,8.085
1618,-5,7,0,-12,-4,-1,3,-24,8.09
1619,-12,1,-11,-40,-4,-1,2,37,8.095
1620,51,14,-7,-27,-5,-2,8,-1,8.1
1621,-6,-9,12,17,4,1,-3,31,8.105
1622,5,-2,-8,-18,-2,4,11,14,8.11
1623,-26,-12,3,10,3,-3,-10,-21,8.115
1624,3,-9,-9,-3,-5,-1,-1,0,8.120000000000001
1625,2,36,16,2,5,3,2,-13,8.125
1626,16,-16,-15,-18,-11,-3,5,23,8.13
1627,-1,2,-4,1,2,1,2,10,8.135
1628,-14,-7,8,16,-4,-5,-7,-11,8.14
1629,-1,1,-8,-12,3,-1,-1,-7,8.145
1630,3,7,2,-3,-9,2,5,11,8.15
1631,-11,1,2,11,-3,-4,-3,-5,8.155
1632,8,0,-6,4,-5,1,-1,-3,8.16
1633,2,-6,7,25,6,4,1,3,8.165000000000001
1634,-6,3,-7,-8,-9,-4,-6,-2,8.17
1635,-11,-7,5,11,8,1,-2,-10,8.175
1636,5,7,-5,-9,-7,-1,3,10,8.18
1637,7,5,3,-5,0,1,5,14,8.185
1638,-21,-18,2,1,7,0,-5,-11,8.19
1639,-17,-12,-4,-1,-3,-3,-10,-20,8.195
1640,22,4,-7,-8,-8,1,4,15,8.2
1641,5,3,1,12,18,5,6,10,8.205
1642,7,6,-1,-7,-3,2,2,2,8.21
1643,1,1,1,2,3,-2,0,4,8.215
1644,8,4,1,-2,-4,-4,-1,5,8.22
1645,-2,-9,-3,-10,-9,-4,-1,-4,8.225
1646,-3,-2,-7,-15,-6,0,-2,-1,8.23
1647,-10,-7,-1,20,17,0,-5,-8,8.235
1648,-8,-3,3,7,3,2,-3,-6,8.24
1649,0,0,-1,-10,-11,-3,-1,-2,8.245000000000001
1650,0,-4,-8,4,6,-1,-2,-1,8.25
1651,0,6,2,1,-7,0,0,-1,8.255
1652,1,-2,-4,-5,-6,-4,-2,-2,8.26
1653,-2,-3,-1,12,7,-1,-2,0,8.265
1654,-2,3,0,1,-5,-1,-2,-3,8.27
1655,3,1,3,-2,-4,0,-1,-1,8.275
1656,1,0,-4,4,7,3,-2,-2,8.28
1657,-4,-6,-4,-15,-14,-3,-2,-2,8.285
1658,-1,5,1,5,14,2,3,0,8.290000000000001
1659,8,7,1,-3,-1,-1,0,1,8.295
1660,-8,0,-1,-2,-1,0,-2,-5,8.3
1661,-1,4,-2,7,-3,-2,-1,-1,8.305
1662,2,4,0,-2,1,0,0,3,8.31
1663,0,-2,-2,-5,-9,0,0,3,8.315
1664,-8,-13,-5,-2,2,-1,0,-1,8.32
1665,-3,-15,-5,-12,-2,0,0,-2,8.325
1666,0,5,0,4,-1,0,-1,-2,8.33
1667,2,4,3,0,-7,-2,1,2,8.335
1668,2,4,3,12,14,4,2,1,8.34
1669,0,0,2,1,1,0,2,0,8.345
1670,-2,1,-5,-8,-10,-6,-4,-2,8.35
1671,1,-8,3,1,5,0,-3,-2,8.355
1672,-3,11,1,3,-9,-1,-2,-2,8.36
1673,-2,8,-7,-1,4,1,-2,-2,8.365
1674,1,5,-1,-4,1,-1,0,1,8.370000000000001
1675,-4,3,-1,1,3,1,-2,-2,8.375
1676,1,0,3,0,-1,-2,-2,1,8.38
1677,1,0,1,-3,-3,-1,-1,-1,8.385
1678,-2,-4,-3,1,-9,0,0,0,8.39
1679,0,4,0,-1,1,-1,0,-1,8.395
1680,-1,-6,-1,0,-4,-3,-2,-2,8.4
1681,-1,1,0,-1,-1,-1,-1,-1,8.405
1682,0,-3,-2,5,9,1,2,-2,8.41
1683,-5,-2,0,-6,-7,-2,-2,-3,8.415000000000001
1684,1,-3,-4,-1,4,-1,-2,-2,8.42
1685,-3,-3,0,7,9,0,-1,0,8.425
1686,1,1,2,0,-3,1,1,-1,8.43
1687,-2,0,-1,-1,-2,0,0,-2,8.435
1688,-1,-1,-3,-14,-14,-2,-1,-2,8.44
1689,1,0,4,1,-1,0,0,-1,8.445
1690,-2,-4,-3,11,-4,-2,0,-2,8.45
1691,-3,-4,0,2,6,0,-2,-1,8.455
1692,3,-1,-1,-3,-1,-1,-2,0,8.46
1693,-2,-7,1,-2,-3,-1,-1,-1,8.465
1694,-2,4,-3,-11,-10,-2,-1,-1,8.47
1695,2,2,-1,0,-2,-1,-1,1,8.475
1696,-1,-3,-1,5,-1,-1,0,-1,8.48
1697,0,2,2,1,4,2,-2,-1,8.485
1698,0,1,0,0,5,1,-2,-1,8.49
1699,-3,-1,-2,1,-1,1,0,-1,8.495000000000001
1700,-1,2,1,-3,3,1,-2,1,8.5
1701,1,2,-2,-7,-16,-2,0,-1,8.505
1702,-5,-3,-5,2,4,0,0,-1,8.51
1703,0,6,1,2,3,0,-2,0,8.515
1704,1,-1,-1,0,-1,-1,0,-3,8.52
1705,2,1,-4,1,-5,-1,0,0,8.525
1706,1,-4,2,1,1,0,0,0,8.53
1707,-1,1,-2,-5,-7,-4,-2,-1,8.535
1708,0,0,1,2,3,-2,-1,0,8.540000000000001
1709,-1,0,2,1,0,-1,-3,-1,8.545
1710,2,-5,-5,-7,-6,-2,-1,3,8.55
1711,-2,-5,-1,7,5,-1,0,-2,8.555
1712,0,-1,-2,-8,-5,-4,-2,-1,8.56
1713,-5,-1,-1,-13,-10,-2,-3,-1,8.565
1714,1,-8,2,28,25,6,3,0,8.57
1715,-2,-1,-2,-6,-7,-1,-1,0,8.575000000000001
1716,-2,-1,-3,3,-3,-1,-1,1,8.58
1717,-1,-2,-2,-7,0,0,0,-4,8.585
1718,-4,0,0,-17,-18,-6,-4,-3,8.59
1719,0,-2,-3,6,-3,-1,-1,-1,8.595
1720,0,0,0,2,3,2,0,-2,8.6
1721,-1,-2,-1,0,-1,-1,-2,1,8.605
1722,0,0,-1,-4,-5,-3,-3,1,8.61
1723,-1,0,0,0,2,1,1,0,8.615
1724,0,0,0,-3,-4,-1,-1,1,8.620000000000001
1725,-2,-4,-1,7,3,1,1,0,8.625
1726,0,3,1,-4,-1,1,0,-1,8.63
1727,-1,0,-1,-4,-2,-1,-1,1,8.635
1728,-1,-3,-1,0,-1,0,-2,-1,8.64
1729,1,-1,-2,2,7,0,0,-1,8.645
1730,-1,1,0,-2,-10,-1,-2,0,8.65
1731,0,-2,2,-4,1,0,-2,-2,8.655
1732,0,-1,-1,2,-2,0,-1,0,8.66
1733,0,-2,-2,2,1,0,1,-1,8.665000000000001
1734,-2,0,1,-3,-2,-2,0,-1,8.67
1735,0,2,0,5,16,5,1,2,8.675
1736,-1,1,-1,-1,-6,-3,-4,-2,8.68
1737,-7,-12,-2,-2,-2,-1,-1,-1,8.685
1738,-3,-7,-8,-5,-5,-1,-1,-2,8.69
1739,-1,-1,1,0,-2,0,0,0,8.695
1740,0,2,1,-2,0,0,0,0,8.700000000000001
1741,3,7,2,-1,1,-1,-2,2,8.705
1742,0,-1,1,0,1,-2,0,-3,8.71
1743,1,-1,-2,-4,-4,-2,-2,-2,8.715
1744,0,0,1,1,-4,0,1,0,8.72
1745,0,-2,-3,0,-1,-2,-2,-2,8.725
1746,-1,-1,2,0,3,0,-1,-1,8.73
1747,-1,-3,-2,-7,-7,-3,-1,0,8.735
1748,-1,4,0,3,9,1,0,1,8.74
1749,0,-1,-2,5,0,-1,0,-1,8.745000000000001
1750,-1,-1,-3,-16,-10,-5,-2,-3,8.75
1751,-1,-1,0,12,5,1,0,0,8.755
1752,-3,-6,-2,3,9,3,1,-1,8.76
1753,1,0,-1,4,6,1,0,-1,8.765
1754,-1,2,-3,-9,-8,-2,-2,-2,8.77
1755,-1,-1,-1,2,7,-2,1,0,8.775
1756,-2,-3,-2,-2,-6,-1,1,0,8.78
1757,2,1,2,-2,-1,0,-1,-1,8.785
1758,2,0,-1,0,1,-1,-2,-1,8.790000000000001
1759,0,-1,-2,-4,-4,0,0,-1,8.795
1760,1,-2,-1,-1,3,-2,-1,-1,8.8
1761,-1,-2,0,-3,-4,-1,2,-1,8.805
1762,-1,0,0,4,3,0,0,1,8.81
1763,0,-1,-2,-4,-5,-3,-1,-1,8.815
1764,-1,0,-1,0,-2,0,0,-2,8.82
1765,-2,-1,-1,-2,-4,-3,-2,-2,8.825000000000001
1766,-1,-2,-1,4,2,2,0,0,8.83
1767,-1,-2,0,1,0,0,-1,-1,8.835
1768,0,-2,0,-2,-5,-1,-2,-1,8.84
1769,0,-1,-4,-3,-5,-2,-3,0,8.845
1770,-1,-2,-1,0,-7,-3,-3,0,8.85
1771,0,0,2,-10,-7,-1,-1,0,8.855
1772,0,-2,1,13,19,3,1,0,8.86
1773,1,3,1,-1,1,0,0,-1,8.865
1774,-2,-1,-2,-1,-4,0,-1,-2,8.870000000000001
1775,-2,-3,-3,-5,-6,-3,-2,-2,8.875
1776,-1,0,0,-5,-5,-2,-2,-2,8.88
1777,-1,0,0,-4,-4,-2,-3,-2,8.885
1778,0,1,2,6,9,4,-1,0,8.89
1779,-3,-2,-2,-3,-5,-4,-2,-1,8.895
1780,1,2,-1,-3,-4,-2,-1,-1,8.9
1781,-2,4,0,0,0,1,0,1,8.905
1782,-3,-11,-5,-2,-5,-2,-2,-4,8.91
1783,-1,-1,-1,1,1,0,-1,0,8.915000000000001
1784,-2,-4,-2,-4,-3,-1,0,1,8.92
1785,-1,-5,-1,-2,-1,0,0,-1,8.925
1786,3,6,-2,2,2,0,-1,1,8.93
1787,-6,-6,-3,-1,-5,-2,-1,-2,8.935
1788,0,0,-1,-4,-10,-3,0,-1,8.94
1789,-1,0,2,13,22,6,1,0,8.945
1790,0,-3,0,0,-1,-3,0,1,8.950000000000001
1791,2,3,0,-8,-6,-1,0,-2,8.955
1792,-1,-1,0,5,3,3,0,0,8.96
1793,-1,-2,-2,-6,-10,-2,-2,0,8.965
1794,-2,1,-2,-1,1,-2,-1,-1,8.97
1795,2,2,-1,1,4,0,1,-1,8.975
1796,-2,-2,-1,-4,-6,-3,0,-1,8.98
1797,-2,-2,-1,0,-3,-2,0,-1,8.985
1798,-1,0,0,0,2,1,-1,0,8.99
1799,0,-1,0,1,-3,0,-1,-2,8.995000000000001
1800,-3,-4,-3,-6,-7,-1,-2,-1,9.0
1801,-2,-4,-3,3,4,0,1,-1,9.005
1802,-1,1,1,-2,0,0,1,-1,9.01
1803,0,-2,0,2,1,0,0,0,9.015
1804,0,0,-2,-3,2,-1,0,0,9.02
1805,0,-1,-2,-3,-1,-2,-1,-1,9.025
1806,-3,-2,1,-3,-2,-2,0,-1,9.03
1807,1,9,-1,-1,-8,-2,-1,0,9.035
1808,-4,-16,-3,2,4,1,0,-2,9.040000000000001
1809,-1,0,0,-5,-12,-3,-1,-1,9.045
1810,-1,-2,-1,5,5,0,-1,0,9.05
1811,-1,-1,0,3,6,2,0,0,9.055
1812,0,1,-2,1,-4,0,-1,1,9.06
1813,-1,-2,-1,0,1,0,-2,-2,9.065
1814,-1,-3,-3,-6,-4,-2,-1,-2,9.07
1815,-2,-5,-5,-4,-6,-2,-2,-3,9.075000000000001
1816,1,2,1,4,12,2,-1,-2,9.08
1817,0,-2,0,1,-6,1,0,-2,9.085
1818,-1,1,2,-1,-7,-2,0,-1,9.09
1819,-2,-3,-1,-3,3,-1,-1,1,9.095
1820,0,1,0,5,6,1,-3,0,9.1
1821,1,1,-2,-2,-10,-4,-2,0,9.105
1822,-1,-1,-1,-7,-7,-2,-1,-1,9.11
1823,-1,-3,-1,1,2,0,0,-1,9.115
1824,0,2,0,-5,-9,-3,-2,-1,9.120000000000001
1825,-2,0,0,-2,6,0,-1,0,9.125
1826,-2,-3,-3,4,1,-1,0,-2,9.13
1827,0,-3,0,-2,-4,-2,-1,-1,9.135
1828,0,0,-1,2,1,-3,-2,-2,9.14
1829,0,0,-1,1,-2,0,0,-2,9.145
1830,0,0,0,1,-1,-1,-2,-2,9.15
1831,-2,0,-2,3,4,0,-2,-1,9.155
1832,0,-3,-2,-7,-8,-2,0,0,9.16
1833,-1,-1,-3,-4,-2,-2,-2,-2,9.165000000000001
1834,1,-1,2,5,5,3,4,2,9.17
1835,2,4,0,-4,2,1,0,-1,9.175
1836,2,2,3,2,7,1,1,1,9.18
1837,-1,-3,-1,-6,-5,-2,0,-1,9.185
1838,-3,-1,0,1,-6,-3,-2,0,9.19
1839,-1,0,2,-1,0,3,0,0,9.195
1840,-1,-1,1,0,1,-1,1,-1,9.200000000000001
1841,-1,0,-1,7,12,1,-3,-1,9.205
1842,0,1,-1,-5,-4,-2,-1,-1,9.21
1843,3,4,-1,-1,-3,-3,1,0,9.215
1844,-6,-16,-6,-2,-2,-2,-3,-2,9.22
1845,-2,1,2,-12,-11,-3,-1,-2,9.225
1846,0,-1,-2,3,5,1,0,-1,9.23
1847,-1,-2,-3,-1,-2,0,0,-1,9.235
1848,5,9,2,-2,3,0,1,0,9.24
1849,-1,-7,-3,2,-2,-2,0,-2,9.245000000000001
1850,0,3,-2,-3,-1,-1,-1,0,9.25
1851,0,0,-2,-1,-2,-2,0,-1,9.255
1852,-3,-5,-2,-1,-3,0,-1,-1,9.26
1853,-3,2,0,1,1,1,-2,1,9.265
1854,-1,0,-2,-1,3,-2,-2,-2,9.27
1855,-1,-3,0,0,0,-1,0,0,9.275
1856,1,3,0,-3,0,-2,-1,-1,9.28
1857,1,-2,0,0,3,0,1,1,9.285
1858,-2,-1,-2,-1,-8,-3,-2,-2,9.290000000000001
1859,-2,-2,-1,1,8,4,0,-2,9.295
1860,-2,0,-1,-2,-6,-1,-1,1,9.3
1861,0,-1,0,-1,-3,-2,-1,-1,9.305
1862,-1,3,0,-11,-1,-1,-3,-3,9.31
1863,1,-2,-1,2,-1,0,1,0,9.315
1864,-1,0,3,14,11,3,1,0,9.32
1865,-2,0,-1,-3,-3,-2,1,-1,9.325000000000001
1866,-2,-3,-3,2,1,-1,-2,-1,9.33
1867,-3,-1,0,-7,-3,-2,-2,-2,9.335
1868,0,3,1,-5,-12,-1,1,1,9.34
1869,-1,1,0,4,1,0,0,-1,9.345
1870,0,-2,1,-3,0,-1,-1,-1,9.35
1871,2,3,-1,3,3,-2,-2,-1,9.355
1872,-2,-6,-1,-1,-2,0,-1,-2,9.36
1873,-3,0,-2,-2,-2,-1,-1,0,9.365
1874,1,0,-1,2,10,1,1,1,9.370000000000001
1875,-1,-6,-3,0,-3,-1,-1,0,9.375
1876,-1,2,1,-1,1,0,-1,-1,9.38
1877,1,1,-3,-2,-4,-1,-1,1,9.385
1878,-2,-2,0,-1,0,-2,0,1,9.39
1879,-1,1,-2,-1,-3,-2,1,-3,9.395
1880,-1,2,-1,0,4,-1,4,-3,9.4
1881,-3,-1,-3,-6,1,0,0,-1,9.405
1882,-1,1,1,7,-5,-1,-1,-1,9.41
1883,-3,-1,0,-3,-6,-1,-3,1,9.415000000000001
1884,-1,-2,-3,-4,-3,0,-2,-1,9.42
1885,0,1,1,6,7,-1,-1,-2,9.425
1886,2,-7,0,-2,-1,-2,-1,0,9.43
1887,-3,12,-2,-9,-9,-2,-3,-1,9.435
1888,-1,0,-2,8,7,0,-3,0,9.44
1889,1,-1,0,-1,-6,-2,-2,0,9.445
1890,-2,1,-2,-3,1,-1,-2,-2,9.450000000000001
1891,2,0,1,2,1,-1,-1,0,9.455
1892,1,1,-1,-8,-9,-1,-3,-1,9.46
1893,-1,-1,0,-1,3,0,-2,-1,9.465
1894,-1,-1,-1,2,2,0,-1,0,9.47
1895,0,-6,-2,-1,-2,0,-1,-1,9.475
1896,0,0,-2,-3,-3,-2,0,-2,9.48
1897,0,-2,0,1,-1,0,0,1,9.485
1898,-1,0,-1,-5,-13,-1,0,-1,9.49
1899,0,-2,0,1,6,0,0,-1,9.495000000000001
1900,0,-2,-1,-2,1,0,-1,0,9.5
1901,-1,0,-1,-1,1,-1,0,-1,9.505
1902,-2,0,-2,-7,-3,-2,0,0,9.51
1903,-1,-4,-1,4,-5,-1,0,0,9.515
1904,0,1,0,0,5,0,0,0,9.52
1905,-1,-2,-3,-2,-6,-2,-1,-1,9.525
1906,-1,1,0,0,2,0,-1,-2,9.53
1907,-1,-2,2,-4,-3,-3,-1,1,9.535
1908,0,-1,-1,0,-3,0,-1,-1,9.540000000000001
1909,1,3,0,2,2,1,-1,-1,9.545
1910,-5,-11,-4,-2,-2,-2,-1,-1,9.55
1911,1,-2,-1,-3,-5,0,0,-1,9.555
1912,1,2,0,-4,2,-3,-1,0,9.56
1913,-2,-1,-3,9,9,0,-1,-1,9.565
1914,1,4,2,-1,-8,-1,2,-1,9.57
1915,0,-3,1,2,1,-1,0,0,9.575000000000001
1916,-1,-3,-1,-7,-13,-3,-1,1,9.58
1917,0,0,1,-3,6,2,0,1,9.585
1918,0,1,-2,1,4,0,0,-1,9.59
1919,-2,0,-1,2,2,-1,-1,-1,9.595
1920,0,-3,-1,-3,-8,0,0,-1,9.6
1921,-2,-1,0,-3,-5,-2,-1,-1,9.605
1922,0,0,-2,4,0,1,-1,0,9.61
1923,-1,13,0,-4,0,0,-2,0,9.615
1924,-3,-5,-3,-1,5,-1,-1,-3,9.620000000000001
1925,1,0,1,7,-4,-1,-1,-3,9.625
1926,0,-1,-1,-1,3,-2,-1,-1,9.63
1927,1,2,0,2,5,1,0,0,9.635
1928,-2,-2,0,-2,-16,-3,-1,1,9.64
1929,-2,-1,-1,-5,2,1,0,1,9.645
1930,-1,1,-1,-3,-4,-1,-1,1,9.65
1931,0,-4,-2,1,4,0,0,0,9.655
1932,-1,-2,-2,1,0,-2,0,-1,9.66
1933,-1,-5,-1,-4,1,-2,0,-1,9.665000000000001
1934,1,2,0,-3,-4,-2,-1,0,9.67
1935,-3,-4,0,-1,0,1,0,0,9.675
1936,0,1,1,0,-4,1,0,0,9.68
1937,0,1,-2,5,8,-1,0,-1,9.685
1938,0,0,-3,-1,6,2,-1,-1,9.69
1939,0,-4,-1,-1,-4,-1,-1,-2,9.695
1940,1,1,-2,-1,1,-2,-4,-2,9.700000000000001
1941,-2,0,-1,-8,-12,-4,-2,-3,9.705
1942,-1,-2,-1,-1,-2,-1,-2,-2,9.71
1943,-1,-6,-1,4,0,-1,-1,1,9.715
1944,1,1,-2,-4,0,-1,-2,1,9.72
1945,1,-3,0,2,1,0,0,-1,9.725
1946,-2,-3,-4,0,3,1,0,-2,9.73
1947,1,1,-1,-8,-6,0,0,-1,9.735
1948,-1,1,2,5,9,0,0,-1,9.74
1949,-2,-3,-3,-4,-8,-3,-2,1,9.745000000000001
1950,1,2,2,1,7,2,-1,-1,9.75
1951,-2,-1,-3,-1,0,-1,-1,-1,9.755
1952,-2,-2,0,0,0,1,1,0,9.76
1953,-2,-1,-3,-7,-2,-2,-1,-2,9.765
1954,-3,-1,-1,-2,-10,-5,-2,-1,9.77
1955,-2,-2,1,1,3,-1,0,-1,9.775
1956,-1,1,-2,2,2,0,1,-1,9.78
1957,-3,-1,-1,0,-5,-1,-2,0,9.785
1958,-1,-1,-1,-1,-1,-3,-1,-2,9.790000000000001
1959,-1,-2,-1,-1,2,-2,1,0,9.795
1960,-1,-1,-1,0,-7,-2,1,-1,9.8
1961,0,0,-2,-5,-1,-1,0,-1,9.805
1962,0,-2,-1,0,-3,0,0,-2,9.81
1963,-1,-2,-3,-2,-2,-1,-2,-3,9.815
1964,0,0,1,1,10,4,1,0,9.82
1965,-1,-1,-5,3,-5,-1,-2,0,9.825000000000001
1966,0,0,0,-3,2,-1,1,1,9.83
1967,0,-1,-1,-6,0,-2,-2,0,9.835
1968,-2,-3,-2,10,4,1,0,-3,9.84
1969,1,-1,0,-12,-6,-3,0,-2,9.845
1970,2,-3,-1,8,3,0,0,1,9.85
1971,5,0,0,-9,-12,-4,0,0,9.855
1972,3,1,1,8,22,6,0,1,9.86
1973,-2,-1,-1,-1,-1,-1,-2,-1,9.865
1974,-5,0,-1,-2,-5,-2,0,-3,9.870000000000001
1975,-4,0,0,2,0,1,-1,-1,9.875
1976,-4,-2,-1,-7,-8,-4,-1,-1,9.88
1977,-3,0,-2,0,-1,-1,-2,0,9.885
1978,-3,-1,-2,-1,0,-1,-2,0,9.89
1979,-2,-1,0,2,4,0,-1,0,9.895
1980,-2,1,0,-3,-9,-3,-1,1,9.9
1981,-1,0,0,1,2,1,-2,-1,9.905
1982,-1,0,-1,-3,-3,0,0,-1,9.91
1983,0,-1,1,2,5,1,0,-1,9.915000000000001
1984,-2,0,-1,-3,-4,-2,-2,-1,9.92
1985,0,-2,0,-3,-2,-1,0,1,9.925
1986,0,0,0,1,-2,0,0,-1,9.93
1987,-1,-1,-3,2,0,-1,0,-2,9.935
1988,0,0,0,-7,-8,-4,1,0,9.94
1989,-2,-2,-1,1,4,0,0,0,9.945
1990,-1,-2,0,0,1,0,-1,-2,9.950000000000001
1991,-1,0,0,3,-1,-2,0,-1,9.955
1992,0,0,-3,-13,-14,-4,-2,0,9.96
1993,0,-3,-1,2,3,-1,-3,1,9.965
1994,-1,1,-1,11,20,4,0,0,9.97
1995,0,-2,0,1,-5,1,-2,1,9.975
1996,-1,-2,-3,-3,-3,0,-1,0,9.98
1997,-1,-1,-1,-2,-1,-1,-1,0,9.985
1998,-1,-1,-2,-6,-7,-2,-4,-1,9.99
1999,-2,0,0,0,-2,-1,-1,-2,9.995000000000001
2000,0,0,-1,4,2,0,-4,-1,10.0
2001,0,-1,-2,-3,-8,-1,-3,-1,10.005
2002,-2,-3,-1,-2,-3,-3,-5,-1,10.01
2003,0,1,-1,-2,3,0,1,-1,10.015
2004,-1,-2,-2,3,1,0,2,-1,10.02
2005,-1,-1,-2,2,3,0,3,-2,10.025
2006,1,0,-1,-4,-3,-1,2,-1,10.03
2007,0,0,-1,0,2,0,0,0,10.035
2008,-1,-1,-1,-1,0,-1,0,0,10.040000000000001
2009,-1,0,0,-1,-1,-1,0,0,10.045
2010,-1,0,-1,0,-1,-3,2,-1,10.05
2011,0,-1,-1,-1,-1,-3,-1,0,10.055
2012,0,1,-1,1,0,-2,-1,-1,10.06
2013,0,1,0,-2,-1,-2,-2,-2,10.065
2014,-1,-1,-2,-1,-6,-2,0,-1,10.07
2015,0,0,-2,2,2,0,-3,0,10.075000000000001
2016,-1,-2,0,-2,-2,0,0,0,10.08
2017,-1,-1,-3,0,3,0,0,-1,10.085
2018,-1,0,-2,-3,1,-1,-2,1,10.09
2019,-1,-2,-2,2,-10,-2,-2,0,10.095
2020,-1,-2,0,1,0,-1,-2,-2,10.1
2021,0,-2,-2,-2,-2,-2,1,2,10.105
2022,-1,-3,-5,-3,-1,0,2,-1,10.11
2023,-1,1,-1,-6,-1,-2,0,-1,10.115
2024,-1,0,1,0,-2,0,-1,-1,10.120000000000001
2025,-1,-1,0,2,0,-1,1,-1,10.125
2026,-1,-1,-1,-9,-9,-3,-3,-1,10.13
2027,-1,-1,1,10,13,3,0,1,10.135
2028,0,0,-3,0,0,-1,0,-1,10.14
2029,-1,-1,-2,-4,-1,-2,-3,-4,10.145
2030,-2,-4,0,-1,4,0,-1,-1,10.15
2031,1,3,-3,-4,-12,-1,-1,0,10.155
2032,-1,-2,1,-4,-5,-2,0,-1,10.16
2033,-2,-1,1,6,9,1,-1,-2,10.165000000000001
2034,-2,-1,1,0,-1,-2,-2,-1,10.17
2035,-2,-2,-1,-2,-1,-2,1,0,10.175
2036,-1,2,0,-1,0,-1,0,-1,10.18
2037,-1,-3,-3,-2,-11,-3,-2,-1,10.185
2038,-1,0,-3,0,6,1,0,-1,10.19
2039,-1,-2,1,2,5,2,-1,-1,10.195
2040,-2,-2,-1,-2,-2,0,-1,-1,10.200000000000001
2041,-4,-2,-2,-10,-11,-4,-3,-1,10.205
2042,1,1,2,11,10,4,2,0,10.21
2043,0,1,0,-2,0,0,-1,0,10.215
2044,0,-3,-2,2,2,-1,0,0,10.22
2045,0,-1,-2,-1,0,-3,1,-1,10.225
2046,0,-1,1,-3,-9,-1,0,0,10.23
2047,-2,-1,0,1,-2,-1,0,-3,10.235
2048,0,0,0,-3,1,1,-1,-1,10.24
2049,0,-1,-3,6,3,2,0,-1,10.245000000000001
2050,-1,0,-1,-2,-3,-2,-2,-2,10.25
2051,-2,-2,-1,0,0,-1,-1,-1,10.255
2052,-2,-2,-1,-2,-2,-1,-2,-1,10.26
2053,-2,0,0,1,0,1,0,0,10.265
2054,-2,1,-3,-6,-10,-4,-2,0,10.27
2055,1,-1,1,1,2,0,-1,-1,10.275
2056,-1,-3,-3,1,0,-2,1,-1,10.28
2057,0,-2,0,2,0,1,0,-1,10.285
2058,-1,-1,-2,-3,-6,0,-1,1,10.290000000000001
2059,-1,-2,-2,0,-3,-1,0,-1,10.295
2060,-1,-5,-2,0,3,0,-3,-1,10.3
2061,-1,2,0,-2,-1,0,-1,-1,10.305
2062,0,-3,1,-3,-5,-3,-1,-1,10.31
2063,0,-2,-4,1,6,2,-1,1,10.315
2064,-1,0,0,0,-7,-1,0,-1,10.32
2065,0,-1,-3,2,4,-1,-1,-2,10.325000000000001
2066,-1,1,-1,-8,-4,0,-1,-2,10.33
2067,-1,0,1,10,8,-1,0,-1,10.335
2068,2,0,-1,1,3,-1,0,-1,10.34
2069,-1,0,0,-7,-8,-2,-1,0,10.345
2070,0,-1,0,7,16,2,1,-1,10.35
2071,0,-2,-2,-6,-9,-3,-4,-4,10.355
2072,-1,-1,-1,-1,-2,-2,0,-1,10.36
2073,-1,-2,-1,-3,-2,-1,0,-1,10.365
2074,-1,-2,-1,2,0,0,-2,-1,10.370000000000001
2075,-2,-1,-2,-3,-4,-1,1,0,10.375
2076,-2,1,0,1,0,-1,-1,-1,10.38
2077,-1,-1,0,-3,-4,-2,-3,-1,10.385
2078,0,0,-2,6,4,1,0,-1,10.39
2079,2,-1,-2,-2,0,-1,0,-1,10.395
2080,-1,1,-1,-3,-4,-1,0,-1,10.4
2081,-1,0,0,2,-1,-2,1,2,10.405
2082,-1,-2,-2,-3,-1,0,-1,-1,10.41
2083,-2,-1,-1,-2,-2,0,-1,0,10.415000000000001
2084,-1,-4,-1,1,3,0,-2,0,10.42
2085,-2,-1,-1,-1,1,-3,-1,-1,10.425
2086,0,-1,-2,0,-1,-2,-1,0,10.43
2087,0,0,-3,-9,-11,-3,-2,0,10.435
2088,0,-1,-2,6,-3,-1,0,-1,10.44
2089,-1,-1,0,2,5,0,-1,-3,10.445
2090,-2,-2,-1,-3,-3,-1,-2,0,10.450000000000001
2091,0,4,1,-3,-3,-3,0,0,10.455
2092,-2,-3,-2,-6,-12,-2,0,-1,10.46
2093,-1,-1,-3,-1,-3,-1,-1,-1,10.465
2094,0,1,0,5,8,2,2,-1,10.47
2095,-1,-2,-1,-1,-1,-1,-1,-1,10.475
2096,-4,0,-1,-3,2,0,-2,1,10.48
2097,0,-1,0,0,0,0,-1,-1,10.485
2098,-2,-2,-2,-4,-5,-1,-1,-1,10.49
2099,-1,-2,-2,2,3,0,0,0,10.495000000000001
2100,0,3,0,1,2,0,0,0,10.5
2101,-2,-1,-1,1,-2,-4,-1,-2,10.505
2102,-1,0,-2,-1,-5,1,-1,1,10.51
2103,-1,-2,0,4,0,0,1,0,10.515
2104,-1,-1,1,-1,2,-2,0,0,10.52
2105,-1,-1,-1,-1,-2,-1,0,-1,10.525
2106,-1,-1,-1,-6,-8,-4,-2,-1,10.53
2107,1,1,-1,6,2,2,0,-1,10.535
2108,0,-2,-1,-4,-3,-1,-1,0,10.540000000000001
2109,-2,0,-3,-4,4,1,1,0,10.545
2110,0,1,0,7,0,-1,0,-1,10.55
2111,-2,0,0,-3,-1,-1,-1,0,10.555
2112,1,1,1,-3,2,0,0,0,10.56
2113,-2,-1,0,-3,-3,-1,1,-2,10.565
2114,1,0,-1,-3,-2,-1,0,-2,10.57
2115,-1,0,0,-5,-7,-2,-2,-1,10.575000000000001
2116,-1,-1,-3,4,4,2,-1,-1,10.58
2117,1,-4,-2,0,-2,0,-1,0,10.585
2118,-1,-2,0,-1,1,-2,1,-2,10.59
2119,1,1,0,-1,-1,-1,0,-1,10.595
2120,0,0,-3,-3,-1,-2,1,-1,10.6
2121,-2,-1,0,-1,-8,-1,-2,0,10.605
2122,-2,-1,0,2,0,0,1,1,10.61
2123,-3,-3,-1,0,4,0,-2,-1,10.615
2124,-1,1,0,-3,-9,-3,-2,-1,10.620000000000001
2125,0,-1,0,4,9,1,0,-2,10.625
2126,-1,-1,-1,-4,-4,0,-1,0,10.63
2127,0,-4,-1,1,6,0,1,-2,10.635
2128,-2,-1,-1,-3,-6,-2,-3,0,10.64
2129,1,1,1,1,3,0,1,-1,10.645
2130,-2,0,-1,-7,-6,-2,-2,-1,10.65
2131,0,-1,2,-3,-4,-3,0,0,10.655
2132,0,-1,1,9,17,3,0,-2,10.66
2133,0,-2,-1,-3,-4,-1,-1,-3,10.665000000000001
2134,0,-2,-1,-1,3,-1,-1,-1,10.67
2135,-1,0,-2,-8,-14,-3,0,0,10.675
2136,-1,-1,-1,3,4,-1,0,0,10.68
2137,0,-2,0,-5,-7,-2,-2,1,10.685
2138,2,-1,-1,4,8,2,0,0,10.69
2139,-1,-1,-2,-1,-3,1,-1,-1,10.695
2140,-1,-2,0,0,-2,-1,-2,-3,10.700000000000001
2141,-2,2,-2,-3,-3,-1,-2,-1,10.705
2142,0,1,1,-4,-6,-3,-3,-1,10.71
2143,-1,-1,-1,3,3,2,0,-1,10.715
2144,0,0,-3,-2,-3,-1,-1,0,10.72
2145,-2,0,-1,0,1,-1,-2,-1,10.725
2146,-1,-2,-1,0,-2,-2,1,-3,10.73
2147,1,1,0,0,3,-1,-1,1,10.735
2148,-2,-1,-3,-4,-8,-2,-2,-1,10.74
2149,0,-3,-1,6,5,2,1,0,10.745000000000001
2150,-1,-1,-1,2,8,1,-1,0,10.75
2151,0,-2,-1,0,-2,-1,-2,0,10.755
2152,-1,-1,-1,-3,0,0,-3,0,10.76
2153,0,-1,-2,1,2,-1,-4,-2,10.765
2154,-3,0,-1,-4,-7,-2,0,1,10.77
2155,-1,-2,0,5,4,2,2,-1,10.775
2156,-2,-2,-1,-5,-7,-1,0,-1,10.78
2157,-1,1,0,2,3,2,0,-1,10.785
2158,0,-1,0,-2,3,-1,-1,0,10.790000000000001
2159,-2,2,1,-9,-8,-2,-2,0,10.795
2160,0,-2,-1,3,2,2,0,-1,10.8
2161,-4,-1,-2,-1,-3,-3,0,-2,10.805
2162,-1,-1,-3,-5,-8,-4,-2,0,10.81
2163,0,-1,0,2,6,-1,0,1,10.815
2164,0,-3,0,-3,-3,-2,-1,-1,10.82
2165,1,-1,1,-1,-2,1,0,1,10.825000000000001
2166,2,-1,-1,1,-1,0,0,1,10.83
2167,-1,-1,-2,-1,-1,-2,1,0,10.835
2168,0,0,-1,-4,-8,-5,-3,-2,10.84
2169,0,0,0,1,5,-1,-1,0,10.845
2170,-1,2,0,2,0,0,-1,-2,10.85
2171,0,-4,-3,0,1,-1,1,-2,10.855
2172,-1,-3,-2,3,5,0,0,-1,10.86
2173,1,0,-2,-2,0,-1,-1,0,10.865
2174,-1,0,1,0,-2,0,-1,-1,10.870000000000001
2175,-1,-1,-1,0,3,2,0,-1,10.875
2176,-4,-1,1,-3,-3,-2,0,-1,10.88
2177,-3,-4,-1,-15,-18,-5,-2,-1,10.885
2178,2,2,-1,14,20,4,0,-1,10.89
2179,0,0,0,-1,-3,-1,-3,-1,10.895
2180,0,-1,1,-1,0,-2,0,0,10.9
2181,0,-1,-2,-3,-5,-3,-1,-1,10.905
2182,1,-2,-4,-6,-6,1,0,-1,10.91
2183,0,-1,-1,-2,-2,0,-2,1,10.915000000000001
2184,-1,1,-2,0,2,-1,-2,0,10.92
2185,-1,-1,0,-1,0,-2,0,-1,10.925
2186,-2,-2,-2,-4,-5,-2,0,-1,10.93
2187,0,0,-2,2,4,0,-1,0,10.935
2188,-2,-3,-3,-4,-3,0,-2,-1,10.94
2189,-1,1,-1,4,7,-1,-1,-2,10.945
2190,-1,-2,-1,-1,-4,-1,-1,1,10.950000000000001
2191,0,3,3,-5,-7,-1,0,-3,10.955
2192,-1,-3,-2,2,4,-1,0,0,10.96
2193,0,0,-2,2,-3,-1,1,-1,10.965
2194,-1,-1,-1,-3,-4,-3,-1,-2,10.97
2195,0,-1,1,3,6,2,0,1,10.975
2196,0,0,0,-2,-1,1,0,-2,10.98
2197,-1,-1,-1,-2,-6,-1,-3,-2,10.985
2198,-1,0,1,0,4,1,0,1,10.99
2199,-1,-3,-4,-3,-3,-4,0,-2,10.995000000000001
2200,-2,-1,-1,-6,1,-1,-1,-2,11.0
2201,-3,-2,0,9,0,2,-3,-1,11.005
2202,0,-2,-1,-2,-4,-3,-2,-2,11.01
2203,-2,-2,0,2,0,0,1,1,11.015
2204,0,1,-1,-2,-3,-2,0,-1,11.02
2205,-2,-1,0,1,11,0,0,-1,11.025
2206,-3,-1,-2,-2,-7,-3,-1,0,11.03
2207,-1,0,0,4,4,1,-1,-2,11.035
2208,0,-1,0,3,-8,-3,-1,1,11.040000000000001
2209,-1,-3,-4,-5,-7,-1,-2,-1,11.045
2210,-1,0,0,-3,-6,-1,0,-1,11.05
2211,-2,-1,-1,-2,8,1,1,-1,11.055
2212,-1,1,0,0,0,-1,0,-2,11.06
2213,0,-3,-1,-3,-3,-1,0,-1,11.065
2214,0,3,-2,1,3,0,1,-2,11.07
2215,0,-1,-2,-6,-7,-1,-2,-1,11.075000000000001
2216,-1,-1,-1,3,3,0,-1,1,11.08
2217,-2,0,-1,-2,0,-2,-2,1,11.085
2218,-2,-3,0,-3,-1,0,0,0,11.09
2219,-1,-3,-3,1,-6,-1,0,1,11.095
2220,-1,-2,-2,3,-2,0,-2,-2,11.1
2221,0,0,0,-11,-1,0,0,0,11.105
2222,-1,-2,-1,13,7,1,1,-1,11.11
2223,0,0,0,1,1,-1,-1,-1,11.115
2224,-1,-2,-1,-3,-4,-2,0,0,11.120000000000001
2225,0,-1,-3,0,1,0,1,-1,11.125
2226,0,-1,-2,-6,-7,-3,0,-2,11.13
2227,-1,-1,0,-5,-1,-2,-2,0,11.135
2228,-2,-2,0,-1,1,-1,-1,-2,11.14
2229,-2,1,-2,-4,-13,-4,-3,-2,11.145
2230,2,-1,0,1,2,1,-1,1,11.15
2231,1,1,-1,3,-2,-1,-1,-1,11.155
2232,-1,0,0,-4,2,0,0,0,11.16
2233,0,0,1,2,-2,-1,2,-1,11.165000000000001
2234,-2,-1,-1,-2,-3,0,-2,0,11.17
2235,-1,-1,0,0,0,1,0,-1,11.175
2236,-1,-2,-1,0,-1,0,-1,-1,11.18
2237,-1,-3,-2,1,3,1,-1,-2,11.185
2238,0,-1,-1,-4,-4,-1,-1,-2,11.19
2239,-1,0,0,0,3,1,-1,1,11.195
2240,-1,0,-2,-1,-4,-1,-1,-2,11.200000000000001
2241,-1,0,0,-3,-6,-5,-1,0,11.205
2242,0,-1,1,0,4,-1,0,1,11.21
2243,-1,-2,-3,-5,-6,-2,-2,0,11.215
2244,-1,-2,2,8,10,3,-1,0,11.22
2245,-1,0,-2,-3,-3,-1,-2,-1,11.225
2246,-4,0,-2,-6,-5,-4,-3,-2,11.23
2247,-1,0,0,1,5,0,0,0,11.235
2248,-1,0,-3,-3,-6,-1,-1,0,11.24
2249,-4,-3,1,0,2,0,-1,0,11.245000000000001
2250,1,3,-1,-3,-6,1,-1,-1,11.25
2251,-1,-1,-1,0,-1,-1,-1,-1,11.255
2252,0,-1,-2,-7,-8,-3,-2,-2,11.26
2253,-1,2,0,6,1,0,0,1,11.265
2254,-2,-1,0,0,1,1,-1,-1,11.27
2255,0,0,0,2,-2,0,-2,0,11.275
2256,-1,-2,-2,0,0,-1,0,0,11.28
2257,-1,-3,0,-3,-1,-1,-1,-2,11.285
2258,-1,-2,-1,2,3,0,0,0,11.290000000000001
2259,-1,0,0,-5,-8,-4,0,-1,11.295
2260,-2,-1,1,1,5,0,-1,-1,11.3
2261,1,-2,-2,-1,-3,-1,-1,-1,11.305
2262,-1,0,-1,0,-1,-1,-3,1,11.31
2263,-1,-1,-1,0,-4,0,-1,-4,11.315
2264,0,0,-2,-2,-1,-2,-1,-2,11.32
2265,-2,1,-1,0,3,0,-2,-1,11.325000000000001
2266,-1,-2,-2,-2,-2,-2,0,-1,11.33
2267,0,-1,-1,-2,0,-2,1,0,11.335
2268,0,-1,0,-7,-10,-1,0,-2,11.34
2269,1,0,0,10,11,4,0,-1,11.345
2270,1,-1,-1,-3,3,0,0,-1,11.35
2271,-1,1,0,-1,0,1,0,0,11.355
2272,-2,0,0,-1,0,-2,-1,-3,11.36
2273,-3,-2,-1,1,-1,-3,-1,-2,11.365
2274,1,-2,-1,3,7,-1,0,0,11.370000000000001
2275,0,0,1,3,4,1,1,0,11.375
2276,0,-1,-2,-3,0,-1,-2,-1,11.38
2277,-1,1,-1,-6,-6,-1,-2,-1,11.385
2278,0,-2,-1,-1,1,1,-1,-1,11.39
2279,0,-2,0,-2,-5,-1,-2,-2,11.395
2280,-1,0,-1,2,0,-2,-1,0,11.4
2281,-1,0,-2,-3,-2,-1,-1,-1,11.405
2282,-1,-1,-2,0,-3,-1,-1,0,11.41
2283,-1,-1,-3,-8,-11,-2,-2,-1,11.415000000000001
2284,-1,-1,3,6,12,2,0,-2,11.42
2285,0,0,-1,-1,-2,-2,-1,-1,11.425
2286,0,0,-2,-1,-1,-1,1,0,11.43
2287,-1,-2,-3,-1,-3,-1,-1,0,11.435
2288,-1,1,-1,0,-4,-2,0,1,11.44
2289,-1,-1,-1,-2,-3,-3,0,-2,11.445
2290,0,-2,0,-1,-2,-1,-2,-3,11.450000000000001
2291,-1,-1,-1,0,3,-2,-1,-2,11.455
2292,-2,-2,-3,-10,-4,-4,-2,-4,11.46
2293,0,1,2,12,7,3,0,0,11.465
2294,-2,-2,-2,0,-1,-1,0,-1,11.47
2295,-1,-2,-1,1,2,0,1,0,11.475
2296,-1,-1,2,0,-3,-1,-2,1,11.48
2297,-2,-6,-7,-10,-5,-3,-1,1,11.485
2298,6,2,-6,-9,-7,-2,2,8,11.49
2299,-9,-5,-2,-4,2,-3,-3,-10,11.495000000000001
2300,0,3,8,14,0,1,1,-1,11.5
2301,1,-1,1,17,5,-1,0,5,11.505
2302,-3,2,-2,-3,0,1,-3,-8,11.51
2303,4,-3,-7,-7,-7,-4,0,5,11.515
2304,10,-4,-20,-26,-13,2,9,-3,11.52
2305,-28,-3,14,21,6,0,-3,-3,11.525
2306,44,12,-2,10,10,0,5,15,11.53
2307,-33,-4,-21,-56,-16,1,-1,-2,11.535
2308,-80,1,31,43,14,0,-5,-21,11.540000000000001
2309,94,9,10,24,3,2,15,7,11.545
2310,-43,-26,-44,-29,-13,-6,-22,43,11.55
2311,-3,6,31,83,9,-20,-48,-36,11.555
2312,72,8,-30,-87,-19,-10,-23,-13,11.56
2313,-123,23,8,-24,-2,9,-4,-57,11.565
2314,102,16,31,21,11,3,22,3,11.57
2315,27,1,-29,61,29,25,23,36,11.575000000000001
2316,-18,-5,-15,-88,-30,-2,2,-56,11.58
2317,53,13,52,81,-6,-7,5,-16,11.585
2318,-48,-23,-27,-38,3,-2,0,61,11.59
2319,-1,2,11,15,-1,-8,-13,-57,11.595
2320,14,0,5,-3,5,-10,18,11,11.6
2321,16,-13,-57,-66,-2,-1,-25,29,11.605
2322,-17,-8,12,18,-42,-9,-3,-14,11.61
2323,25,14,11,-24,19,7,12,40,11.615
2324,-6,9,-1,-4,25,6,-10,-39,11.620000000000001
2325,1,-26,-34,-33,-20,-5,10,46,11.625
2326,-13,3,12,69,16,4,12,-8,11.63
2327,-12,5,10,-52,2,3,-5,-13,11.635
2328,-15,-7,20,46,-19,-1,3,18,11.64
2329,19,-6,-2,-24,4,-13,-34,-44,11.645
2330,-31,-8,3,-21,4,-1,-9,8,11.65
2331,18,-4,-36,-23,-26,-1,18,12,11.655
2332,-2,3,48,67,27,10,17,38,11.66
2333,26,2,9,12,0,-5,-15,-19,11.665000000000001
2334,17,3,-24,-21,-20,-2,17,-22,11.67
2335,-5,-4,9,-3,2,4,12,11,11.675
2336,-43,-15,-20,-9,-10,-6,-14,22,11.68
2337,-31,-1,-10,34,5,-1,-6,-53,11.685
2338,-56,-2,15,26,33,11,-12,-30,11.69
2339,73,-3,2,6,-17,-3,1,13,11.695
2340,-23,-8,-25,-20,-33,-7,4,20,11.700000000000001
2341,36,9,21,-8,29,10,-3,31,11.705
2342,-12,-1,14,10,3,-6,-7,-18,11.71
2343,-16,-5,0,5,-4,2,12,31,11.715
2344,17,-9,3,77,2,5,4,8,11.72
2345,-15,-4,-8,-45,-3,-1,9,5,11.725
2346,-1,-1,-16,-33,11,3,0,-34,11.73
2347,-30,-7,13,5,-26,-8,0,-3,11.735
2348,37,-1,-12,-31,0,-5,-22,24,11.74
2349,-18,11,5,-50,-17,1,13,-5,11.745000000000001
2350,-1,8,-15,-35,-7,-3,-20,6,11.75
2351,7,0,9,88,10,-3,8,55,11.755
2352,6,-3,-9,-10,20,1,-20,-113,11.76
2353,74,6,4,87,5,-1,20,90,11.765
2354,-1,4,1,-20,14,-2,0,4,11.77
2355,-80,-4,-26,-113,-36,-5,-1,-18,11.775
2356,67,2,21,58,11,0,-1,-1,11.78
2357,-71,-6,-17,-122,-14,-3,7,64,11.785
2358,35,6,35,35,-11,-2,-2,-20,11.790000000000001
2359,30,-2,-14,-3,-4,-1,-7,-13,11.795
2360,-5,9,-10,-19,27,7,10,9,11.8
2361,-3,1,-37,25,5,-3,-2,-15,11.805
2362,-11,-7,-6,37,-8,1,2,-30,11.81
2363,-3,-7,51,18,40,4,14,50,11.815
2364,-5,1,-9,9,0,11,1,8,11.82
2365,4,-3,-21,-4,-15,-7,-6,-3,11.825000000000001
2366,-20,-1,20,-28,4,-2,1,-2,11.83
2367,35,-2,-30,-42,-16,-2,15,-20,11.835
2368,-13,8,0,19,-3,-4,-9,22,11.84
2369,-12,-2,37,52,10,1,1,-81,11.845
2370,-8,-9,-22,-67,-16,-9,-7,4,11.85
2371,-3,22,-9,-83,-22,0,-13,6,11.855
2372,-12,-5,-33,48,16,4,23,64,11.86
2373,-23,-6,44,5,-9,-1,-8,-9,11.865
2374,54,21,25,27,-5,0,6,16,11.870000000000001
2375,-13,-4,-46,-75,-28,-11,-5,-9,11.875
2376,20,15,18,28,59,6,-5,-5,11.88
2377,-62,-5,11,58,6,1,-2,-12,11.885
2378,-8,-8,4,61,34,5,6,-6,11.89
2379,5,-8,-13,-18,2,1,-13,-20,11.895
2380,-14,-16,-49,-119,-56,-15,3,0,11.9
2381,23,15,5,-31,-33,-11,0,1,11.905
2382,2,-8,33,37,57,17,8,24,11.91
2383,-9,-8,-12,0,4,-5,-2,-7,11.915000000000001
2384,-10,-2,20,28,-9,-2,-17,-43,11.92
2385,3,-5,-19,-17,-4,2,4,21,11.925
2386,-2,6,-27,-29,-46,-8,-11,40,11.93
2387,40,12,31,117,35,3,-5,-51,11.935
2388,-12,-9,22,32,-1,-3,8,34,11.94
2389,-47,-17,-23,-48,-16,2,-10,-52,11.945
2390,23,5,7,27,-3,-6,7,48,11.950000000000001
2391,34,-2,-15,-47,-34,-5,5,-56,11.955
2392,-15,6,14,-19,30,5,-10,28,11.96
2393,36,2,-10,18,18,8,4,54,11.965
2394,-23,-17,-24,-47,-11,0,0,-42,11.97
2395,-18,8,34,55,30,0,-5,29,11.975
2396,-37,-13,-3,-9,-33,-12,10,-27,11.98
2397,-10,5,-4,16,8,0,-14,-42,11.985
2398,64,-2,-18,-26,-11,3,11,73,11.99
2399,-103,-28,-4,0,-7,-3,12,7,11.995000000000001
2400,-18,7,10,-14,-12,-5,-4,-33,12.0
2401,4,-1,-8,35,21,3,-9,60,12.005
2402,-69,-11,-32,-86,-33,-4,-11,-98,12.01
2403,67,11,45,111,32,0,-18,7,12.015
2404,1,-10,6,-46,-9,-1,4,-3,12.02
2405,-19,-13,-37,-90,-34,-5,7,-28,12.025
2406,19,12,7,16,-17,-8,-9,6,12.030000000000001
2407,-27,0,-10,-114,-45,-8,-4,-2,12.035
2408,-1,7,23,107,85,21,9,-4,12.040000000000001
2409,31,-6,-21,14,3,-2,11,11,12.045
2410,0,5,37,49,11,-4,-8,-6,12.05
2411,-14,-16,-14,-22,-17,-4,-10,-38,12.055
2412,23,-4,-14,43,34,6,5,42,12.06
2413,-8,-2,5,-85,-32,-8,-4,-8,12.065
2414,-6,12,-4,10,7,1,5,-1,12.07
2415,-20,-10,2,47,15,-1,-16,-21,12.075000000000001
2416,38,6,-26,-85,-33,-10,-1,67,12.08
2417,-50,-10,11,20,2,3,2,-58,12.085
2418,71,3,7,10,8,0,-8,-1,12.09
2419,32,14,5,26,23,3,5,-10,12.095
2420,6,-6,-6,-51,-49,-7,-10,-56,12.1
2421,-45,-5,6,30,14,1,6,21,12.105
2422,-1,3,-8,-55,-13,0,6,16,12.11
2423,6,2,26,116,54,11,2,19,12.115
2424,31,7,-53,-82,-46,-15,-9,-31,12.120000000000001
2425,19,5,49,56,-41,-11,-3,-2,12.125
2426,-11,-1,-4,37,55,25,24,-10,12.13
2427,1,6,-3,-9,9,3,-9,17,12.135
2428,-66,-11,14,79,11,-3,-3,14,12.14
2429,68,6,-12,-97,-35,-6,2,9,12.145
2430,-36,-5,-23,-40,-22,-7,-21,-66,12.15
2431,19,1,26,-4,-5,-1,-1,74,12.155000000000001
2432,-5,11,25,18,10,4,7,11,12.16
2433,-7,-10,-16,36,8,-4,-20,-59,12.165000000000001
2434,-5,-3,5,31,-2,-4,22,44,12.17
2435,12,-5,-46,-89,-18,2,13,26,12.175
2436,-3,-7,8,18,-14,-11,-20,-34,12.18
2437,15,-2,70,102,58,10,13,48,12.185
2438,-42,-4,-41,-87,-13,-3,-10,-90,12.19
2439,-64,-7,-7,48,3,0,-6,-23,12.195
2440,-17,-3,17,15,-6,-3,2,16,12.200000000000001
2441,-3,-5,-18,-85,-32,-2,1,3,12.205
2442,12,1,8,30,29,4,-1,18,12.21
2443,8,-6,-24,-86,-49,-4,11,-11,12.215
2444,25,11,36,95,69,17,2,2,12.22
2445,11,12,-11,41,51,12,-1,-6,12.225
2446,6,-19,1,23,-15,-5,15,42,12.23
2447,-10,-2,-9,-27,-7,-1,-11,-59,12.235
2448,6,1,-28,-93,-44,-10,-3,42,12.24
2449,19,-3,10,15,13,1,4,26,12.245000000000001
2450,-2,-4,-1,4,-3,-1,-8,5,12.25
2451,-2,-10,-6,12,-2,1,12,9,12.255
2452,-3,-4,23,45,7,0,2,-30,12.26
2453,-37,3,4,21,-4,-3,-11,-52,12.265
2454,36,5,3,-10,5,-2,3,23,12.27
2455,-3,1,10,20,9,1,-4,-20,12.275
2456,10,2,-35,-108,-26,-5,-5,-7,12.280000000000001
2457,16,15,12,34,25,7,16,44,12.285
2458,-19,-3,-9,-53,-23,-9,-14,-21,12.290000000000001
2459,1,-1,9,82,25,4,-5,-8,12.295
2460,4,4,3,50,15,3,5,10,12.3
2461,-5,-2,-7,-24,-19,-5,2,9,12.305
2462,-8,3,9,10,-7,-1,-9,-22,12.31
2463,8,4,-1,-25,2,-2,-2,18,12.315
2464,-4,-5,-10,-10,-26,-5,1,-3,12.32
2465,-1,-7,-9,-11,4,1,-1,-8,12.325000000000001
2466,-5,5,15,18,-1,0,-6,1,12.33
2467,7,8,2,3,-4,-2,1,11,12.335
2468,6,-1,0,0,0,-1,2,-8,12.34
2469,6,-3,-9,-13,-5,-2,2,5,12.345
2470,-4,4,3,38,-4,-3,-3,4,12.35
2471,-7,-11,3,24,9,1,0,2,12.355
2472,-1,1,-8,-25,-3,0,-2,-10,12.36
2473,6,-1,-15,-40,-8,-2,-2,10,12.365
2474,-3,0,16,41,10,0,1,8,12.370000000000001
2475,-1,3,7,-21,-8,-6,-6,-10,12.375
2476,2,-4,3,-7,8,3,-1,-5,12.38
2477,4,-2,-12,-21,-5,-1,1,10,12.385
2478,-2,0,-11,-38,-22,-3,-1,-5,12.39
2479,1,4,1,-20,9,3,2,-2,12.395
2480,-4,-6,-2,-14,-11,-4,-1,-3,12.4
2481,-4,-2,-5,-6,3,-1,-3,-6,12.405000000000001
2482,-5,-1,2,-2,-1,0,-2,-5,12.41
2483,-9,-14,0,8,-1,-1,-1,2,12.415000000000001
2484,2,3,-5,-2,-4,0,6,4,12.42
2485,25,23,4,11,2,-1,3,12,12.425
2486,7,-9,3,9,-2,-1,0,9,12.43
2487,-3,-1,-1,-11,6,1,0,2,12.435
2488,-8,-5,-5,-12,-13,-6,-6,-10,12.44
2489,-4,-2,-2,5,1,-2,-3,-9,12.445
2490,-3,-4,0,2,4,-2,0,-1,12.450000000000001
2491,-3,2,-5,-23,-6,-3,-3,-3,12.455
2492,-8,-12,-4,2,3,-1,-2,-5,12.46
2493,-3,0,3,6,9,2,-3,-1,12.465
2494,-3,2,0,5,3,2,-1,0,12.47
2495,-1,1,0,-3,-4,-2,-2,-5,12.475
2496,10,14,4,-4,-6,-2,1,0,12.48
2497,-1,-20,-3,-1,-2,0,0,0,12.485
2498,-11,-9,-4,4,5,1,-2,-6,12.49
2499,-5,-17,-7,-9,-6,-1,0,-2,12.495000000000001
2500,4,3,-1,-6,-6,0,-2,0,12.5
2501,-1,5,0,0,-3,-2,-1,-3,12.505
2502,1,-11,2,2,5,1,0,-3,12.51
2503,6,11,2,10,-18,-2,0,5,12.515
2504,1,0,-2,2,6,1,-1,-2,12.52
2505,-4,-3,-3,1,2,-1,-2,-5,12.525
2506,1,6,-2,2,-1,0,-1,-1,12.530000000000001
2507,3,9,0,-3,2,-1,0,0,12.535
2508,-2,-5,-1,2,-1,-2,0,-1,12.540000000000001
2509,-5,3,-1,-27,-20,-3,-3,-3,12.545
2510,2,6,3,29,28,5,3,1,12.55
2511,0,0,-5,-4,-2,0,-1,-1,12.555
2512,0,1,4,4,1,2,0,0,12.56
2513,-2,-4,-2,-3,1,-1,1,-2,12.565
2514,1,2,-1,-11,-15,-3,-1,-2,12.57
2515,1,-4,-1,0,3,-1,-1,0,12.575000000000001
2516,-1,-5,-2,-5,-4,-2,0,1,12.58
2517,-1,-1,-2,10,7,2,-2,-2,12.585
2518,1,-3,1,0,-2,-1,0,-1,12.59
2519,0,-3,-1,4,-3,1,1,0,12.595
2520,-2,-1,-1,-7,-3,0,-2,2,12.6
2521,-2,-2,-1,5,0,-2,0,-2,12.605
2522,0,4,0,-3,-5,-2,0,0,12.61
2523,1,3,1,-4,-1,-1,-2,-1,12.615
2524,0,-2,-1,1,-1,0,-1,0,12.620000000000001
2525,0,1,1,5,-3,0,-1,-1,12.625
2526,-2,0,-2,-2,1,-1,-1,0,12.63
2527,-2,0,0,-2,0,-2,-1,-1,12.635
2528,-2,0,-3,-1,-2,-2,-2,0,12.64
2529,0,-2,-3,3,3,1,1,-1,12.645
2530,0,3,1,-8,-9,-4,-1,-2,12.65
2531,-1,1,0,-7,6,0,-2,-1,12.655000000000001
2532,-1,-1,-1,-3,7,2,-2,0,12.66
2533,-2,-1,1,28,2,0,-1,0,12.665000000000001
2534,-1,0,-2,0,-5,-2,-2,1,12.67
2535,1,0,-1,-2,-3,-2,0,0,12.675
2536,-1,-2,1,-4,-1,0,-1,-1,12.68
2537,-2,-2,-1,-14,-7,-3,-1,-1,12.685
2538,0,0,0,-4,-1,0,-1,0,12.69
2539,0,2,1,5,2,-1,-1,1,12.695
2540,-1,-2,-4,-8,-4,-2,-1,-1,12.700000000000001
2541,-1,-3,-4,1,-1,0,2,1,12.705
2542,0,-2,0,2,-2,1,0,-1,12.71
2543,0,0,-3,-1,3,0,-1,0,12.715
2544,-1,-1,-1,2,-1,-1,-2,-2,12.72
2545,-1,-1,-1,-6,1,-1,-1,-2,12.725
2546,0,0,0,-1,2,-1,-2,0,12.73
2547,-2,0,-1,-7,-16,-5,-2,-3,12.735
2548,1,1,1,6,4,2,1,-1,12.74
2549,-2,-2,-3,-2,3,-2,-2,-1,12.745000000000001
2550,-1,0,-3,-6,-5,-2,-3,-1,12.75
2551,1,1,3,-2,0,0,1,-1,12.755
2552,-1,-6,-3,10,3,1,-2,0,12.76
2553,0,0,2,-1,4,0,0,1,12.765
2554,-1,0,0,-5,-6,-2,-1,0,12.77
2555,-1,-2,-2,-2,1,-1,-1,-2,12.775
2556,-1,0,1,-2,-3,-1,-1,-1,12.780000000000001
2557,-2,0,-3,-7,1,1,0,1,12.785
2558,-1,-2,-2,6,-2,-1,-1,0,12.790000000000001
2559,-1,1,1,3,1,-1,0,0,12.795
2560,-2,0,0,-3,-2,-2,-1,1,12.8
2561,0,-1,-2,-1,-5,-2,-1,-1,12.805
2562,1,0,-1,-3,-5,1,1,-2,12.81
2563,-2,-1,-2,-3,4,0,-2,0,12.815
2564,0,0,-2,8,-5,-4,-2,-2,12.82
2565,-2,0,0,-4,-3,-1,-3,-1,12.825000000000001
2566,-1,0,-1,-2,-1,0,0,0,12.83
2567,-2,-3,-3,0,2,0,-2,0,12.835
2568,1,0,-2,-2,-1,-3,-1,0,12.84
2569,-3,-2,-1,1,-3,0,0,-1,12.845
2570,1,1,3,-2,0,-2,-2,-1,12.85
2571,0,0,-2,6,9,3,-1,-1,12.855
2572,-2,-2,-1,-7,-6,-2,-1,0,12.86
2573,-1,0,0,4,-3,-3,-2,-2,12.865
2574,-1,0,-1,8,9,2,0,0,12.870000000000001
2575,-1,1,0,0,-5,0,0,0,12.875
2576,-2,-1,-2,-5,0,0,0,0,12.88
2577,1,1,1,-1,13,1,0,0,12.885
2578,-2,-1,-3,-6,-13,0,0,1,12.89
2579,1,0,0,5,6,1,-1,0,12.895
2580,-1,-1,-2,-2,-1,-1,-3,-3,12.9
2581,1,-1,-2,-5,-3,0,0,-1,12.905000000000001
2582,0,-2,-2,4,3,-1,-2,0,12.91
2583,-1,-1,-4,-1,-3,-4,-1,0,12.915000000000001
2584,-2,-1,1,5,2,2,0,-1,12.92
2585,-1,2,2,-1,-1,-1,0,0,12.925
2586,-2,-2,-2,-2,-1,1,0,-2,12.93
2587,0,1,2,-2,-4,0,-1,0,12.935
2588,-1,1,0,-2,-2,-3,-1,-2,12.94
2589,-1,-2,-1,0,-3,-1,0,0,12.945
2590,0,-2,-2,1,4,0,0,0,12.950000000000001
2591,-3,-5,-3,0,-2,1,0,-1,12.955
2592,-1,1,-2,-3,1,0,1,0,12.96
2593,-1,0,1,2,1,1,-1,0,12.965
2594,-1,0,-2,1,-1,0,-3,1,12.97
2595,1,0,0,-5,-9,-1,-1,-1,12.975
2596,0,0,1,3,4,-1,-1,-2,12.98
2597,-3,-7,-6,-3,-9,-3,-2,-2,12.985
2598,2,4,1,1,11,1,0,2,12.99
2599,0,1,0,-4,-4,-2,-1,-1,12.995000000000001
2600,-1,-2,1,-2,-5,-1,0,1,13.0
2601,1,0,0,-2,-2,0,0,-1,13.005
2602,-2,-2,1,-4,0,-1,0,-2,13.01
2603,-3,-2,-1,2,-1,-2,-2,-1,13.015
2604,0,0,-1,-2,-2,-1,-1,-2,13.02
2605,-1,0,0,1,1,0,-1,-1,13.025
2606,-1,-6,-2,-1,0,0,-2,-2,13.030000000000001
2607,0,0,-1,1,-1,-1,0,-2,13.035
2608,-1,-1,-2,-2,-4,-3,-1,-1,13.040000000000001
2609,0,1,-1,2,2,-1,1,0,13.045
2610,-1,0,0,-4,-2,-2,0,0,13.05
2611,-2,0,0,-1,-6,-1,-2,-1,13.055
2612,1,-1,-1,-1,1,0,0,1,13.06
2613,-1,1,1,-2,-2,-1,-2,1,13.065
2614,-2,-2,-1,-1,-3,1,-1,-2,13.07
2615,-2,0,-1,-2,-3,-1,-1,-1,13.075000000000001
2616,-2,-1,-2,0,1,-1,0,-1,13.08
2617,-1,-1,-1,-7,-4,-2,0,-1,13.085
2618,0,0,0,1,-1,0,0,-1,13.09
2619,-1,-2,-1,6,2,-1,1,1,13.095
2620,-1,0,-1,-7,-8,-2,-2,-2,13.1
2621,0,1,1,9,16,2,1,0,13.105
2622,-1,-1,0,-7,-6,-3,-1,0,13.11
2623,-1,-1,1,-2,6,2,-1,0,13.115
2624,-2,-2,-2,0,0,-1,0,-1,13.120000000000001
2625,0,-3,-1,-1,-4,-3,-2,-2,13.125
2626,-1,1,-1,1,-6,-2,-2,1,13.13
2627,-1,-4,-1,-1,3,1,-1,-1,13.135
2628,-2,-1,-1,1,-1,-3,-2,0,13.14
2629,-1,-3,-4,-1,-2,-1,-1,0,13.145
2630,0,-1,-2,4,3,-1,0,-1,13.15
2631,1,0,-2,-4,-2,-1,0,0,13.155000000000001
2632,0,-2,0,-2,-1,0,1,-1,13.16
2633,-1,-1,0,-2,-1,1,-1,2,13.165000000000001
2634,-2,0,-1,-5,-6,1,1,0,13.17
2635,-2,-1,0,4,13,-1,-1,-1,13.175
2636,0,-1,0,-1,0,0,-2,0,13.18
2637,0,0,0,-1,-3,-1,-1,-1,13.185
2638,-1,-2,-4,-4,-6,-3,-1,0,13.19
2639,0,-1,-1,10,12,2,-1,-1,13.195
2640,-1,0,0,0,1,-1,-1,1,13.200000000000001
2641,-2,1,0,-7,-9,-5,-3,-2,13.205
2642,-2,-1,1,9,12,4,2,-1,13.21
2643,-2,-2,-4,-8,-10,-2,-2,0,13.215
2644,-1,-1,-3,0,2,0,-1,-2,13.22
2645,-2,-2,-1,2,2,0,0,0,13.225
2646,0,-1,-1,-4,-1,-4,-4,-3,13.23
2647,-1,0,-2,0,-4,0,-1,-1,13.235
2648,-1,-3,-2,-1,0,1,-1,-2,13.24
2649,1,1,-1,-2,-5,-3,-1,-1,13.245000000000001
2650,1,-1,0,4,9,1,-1,-2,13.25
2651,1,1,-1,-2,-2,-3,-1,-1,13.255
2652,-1,0,-2,0,-4,-1,-1,1,13.26
2653,0,-3,-3,0,0,1,1,0,13.265
2654,-1,0,1,-1,0,-2,-1,-2,13.27
2655,0,-1,-2,-3,-3,-3,-1,-2,13.275
2656,-1,-2,-1,-2,-2,-2,0,-1,13.280000000000001
2657,-1,-1,0,1,-6,0,1,1,13.285
2658,-2,0,0,-1,2,0,-1,2,13.290000000000001
2659,-1,0,-1,-6,-10,-3,-1,-1,13.295
2660,-1,0,-1,-3,1,-3,-1,-1,13.3
2661,0,1,1,4,3,1,0,-2,13.305
2662,-1,-2,0,2,0,1,1,1,13.31
2663,0,-1,0,-4,-3,-1,1,-2,13.315
2664,-1,-2,-4,-3,0,0,-1,-1,13.32
2665,-2,0,1,-1,1,-1,-1,-2,13.325000000000001
2666,-1,-1,-2,-2,-2,-1,1,0,13.33
2667,-1,2,0,-2,-2,-1,0,-1,13.335
2668,-2,-1,1,-4,-4,-1,-2,-1,13.34
2669,1,-1,-2,1,0,-1,-3,0,13.345
2670,0,-2,-1,1,-3,-1,-1,0,13.35
2671,-2,-2,1,-2,-3,-2,-2,0,13.355
2672,0,-1,-1,-1,-6,0,-1,0,13.36
2673,0,-2,-3,2,5,2,1,0,13.365
2674,-1,2,0,-2,-7,-2,0,-1,13.370000000000001
2675,-1,-3,-2,-5,-8,-3,-1,-3,13.375
2676,0,1,2,6,12,3,0,-1,13.38
2677,-1,-1,0,2,1,-2,-1,0,13.385
2678,-2,1,0,-4,-5,-1,1,0,13.39
2679,-3,-2,-1,0,3,-1,-2,0,13.395
2680,-4,-2,-1,2,-9,-1,-1,0,13.4
2681,0,0,-2,-1,0,-1,1,-1,13.405000000000001
2682,-1,1,0,0,3,-1,-1,-1,13.41
2683,1,1,0,-2,-1,-2,-3,-2,13.415000000000001
2684,0,0,1,-6,-7,-2,-2,0,13.42
2685,-1,-1,0,-4,-3,0,-1,1,13.425
2686,-1,-1,-2,5,6,1,0,0,13.43
2687,-3,-2,0,-1,2,1,-1,-1,13.435
2688,-2,2,-1,-4,0,-3,-1,-2,13.44
2689,-1,0,-2,-1,-7,1,0,0,13.445
2690,2,-2,-1,-3,-2,-3,-1,-2,13.450000000000001
2691,0,-1,0,3,-5,-2,-1,0,13.455
2692,0,-2,-1,0,0,-1,-1,0,13.46
2693,0,1,2,-5,-6,-3,-3,0,13.465
2694,0,-1,-1,1,8,2,0,-1,13.47
2695,-2,-4,-3,-4,-3,-1,0,-1,13.475
2696,1,0,1,5,-2,-1,1,-2,13.48
2697,1,0,1,-1,-1,0,-2,-2,13.485
2698,0,-1,-1,-4,-2,-1,-2,-2,13.49
2699,-1,0,-1,-1,-4,-1,0,-1,13.495000000000001
2700,1,-2,-1,-1,2,1,-1,-1,13.5
2701,-2,-1,1,2,2,-2,0,-2,13.505
2702,-1,-1,-1,-4,-6,-2,-2,1,13.51
2703,-3,-2,-3,0,-5,-2,-2,-2,13.515
2704,-2,2,0,2,7,2,2,0,13.52
2705,-2,-1,-3,-1,4,-2,0,-1,13.525
2706,-1,-2,-1,-2,-1,-1,-1,-1,13.530000000000001
2707,-1,-2,-1,-4,1,1,-1,-1,13.535
2708,1,5,-3,-5,-1,-2,-2,-1,13.540000000000001
2709,0,-2,-3,-9,-6,-3,0,0,13.545
2710,0,-1,1,15,13,2,1,0,13.55
2711,-1,3,0,0,-2,0,1,0,13.555
2712,-2,-4,0,0,3,-1,-1,-2,13.56
2713,0,-2,-2,-3,-1,1,-2,-1,13.565
2714,-1,1,-3,-6,-3,0,1,-1,13.57
2715,0,-1,1,5,-2,-2,0,1,13.575000000000001
2716,-2,-3,-2,1,-1,-1,-1,0,13.58
2717,0,0,0,-3,-3,-2,-2,0,13.585
2718,-1,-1,-1,-3,-4,-2,-1,-1,13.59
2719,0,0,0,1,3,0,-1,-1,13.595
2720,0,-1,-1,-5,-5,-3,-1,-2,13.6
2721,-2,1,0,5,4,1,0,-3,13.605
2722,-2,-1,0,-3,-13,-3,0,0,13.61
2723,-1,-2,-3,1,3,0,-1,-2,13.615
2724,-1,-1,-2,-2,-3,-1,-1,-1,13.620000000000001
2725,0,0,-1,3,4,0,0,0,13.625
2726,-1,-1,-3,-9,-6,0,-3,0,13.63
2727,1,2,0,8,0,-2,-1,-1,13.635
2728,-2,-1,0,-1,-2,0,1,0,13.64
2729,-1,-1,-2,1,2,-2,-2,0,13.645
2730,-2,-2,0,-1,0,-1,-2,-1,13.65
2731,-1,-3,-3,-5,-1,0,-2,-2,13.655000000000001
2732,-1,-1,-1,-1,0,1,0,-2,13.66
2733,-1,0,0,-4,-7,-1,-1,-1,13.665000000000001
2734,-1,-4,-5,2,8,1,0,-1,13.67
2735,-2,-1,0,2,5,1,-3,-2,13.675
2736,-2,-2,0,1,-7,-3,0,-1,13.68
2737,1,0,1,4,0,3,0,1,13.685
2738,0,0,-1,-4,-5,-1,-2,-2,13.69
2739,-1,-1,-2,-7,-6,-1,-2,1,13.695
2740,0,0,-2,-1,2,0,-1,-1,13.700000000000001
2741,0,0,-1,-1,0,-1,-1,0,13.705
2742,1,0,-1,0,-4,-2,-2,0,13.71
2743,-3,-3,-2,-3,1,-1,-1,0,13.715
2744,-1,0,-1,-4,-6,-2,0,-1,13.72
2745,0,3,-2,-1,8,1,1,-1,13.725
2746,1,1,2,11,9,2,1,0,13.73
2747,-1,0,-1,-2,-2,0,0,-1,13.735
2748,0,-4,-1,0,-5,-3,0,-2,13.74
2749,-1,-3,-2,-3,-1,0,0,-2,13.745000000000001
2750,-2,-1,-2,-3,-5,-2,-1,0,13.75
2751,-1,2,0,-3,4,-2,-1,0,13.755
2752,-1,0,-1,0,-5,-2,-1,0,13.76
2753,0,0,0,3,-2,0,1,1,13.765
2754,-2,-2,0,-3,0,-3,-1,-2,13.77
2755,0,-2,-2,1,5,0,0,-1,13.775
2756,-2,0,0,2,2,0,0,-1,13.780000000000001
2757,-2,0,1,-2,-3,-2,-1,-1,13.785
2758,-1,-2,0,1,-2,0,-1,-1,13.790000000000001
2759,0,0,-2,-7,-5,-2,-2,-1,13.795
2760,2,2,0,-3,4,1,-2,0,13.8
2761,-1,-2,-2,2,0,-1,-1,-1,13.805
2762,-1,-1,-2,-3,-3,-1,-2,-1,13.81
2763,-1,0,-1,7,0,-1,0,-1,13.815
2764,-1,1,-1,0,0,0,0,0,13.82
2765,-3,-3,1,1,3,-2,-1,-1,13.825000000000001
2766,-2,1,0,-7,-1,0,-1,-1,13.83
2767,0,-2,0,1,-9,0,0,-1,13.835
2768,-2,2,0,1,5,2,0,1,13.84
2769,-1,-5,-6,-6,-5,-3,-1,-1,13.845
2770,-1,-2,-2,-10,-18,-5,-2,-3,13.85
2771,1,0,2,7,15,3,1,0,13.855
2772,1,-4,-3,-4,-3,0,-2,-1,13.86
2773,0,2,1,0,-3,-1,-1,1,13.865
2774,-1,0,0,-6,-5,-2,-1,0,13.870000000000001
2775,-1,-4,-7,-8,-5,-3,-1,-1,13.875
2776,-1,-1,-1,4,4,0,-3,-1,13.88
2777,0,1,-1,3,4,1,-1,0,13.885
2778,0,0,-2,2,-1,-1,0,0,13.89
2779,-1,0,3,5,8,1,-2,-1,13.895
2780,-1,0,1,-1,3,-2,0,-1,13.9
2781,-2,-3,-2,-2,0,-3,-2,-2,13.905000000000001
2782,1,-1,0,2,0,-1,0,-1,13.91
2783,0,-2,-1,-3,-2,-2,-2,-1,13.915000000000001
2784,0,1,3,-7,-9,-2,-1,0,13.92
2785,0,-1,-1,2,2,-1,-1,-1,13.925
2786,-2,-4,-2,3,1,1,0,-1,13.93
2787,-3,-1,0,-5,-7,-4,0,-2,13.935
2788,0,1,0,2,1,0,-2,-1,13.94
2789,-1,0,1,-7,-6,-1,0,-1,13.945
2790,-2,1,-2,6,1,0,-1,1,13.950000000000001
2791,-2,-4,-2,1,6,0,-1,0,13.955
2792,-2,-2,-1,0,-3,0,-1,-2,13.96
2793,0,0,-1,-3,-4,-1,-1,0,13.965
2794,-3,-1,-2,-3,2,-2,0,-1,13.97
2795,0,1,1,-2,-6,-1,-2,-3,13.975
2796,-1,-3,-2,1,-2,-2,-2,1,13.98
2797,0,-1,-1,1,4,3,-1,-2,13.985
2798,0,-2,-1,-2,-1,-1,0,-1,13.99
2799,-2,0,0,-3,-7,-2,-1,-1,13.995000000000001
2800,-1,-3,-5,-4,-1,-2,-2,-1,14.0
2801,1,-2,-1,-2,-1,-2,0,-1,14.005
2802,0,-1,-2,4,1,0,-2,-4,14.01
2803,0,0,0,5,6,-1,0,1,14.015
2804,-1,-1,-1,-3,-8,-2,1,-1,14.02
2805,0,1,-1,1,-2,1,1,0,14.025
2806,0,0,-1,-3,1,-1,-1,-1,14.030000000000001
2807,-3,-1,0,-4,-2,1,-1,-1,14.035
2808,0,0,0,-3,-4,-2,-2,-1,14.040000000000001
2809,-1,-2,0,-2,3,1,1,-1,14.045
2810,-1,-3,1,7,6,1,0,0,14.05
2811,2,-1,-3,1,5,0,-2,-3,14.055
2812,-1,-1,-2,-2,-2,2,1,-1,14.06
2813,0,0,0,3,6,-1,0,-1,14.065
2814,-1,-2,1,-6,-5,-1,-1,-1,14.07
2815,0,-1,-4,-2,0,-2,-1,0,14.075000000000001
2816,-1,0,-1,-1,0,-3,1,-1,14.08
2817,0,-1,-1,-2,-5,-1,-1,-1,14.085
2818,-1,1,-1,-1,2,-1,0,-3,14.09
2819,-2,-3,-1,-3,-7,-1,-1,-2,14.095
2820,0,0,0,2,4,1,0,-2,14.1
2821,0,0,0,0,-4,-3,-2,-1,14.105
2822,0,1,1,-1,-3,1,0,0,14.11
2823,0,-1,-1,-3,-1,-2,-2,-1,14.115
2824,-1,1,-1,0,1,-1,-1,0,14.120000000000001
2825,0,-2,-1,-1,0,0,-1,0,14.125
2826,-1,-1,-4,-5,-7,-4,-1,-1,14.13
2827,-1,0,2,1,3,0,1,0,14.135
2828,1,-3,0,1,7,3,0,-1,14.14
2829,-1,-2,-3,-7,-12,-2,-1,-1,14.145
2830,0,-2,-2,11,11,2,-1,0,14.15
2831,-2,2,-1,-6,-9,-3,-3,-2,14.155000000000001
2832,-2,-1,0,2,6,-3,-3,-1,14.16
2833,-1,-3,-2,2,6,-1,-1,-1,14.165000000000001
2834,0,1,2,-7,-7,-4,-3,0,14.17
2835,0,0,0,1,1,2,2,0,14.175
2836,-1,-2,1,0,-1,1,0,1,14.18
2837,-1,-2,-2,-5,0,-3,-1,-2,14.185
2838,-1,-1,0,2,1,-1,0,0,14.19
2839,0,-1,-3,0,-4,-1,-2,-1,14.195
2840,0,-1,-1,-3,-4,-2,-1,-2,14.200000000000001
2841,-1,1,1,1,1,1,-1,0,14.205
2842,-1,-1,-2,-3,0,-1,-3,-2,14.21
2843,-1,-2,-2,-4,-10,-2,-1,-1,14.215
2844,1,-1,-1,5,6,1,-1,1,14.22
2845,-1,0,-2,-3,-2,-1,-1,0,14.225
2846,1,0,2,2,-3,0,-1,-1,14.23
2847,-3,-7,-5,-6,-4,-2,-2,-2,14.235
2848,0,-1,-2,9,7,-1,0,0,14.24
2849,0,1,2,1,-3,-2,0,-1,14.245000000000001
2850,-4,-3,-4,-7,-1,-1,-1,-1,14.25
2851,1,2,2,5,-3,-1,-1,-3,14.255
2852,0,-2,-3,-5,-1,0,-1,-2,14.26
2853,0,-1,-1,1,1,1,-1,0,14.265
2854,-1,0,0,-2,-4,-3,0,0,14.27
2855,-2,-1,-3,-6,-7,-3,-2,0,14.275
2856,-2,-2,-3,-4,10,3,0,-1,14.280000000000001
2857,0,0,0,8,-3,3,0,0,14.285
2858,0,-3,-1,-1,0,0,-2,-1,14.290000000000001
2859,0,-1,-2,-3,-6,-2,-3,0,14.295
2860,0,0,2,2,6,0,-1,-2,14.3
2861,-1,1,0,-3,-5,-1,0,1,14.305
2862,1,0,-1,-1,3,1,1,-1,14.31
2863,-1,-1,1,0,4,1,1,-1,14.315
2864,-2,-2,-3,-4,-10,-3,0,-1,14.32
2865,0,-1,2,-3,-4,1,-1,0,14.325000000000001
2866,0,1,0,5,6,0,-2,0,14.33
2867,1,1,0,4,10,1,-1,0,14.335
2868,-1,0,-1,-4,-6,-2,0,-1,14.34
2869,-1,-1,-1,0,2,-1,2,-3,14.345
2870,-1,-2,-2,-4,-5,0,0,-1,14.35
2871,0,1,0,-5,-1,-2,-1,-1,14.355
2872,-1,-3,-3,-3,-6,-2,-2,-1,14.36
2873,0,0,1,7,5,2,-1,-2,14.365
2874,-1,-1,-2,3,-2,1,1,-2,14.370000000000001
2875,-1,1,1,-1,0,-1,0,-2,14.375
2876,-1,1,1,-2,-3,-2,0,-1,14.38
2877,-2,-3,-3,-7,-7,-3,-3,0,14.385
2878,-2,-2,0,-3,0,-2,-1,-1,14.39
2879,-2,-2,-1,1,-3,0,-1,-3,14.395
2880,1,0,1,-3,-4,-1,-2,-1,14.4
2881,1,1,1,0,0,-1,1,0,14.405000000000001
2882,0,-2,1,0,0,-2,-1,-1,14.41
2883,-3,-1,-2,-2,-3,-1,-1,0,14.415000000000001
2884,-3,-1,-1,3,-2,0,0,-1,14.42
2885,0,-2,-3,-3,-4,-2,-1,-1,14.425
2886,1,1,1,0,7,-1,0,0,14.43
2887,0,-2,-2,0,-10,-2,0,0,14.435
2888,0,1,-3,-3,-6,-1,-1,0,14.44
2889,-2,-1,-3,-4,6,1,0,1,14.445
2890,-1,0,-2,3,-2,0,0,1,14.450000000000001
2891,-2,-1,-1,1,5,1,-1,-3,14.455
2892,-1,1,1,-4,-5,-1,0,-1,14.46
2893,-1,0,-3,0,6,-1,-1,0,14.465
2894,1,0,-1,-5,-11,-4,-2,-2,14.47
2895,-1,0,0,0,9,3,2,0,14.475
2896,-1,0,1,-2,-5,-1,-3,-2,14.48
2897,0,0,0,-2,-3,-1,0,-1,14.485
2898,-4,-3,-3,-1,-2,1,-1,0,14.49
2899,-1,-2,-1,-3,-4,-4,-1,0,14.495000000000001
2900,-1,-1,-1,2,3,-1,1,-2,14.5
2901,-2,-1,-1,6,4,1,0,-1,14.505
2902,1,-1,1,-3,-6,-3,0,-1,14.51
2903,-1,-1,-2,0,-1,-1,-1,1,14.515
2904,0,-3,-2,-4,-3,-1,-1,1,14.52
2905,0,0,2,1,-1,0,-1,-1,14.525
2906,-1,-2,-4,-4,-4,-3,0,-2,14.530000000000001
2907,0,-4,-2,3,9,0,-1,-3,14.535
2908,2,4,0,-5,2,0,1,0,14.540000000000001
2909,-1,-2,-2,7,-2,-1,-2,-1,14.545
2910,-2,-1,0,-1,2,0,-2,-1,14.55
2911,-1,1,0,4,-6,0,-1,-1,14.555
2912,-1,-1,0,0,2,0,0,0,14.56
2913,-2,-2,-1,-5,-2,0,0,0,14.565
2914,-2,-2,-1,-3,-1,-2,-3,-1,14.57
2915,0,-1,0,2,-4,-1,-1,1,14.575000000000001
2916,-1,0,0,-1,2,0,-2,0,14.58
2917,-2,0,0,-7,-7,-1,1,-2,14.585
2918,0,1,-1,2,-2,1,-1,-1,14.59
2919,0,0,-1,-5,-1,-2,-2,-1,14.595
2920,0,-1,1,5,3,-2,-2,-1,14.6
2921,-3,0,-1,-5,-6,-3,-2,1,14.605
2922,0,-1,-1,0,0,2,1,-2,14.61
2923,-1,-1,1,-3,0,-2,0,-2,14.615
2924,-2,-2,-2,1,0,0,-1,-1,14.620000000000001
2925,1,0,-2,-2,0,0,-3,-2,14.625
2926,-1,-1,0,5,6,1,0,0,14.63
2927,1,2,2,-1,3,2,-1,0,14.635
2928,0,-2,1,-3,-5,-1,-1,-1,14.64
2929,1,-1,-1,-4,-4,-4,0,-1,14.645
2930,-1,0,-3,3,8,0,0,-2,14.65
2931,-1,-2,-3,-4,-4,-1,-2,-1,14.655000000000001
2932,1,0,-1,4,3,0,0,-1,14.66
2933,-1,-2,0,1,-2,0,0,0,14.665000000000001
2934,-1,0,0,-8,-2,-3,-2,-1,14.67
2935,-2,-1,0,3,-7,-1,-1,-2,14.675
2936,-3,-2,-3,-3,-6,0,1,-1,14.68
2937,0,0,0,2,3,0,-1,0,14.685
2938,0,-1,1,0,-5,0,0,-1,14.69
2939,-1,-3,-3,-4,1,0,0,-1,14.695
2940,0,-1,-1,3,2,1,-2,0,14.700000000000001
2941,-1,1,-1,2,-2,0,1,-1,14.705
2942,-1,-2,-1,-3,0,-2,-2,0,14.71
2943,0,1,1,-2,-1,-1,-1,0,14.715
2944,0,0,-2,-1,0,-2,0,0,14.72
2945,-2,-3,-1,2,6,-1,-1,-1,14.725
2946,-1,3,-2,-2,-4,0,0,-1,14.73
2947,-2,-1,-2,-3,-3,-2,0,-1,14.735
2948,1,1,2,2,3,0,-1,-1,14.74
2949,1,-1,0,3,8,1,-1,-1,14.745000000000001
2950,-1,-4,-3,-1,-6,-2,-1,-1,14.75
2951,0,0,0,-1,3,-2,-1,-1,14.755
2952,0,-1,1,-7,-12,0,1,-1,14.76
2953,-1,0,-1,3,4,-1,-2,-1,14.765
2954,-2,-2,-3,-2,-3,-1,-3,-1,14.77
2955,-1,0,1,4,6,0,1,-1,14.775
2956,-2,-1,-3,-4,-6,-2,-3,-3,14.780000000000001
2957,-3,-1,-2,1,1,1,1,0,14.785
2958,-1,-3,-2,-4,1,-3,-2,-2,14.790000000000001
2959,-2,-2,0,0,0,0,-1,1,14.795
2960,0,-2,-1,-4,-2,-1,-2,-1,14.8
2961,1,1,-1,-5,-6,-1,0,-2,14.805
2962,0,0,-1,2,2,-2,0,-1,14.81
2963,2,1,0,-1,2,1,0,-2,14.815
2964,1,-1,1,-1,4,-2,0,0,14.82
2965,-1,-2,0,-3,-10,-4,-2,-2,14.825000000000001
2966,0,-2,0,3,3,1,-2,-2,14.83
2967,-2,0,0,0,1,-2,-1,-2,14.835
2968,-2,-1,0,2,1,0,0,-2,14.84
2969,0,-2,-1,-5,-6,-2,0,-2,14.845
2970,-1,0,0,-4,-4,0,0,1,14.85
2971,-2,-3,-5,-2,-2,-1,-2,0,14.855
2972,0,0,0,9,11,2,-2,-1,14.86
2973,1,0,-2,1,0,-2,-2,-2,14.865
2974,0,0,-2,0,-1,0,-1,-1,14.870000000000001
2975,-1,-1,-2,-4,-5,-1,-1,0,14.875
2976,-1,-1,-2,-2,-2,-3,-1,-2,14.88
2977,0,1,0,3,2,-1,-1,1,14.885
2978,-1,-1,-2,-4,-2,-2,0,-1,14.89
2979,0,-2,-1,-1,0,1,-1,0,14.895
2980,-1,0,-2,3,4,-2,0,-2,14.9
2981,0,-1,0,2,1,0,0,0,14.905000000000001
2982,-2,-1,0,-1,2,-1,-2,-2,14.91
2983,0,-1,-1,-4,-10,-1,0,0,14.915000000000001
2984,-1,-2,-1,-5,-6,-1,-2,-1,14.92
2985,-2,-4,-1,1,8,0,-1,0,14.925
2986,-1,-1,-3,-1,-1,-3,-1,-3,14.93
2987,-2,-2,0,1,5,-2,-1,-1,14.935
2988,-2,-1,-1,2,-4,1,-1,1,14.94
2989,-1,-1,-1,-1,-5,0,-2,-1,14.945
2990,-1,-2,-1,-4,-6,-2,-1,-1,14.950000000000001
2991,0,0,-2,-2,0,0,0,-1,14.955
2992,-2,-2,-3,-1,-2,-1,-1,-1,14.96
2993,0,1,-2,-7,-4,-1,0,1,14.965
2994,-1,-1,1,5,1,-1,0,0,14.97
2995,-2,-1,0,0,2,0,-2,0,14.975
2996,1,-2,0,-1,-5,-1,1,1,14.98
2997,0,-1,-1,0,2,1,-2,-2,14.985
2998,-2,-1,-1,-1,0,0,-1,0,14.99
2999,-1,1,-1,-1,-4,-2,-2,-1,14.995000000000001
3000,-1,0,-1,0,6,3,-1,-1,15.0
3001,0,2,0,2,2,-1,0,-3,15.005
3002,-1,0,1,-3,-13,-2,-1,-1,15.01
3003,2,2,0,1,4,1,0,-1,15.015
3004,0,-3,-2,-2,-1,-1,0,0,15.02
3005,0,-1,-1,0,2,-1,0,0,15.025
3006,0,-1,-1,-6,-8,-3,-2,-1,15.030000000000001
3007,2,-1,-2,5,5,2,1,0,15.035
3008,0,1,2,-2,-1,-3,1,-1,15.040000000000001
3009,-1,-2,0,-3,-6,-1,1,0,15.045
3010,-3,-2,0,0,-3,-1,-1,0,15.05
3011,0,-2,-1,-3,1,-2,-2,-3,15.055
3012,1,2,2,2,-2,-1,-1,-1,15.06
3013,-2,-3,-3,1,-1,0,-2,0,15.065
3014,0,-1,-1,-1,-1,0,-1,-1,15.07
3015,-2,0,-2,-2,-3,-3,-2,-1,15.075000000000001
3016,0,-1,-1,-2,-1,-1,0,-1,15.08
3017,-1,-1,1,-1,-2,-1,-3,0,15.085
3018,1,0,-1,2,5,1,1,0,15.09
3019,-2,-3,-1,-3,-4,-1,0,0,15.095
3020,0,-2,-1,5,13,2,-1,-1,15.1
3021,1,0,-2,-8,-5,-2,-1,-1,15.105
3022,-1,-2,-2,8,5,2,-1,0,15.11
3023,-2,-3,-1,-4,-6,-3,-1,-1,15.115
3024,-1,0,0,-4,-5,-2,-1,-1,15.120000000000001
3025,0,0,1,4,9,0,-1,0,15.125
3026,0,0,0,-1,-7,-2,1,0,15.13
3027,1,0,-1,-3,-9,-3,-2,-2,15.135
3028,-1,0,0,-2,-3,0,-1,-1,15.14
3029,-4,-2,-1,0,-4,1,0,-1,15.145
3030,-1,-3,-3,-2,3,-1,-2,-3,15.15
3031,-1,2,2,1,-5,-3,-2,-1,15.155000000000001
3032,-3,-4,-1,0,1,0,0,1,15.16
3033,0,0,-1,-1,-2,0,1,0,15.165000000000001
3034,0,2,1,1,10,2,0,1,15.17
3035,-1,-3,-2,-2,-2,-2,0,-1,15.175
3036,-3,-2,-1,1,6,-2,-1,-1,15.18
3037,-1,-2,-3,-4,-4,-3,-3,-2,15.185
3038,-1,-1,-1,2,1,0,-2,-2,15.19
3039,0,-2,-1,0,4,1,-1,-1,15.195
3040,1,0,-1,-1,-2,-1,1,1,15.200000000000001
3041,0,-2,0,-1,0,-1,-1,0,15.205
3042,-1,0,0,-7,-9,-3,-2,0,15.21
3043,-1,-2,-1,5,7,0,1,0,15.215
3044,2,1,1,2,7,0,-9,1,15.22
3045,-1,1,0,2,0,-1,-4,-3,15.225
3046,-2,-1,1,-4,-1,1,-1,-3,15.23
3047,-2,-1,-2,-2,-2,1,4,-1,15.235
3048,-2,0,-2,-2,-5,-2,3,-1,15.24
3049,1,0,-1,-2,1,0,4,1,15.245000000000001
3050,0,-2,-1,3,4,2,2,0,15.25
3051,-1,-1,1,-3,-5,-1,-2,0,15.255
3052,0,-2,-2,-2,-3,-3,2,1,15.26
3053,-1,-2,-2,-2,-3,-1,-1,0,15.265
3054,-1,-1,0,-3,2,-1,-1,-2,15.27
3055,-3,-3,-2,7,9,3,-1,2,15.275
3056,-1,0,-1,-4,-6,-2,0,-2,15.280000000000001
3057,1,0,1,3,3,2,3,-1,15.285
3058,-2,-3,-3,-1,-5,-3,0,-1,15.290000000000001
3059,-2,1,0,-1,-1,-1,-3,-3,15.295
3060,0,-1,1,-2,1,-1,-1,0,15.3
3061,-1,-1,-3,-3,-3,1,-1,-1,15.305
3062,-1,-1,-1,-4,-1,-4,-4,-2,15.31
3063,0,-1,-2,-15,-7,-3,-2,-1,15.315
3064,-1,2,2,18,8,4,3,0,15.32
3065,-1,-2,-2,0,2,1,-2,-1,15.325000000000001
3066,-2,-1,0,-2,-3,-3,-1,-1,15.33
3067,0,0,-2,-3,0,-1,-1,-3,15.335
3068,-1,-3,-1,-5,-3,-1,-1,-1,15.34
3069,0,4,-2,-3,-7,-5,-1,-1,15.345
3070,-1,1,-2,1,7,1,-1,0,15.35
3071,-2,-2,-5,-1,-6,-1,-1,-1,15.355
3072,-1,-2,-1,1,6,1,1,-1,15.36
3073,-1,-3,-1,0,-1,-1,0,0,15.365
3074,-1,-2,0,-2,-5,-2,-1,0,15.370000000000001
3075,0,-2,2,-2,-3,0,-1,1,15.375
3076,0,0,-1,0,0,-1,-1,0,15.38
3077,-1,-1,-2,1,4,-1,0,-1,15.385
3078,1,0,-2,1,-1,-2,-1,-1,15.39
3079,0,-2,0,1,0,1,-1,1,15.395
3080,-1,2,-1,-4,-8,-2,-2,-3,15.4
3081,-1,-1,1,-6,-6,-2,-1,0,15.405000000000001
3082,-1,1,0,6,11,4,1,-1,15.41
3083,0,0,0,-2,-1,-2,-2,-1,15.415000000000001
3084,-1,0,-2,-1,1,-1,1,0,15.42
3085,0,-2,1,0,0,0,-1,-1,15.425
3086,-2,-3,-2,-4,-7,-2,-3,-3,15.43
3087,0,-1,-1,0,4,0,-1,0,15.435
3088,-1,-2,-3,-14,-10,-4,-3,-1,15.44
3089,0,2,1,21,19,3,0,1,15.445
3090,0,-3,-3,1,-1,-1,0,0,15.450000000000001
3091,-1,-1,0,3,-2,-1,0,-1,15.455
3092,2,0,0,-3,-1,-1,-1,0,15.46
3093,-1,-2,-1,-9,-7,-3,0,0,15.465
3094,-1,1,2,-4,-6,-2,0,-1,15.47
3095,0,2,-2,1,3,0,-2,-1,15.475
3096,-1,-1,-2,-2,-7,-2,-1,-1,15.48
3097,-1,-4,-2,1,5,-1,0,0,15.485000000000001
3098,-1,-1,-1,-1,-1,-2,0,1,15.49
3099,-1,0,-2,-2,4,2,0,0,15.495000000000001
3100,1,-2,0,2,0,-1,0,-2,15.5
3101,-1,0,-1,-3,-6,-1,-2,-1,15.505
3102,-1,-1,-1,0,-2,-1,-2,-1,15.51
3103,0,-1,0,-1,-2,-2,-1,0,15.515
3104,0,0,-2,1,-7,-1,0,-1,15.52
3105,-1,-1,-1,-5,-3,-1,-1,-2,15.525
3106,-1,-1,1,1,3,1,0,-1,15.530000000000001
3107,-1,0,0,-5,-12,-4,-3,1,15.535
3108,-1,-1,2,11,15,4,1,0,15.540000000000001
3109,0,-3,-1,-5,-6,-2,-1,-1,15.545
3110,-1,1,-2,-4,-7,-1,-1,-1,15.55
3111,-1,-2,-2,-3,-3,-1,-2,-3,15.555
3112,0,0,2,2,2,0,0,0,15.56
3113,1,0,-1,-1,0,0,-1,1,15.565
3114,-1,-3,-3,1,2,-1,-1,1,15.57
3115,-2,0,-1,-2,1,-1,0,0,15.575000000000001
3116,-2,-2,-2,-6,-11,-2,-1,-2,15.58
3117,-2,-2,0,3,4,1,-1,-1,15.585
3118,0,2,0,-2,0,-1,-1,-3,15.59
3119,0,0,0,3,1,0,-1,-2,15.595
3120,1,0,0,-2,-3,0,-2,2,15.6
3121,0,0,0,-4,-5,0,-1,-1,15.605
3122,-1,-1,-1,-2,-4,0,0,-1,15.610000000000001
3123,0,0,1,2,4,1,-1,-1,15.615
3124,0,-3,-2,0,0,0,-1,0,15.620000000000001
3125,-1,-1,-1,-5,-9,-4,-1,0,15.625
3126,-2,-3,-1,-1,-2,-1,-2,-1,15.63
3127,0,2,0,4,4,0,1,0,15.635
3128,-1,-1,0,-4,-2,-1,-1,-2,15.64
3129,-1,-2,0,2,0,0,0,-2,15.645
3130,-1,-4,-3,-3,-7,-3,-1,-1,15.65
3131,0,-3,-2,4,5,0,0,0,15.655000000000001
3132,-1,0,-1,-1,0,0,-3,0,15.66
3133,-2,1,-2,-5,-1,-2,-2,-1,15.665000000000001
3134,-1,-1,-1,0,2,0,-1,-3,15.67
3135,-1,-2,1,7,2,-1,1,0,15.675
3136,-2,-1,0,-6,-11,-1,-1,0,15.68
3137,0,-2,1,3,6,2,0,-1,15.685
3138,0,-3,-4,-2,-4,-3,-1,-1,15.69
3139,0,-4,-5,-2,-5,-2,0,0,15.695
3140,-1,-1,-2,-2,3,-2,1,0,15.700000000000001
3141,-2,-2,-1,0,-3,-1,0,1,15.705
3142,-1,0,-1,-2,-3,-2,0,0,15.71
3143,-1,1,2,-4,-1,-1,-1,-1,15.715
3144,0,1,-1,2,1,0,-2,-1,15.72
3145,-2,-1,-2,-2,-1,0,-2,-3,15.725
3146,-1,-1,-1,-1,2,0,0,-1,15.73
3147,-1,-1,-1,-1,-4,-1,-2,-1,15.735000000000001
3148,-1,-1,1,2,6,3,1,-1,15.74
3149,-2,-3,0,1,-5,-1,-1,1,15.745000000000001
3150,-2,1,-2,-2,1,0,-1,1,15.75
3151,-1,-1,-1,-3,-9,-2,-1,0,15.755
3152,0,0,0,0,0,-3,-1,-1,15.76
3153,-2,0,-1,2,9,2,-1,-2,15.765
3154,-2,-2,-2,-4,0,-1,-2,0,15.77
3155,0,0,-1,-2,-2,0,-1,0,15.775
3156,-1,-1,2,-1,0,-1,-1,-2,15.780000000000001
3157,0,0,-1,3,1,1,0,0,15.785
3158,-2,-1,2,0,-2,-2,0,-3,15.790000000000001
3159,2,0,1,-1,-1,-2,0,-1,15.795
3160,0,-2,-4,-5,-3,0,0,3,15.8
3161,-5,0,4,2,0,-2,1,-4,15.805
3162,-1,-1,-3,2,-1,1,-2,0,15.81
3163,-3,-2,-1,-1,0,-1,-1,-2,15.815
3164,-2,-1,-3,0,-3,-1,0,0,15.82
3165,0,-2,-4,-3,-4,-1,-1,1,15.825000000000001
3166,0,-2,-1,-6,-6,-3,-3,-1,15.83
3167,-3,1,1,4,10,3,9,-3,15.835
3168,0,-3,1,6,0,-1,-7,-2,15.84
3169,0,0,-1,-5,-3,-1,-4,5,15.845
3170,0,0,2,4,5,-1,-2,3,15.85
3171,0,-1,-2,-6,-6,-2,-5,-5,15.855
3172,-2,-1,-5,-2,-3,1,3,-2,15.860000000000001
3173,-3,2,1,-8,5,-1,-1,-5,15.865
3174,-3,-1,1,5,-2,-1,-2,-4,15.870000000000001
3175,0,-1,-1,0,-3,-2,1,2,15.875
3176,-1,-2,-3,-3,10,1,1,-3,15.88
3177,1,-3,-21,-30,-18,-3,-1,1,15.885
3178,4,2,21,40,17,4,3,6,15.89
3179,-1,2,2,-1,-1,1,-1,-2,15.895
3180,4,-4,-9,-18,-5,-2,1,9,15.9
3181,-9,1,-1,3,14,4,-1,-24,15.905000000000001
3182,-9,-2,10,11,-4,-3,-12,-41,15.91
3183,-3,-10,-3,22,-2,1,3,48,15.915000000000001
3184,9,5,5,5,3,1,27,26,15.92
3185,-2,-6,-13,-19,-17,-8,-24,9,15.925
3186,-3,-6,-24,-27,-1,-3,3,-29,15.93
3187,-1,4,11,10,1,1,-10,-41,15.935
3188,4,2,-15,-28,-5,-7,-20,32,15.94
3189,-6,-7,12,22,-4,-20,-18,-9,15.945
3190,-31,2,13,11,13,35,39,52,15.950000000000001
3191,-36,-3,-7,-33,-2,5,6,-41,15.955
3192,9,5,3,23,-2,15,28,-22,15.96
3193,41,6,1,-24,-17,-6,16,22,15.965
3194,11,2,-16,50,3,-14,-20,-27,15.97
3195,14,17,45,20,1,9,4,-13,15.975
3196,-14,-11,-13,-13,4,-1,-11,-24,15.98
3197,-6,-4,-32,-64,-34,-14,-15,-2,15.985000000000001
3198,4,-2,37,59,26,-2,-6,18,15.99
3199,1,-8,-47,-64,-13,-8,-8,15,15.995000000000001
3200,3,12,44,88,14,4,-11,-7,16.0
3201,2,1,8,40,28,24,24,5,16.005
3202,-10,-2,-31,-67,-31,-13,-5,2,16.01
3203,-3,-7,2,4,5,-5,-5,3,16.015
3204,-1,-4,-22,-72,-23,-8,-5,-9,16.02
3205,-5,1,15,30,12,7,6,-16,16.025
3206,10,7,-4,-37,-7,4,12,53,16.03
3207,5,-3,-4,-8,5,-4,-11,-39,16.035
3208,-5,-3,6,36,-4,-17,-1,55,16.04
3209,-4,6,5,22,11,4,19,-18,16.045
3210,-4,-10,-14,-46,-2,-8,-52,-78,16.05
3211,-2,-14,13,37,-4,-3,18,46,16.055
3212,-14,-9,8,4,10,13,14,-11,16.06
3213,-26,-11,-25,40,-17,-22,-46,-26,16.065
3214,49,7,1,-53,-1,8,27,29,16.07
3215,-22,-1,1,-68,-11,1,-2,14,16.075
3216,-27,-2,7,17,1,7,12,11,16.080000000000002
3217,14,-3,9,-17,7,11,22,1,16.085
3218,-15,-7,-5,65,-5,-11,-13,-37,16.09
3219,8,6,-12,-5,3,-6,-3,-2,16.095
3220,1,-2,4,3,8,2,1,8,16.1
3221,-5,-8,-25,-71,-22,-13,-7,-10,16.105
3222,0,1,-12,-62,-17,-6,-10,-25,16.11
3223,16,9,27,78,8,6,13,49,16.115000000000002
3224,0,-1,14,71,21,-3,-2,-26,16.12
3225,6,0,1,-25,0,3,-6,32,16.125
3226,-8,-6,-25,-44,-17,-6,0,-1,16.13
3227,-9,-7,-6,-30,-20,-6,-6,-13,16.135
3228,7,-3,-7,24,31,4,-6,-41,16.14
3229,2,15,49,89,8,7,7,32,16.145
3230,-19,-9,-5,49,20,-3,24,58,16.15
3231,1,0,-19,-88,-21,-9,-15,-50,16.155
3232,18,8,-11,-69,-46,-7,-16,15,16.16
3233,12,6,17,-5,12,4,8,-13,16.165
3234,-29,-2,3,-18,-11,2,-2,24,16.17
3235,31,-19,-18,32,18,-7,-4,25,16.175
3236,-1,2,-16,-27,6,1,3,-16,16.18
3237,19,-3,25,58,21,7,4,-9,16.185
3238,-30,4,-19,-39,-23,4,0,-27,16.19
3239,3,17,30,119,62,10,10,37,16.195
3240,-4,-10,-15,-103,-41,-16,-12,5,16.2
3241,-5,2,-6,-62,-26,-6,1,8,16.205000000000002
3242,31,-8,8,32,28,13,1,3,16.21
3243,-29,0,-2,-9,5,14,4,-1,16.215
3244,34,10,23,-57,-38,-12,-7,0,16.22
3245,-53,-33,-32,-22,0,-2,5,-14,16.225
3246,-3,-2,16,18,8,0,-1,-4,16.23
3247,3,5,-7,-2,-4,-5,-4,-8,16.235
3248,3,8,0,35,13,-8,-5,34,16.240000000000002
3249,-17,-6,-7,-51,-19,1,13,-48,16.245
3250,-13,4,27,76,20,0,12,1,16.25
3251,1,-13,-11,-24,-14,-7,-28,-38,16.255
3252,6,-4,-5,40,11,14,-1,65,16.26
3253,-2,-1,-22,-15,7,-10,-36,-96,16.265
3254,49,9,-31,-93,-23,-8,10,103,16.27
3255,33,6,52,49,2,3,12,-22,16.275
3256,-85,-1,-27,-46,-15,3,5,-55,16.28
3257,31,8,-9,-33,1,6,19,42,16.285
3258,-34,-2,40,97,34,-5,-18,-65,16.29
3259,19,10,-18,-44,-12,-3,3,-4,16.295
3260,76,-4,-7,-56,-26,-2,-3,-6,16.3
3261,-105,-29,-8,39,0,-4,-4,-10,16.305
3262,23,5,23,11,-7,-1,-2,11,16.31
3263,-7,-10,-41,-34,-19,-5,2,9,16.315
3264,-20,2,-11,6,6,0,-3,-35,16.32
3265,46,25,42,99,69,20,31,80,16.325
3266,-11,-8,-2,-12,-42,-21,-30,-61,16.330000000000002
3267,-18,-3,-1,30,17,6,-5,-12,16.335
3268,0,-2,-5,-17,-10,-11,-10,51,16.34
3269,27,5,-11,-51,-24,1,7,11,16.345
3270,6,-11,6,-18,4,3,17,112,16.35
3271,-38,15,15,39,6,-5,-26,-105,16.355
3272,28,-5,-8,63,19,6,-4,-47,16.36
3273,5,9,12,-72,-49,-18,-21,-39,16.365000000000002
3274,-8,8,0,32,28,7,8,-20,16.37
3275,0,-8,-9,47,-13,2,19,71,16.375
3276,31,4,-8,-78,-13,0,6,51,16.38
3277,59,13,50,127,10,4,-13,-48,16.385
3278,-66,-18,-53,1,-21,-6,-3,-32,16.39
3279,26,2,-4,-59,-4,-1,3,9,16.395
3280,-33,-5,-14,-13,-17,-9,15,7,16.4
3281,-44,-10,8,12,-29,3,-6,13,16.405
3282,64,-2,-18,-20,12,2,8,-26,16.41
3283,3,13,14,-12,11,13,-1,7,16.415
3284,-17,-10,7,22,1,-16,-18,60,16.42
3285,29,-5,-29,-70,-14,6,14,116,16.425
3286,-53,-12,4,-26,-7,-10,-23,-86,16.43
3287,0,-11,-1,-9,4,-1,12,10,16.435
3288,34,13,36,84,51,15,8,-9,16.44
3289,-6,-5,-9,13,-4,-10,-10,-11,16.445
3290,-31,1,-29,12,26,5,11,19,16.45
3291,41,-4,18,-56,-33,-10,-8,-26,16.455000000000002
3292,-78,-16,-15,14,-22,-2,-8,-21,16.46
3293,-52,-7,10,-11,18,-6,-14,-27,16.465
3294,76,10,23,13,6,4,0,-13,16.47
3295,27,13,-43,-32,55,25,20,22,16.475
3296,19,-13,13,98,8,-12,-5,-20,16.48
3297,40,12,-3,73,41,13,0,17,16.485
3298,-34,5,26,22,11,7,-1,-18,16.490000000000002
3299,-58,-6,-4,40,-7,-8,21,-28,16.495
3300,46,4,4,-98,-24,-8,-12,49,16.5
3301,6,4,-25,-54,15,8,3,82,16.505
3302,114,17,19,-48,-29,-19,-6,-20,16.51
3303,-52,-26,-11,-2,-10,0,-7,-34,16.515
3304,-63,-6,0,6,8,2,-2,-105,16.52
3305,4,3,3,30,-2,-8,4,-34,16.525
3306,42,7,4,-26,-8,-4,-2,56,16.53
3307,0,-10,-30,19,-24,-5,-13,-12,16.535
3308,28,14,51,3,18,7,5,-31,16.54
3309,-1,-10,-42,-28,-16,-2,-10,1,16.545
3310,-33,-4,-17,-41,-27,2,2,-34,16.55
3311,-16,0,45,94,59,1,-17,26,16.555
3312,6,7,-25,-57,-29,1,2,8,16.56
3313,13,0,4,108,34,3,2,-19,16.565
3314,-28,-22,-16,-47,-74,-21,0,8,16.57
3315,-18,0,-11,-23,2,-4,-7,-15,16.575
3316,-1,2,-11,11,1,11,7,-43,16.580000000000002
3317,-7,0,15,6,24,-16,-3,62,16.585
3318,-22,-7,-11,36,-14,-1,12,-6,16.59
3319,31,18,13,-37,-33,-9,-10,62,16.595
3320,84,8,-12,-34,20,-2,-9,-44,16.6
3321,-58,-12,13,19,-22,-15,-16,-77,16.605
3322,-42,0,-16,121,45,14,0,21,16.61
3323,-75,-43,5,-95,-33,-2,3,-45,16.615000000000002
3324,7,-3,12,60,16,9,11,11,16.62
3325,46,14,-17,-71,-38,-2,3,34,16.625
3326,58,8,7,-14,21,6,-4,8,16.63
3327,-35,-2,4,24,-17,-10,-1,-7,16.635
3328,-28,1,14,58,69,17,9,26,16.64
3329,-40,-15,-17,-61,-37,-16,-9,-53,16.645
3330,3,17,-1,15,17,10,1,9,16.65
3331,43,7,-38,-53,1,-10,21,-14,16.655
3332,-12,7,32,4,-28,-4,-18,30,16.66
3333,-2,8,27,35,21,6,3,44,16.665
3334,-29,-1,7,27,7,-5,-4,86,16.67
3335,92,-1,-29,-75,-20,1,6,-73,16.675
3336,-33,-2,31,71,-8,3,-5,-21,16.68
3337,-56,-1,-4,35,40,-2,-7,-20,16.685
3338,110,-4,-28,-62,-33,-7,2,-5,16.69
3339,-11,-6,7,24,17,4,1,28,16.695
3340,13,-14,-43,-61,0,-3,14,3,16.7
3341,37,5,12,-25,-39,2,9,-8,16.705000000000002
3342,-81,2,0,-35,14,6,-6,-35,16.71
3343,32,1,22,33,1,-8,-14,-9,16.715
3344,-47,0,-15,-62,-47,-11,-8,-6,16.72
3345,-11,8,-11,34,94,29,15,20,16.725
3346,-40,-1,18,-15,-14,-9,-7,-39,16.73
3347,49,17,9,25,-5,5,-3,40,16.735
3348,-11,-22,2,17,25,10,16,3,16.740000000000002
3349,15,-8,-22,-60,-28,-10,1,4,16.745
3350,4,8,37,71,16,4,2,5,16.75
3351,-16,5,-16,-9,9,3,6,3,16.755
3352,-6,11,11,40,7,-6,-19,8,16.76
3353,22,-7,-9,-30,-22,-5,-19,-56,16.765
3354,58,5,-2,-19,23,9,11,30,16.77
3355,-40,-22,-21,-18,-33,-5,-3,14,16.775
3356,-73,-6,57,97,51,3,3,-52,16.78
3357,84,19,-27,-82,-42,1,6,-12,16.785
3358,-30,4,22,40,9,-1,-10,-23,16.79
3359,-9,6,11,18,-19,-6,-1,23,16.795
3360,10,0,-51,-84,-18,1,12,20,16.8
3361,9,-2,56,106,7,5,-6,-16,16.805
3362,-15,-20,-40,-48,19,-7,-11,-3,16.81
3363,0,10,23,75,13,-2,4,50,16.815
3364,-1,-12,-26,-11,-32,-9,-8,-31,16.82
3365,2,11,22,-23,2,-1,0,21,16.825
3366,-6,-9,-25,-74,-27,-2,9,1,16.830000000000002
3367,-2,5,5,-3,4,0,1,12,16.835
3368,23,4,-22,-21,-2,-3,-3,-28,16.84
3369,64,-11,26,104,12,-5,7,55,16.845
3370,-92,-20,-15,-39,-25,-4,-4,-22,16.85
3371,-37,-15,-11,-31,16,4,-23,-61,16.855
3372,11,-13,-3,-35,-6,0,14,36,16.86
3373,-4,2,-11,-36,-5,-2,9,84,16.865000000000002
3374,-13,-1,-10,-15,-1,0,-6,-100,16.87
3375,-30,-3,27,78,6,-6,-4,23,16.875
3376,7,3,-32,-32,4,2,-3,0,16.88
3377,-25,-7,4,7,13,4,0,-32,16.885
3378,41,5,26,51,14,3,4,42,16.89
3379,10,2,-28,-39,-4,-1,3,5,16.895
3380,13,12,18,36,-19,-13,-6,14,16.9
3381,-19,-4,2,28,38,14,4,-26,16.905
3382,1,1,1,-33,-6,1,-2,0,16.91
3383,5,6,10,20,14,2,-1,-14,16.915
3384,11,5,0,-10,3,0,1,21,16.92
3385,-26,-3,-22,-19,-31,-9,-6,-16,16.925
3386,-1,-6,-2,11,5,1,-3,2,16.93
3387,17,2,8,12,5,5,3,12,16.935
3388,7,12,12,49,-4,-3,-3,4,16.94
3389,-24,-11,-13,-29,-20,-7,-3,-21,16.945
3390,19,15,18,62,19,6,3,11,16.95
3391,4,-7,-11,-37,-23,-8,-2,7,16.955000000000002
3392,-12,-20,-12,-25,6,3,1,-6,16.96
3393,-22,-14,-8,-8,18,3,-5,-21,16.965
3394,17,2,-2,-31,-18,-5,0,20,16.97
3395,9,-2,5,-5,-6,1,2,7,16.975
3396,-2,7,16,18,14,1,-3,-6,16.98
3397,-4,-2,-6,-21,-16,-4,-1,-7,16.985
3398,-1,-5,-4,-19,-8,-2,-3,4,16.990000000000002
3399,6,20,2,-2,6,-1,2,-3,16.995
3400,4,-3,-7,-10,2,1,1,2,17.0
3401,-8,3,-2,-13,-7,-3,-3,-37,17.005
3402,-5,-7,-7,-10,-6,-3,-1,36,17.01
3403,-2,-1,0,1,3,2,1,-7,17.015
3404,13,5,7,0,-4,-1,6,14,17.02
3405,2,8,-2,-14,-5,-2,0,-1,17.025
3406,10,13,7,3,-7,-3,-4,-12,17.03
3407,-4,-9,-4,4,6,2,1,-3,17.035
3408,-10,-8,-2,-5,-4,-3,-5,-6,17.04
3409,-12,-4,-7,-16,-8,-4,-4,-6,17.045
3410,-6,-7,0,6,7,0,0,-9,17.05
3411,5,1,0,12,1,2,4,12,17.055
3412,4,-1,-4,13,6,-1,-2,-2,17.06
3413,-2,6,-1,-13,-12,-2,0,5,17.065
3414,2,-1,2,16,10,2,1,3,17.07
3415,-6,-8,-3,-8,-2,-1,-5,-12,17.075
3416,-5,1,-4,-9,-6,-2,-2,-3,17.080000000000002
3417,0,1,-4,-4,-1,0,-1,3,17.085
3418,-2,2,2,-1,-8,-3,-1,-2,17.09
3419,7,7,0,-1,2,2,0,2,17.095
3420,3,1,-3,-2,-1,0,1,1,17.1
3421,-5,-6,-3,-1,-3,-2,0,3,17.105
3422,2,-3,0,-2,0,-1,0,-5,17.11
3423,2,-4,-5,-1,-5,-1,-2,-1,17.115000000000002
3424,-1,-2,-3,-6,-5,-2,-2,0,17.12
3425,-1,-1,-2,1,5,0,0,-1,17.125
3426,1,-1,1,2,-4,1,2,-3,17.13
3427,1,2,-2,-2,1,-5,-2,0,17.135
3428,-1,-6,0,1,-3,-1,-1,-1,17.14
3429,-2,-7,-5,-5,-8,-1,-1,0,17.145
3430,2,-3,-3,4,9,3,0,-2,17.150000000000002
3431,-2,4,1,7,1,0,1,2,17.155
3432,-1,3,-5,-3,2,1,-1,-1,17.16
3433,-1,0,-3,-3,-6,-3,-2,-1,17.165
3434,-1,2,1,2,-4,-3,-1,-2,17.17
3435,1,4,1,-5,-7,-1,-2,-1,17.175
3436,-1,2,-1,-2,8,-1,-2,-2,17.18
3437,-1,1,1,-1,-7,-2,1,1,17.185
3438,2,1,-2,1,-1,2,1,1,17.19
3439,-1,-6,1,-4,2,1,-1,-1,17.195
3440,-2,2,-1,1,-1,-1,-2,-4,17.2
3441,-3,0,-1,-12,-8,-5,-1,-1,17.205000000000002
