slno,emg1,emg2,emg3,emg4,emg5,emg6,emg7,emg8,Time
0,-4,-20,-5,2,4,0,-1,-1,0.0
1,0,2,4,1,-5,-1,-1,1,0.005
2,-1,-2,1,0,6,1,1,-1,0.01
3,0,-5,1,-5,-7,-4,-1,-1,0.015
4,-2,-23,-2,-1,-4,-2,-1,-1,0.02
5,-1,-6,-3,2,1,-3,-2,-2,0.025
6,-7,-23,-3,-16,-8,-2,0,0,0.03
7,-3,-4,-11,0,-1,-2,-2,-1,0.035
8,6,52,3,-11,-1,0,-1,0,0.04
9,-1,-2,-1,5,-4,-1,-1,0,0.045
10,0,8,4,13,2,0,-1,0,0.05
11,-1,5,-2,-8,3,-1,-1,-1,0.055
12,1,10,-7,9,-3,0,0,0,0.06
13,-4,-8,6,-3,2,0,0,-1,0.065
14,5,29,2,-7,-3,0,-2,-2,0.07
15,-6,-38,-15,4,3,3,1,1,0.075
16,4,2,0,4,0,1,-1,0,0.08
17,0,-4,2,-12,1,0,0,-2,0.085
18,1,26,10,5,-1,-2,-2,-2,0.09
19,-2,6,-11,-11,-6,-4,-1,-2,0.095
20,-1,-10,-7,-13,-3,-3,-3,-2,0.1
21,-5,-22,3,10,-4,0,0,1,0.105
22,0,-3,7,5,3,2,1,1,0.11
23,-1,13,0,3,0,-1,0,-2,0.115
24,2,12,2,-3,-9,-2,0,0,0.12
25,0,3,0,11,7,0,-2,-1,0.125
26,1,-1,-5,-20,5,2,0,-1,0.13
27,-3,-14,4,13,0,-2,0,-1,0.135
28,1,-3,2,-12,-2,1,1,0,0.14
29,-5,-20,-16,-13,-5,-2,-1,0,0.145
30,3,29,-6,1,-7,-2,-1,-2,0.15
31,-1,-26,15,4,8,0,-1,0,0.155
32,-5,-2,3,5,0,0,1,-1,0.16
33,-1,2,-7,6,-2,-1,-1,-1,0.165
34,2,-11,1,-13,-2,-2,-1,0,0.17
35,1,-3,-5,-2,-6,-1,0,-1,0.17500000000000002
36,-1,-4,8,6,3,-1,-2,0,0.18
37,4,-2,6,-10,4,1,-3,-3,0.185
38,-8,-14,-11,8,-2,-1,0,-1,0.19
39,0,10,2,-5,-2,-2,-2,-1,0.195
40,-1,-29,4,-17,-4,-5,-3,-1,0.2
41,-2,0,-2,8,-6,-4,-1,-1,0.20500000000000002
42,-2,-33,-4,10,6,3,0,2,0.21
43,-1,4,0,4,-1,-2,-1,-3,0.215
44,-4,-1,3,-19,-4,2,-1,0,0.22
45,1,-3,-1,-5,5,-2,1,-1,0.225
46,-1,-2,-5,7,-4,-3,-2,-3,0.23
47,1,3,-7,-19,-1,1,0,-1,0.23500000000000001
48,-1,5,0,8,-5,-2,-1,0,0.24
49,7,56,10,6,0,0,-2,-1,0.245
50,-1,-4,-10,-2,-2,-1,0,1,0.25
51,-2,-6,-5,-8,0,1,1,-1,0.255
52,0,17,7,11,1,-2,-2,-1,0.26
53,4,56,7,-5,-9,-2,-1,1,0.265
54,-1,15,-7,5,2,-1,1,1,0.27
55,-2,0,0,-6,-4,-3,-1,-1,0.275
56,0,19,-8,-4,0,2,-1,-2,0.28
57,0,-10,0,15,4,0,0,0,0.28500000000000003
58,-2,1,5,10,-5,-3,-3,-4,0.29
59,-1,1,5,-17,-4,-1,1,1,0.295
60,2,-2,-18,-15,-1,-2,-3,-1,0.3
61,-2,-14,-2,7,-2,-1,0,-1,0.305
62,-3,-20,4,7,-3,-2,-1,-1,0.31
63,0,10,1,0,9,0,-1,-2,0.315
64,-4,-18,-9,2,1,0,-1,-1,0.32
65,-6,-53,-3,-5,-4,1,0,0,0.325
66,-3,13,1,1,-3,0,-2,-1,0.33
67,1,12,1,15,0,-1,0,-1,0.335
68,-1,6,5,1,5,3,3,0,0.34
69,-5,-2,5,-11,6,-1,2,-1,0.34500000000000003
70,3,18,-4,3,-5,-2,-2,0,0.35000000000000003
71,-4,-38,-8,23,-5,-1,0,2,0.355
72,0,6,3,-26,0,-1,0,-1,0.36
73,1,-3,-1,5,1,1,0,1,0.365
74,-1,-18,3,-1,2,-4,-3,-5,0.37
75,0,9,-4,9,-2,-1,-2,0,0.375
76,-5,-24,-2,-3,-3,0,2,-1,0.38
77,-4,-9,4,-1,1,-1,-1,-2,0.385
78,1,-5,-1,-14,2,1,-1,-1,0.39
79,-1,-1,-5,4,-1,-1,1,-1,0.395
80,7,41,18,-1,6,-1,-1,-1,0.4
81,0,16,-11,-10,-8,-2,-2,0,0.405
82,-6,-1,-6,-5,-5,-2,-1,0,0.41000000000000003
83,1,-9,8,-3,4,-1,-2,-1,0.41500000000000004
84,4,27,2,10,0,-2,-1,1,0.42
85,-1,-13,-3,13,-8,-1,1,-2,0.425
86,1,10,9,-17,6,1,1,0,0.43
87,-1,6,-12,-1,0,0,-1,-2,0.435
88,0,-39,1,-7,-3,0,-1,1,0.44
89,-5,-18,-4,-18,-5,-4,-2,-3,0.445
90,3,22,9,-8,-4,1,-1,0,0.45
91,1,-11,9,8,-8,-5,-2,-2,0.455
92,-1,17,-7,15,6,1,-2,-1,0.46
93,5,-5,-8,-12,-3,-3,-1,-1,0.465
94,1,0,-2,4,0,-3,-2,-2,0.47000000000000003
95,0,5,7,2,-1,-1,-1,0,0.47500000000000003
96,-3,-19,10,-7,-2,-3,0,-1,0.48
97,-3,10,-1,-2,3,3,0,-1,0.485
98,-4,-7,2,25,0,-3,-1,-1,0.49
99,0,24,8,-31,1,2,1,0,0.495
100,0,-1,8,22,1,-3,-4,-2,0.5
101,-1,-7,-7,5,0,-1,1,2,0.505
102,0,-12,0,-28,0,2,2,2,0.51
103,-2,1,-12,-2,-9,-2,0,-2,0.515
104,-1,-7,-8,5,-6,-2,0,1,0.52
105,3,2,12,4,10,3,-1,0,0.525
106,2,10,0,15,-3,-2,0,1,0.53
107,4,24,8,-5,2,0,-2,-2,0.535
108,-3,-19,3,22,0,0,-1,-1,0.54
109,-4,-4,6,-24,-9,-1,-2,0,0.545
110,2,-43,-24,-27,2,-3,-2,-1,0.55
111,-6,-43,-7,-1,-1,1,-1,1,0.555
112,-4,-12,-5,8,-6,-3,-1,-3,0.56
113,1,29,12,20,6,1,0,0,0.5650000000000001
114,4,29,4,-18,-1,-1,-1,-1,0.5700000000000001
115,-1,1,-2,-23,-7,1,-1,-1,0.5750000000000001
116,-1,8,1,32,3,0,-2,-2,0.58
117,0,-5,0,-25,-3,-3,-2,-1,0.585
118,-3,1,4,10,2,1,0,-2,0.59
119,-5,-37,-12,28,-2,-1,0,0,0.595
120,-5,-27,-5,-36,-4,1,0,0,0.6
121,0,-1,4,2,-1,-2,0,-1,0.605
122,-1,2,0,17,3,0,-1,-3,0.61
123,-5,5,25,9,-3,-4,-2,-1,0.615
124,1,12,5,-8,1,2,1,-1,0.62
125,-3,-21,0,8,6,-2,1,0,0.625
126,3,47,-5,0,-3,-1,0,2,0.63
127,6,21,-9,15,11,2,-1,0,0.635
128,-3,-2,-8,-32,-6,-4,-2,-2,0.64
129,1,1,-17,-1,-6,-3,-2,-2,0.645
130,-3,-16,8,16,-2,0,0,0,0.65
131,5,12,7,-5,0,-3,-2,0,0.655
132,1,2,-4,-8,7,2,1,-1,0.66
133,-2,-8,-9,25,-7,-2,-1,-1,0.665
134,-4,-15,-3,-7,3,1,-1,-1,0.67
135,-2,2,1,-23,-9,-2,-2,-1,0.675
136,11,44,4,-17,7,-3,-2,-3,0.68
137,-5,-18,-8,3,-5,-2,-3,-2,0.685
138,-7,-29,-10,4,-1,1,0,0,0.6900000000000001
139,-5,-6,-5,14,1,1,0,-2,0.6950000000000001
140,0,7,3,-22,-3,0,-1,0,0.7000000000000001
141,1,-6,5,7,3,2,1,0,0.705
142,0,0,2,1,-2,-1,-2,-2,0.71
143,1,1,5,10,-2,-2,-1,-1,0.715
144,-5,-19,-12,-3,-4,-4,-1,0,0.72
145,-3,-5,-1,-19,-1,1,-2,0,0.725
146,0,-6,13,10,1,1,-3,0,0.73
147,-2,1,-10,-6,-12,-1,0,-1,0.735
148,-3,-4,-1,38,8,1,0,-1,0.74
149,-1,-4,2,7,4,-2,-2,-2,0.745
150,2,2,9,-44,-2,2,0,3,0.75
151,-13,-53,-1,12,0,-4,-1,-1,0.755
152,-3,-7,-14,15,-5,-1,-1,-2,0.76
153,1,10,5,15,-2,0,-1,-1,0.765
154,1,-11,-3,15,1,-2,-1,0,0.77
155,4,31,-3,-35,2,1,2,1,0.775
156,0,-3,1,-3,-9,0,1,0,0.78
157,0,37,-4,0,6,-1,-1,0,0.785
158,-1,7,-1,7,-8,-3,-2,-2,0.79
159,3,6,8,-6,12,2,-1,0,0.795
160,0,7,12,6,-7,-2,0,-3,0.8
161,0,-2,4,-12,2,4,0,-1,0.805
162,-1,5,3,5,-8,-4,-1,-1,0.81
163,0,-1,-1,-6,5,0,0,0,0.8150000000000001
164,-4,-4,6,3,-7,-2,-1,-1,0.8200000000000001
165,-1,-14,-3,-4,-1,-2,-1,-3,0.8250000000000001
166,-1,-1,2,10,1,1,0,0,0.8300000000000001
167,-4,-33,-5,14,-6,1,2,-1,0.835
168,4,1,1,-36,9,1,-1,0,0.84
169,2,18,0,-11,3,1,1,2,0.845
170,1,35,3,-2,-1,-3,-2,-2,0.85
171,8,63,-3,-17,-8,1,-1,-2,0.855
172,0,-5,7,30,-3,0,0,0,0.86
173,-5,-19,-9,11,-6,-1,1,-2,0.865
174,1,5,3,-23,1,-1,-1,-1,0.87
175,3,18,-1,29,5,-1,0,0,0.875
176,-3,-8,0,10,-8,-3,-2,0,0.88
177,0,11,3,-21,12,4,-1,1,0.885
178,-7,-57,-8,5,-1,1,0,-2,0.89
179,0,9,10,0,-1,-3,-3,-2,0.895
180,-2,-10,-8,0,-3,-1,-1,1,0.9
181,1,-11,8,10,3,-1,0,-1,0.905
182,-3,2,-1,-4,-2,-4,0,1,0.91
183,-10,-44,5,-1,0,0,-1,-2,0.915
184,-3,-20,-3,-20,-3,1,-1,0,0.92
185,1,4,4,9,-7,-4,-2,0,0.925
186,-2,-9,1,-8,3,1,1,0,0.93
187,2,8,-3,0,-4,-1,-2,-3,0.935
188,0,2,3,1,-2,-3,0,0,0.9400000000000001
189,-1,-12,-9,-13,-6,-1,-3,-2,0.9450000000000001
190,1,25,0,19,0,1,0,-1,0.9500000000000001
191,0,-5,0,4,1,-1,1,-1,0.9550000000000001
192,2,4,0,-2,6,0,-1,-1,0.96
193,-3,-21,-8,-11,-10,-2,-1,-3,0.965
194,8,53,5,20,9,-2,-2,-1,0.97
195,-5,1,-6,-73,1,1,0,0,0.975
196,-1,22,-6,50,-2,-1,0,-2,0.98
197,-1,6,9,-18,6,1,0,0,0.985
198,1,-1,-5,-5,-9,-4,-3,-3,0.99
199,-3,-12,0,12,1,-2,-1,0,0.995
200,0,-6,-1,-1,3,-1,0,0,1.0
201,-4,0,0,6,-1,0,-2,-1,1.0050000000000001
202,0,-18,-6,-7,-2,-1,0,0,1.01
203,-4,-34,7,-2,2,2,0,1,1.0150000000000001
204,-4,-43,-24,1,-1,1,1,1,1.02
205,-2,1,4,12,-3,-2,-1,-3,1.025
206,-3,-18,-11,-39,-11,-1,0,-1,1.03
207,2,23,5,7,9,-1,-3,-2,1.035
208,0,13,12,3,-3,-1,0,-1,1.04
209,-2,-4,14,22,6,1,-1,-1,1.045
210,-5,-42,-14,-56,1,-1,-2,-3,1.05
211,0,-7,1,0,-8,4,3,2,1.055
212,-1,6,-3,10,-1,-1,-1,-2,1.06
213,2,6,-2,-26,-1,-4,-2,0,1.065
214,-1,0,7,42,-2,-3,-1,-1,1.07
215,2,11,4,12,1,-2,-2,-2,1.075
216,1,6,0,-12,4,-1,-1,-1,1.08
217,-8,-36,-30,14,-5,-2,-2,-2,1.085
218,1,-10,23,-30,-5,-1,-2,-1,1.09
219,-3,-4,-18,-1,-11,-5,-1,-3,1.095
220,2,11,9,8,13,2,-1,-2,1.1
221,4,17,7,-4,-4,-2,-1,-1,1.105
222,1,6,8,11,1,-1,-1,1,1.11
223,3,-7,-3,41,-2,-2,-1,-1,1.115
224,-2,-12,-8,-43,4,1,-1,-2,1.12
225,1,0,9,-12,-4,0,1,-1,1.125
226,1,16,-5,9,10,1,1,-2,1.1300000000000001
227,1,20,1,1,-8,-2,-2,0,1.135
228,-1,12,-2,8,0,-2,-2,-2,1.1400000000000001
229,-1,15,1,-26,-9,0,0,-1,1.145
230,-2,1,2,4,5,1,1,1,1.1500000000000001
231,0,18,5,-1,3,-3,-2,-3,1.155
232,-3,-7,-1,-10,-4,-3,-1,-1,1.16
233,4,23,3,-9,-2,-2,-2,-1,1.165
234,-4,-7,10,5,-9,-2,-1,-1,1.17
235,0,-5,32,5,7,1,0,-3,1.175
236,-1,4,32,13,5,2,1,-1,1.18
237,-3,-16,2,-23,-1,-2,0,-1,1.185
238,-12,-57,14,7,-2,-2,1,1,1.19
239,-2,-10,9,-3,0,-1,0,-1,1.195
240,0,-6,48,41,-9,1,2,1,1.2
241,-3,-36,24,-29,1,-1,-2,-2,1.205
242,3,10,4,-22,8,2,0,1,1.21
243,-1,15,-23,2,-1,-1,-3,-1,1.215
244,-4,5,-33,0,-4,-1,0,0,1.22
245,1,30,-40,28,1,-2,0,-3,1.225
246,1,30,-41,-4,-4,-3,-3,-1,1.23
247,4,20,-20,18,-2,0,0,0,1.235
248,1,7,-12,-39,4,0,-4,-1,1.24
249,3,-3,-4,-3,8,6,2,0,1.245
250,2,26,2,16,-4,-3,-1,-2,1.25
251,0,-5,-13,-6,-6,-2,1,0,1.2550000000000001
252,-3,-14,-13,-16,-9,-5,-3,0,1.26
253,-5,-18,7,11,1,-3,0,1,1.2650000000000001
254,-1,0,11,14,3,2,0,-1,1.27
255,0,-18,1,-16,-4,0,-1,0,1.2750000000000001
256,0,8,-17,3,2,-2,0,-3,1.28
257,1,5,2,7,2,0,0,0,1.285
258,-2,21,7,-5,-1,2,1,2,1.29
259,-5,-18,-3,2,7,0,-1,0,1.295
260,5,8,5,16,-2,-1,-4,-1,1.3
261,-5,-13,-2,-17,5,3,1,-1,1.305
262,2,-2,4,3,-2,-3,0,-2,1.31
263,-3,-25,4,-13,-5,-1,-2,-3,1.315
264,2,7,-1,5,-6,-2,0,1,1.32
265,-1,13,-1,14,-3,-3,-1,0,1.325
266,4,4,6,-8,-2,0,-2,-1,1.33
267,1,6,2,-23,1,0,-2,0,1.335
268,-1,-10,3,-13,-4,-3,-1,-1,1.34
269,-5,-26,-4,7,-2,2,-1,-2,1.345
270,-1,4,-7,3,2,0,0,-1,1.35
271,-1,22,5,-9,-1,-1,0,-1,1.355
272,-2,13,-11,-16,-2,-1,1,0,1.36
273,-4,-23,8,24,-2,-2,-1,-2,1.365
274,1,-7,6,13,1,0,-3,0,1.37
275,2,-8,-13,-6,-6,-2,0,0,1.375
276,1,-6,10,20,15,7,0,2,1.3800000000000001
277,3,28,1,-65,1,-4,0,-1,1.385
278,-3,17,-10,7,-11,-4,0,-2,1.3900000000000001
279,0,-9,-1,5,-2,-1,-1,-1,1.395
280,3,15,-4,-8,-4,-2,0,-2,1.4000000000000001
281,-2,0,-20,-5,-12,-4,-3,-2,1.405
282,1,-4,6,-5,6,0,-1,-1,1.41
283,0,17,0,11,3,-2,-1,-2,1.415
284,7,36,14,1,-4,-3,-3,-2,1.42
285,-3,-29,-12,15,5,2,1,1,1.425
286,0,-28,-3,7,-7,-3,0,-2,1.43
287,-1,-6,-4,-13,9,0,-2,1,1.435
288,-2,-6,1,5,3,0,-2,-2,1.44
289,3,2,4,17,-9,-4,-1,-1,1.445
290,1,7,11,-48,8,4,1,1,1.45
291,-2,-3,-18,-6,-9,-1,1,-3,1.455
292,-4,-12,-5,-9,-2,-2,1,-3,1.46
293,2,2,7,55,-5,-3,-2,-1,1.465
294,-12,-36,-14,-26,1,3,1,1,1.47
295,1,1,6,2,7,1,-1,0,1.475
296,0,13,7,-20,-9,-2,0,1,1.48
297,-3,-31,-23,35,-1,0,-2,-2,1.485
298,-4,-68,3,-4,11,4,2,2,1.49
299,3,8,5,15,-2,0,0,0,1.495
300,-2,-25,12,-11,4,-1,-3,-1,1.5
301,0,6,0,22,-5,-6,-2,-1,1.5050000000000001
302,6,64,7,-14,-5,-4,-3,-2,1.51
303,-5,-10,-3,-21,0,3,0,0,1.5150000000000001
304,-6,-29,13,-5,-5,-2,0,-1,1.52
305,2,21,2,1,-1,1,0,0,1.5250000000000001
306,0,4,-2,8,4,0,-1,-2,1.53
307,0,-3,3,-4,3,-1,-1,0,1.5350000000000001
308,-3,3,-10,9,2,3,-1,-1,1.54
309,2,6,8,-24,-3,-2,-1,1,1.545
310,-1,-9,-4,31,-3,-1,-1,-2,1.55
311,0,-20,11,-8,1,1,1,0,1.555
312,-14,-46,-21,12,2,0,2,-1,1.56
313,1,3,4,-30,1,1,1,0,1.565
314,0,-2,-1,13,-3,-3,-3,0,1.57
315,3,32,-1,11,-6,-5,-2,-1,1.575
316,1,-3,3,-14,4,-1,2,1,1.58
317,1,11,4,24,-2,0,-1,-2,1.585
318,1,15,8,-40,-1,-4,-3,-2,1.59
319,-4,-32,6,17,-5,-2,1,-1,1.595
320,3,-1,-10,-1,-2,-3,-2,-2,1.6
321,-2,4,-5,-3,5,-2,0,-1,1.605
322,0,13,-2,5,-4,-2,0,-1,1.61
323,3,32,-5,8,-5,-3,-1,-1,1.615
324,7,24,15,11,1,2,-1,0,1.62
325,-1,-7,-7,-32,-1,-1,0,-2,1.625
326,-2,5,1,5,-4,-2,-1,-1,1.6300000000000001
327,3,31,4,-6,5,1,0,0,1.635
328,3,22,6,17,-5,-3,-2,-1,1.6400000000000001
329,3,-11,6,2,3,0,-1,2,1.645
330,-2,-4,-6,4,-1,0,1,0,1.6500000000000001
331,0,-2,5,-1,1,0,-1,-1,1.655
332,-2,-2,-6,-5,-2,-1,-3,-1,1.6600000000000001
333,1,14,8,2,-2,-1,-1,-1,1.665
334,2,4,3,12,4,2,0,0,1.67
335,-1,-17,-11,10,5,-3,-1,-2,1.675
336,-3,-17,-5,-34,12,5,2,-1,1.68
337,-2,6,-1,9,-7,-4,-3,-3,1.685
338,-1,4,0,16,-2,0,1,2,1.69
339,-7,-16,3,17,1,-1,-2,-1,1.695
340,0,-7,-4,-38,-7,-2,-1,-1,1.7
341,-1,11,6,24,1,-2,-1,0,1.705
342,-3,1,-2,-10,3,3,-1,-1,1.71
343,0,4,4,5,0,-1,1,0,1.715
344,3,3,-1,-3,-6,-2,-1,-1,1.72
345,-7,-28,-16,0,-2,2,3,2,1.725
346,-1,-5,1,9,-2,-3,-2,0,1.73
347,-3,-10,-4,-21,-3,-1,-2,-2,1.735
348,0,2,-5,9,-3,-3,-2,-1,1.74
349,4,24,7,-13,2,-1,-1,-2,1.745
350,-1,-12,-4,11,1,-2,0,-1,1.75
351,0,-7,4,-9,1,-1,1,1,1.7550000000000001
352,-2,-16,-10,25,-3,1,1,-1,1.76
353,1,17,5,-27,0,1,-4,0,1.7650000000000001
354,-3,-24,-2,-10,2,-1,-1,0,1.77
355,0,-1,3,-8,-5,-2,-1,-1,1.7750000000000001
356,-2,-7,-2,23,-4,-2,1,-1,1.78
357,-2,8,-9,-3,4,-1,-2,-2,1.7850000000000001
358,-4,-15,8,-4,-1,-1,-1,-2,1.79
359,0,14,-6,-14,-3,0,0,-2,1.795
360,0,21,2,4,8,0,-1,0,1.8
361,0,-1,1,-17,-9,-1,0,-1,1.805
362,3,-4,0,11,-2,-3,-1,1,1.81
363,-1,4,-7,-10,-1,3,2,-2,1.815
364,-1,-20,-1,12,-4,-2,-3,0,1.82
365,1,-10,2,-11,1,1,2,0,1.825
366,-1,21,3,-13,1,-2,-2,-3,1.83
367,0,2,-6,24,-3,-1,1,0,1.835
368,-6,-43,-11,-14,10,-1,1,-2,1.84
369,-3,-8,10,2,0,0,1,-1,1.845
370,-1,0,-13,12,-4,1,2,-1,1.85
371,-4,-5,-7,1,5,1,-1,0,1.855
372,-9,-7,-9,-17,-7,-2,-2,-1,1.86
373,1,-3,-11,-3,-2,-3,-3,-1,1.865
374,-1,5,0,-4,-3,-1,0,1,1.87
375,-4,1,2,5,2,0,0,-1,1.875
376,1,11,-3,-3,0,0,0,1,1.8800000000000001
377,2,1,8,-15,-4,0,-2,-1,1.885
378,1,-2,-2,1,-1,-1,-2,-1,1.8900000000000001
379,0,-12,4,-1,0,0,-3,-2,1.895
380,3,14,4,8,-2,-3,0,-2,1.9000000000000001
381,-8,-20,-5,20,-7,-2,0,0,1.905
382,4,9,-3,-21,4,1,1,1,1.9100000000000001
383,-1,-10,9,-4,-1,1,-2,0,1.915
384,1,12,3,2,0,-1,1,1,1.92
385,1,27,-12,2,2,-2,-2,0,1.925
386,-5,-14,2,7,-9,0,1,-3,1.93
387,-2,-26,-1,-6,-3,0,0,-1,1.935
388,6,24,11,-6,0,-2,-4,-4,1.94
389,6,49,16,4,5,-2,-1,-1,1.945
390,0,-2,-5,3,3,2,-1,0,1.95
391,0,20,4,-5,-5,-3,0,-1,1.955
392,2,4,8,-5,-6,-3,-2,-2,1.96
393,0,1,3,16,2,-2,-1,-1,1.965
394,1,0,-3,28,-4,-2,-2,-1,1.97
395,1,-4,4,-52,-2,-2,-2,-1,1.975
396,7,31,4,3,3,0,-2,0,1.98
397,-6,-27,-9,-3,4,0,-2,-2,1.985
398,-1,-6,9,18,-2,0,1,0,1.99
399,-2,28,1,6,1,1,1,0,1.995
400,-4,-14,-1,15,-6,0,0,2,2.0
401,-5,-3,-14,-32,-6,1,0,0,2.005
402,0,-10,11,1,6,-2,-2,-2,2.0100000000000002
403,0,7,-3,12,-1,-2,-3,-2,2.015
404,-4,10,0,-8,0,1,0,-1,2.02
405,-3,-28,-2,1,-8,-1,-1,-2,2.025
406,-2,-5,-6,-22,1,1,0,1,2.0300000000000002
407,1,0,0,6,1,-4,-1,-1,2.035
408,-3,-34,-11,5,-1,0,0,0,2.04
409,0,-14,6,19,0,2,0,1,2.045
410,2,40,3,-30,-5,-5,-4,-2,2.05
411,-1,-28,-2,9,0,1,1,2,2.055
412,-14,-61,-15,3,0,1,1,0,2.06
413,-1,0,-7,-11,-2,-2,0,0,2.065
414,-3,-28,-2,6,-5,1,2,0,2.07
415,4,27,-3,7,4,-4,-2,-1,2.075
416,0,8,11,1,-10,0,-1,0,2.08
417,-4,-4,1,1,11,5,1,1,2.085
418,-1,4,3,10,0,-2,-3,-2,2.09
419,0,3,2,-3,-3,0,-2,-1,2.095
420,-9,-36,-9,0,-3,0,0,-1,2.1
421,2,-3,-8,3,-2,-3,-2,-2,2.105
422,2,2,0,-10,0,-1,-2,0,2.11
423,-3,8,9,10,-7,-2,-1,-1,2.115
424,2,16,-1,-13,5,1,1,-2,2.12
425,0,-2,2,-2,3,0,0,-2,2.125
426,-3,-15,1,3,-6,-1,-1,-2,2.13
427,-1,-8,-2,11,3,-1,0,0,2.1350000000000002
428,5,21,0,-22,0,-1,-1,-1,2.14
429,-6,-44,-16,6,-6,-1,1,1,2.145
430,-3,-7,2,-8,3,2,0,1,2.15
431,3,40,-6,7,6,-1,-2,-1,2.1550000000000002
432,3,16,-2,-21,-11,0,-1,0,2.16
433,1,9,1,3,10,-2,-2,-2,2.165
434,2,2,-3,-5,-2,2,2,2,2.17
435,-5,-37,-8,1,-9,-3,-1,-3,2.1750000000000003
436,-2,-11,-6,-13,3,1,0,1,2.18
437,1,7,4,0,-6,-3,-1,1,2.185
438,-1,23,-7,13,4,1,1,-2,2.19
439,-1,-6,0,-5,-1,0,-1,0,2.195
440,-2,-7,4,19,-1,-1,-2,-2,2.2
441,0,1,3,-15,2,0,-1,-1,2.205
442,-1,-12,-1,2,3,-1,2,-1,2.21
443,0,16,-1,-13,-5,-1,0,0,2.215
444,-1,-6,-6,12,0,-3,-3,-1,2.22
445,-2,-7,5,12,1,1,-1,1,2.225
446,2,53,2,-13,-2,0,-2,0,2.23
447,-6,-19,-13,-8,-4,2,2,0,2.235
448,0,5,-2,2,-8,-2,0,-2,2.24
449,-2,7,14,-11,4,1,-1,-3,2.245
450,0,-11,-3,8,3,-3,-4,-1,2.25
451,-4,-13,-6,-17,-2,1,3,0,2.255
452,7,31,4,-3,1,0,-2,0,2.2600000000000002
453,0,14,-6,19,-1,-2,-1,0,2.265
454,-2,-11,6,-29,-7,0,-1,-1,2.27
455,2,-8,-29,3,3,2,0,1,2.275
456,-1,-1,-45,7,-1,-3,-3,-1,2.2800000000000002
457,0,4,-18,3,-3,0,-1,0,2.285
458,1,-13,18,5,1,-1,-1,0,2.29
459,-2,-39,14,6,4,-2,0,0,2.295
460,-1,-3,17,16,3,1,-1,1,2.3000000000000003
461,2,2,9,-27,-9,-3,-4,-1,2.305
462,3,-9,-4,17,-3,-2,-1,-1,2.31
463,5,23,11,-13,1,-2,-2,-2,2.315
464,-6,-2,5,-6,2,-2,0,-1,2.32
465,0,-10,12,8,-1,1,-1,0,2.325
466,0,7,3,5,-3,-2,0,-1,2.33
467,-2,-3,10,-4,7,-3,-3,-1,2.335
468,-2,-2,12,-10,-8,0,0,0,2.34
469,3,23,2,-1,-2,-1,-1,0,2.345
470,-9,-63,0,1,1,0,2,2,2.35
471,-1,1,-4,17,-8,-2,-1,0,2.355
472,-1,-2,6,9,0,-1,-1,0,2.36
473,-3,-21,3,-7,6,4,1,-1,2.365
474,-1,8,-1,5,-5,1,-1,-1,2.37
475,0,8,-6,-22,4,-2,-3,0,2.375
476,-1,-8,4,2,1,-1,1,0,2.38
477,-1,0,-2,20,-3,-3,1,-2,2.3850000000000002
478,0,13,-1,-29,1,-2,-2,-1,2.39
479,0,6,8,3,-9,-1,1,-1,2.395
480,6,32,-4,-1,8,-2,-2,-1,2.4
481,-8,9,0,-4,0,2,2,0,2.4050000000000002
482,-1,2,6,2,-4,-4,-2,-2,2.41
483,-1,-1,-2,4,-7,0,-2,0,2.415
484,-4,-19,-3,-10,2,0,-1,0,2.42
485,1,-4,9,8,-5,-4,-3,0,2.4250000000000003
486,0,1,-5,3,1,0,-1,-1,2.43
487,-5,-22,3,-3,-2,2,-1,-1,2.435
488,6,17,8,7,-3,-1,0,-3,2.44
489,-1,-11,-2,-2,-10,-3,-2,-2,2.445
490,-1,13,-4,16,19,5,0,1,2.45
491,4,37,18,-29,-5,-3,-4,-6,2.455
492,-4,-4,-5,-3,-4,1,-1,-2,2.46
493,-1,9,-1,-11,-2,-1,-1,-2,2.465
494,1,3,-1,14,-11,-3,-2,-1,2.47
495,-2,-11,-6,14,-1,0,-2,-2,2.475
496,0,-2,4,-22,0,1,1,1,2.48
497,-4,-28,-6,-2,3,0,-1,-1,2.485
498,-5,8,-16,4,-4,-3,-1,-1,2.49
499,-3,-25,8,7,2,1,2,1,2.495
500,-6,-21,-4,-20,-2,-2,0,-3,2.5
501,2,14,-2,4,-2,1,1,0,2.505
502,2,-5,-1,-5,2,2,-1,-1,2.5100000000000002
503,0,3,-3,4,1,-2,-2,-1,2.515
504,-1,8,-2,17,-1,0,-2,-1,2.52
505,1,6,10,-9,0,-2,0,-1,2.525
506,-1,-4,-7,-2,-1,-3,-4,-1,2.5300000000000002
507,1,0,-7,3,-2,0,1,1,2.535
508,2,-8,3,15,-7,-4,-3,-1,2.54
509,-1,-6,-7,-4,16,4,2,1,2.545
510,0,15,3,20,-8,0,0,1,2.5500000000000003
511,-1,-1,-12,-38,7,2,0,1,2.555
512,0,5,1,4,-3,-1,0,-1,2.56
513,0,9,-5,-6,-6,-3,-2,-2,2.565
514,0,-6,-1,9,-3,-1,2,-1,2.57
515,-4,-30,5,10,-2,0,0,1,2.575
516,1,5,-9,-2,5,-1,-1,-2,2.58
517,-6,-9,-6,-13,-1,-1,-2,1,2.585
518,0,-40,-5,-7,-1,0,0,-1,2.59
519,-2,5,2,4,-1,-3,0,-2,2.595
520,-1,-23,-1,-7,-5,-1,-1,-1,2.6
521,1,1,1,8,-2,0,-3,-2,2.605
522,2,16,2,-7,0,-2,-2,-1,2.61
523,0,11,-6,5,-1,-1,-1,-2,2.615
524,2,8,-3,25,-13,-2,-5,0,2.62
525,-7,-14,-6,-44,20,4,3,-2,2.625
526,-4,1,-26,-13,-7,-1,0,0,2.63
527,2,9,-10,-1,-2,0,-1,0,2.6350000000000002
528,-7,-16,-3,2,1,0,0,1,2.64
529,1,2,9,16,-7,-3,-1,-2,2.645
530,-2,2,14,-7,3,-1,-2,1,2.65
531,-2,4,4,5,-1,1,1,-1,2.6550000000000002
532,4,15,12,0,5,1,1,1,2.66
533,1,6,7,2,-13,-4,-3,1,2.665
534,0,-2,6,-4,11,0,0,1,2.67
535,0,7,-7,1,-6,0,-1,0,2.6750000000000003
536,-4,3,0,-10,4,-2,-1,-2,2.68
537,7,37,3,-10,-4,-1,-2,-1,2.685
538,-6,-28,-4,14,-4,-2,-1,-2,2.69
539,0,4,0,7,0,0,-1,0,2.695
540,0,-1,3,-14,0,-1,0,-1,2.7
541,2,6,1,10,-6,-1,0,0,2.705
542,2,26,7,2,-6,-1,-2,-2,2.71
543,0,-4,1,27,9,-1,-3,0,2.715
544,0,5,1,-33,5,5,1,1,2.72
545,-3,-11,-2,8,0,-1,-1,-1,2.725
546,0,7,0,1,1,3,1,2,2.73
547,-3,-12,-5,-8,-2,-2,-1,1,2.735
548,-1,-4,1,12,-1,-1,-1,-2,2.74
549,-1,-4,-5,15,-7,-2,0,0,2.745
550,3,12,4,-25,12,1,0,-1,2.75
551,-7,-61,10,-8,2,0,1,-2,2.755
552,-4,3,-8,9,-2,0,2,1,2.7600000000000002
553,-4,-22,0,-29,-3,0,1,0,2.765
554,1,1,-2,9,-11,-5,-2,-1,2.77
555,-2,1,-3,-13,-6,-3,-2,-2,2.775
556,0,-3,4,10,0,-1,-2,-1,2.7800000000000002
557,-3,-6,-1,23,-2,1,0,-1,2.785
558,-2,-6,4,-38,6,2,0,-2,2.79
559,2,14,0,5,4,1,1,-1,2.795
560,-1,-1,-3,-1,-3,-2,-1,-1,2.8000000000000003
561,2,13,-3,7,0,-3,-2,-1,2.805
562,3,16,2,3,-5,-3,-2,0,2.81
563,0,11,6,-5,-2,0,1,1,2.815
564,-2,-6,-4,-1,-2,-3,-3,-1,2.82
565,-1,-32,4,11,-3,-1,-1,-1,2.825
566,-3,-4,-2,0,14,1,1,0,2.83
567,-3,4,-11,-21,-7,0,-1,-2,2.835
568,1,-19,-10,5,0,1,2,1,2.84
569,0,10,0,-8,-2,-1,1,-1,2.845
570,-2,-3,2,7,-6,-1,-2,-1,2.85
571,2,5,-2,15,0,-1,0,-1,2.855
572,2,16,7,-2,1,-1,-1,-1,2.86
573,0,7,-7,19,-7,-3,-1,1,2.865
574,-2,-8,-2,-27,7,-1,-1,-1,2.87
575,-1,0,-1,13,2,-1,-1,0,2.875
576,2,18,4,-37,-2,1,1,-1,2.88
577,0,-3,-4,8,1,-3,-2,-1,2.8850000000000002
578,-8,-14,-3,13,-7,-1,1,-1,2.89
579,-1,5,-2,12,1,0,-2,0,2.895
580,0,0,-1,-2,1,-2,-1,-1,2.9
581,-2,1,-1,-8,-3,0,-2,0,2.9050000000000002
582,0,4,-2,10,-5,-1,-1,-1,2.91
583,5,37,11,-19,1,0,1,-1,2.915
584,2,-35,11,4,-1,-3,-3,-2,2.92
585,-4,2,-11,-6,1,1,1,-1,2.9250000000000003
586,-1,-12,-4,-3,-6,-1,-1,-2,2.93
587,1,-1,6,3,0,1,-1,0,2.935
588,-1,-6,-5,25,-4,-3,-1,0,2.94
589,1,1,3,-34,4,0,0,0,2.945
590,1,11,10,-1,1,2,0,0,2.95
591,-1,-16,-10,-2,-8,-4,-2,-1,2.955
592,-1,1,-5,0,8,2,-1,-1,2.96
593,3,24,4,10,-2,-3,-3,-1,2.965
594,-3,-41,-10,-5,-5,-1,1,0,2.97
595,-4,-3,-3,7,-2,-3,-1,-2,2.975
596,-5,-4,-3,3,-3,-2,-1,-2,2.98
597,3,8,2,-6,-1,2,2,0,2.985
598,2,1,9,1,6,0,-2,-1,2.99
599,-1,-9,5,-9,-6,-4,-2,-1,2.995
600,2,-14,-4,1,-3,-3,-2,1,3.0
601,-1,-4,2,4,2,1,1,0,3.005
602,-4,-10,-3,11,-5,-5,-1,-1,3.0100000000000002
603,0,-7,-6,-10,2,0,1,1,3.015
604,-2,18,-2,-3,0,0,-1,-1,3.02
605,0,-5,14,0,0,-1,-2,-1,3.025
606,-1,-4,-3,6,-9,-2,-1,-1,3.0300000000000002
607,-2,9,0,-6,15,2,-1,0,3.035
608,1,-3,-1,5,-2,0,1,0,3.04
609,-2,-30,-3,-19,-6,-2,-1,1,3.045
610,-1,11,-3,7,-1,0,2,-1,3.0500000000000003
611,-4,-16,-5,-6,1,0,-2,-3,3.055
612,-1,10,4,5,1,0,-1,-1,3.06
613,-1,-4,0,5,1,-1,-1,1,3.065
614,0,6,6,9,-6,-1,-1,-1,3.0700000000000003
615,2,3,-4,9,-1,-2,0,-1,3.075
616,-2,-1,-2,3,4,0,-1,0,3.08
617,1,24,8,-29,-1,1,-1,-2,3.085
618,-1,-30,-2,-8,2,0,1,0,3.09
619,3,11,7,1,-8,-2,-2,-3,3.095
620,-3,-6,-11,-1,-3,0,1,1,3.1
621,-3,-7,-26,8,-9,-2,-2,-1,3.105
622,1,9,-9,23,13,1,-3,0,3.11
623,1,21,-7,-24,1,1,0,1,3.115
624,0,-5,3,-13,-2,-3,-1,-3,3.12
625,-3,22,2,11,-3,-2,-1,-3,3.125
626,0,9,-9,-17,1,-1,0,-1,3.13
627,-5,-14,-6,25,-1,0,0,-1,3.1350000000000002
628,-4,-5,10,-23,-6,-2,0,-1,3.14
629,3,-2,16,15,9,-2,-1,0,3.145
630,3,22,17,-11,-2,-2,-1,-1,3.15
631,-1,-13,-5,-10,-5,-2,-1,1,3.1550000000000002
632,0,30,13,4,1,0,-1,-1,3.16
633,2,10,6,8,5,0,0,-1,3.165
634,1,21,4,-5,0,2,0,1,3.17
635,2,-8,13,16,3,1,0,2,3.1750000000000003
636,-3,-6,-17,-11,-5,0,-3,-1,3.18
637,-5,-19,-8,-26,-4,1,0,0,3.185
638,-7,-17,6,-2,-1,-1,-3,-2,3.19
639,-2,-3,-5,4,-5,-1,3,0,3.1950000000000003
640,-4,-11,0,5,-1,-1,0,-2,3.2
641,-7,-37,-6,18,8,1,0,1,3.205
642,1,2,-2,-11,0,-2,0,-1,3.21
643,0,-3,-16,-6,-3,1,0,0,3.215
644,-1,-15,-10,12,0,0,-1,-2,3.22
645,2,5,-42,-35,-4,-2,-1,-1,3.225
646,0,14,-11,15,-5,-1,-2,0,3.23
647,-1,21,8,5,0,-3,-1,-1,3.235
648,1,10,14,1,3,-1,-1,0,3.24
649,-1,1,12,5,-5,0,-1,-1,3.245
650,1,-6,8,-1,0,0,-1,-1,3.25
651,1,4,13,-3,-2,-1,-2,0,3.255
652,0,0,6,-7,5,2,-1,0,3.2600000000000002
653,-1,4,21,-11,3,1,-1,-1,3.265
654,-1,-10,11,-2,-1,-1,0,-1,3.27
655,-4,-2,8,3,-4,-2,-1,-1,3.275
656,-4,-20,-5,11,-4,0,1,1,3.2800000000000002
657,-6,-11,1,6,1,-1,0,-2,3.285
658,-2,-1,-7,-7,-2,0,-1,-1,3.29
659,1,2,-5,19,-3,-3,-1,-1,3.295
660,2,3,1,-28,5,3,2,1,3.3000000000000003
661,-3,-3,-2,-3,1,-3,-3,-2,3.305
662,-2,-21,9,-2,-7,-3,0,-1,3.31
663,-2,-3,-3,3,-3,-3,-1,-1,3.315
664,0,3,-7,9,-6,0,0,1,3.3200000000000003
665,0,-2,-1,0,2,-1,-1,-1,3.325
666,1,7,4,5,-2,-2,0,-1,3.33
667,0,-11,-18,-12,-1,-2,-2,-1,3.335
668,0,1,4,28,-9,-3,-2,-2,3.34
669,-5,-40,12,0,13,6,2,1,3.345
670,-8,-2,-8,-20,-2,-2,-1,-1,3.35
671,-2,-9,5,-17,2,0,0,0,3.355
672,-2,1,-5,10,-5,-1,-1,-1,3.36
673,4,1,3,7,0,0,-1,0,3.365
674,4,17,7,5,1,1,0,-1,3.37
675,-2,-8,-2,6,0,2,0,0,3.375
676,1,9,-1,-12,-4,-4,-1,-2,3.38
677,1,18,8,-7,-2,-4,0,1,3.3850000000000002
678,-1,-6,6,-4,2,0,-1,-3,3.39
679,-5,-42,-4,-1,-2,0,1,0,3.395
680,2,1,1,7,4,-2,-2,-1,3.4
681,1,7,-14,13,-6,-3,-2,-1,3.4050000000000002
682,-1,-8,-3,-4,2,0,-1,-1,3.41
683,-4,-32,-8,1,1,1,0,-1,3.415
684,-6,-15,-1,-8,-4,-3,0,1,3.42
685,0,3,4,-1,-1,0,0,-1,3.4250000000000003
686,0,1,-10,10,0,-2,0,-1,3.43
687,1,19,-2,-8,0,-1,-1,-2,3.435
688,1,-9,5,4,0,0,0,0,3.44
689,2,48,-7,-7,7,1,-1,-2,3.4450000000000003
690,-3,-1,6,2,-8,-2,-2,0,3.45
691,2,17,6,-11,0,-3,-1,-1,3.455
692,-1,-17,-7,-3,-7,0,1,-1,3.46
693,-5,-28,15,12,8,-1,-1,0,3.465
694,0,1,-11,-6,1,-1,1,0,3.47
695,0,28,5,0,-1,0,0,-1,3.475
696,-1,1,-6,-2,3,-2,-1,-2,3.48
697,0,-2,5,3,-11,-3,-2,-3,3.485
698,-2,0,3,13,1,-1,-1,-1,3.49
699,1,1,7,-15,-4,-3,-3,-3,3.495
700,0,0,-9,-4,0,2,-1,-2,3.5
701,-3,-20,-3,12,2,2,1,0,3.505
702,-1,-3,2,-14,-7,-3,-1,0,3.5100000000000002
703,2,26,-1,13,-1,-3,-1,-1,3.515
704,-1,-4,7,-7,4,-1,-2,-1,3.52
705,1,5,4,-14,-7,-1,1,-3,3.525
706,-3,-8,-4,43,-8,-3,-1,-1,3.5300000000000002
707,1,15,8,-43,12,3,1,0,3.535
708,-2,6,-1,-12,-2,0,-3,-1,3.54
709,8,16,3,-7,-6,-1,-2,-1,3.545
710,-6,-20,1,8,9,-1,1,-2,3.5500000000000003
711,-2,-11,0,17,-2,0,-2,-1,3.555
712,2,20,-3,0,4,-1,0,-1,3.56
713,-3,-27,1,-3,-8,-2,-1,-1,3.565
714,0,-4,-1,-4,2,2,0,-3,3.5700000000000003
715,-3,-11,2,7,5,0,0,0,3.575
716,-2,-4,-2,1,3,0,0,0,3.58
717,-4,3,4,3,-1,0,0,1,3.585
718,4,10,2,-18,-2,-1,-1,1,3.59
719,-1,-6,-6,17,-5,-3,-2,0,3.595
720,1,27,2,1,6,-2,-1,-1,3.6
721,-1,-6,-2,-12,-4,-1,0,-1,3.605
722,-1,-2,3,1,-3,-1,-1,-1,3.61
723,1,-1,5,0,-5,-1,0,1,3.615
724,4,26,2,-7,-4,0,-1,1,3.62
725,0,4,-1,11,2,-2,-1,0,3.625
726,-2,-12,-5,-22,6,1,-1,0,3.63
727,-1,-13,0,10,-6,-3,-1,-1,3.6350000000000002
728,1,-5,-3,7,-2,-1,0,0,3.64
729,0,5,-3,-10,-4,-4,-1,-1,3.645
730,2,21,5,20,-3,-1,-1,-1,3.65
731,-1,4,-6,-12,-4,-1,0,-1,3.6550000000000002
732,-4,-29,4,-33,18,4,-1,-1,3.66
733,1,7,2,2,-4,-2,-1,-2,3.665
734,1,-1,4,-4,-1,1,1,-1,3.67
735,2,10,-2,3,-7,-2,-2,-2,3.6750000000000003
736,-3,-20,-7,25,-6,-3,-1,-4,3.68
737,-3,-3,3,-9,-5,-1,0,0,3.685
738,1,-5,-2,4,1,2,0,0,3.69
739,4,26,-7,-21,7,2,0,-1,3.6950000000000003
740,0,32,-9,-34,-6,-3,-1,0,3.7
741,-9,-64,-4,26,1,-2,-2,-1,3.705
742,-2,-14,2,-11,5,1,0,0,3.71
743,-1,-12,2,34,-4,-2,-2,1,3.715
744,-1,-3,4,-13,4,2,0,0,3.72
745,-2,5,-9,2,-4,-1,-2,-3,3.725
746,3,34,3,-11,-8,-2,-2,-1,3.73
747,-3,-17,-3,7,2,1,0,-1,3.735
748,3,4,8,17,-4,-2,0,0,3.74
749,2,3,6,8,-2,-1,0,-1,3.745
750,-3,-4,-5,-5,0,-2,-3,-1,3.75
751,-5,-13,-10,-15,2,-1,0,-1,3.755
752,-9,-15,5,13,-13,-1,0,-1,3.7600000000000002
753,1,11,-11,-16,11,2,1,0,3.765
754,0,-5,-4,17,-12,-4,1,0,3.77
755,-2,-7,4,-26,12,3,-1,-1,3.775
756,-1,-12,0,2,-4,-3,-1,-2,3.7800000000000002
757,-1,16,8,7,-3,1,2,0,3.785
758,-3,1,-2,3,-2,-2,-3,-2,3.79
759,0,3,7,6,-2,-1,-1,1,3.795
760,2,6,1,-5,-5,0,-1,-1,3.8000000000000003
761,6,45,8,13,-3,-1,-1,-2,3.805
762,2,4,-5,-7,5,-2,-1,-1,3.81
763,1,-2,-5,-10,-8,-2,-1,0,3.815
764,0,-10,-3,31,-10,-1,0,0,3.8200000000000003
765,1,-10,10,-28,21,4,-1,0,3.825
766,2,19,5,-20,-4,-1,-2,-1,3.83
767,-3,-19,-4,6,-2,-1,0,-1,3.835
768,-1,3,-4,2,0,-1,-1,1,3.84
769,-2,1,1,-5,-6,-1,1,0,3.845
770,1,-14,-6,-16,2,0,-1,1,3.85
771,-3,-14,6,8,4,2,0,-1,3.855
772,-8,-10,-5,-5,-1,1,-1,-2,3.86
773,-1,-9,0,14,-1,-2,-1,-1,3.865
774,-4,-5,0,4,2,0,1,-1,3.87
775,0,5,-5,-8,-8,-3,-1,-1,3.875
776,2,-6,-5,-7,5,0,1,1,3.88
777,1,18,-1,4,-3,-1,-2,-1,3.8850000000000002
778,-3,-5,2,15,-1,1,-2,-1,3.89
779,1,12,1,0,-10,0,-1,0,3.895
780,4,-4,8,-13,11,3,1,1,3.9
781,-2,-6,0,-10,-5,-2,-1,-1,3.9050000000000002
782,2,-5,-7,1,3,-2,-2,0,3.91
783,-2,-8,2,9,-2,-1,1,-2,3.915
784,1,-8,-3,0,-3,-4,-2,-2,3.92
785,-4,-12,0,8,-6,-1,0,1,3.9250000000000003
786,0,5,6,2,3,-1,-2,-2,3.93
787,0,3,-11,-14,1,-1,-1,-2,3.935
788,-1,9,1,8,-4,-2,-1,-1,3.94
789,-1,-7,-1,-22,8,2,-1,-2,3.9450000000000003
790,2,24,-2,11,-4,-2,0,-1,3.95
791,0,13,5,0,2,0,-1,1,3.955
792,-2,0,3,8,5,0,-2,-1,3.96
793,-3,-27,-8,1,-3,-1,-2,-3,3.9650000000000003
794,-5,-12,-14,-5,-3,-1,0,0,3.97
795,-2,-19,-1,-1,-2,0,-1,-1,3.975
796,0,8,-2,-2,-4,0,0,-2,3.98
797,0,-6,9,8,-4,0,-1,0,3.985
798,-1,-5,-3,-5,10,2,-2,0,3.99
799,2,2,0,0,-3,-2,0,0,3.995
800,1,20,8,-2,3,-1,0,-3,4.0
801,-3,1,-12,-6,-3,-2,-3,-1,4.005
802,-1,-2,2,1,-1,0,0,1,4.01
803,-6,-32,-6,11,0,0,0,-1,4.015
804,-3,-15,-3,-28,-2,0,-1,-1,4.0200000000000005
805,-1,9,2,10,1,-3,-1,-1,4.025
806,-1,-9,-5,9,-6,-3,0,-1,4.03
807,0,2,5,-14,4,-1,-2,-3,4.035
808,-2,-2,-13,1,-5,-1,0,-1,4.04
809,-3,-9,-4,1,2,0,1,-1,4.045
810,-1,-7,-2,-17,-5,0,0,-1,4.05
811,3,14,0,12,0,0,-1,-1,4.055
812,0,4,-2,15,-3,-3,0,1,4.0600000000000005
813,1,12,-1,-15,1,-2,-1,-1,4.065
814,-3,-5,0,7,-1,1,1,-1,4.07
815,0,3,-2,-14,-8,-3,-2,-2,4.075
816,-2,-5,7,9,8,0,-2,-1,4.08
817,2,8,-8,-2,-4,-1,0,1,4.085
818,-2,-36,-5,-4,-3,-2,0,-1,4.09
819,5,36,-2,2,-1,-1,-1,0,4.095
820,1,2,-5,-2,0,1,0,1,4.1
821,0,2,5,7,-1,-1,-3,-1,4.105
822,3,27,4,-5,-3,-2,-2,1,4.11
823,-2,3,-6,17,3,-1,0,-2,4.115
824,-2,-11,-23,-31,-8,0,-1,0,4.12
825,0,0,-8,0,4,2,1,-1,4.125
826,0,19,-5,-11,0,-2,1,-1,4.13
827,-3,-6,3,4,-2,0,0,0,4.135
828,-1,5,12,11,-4,-3,-2,-1,4.14
829,-1,-8,9,20,-9,-2,0,-1,4.1450000000000005
830,-1,-7,-3,-30,-4,1,-1,0,4.15
831,-4,2,12,6,9,1,0,0,4.155
832,2,19,3,-10,-5,-5,-2,-3,4.16
833,3,13,3,-3,-2,-1,-2,0,4.165
834,-2,1,4,12,-2,-4,-1,-4,4.17
835,-5,-34,5,-5,3,0,1,0,4.175
836,-1,-5,0,10,-2,0,-1,-2,4.18
837,1,-8,-10,-28,-1,-3,0,0,4.1850000000000005
838,-2,4,8,15,0,0,-1,-2,4.19
839,3,8,6,-9,-5,-2,0,0,4.195
840,2,7,9,7,0,-2,-1,-3,4.2
841,-3,-18,-1,13,-2,2,1,-2,4.205
842,-4,-34,-9,-11,3,1,1,-1,4.21
843,6,6,-2,-4,1,-1,0,2,4.215
844,-3,-18,0,-2,1,0,0,0,4.22
845,0,20,3,10,-1,-1,-1,1,4.225
846,1,10,2,13,4,0,1,0,4.23
847,-3,0,-6,-12,-11,-1,0,0,4.235
848,4,15,-7,-14,3,-2,0,0,4.24
849,1,62,9,10,-4,-3,-2,-3,4.245
850,-1,6,3,-20,3,1,1,1,4.25
851,3,33,1,0,-5,0,-1,-5,4.255
852,-4,-15,-6,5,-2,1,1,1,4.26
853,-1,-5,-1,2,2,-2,-1,-1,4.265
854,0,8,-6,4,-5,-3,1,0,4.2700000000000005
855,0,2,5,4,1,-1,-1,-1,4.275
856,1,11,8,-8,0,-2,0,-1,4.28
857,3,-18,-1,8,-4,-1,0,-1,4.285
858,0,4,-4,6,0,-2,-2,0,4.29
859,-5,-23,-5,8,-2,-1,-1,-1,4.295
860,-3,-8,5,-25,1,1,-2,-2,4.3
861,-1,-29,5,1,1,-1,0,1,4.305
862,-2,-8,-2,-3,-4,0,-2,0,4.3100000000000005
863,-2,-6,-3,-2,-2,0,-1,1,4.315
864,-1,-3,-5,25,0,-2,-1,-1,4.32
865,1,15,2,-7,-2,-1,-1,-1,4.325
866,1,1,0,-2,0,-1,-3,-2,4.33
867,-1,14,4,-1,-2,-4,-3,-1,4.335
868,11,44,10,-5,-7,-3,-4,-3,4.34
869,-4,-3,-10,-8,2,0,0,0,4.345
870,-3,5,6,-21,-6,-1,-1,-4,4.3500000000000005
871,-1,-4,-8,-7,-2,-1,0,0,4.355
872,-2,-15,4,1,0,1,2,1,4.36
873,-1,-10,3,0,0,-1,1,-1,4.365
874,1,11,1,8,-4,-3,-3,-1,4.37
875,2,-4,-6,-6,0,-1,-1,-2,4.375
876,-4,-4,0,7,-1,0,-1,0,4.38
877,0,-1,-5,5,1,2,0,0,4.385
878,1,7,1,27,1,-1,-1,-1,4.39
879,0,13,-4,-35,-4,1,0,0,4.3950000000000005
880,-6,-49,-17,-6,-2,1,0,-1,4.4
881,0,2,-1,-2,3,0,0,0,4.405
882,-2,-2,-3,-24,0,-2,-2,-2,4.41
883,-2,4,9,23,3,0,1,0,4.415
884,-3,3,-10,0,-6,-3,0,-1,4.42
885,-1,2,-2,-14,-1,-2,-1,0,4.425
886,2,-6,-3,21,1,1,0,0,4.43
887,0,-9,-8,1,-2,-2,-1,-1,4.4350000000000005
888,1,-9,1,-2,-1,0,0,1,4.44
889,-11,9,-15,1,-3,-1,1,0,4.445
890,3,19,2,7,5,1,-1,1,4.45
891,2,43,0,-15,1,-1,0,-1,4.455
892,-8,-54,-12,9,-1,0,1,-1,4.46
893,4,-7,2,-9,0,1,-1,0,4.465
894,-3,-6,-6,7,4,0,0,-1,4.47
895,1,8,-1,17,-4,-1,-2,0,4.4750000000000005
896,2,21,6,-25,6,1,-1,-2,4.48
897,-3,-14,5,12,0,-2,-2,-2,4.485
898,-4,-24,-3,-14,-7,1,2,1,4.49
899,-1,-27,2,1,1,-1,0,-1,4.495
900,-2,8,1,6,-2,-2,0,-2,4.5
901,-2,-12,0,-1,2,1,-1,0,4.505
902,2,3,1,-4,-4,-3,-2,-1,4.51
903,-4,-17,-7,11,3,0,0,-1,4.515
904,1,14,3,-15,-5,-2,-2,-1,4.5200000000000005
905,3,31,3,-5,1,1,2,-1,4.525
906,0,-10,-9,-2,-1,0,-2,-1,4.53
907,-5,-24,-1,-11,-3,-2,-1,-1,4.535
908,1,20,6,12,0,1,-1,1,4.54
909,0,-8,-1,1,-5,-1,0,-1,4.545
910,3,11,3,-6,-4,-3,0,0,4.55
911,-1,-13,-7,10,3,1,1,-2,4.555
912,-1,-10,0,8,0,2,1,-2,4.5600000000000005
913,-6,-16,-1,-12,-1,-2,-2,-1,4.565
914,0,24,2,13,-6,-2,-1,0,4.57
915,0,13,5,-17,5,0,-2,-1,4.575
916,3,22,4,7,-3,-2,-2,-1,4.58
917,0,-2,3,-8,-3,0,-1,-2,4.585
918,-2,-14,1,9,1,0,-1,-2,4.59
919,2,37,9,5,-5,1,-2,-2,4.595
920,-3,-7,-14,-8,4,-1,-2,-1,4.6000000000000005
921,0,-8,-3,-7,-5,-1,-2,-1,4.605
922,-5,-16,0,-13,8,2,3,1,4.61
923,-1,-10,2,14,-11,-1,0,0,4.615
924,-2,-23,-3,-6,12,1,1,-1,4.62
925,1,2,-5,8,-1,-2,1,0,4.625
926,3,8,1,9,2,1,-1,-1,4.63
927,-13,-54,-15,-16,-2,0,-1,0,4.635
928,0,5,8,13,-9,0,-1,-1,4.64
929,-2,-2,4,-10,9,2,1,-1,4.6450000000000005
930,0,-12,6,11,-1,-1,-1,0,4.65
931,1,-3,-3,1,-1,-1,0,0,4.655
932,-2,5,2,13,-3,-3,-1,-1,4.66
933,1,0,-2,-2,-2,-3,-2,-2,4.665
934,-1,-5,14,-10,-1,-2,-1,-2,4.67
935,4,-7,4,-10,1,0,0,-1,4.675
936,-2,8,-2,0,-1,-4,-1,-1,4.68
937,4,8,11,10,1,0,-1,0,4.6850000000000005
938,-12,-97,-15,4,0,-1,-1,3,4.69
939,-2,1,3,-7,0,0,1,-1,4.695
940,-1,1,3,-2,-4,-1,-1,-1,4.7
941,-1,1,0,-1,-4,-1,-2,-1,4.705
942,1,21,0,-6,-2,-3,-2,-2,4.71
943,-1,-15,6,24,0,-4,-4,-3,4.715
944,-2,-9,-2,-12,2,1,0,1,4.72
945,6,36,10,3,4,-1,-1,-1,4.7250000000000005
946,-6,-12,-15,-35,-7,-2,0,-1,4.73
947,-4,-4,-8,6,1,-1,0,-1,4.735
948,1,7,0,-3,-3,-1,-1,-1,4.74
949,-3,-9,-4,0,0,-1,-2,0,4.745
950,2,12,0,7,-2,0,-2,-1,4.75
951,2,8,0,6,-1,1,0,1,4.755
952,-1,3,0,-2,1,1,0,0,4.76
953,-1,-5,-2,6,-14,-2,-1,-2,4.765
954,1,-21,-12,-8,27,7,2,1,4.7700000000000005
955,-2,1,-2,5,-4,2,1,0,4.775
956,1,2,5,-12,0,-1,0,-2,4.78
957,-1,-6,-3,1,-1,-3,-3,-1,4.785
958,-3,9,6,12,-9,-5,-1,-3,4.79
959,1,5,-6,-12,4,-1,0,-1,4.795
960,-1,-6,0,0,-2,-1,0,-1,4.8
961,-3,-12,-11,9,-2,-1,-2,0,4.805
962,0,17,10,-15,-5,-1,-3,-2,4.8100000000000005
963,1,6,2,2,6,-2,-3,-1,4.815
964,1,2,2,24,-4,-2,0,-1,4.82
965,-10,-41,-11,-25,1,-1,1,-1,4.825
966,0,3,-1,7,-4,1,-1,0,4.83
967,3,26,6,-12,-3,-3,-4,-1,4.835
968,1,14,-3,3,1,-1,-2,-2,4.84
969,-2,-27,-2,11,5,2,2,1,4.845
970,0,7,-8,-1,-6,-2,-2,-1,4.8500000000000005
971,-1,-3,2,-3,0,-2,0,-1,4.855
972,2,2,-1,6,-5,-2,-3,-1,4.86
973,0,14,3,-20,0,-1,-2,0,4.865
974,6,9,0,-2,7,0,1,-2,4.87
975,-4,-14,-11,-3,4,0,0,1,4.875
976,-5,4,4,2,-3,0,0,2,4.88
977,-2,-12,-3,-14,-3,0,0,0,4.885
978,-4,3,-4,11,-8,-3,0,-1,4.89
979,2,6,4,4,0,-1,-2,-2,4.8950000000000005
980,0,-8,-4,-6,3,1,0,1,4.9
981,1,9,1,9,-1,-1,-1,0,4.905
982,0,8,-3,3,-4,-1,-3,1,4.91
983,-1,-11,1,-3,0,-1,0,-1,4.915
984,-4,7,-5,-1,-3,-2,-2,-2,4.92
985,-4,-27,1,29,-1,-2,-2,-2,4.925
986,-3,-3,-4,-60,1,3,2,1,4.93
987,-2,-8,6,0,-5,0,0,-3,4.9350000000000005
988,1,-1,5,-2,9,0,-2,-2,4.94
989,1,18,3,-1,-3,-3,-2,-2,4.945
990,-1,2,3,17,-1,-2,0,-1,4.95
991,0,-3,-4,2,-3,-2,0,-1,4.955
992,0,0,-1,-8,-3,-1,-2,-2,4.96
993,3,11,9,-5,1,-2,0,0,4.965
994,-2,-22,-3,9,-4,-3,-3,1,4.97
995,-3,-6,-8,4,2,1,1,0,4.9750000000000005
996,0,6,1,-8,-12,-3,-1,-1,4.98
997,-4,4,4,-16,11,2,-1,0,4.985
998,-1,2,7,6,-5,-1,-2,-2,4.99
999,-1,0,-5,6,2,-2,-1,-1,4.995
1000,-1,-12,4,4,-3,-1,0,-1,5.0
1001,2,5,-2,1,-4,-2,-1,-1,5.005
1002,-1,14,6,2,3,-1,1,-2,5.01
1003,1,20,6,5,-3,0,-1,0,5.015
1004,-8,-61,-3,10,-5,1,3,-1,5.0200000000000005
1005,-2,4,3,-20,10,0,1,1,5.025
1006,0,3,-4,-2,-2,1,-2,1,5.03
1007,-2,-7,-4,3,-1,-4,-1,-1,5.035
1008,3,9,9,-25,0,0,0,0,5.04
1009,0,8,5,21,-7,-3,0,-1,5.045
1010,-2,-10,1,3,-2,-1,-1,-2,5.05
1011,1,2,2,-5,1,0,-3,0,5.055
1012,2,3,8,5,-3,-2,-1,0,5.0600000000000005
1013,-2,-2,-8,0,-3,-1,-2,-3,5.065
1014,-3,-15,-1,-3,-7,-3,-2,-3,5.07
1015,-5,-8,-3,-14,6,2,2,0,5.075
1016,-2,17,1,-15,3,0,-2,-1,5.08
1017,0,-12,2,8,-1,0,0,0,5.085
1018,-2,-3,-3,2,-3,-2,-3,-2,5.09
1019,0,0,-7,-1,-9,-4,-2,-2,5.095
1020,1,18,-4,-7,-6,-1,-2,1,5.1000000000000005
1021,3,10,0,-4,9,1,1,1,5.105
1022,1,9,1,15,-1,-2,0,-1,5.11
1023,-2,6,6,1,-1,-1,-2,-1,5.115
1024,-1,-1,-4,18,-2,0,1,-1,5.12
1025,-1,10,-7,-25,-2,0,-1,0,5.125
1026,-1,-6,0,11,5,2,2,1,5.13
1027,1,7,0,-16,-5,-3,-3,-3,5.135
1028,-2,-4,-2,6,-2,-4,-3,-4,5.14
1029,-2,4,-14,3,-8,-4,-4,-3,5.1450000000000005
1030,-1,-15,-7,-7,5,-1,0,0,5.15
1031,-6,-17,1,-2,-1,2,1,1,5.155
1032,1,5,2,1,3,-1,-1,-1,5.16
1033,-1,-25,-1,16,0,0,-1,-1,5.165
1034,0,12,1,-3,1,1,0,0,5.17
1035,1,-10,0,2,-3,-1,-2,-2,5.175
1036,0,-10,-4,7,2,1,-1,0,5.18
1037,-6,-1,-2,9,-15,0,-1,0,5.1850000000000005
1038,-1,-6,1,19,19,3,1,-1,5.19
1039,1,-2,5,-35,5,1,0,1,5.195
1040,-6,-21,-1,0,-2,-2,-1,-2,5.2
1041,0,-4,-2,-7,-3,-1,-1,-2,5.205
1042,-3,7,-2,-12,-11,-3,-1,0,5.21
1043,0,7,0,14,-2,-1,1,1,5.215
1044,-1,2,3,11,2,-1,1,-1,5.22
1045,0,12,4,-17,-1,0,0,0,5.2250000000000005
1046,-4,-17,0,1,-4,-2,1,0,5.23
1047,-1,-6,2,2,0,0,0,-1,5.235
1048,5,29,3,-8,-3,-1,-2,-1,5.24
1049,3,-1,2,16,6,-2,-2,-2,5.245
1050,1,11,-4,-2,2,-1,-1,0,5.25
1051,-1,-6,-4,3,-2,1,1,0,5.255
1052,-2,-5,2,-13,7,1,-2,2,5.26
1053,2,11,-1,-5,-1,-1,0,0,5.265
1054,1,6,-13,-13,-13,-3,-3,-2,5.2700000000000005
1055,2,23,-1,-3,4,-2,-1,0,5.275
1056,1,-11,-4,-1,-5,-3,-1,0,5.28
1057,-1,-8,1,6,1,-1,0,0,5.285
1058,1,2,5,2,1,0,-1,1,5.29
1059,4,29,2,14,-7,-3,-1,-2,5.295
1060,-2,4,0,-14,4,0,2,0,5.3
1061,-1,10,7,-1,-6,-3,-2,1,5.305
1062,-8,-52,-2,4,-1,2,1,-1,5.3100000000000005
1063,2,10,1,8,3,1,-2,-2,5.315
1064,-3,-15,3,8,3,-1,-2,-3,5.32
1065,-5,-32,0,-8,-2,-1,0,0,5.325
1066,2,25,-6,-23,-4,-2,-1,-1,5.33
1067,-4,-18,-7,0,1,-2,0,-1,5.335
1068,-4,-3,0,7,-2,1,-1,0,5.34
1069,-2,1,5,8,0,0,-1,0,5.345
1070,2,6,0,10,-2,0,-1,-1,5.3500000000000005
1071,-2,-10,8,-1,1,0,-2,0,5.355
1072,5,23,1,19,1,-2,-2,0,5.36
1073,-1,-8,-3,-23,-4,0,0,-2,5.365
1074,1,13,-4,2,-1,-1,0,2,5.37
1075,-3,-11,0,-5,6,2,1,0,5.375
1076,1,-8,-6,0,-7,-1,-1,0,5.38
1077,-2,2,-9,-3,8,-1,-2,-2,5.385
1078,-5,-42,0,4,-4,0,2,1,5.39
1079,-2,-34,1,-1,-5,0,0,0,5.3950000000000005
1080,-2,17,3,1,3,1,0,0,5.4
1081,1,1,2,13,-4,0,0,1,5.405
1082,4,25,-6,-11,2,-4,-3,-3,5.41
1083,0,18,2,9,-1,1,0,-2,5.415
1084,-2,-17,0,-30,1,-1,-1,-1,5.42
1085,-2,-7,11,12,1,0,-2,-1,5.425
1086,-6,-19,-2,-15,-2,-3,-2,-3,5.43
1087,1,3,-3,-12,-6,-4,-1,-2,5.4350000000000005
1088,-5,4,-4,-1,-4,-2,-2,-3,5.44
1089,-1,0,-3,-4,3,-1,-1,0,5.445
1090,1,8,0,8,2,0,-2,0,5.45
1091,1,24,9,12,-4,-3,-2,-2,5.455
1092,-4,-26,-5,2,-1,0,-2,-2,5.46
1093,1,20,-6,-27,1,-1,1,-1,5.465
1094,-1,6,12,14,-3,-1,-2,-2,5.47
1095,-6,-16,-4,-8,0,1,-2,-1,5.4750000000000005
1096,1,-5,2,-9,-1,-3,-2,-2,5.48
1097,2,32,1,8,0,2,0,2,5.485
1098,3,23,-6,-9,-6,-3,1,-1,5.49
1099,0,2,-4,4,0,-3,-2,-1,5.495
1100,3,11,1,11,2,1,3,0,5.5
1101,-1,-21,-3,3,-14,-4,-3,-2,5.505
1102,-1,-4,-2,12,13,3,-1,-1,5.51
1103,-1,-2,-15,-15,-5,0,-2,-1,5.515
1104,6,11,1,5,-3,-3,-1,0,5.5200000000000005
1105,-3,-16,-10,-15,-2,-2,2,-1,5.525
1106,1,4,6,-4,-2,0,0,-1,5.53
1107,-1,-7,-6,9,-1,-2,0,-1,5.535
1108,3,58,-1,-10,0,0,-3,-3,5.54
1109,1,4,3,18,-4,-2,-1,-1,5.545
1110,-1,9,-1,-14,2,0,-2,0,5.55
1111,1,-9,3,2,4,2,0,-1,5.555
1112,2,5,8,1,-6,-3,-2,-1,5.5600000000000005
1113,-6,-20,-10,14,8,2,-1,-2,5.565
1114,-4,-15,5,-5,-3,-1,-1,-1,5.57
1115,-1,2,11,-4,-4,-2,-1,1,5.575
1116,1,-11,-2,-3,-4,-1,-2,0,5.58
1117,1,-1,6,-3,13,3,-1,0,5.585
1118,4,4,0,1,-6,-3,-2,-2,5.59
1119,-5,-18,-1,-7,1,-1,-1,-1,5.595
1120,-5,-19,-3,5,2,1,2,1,5.6000000000000005
1121,-1,-5,0,-1,-5,-2,-1,0,5.605
1122,0,-2,-3,5,-2,-1,-1,-2,5.61
1123,-1,-17,0,0,0,-1,-1,-1,5.615
1124,-2,-9,-4,4,2,-1,0,0,5.62
1125,-1,11,1,-3,-5,-3,0,1,5.625
1126,-1,12,1,9,1,0,-1,-1,5.63
1127,1,8,0,-13,-2,0,0,-2,5.635
1128,-5,-41,-6,1,-3,-1,0,0,5.64
1129,2,0,2,-18,4,1,0,-1,5.6450000000000005
1130,-3,-25,-2,28,-7,0,1,1,5.65
1131,5,13,0,-9,8,0,-1,-2,5.655
1132,0,16,1,-23,-1,1,-1,-1,5.66
1133,0,5,4,-5,-9,-3,-3,-3,5.665
1134,-5,-18,-4,0,-3,-3,-1,-2,5.67
1135,-1,6,-5,4,-3,-1,-1,-1,5.675
1136,-1,-9,6,0,7,2,0,0,5.68
1137,-1,5,4,2,-2,0,0,-2,5.6850000000000005
1138,4,25,-2,-9,0,-3,-2,0,5.69
1139,-4,-11,-2,-2,-7,-2,-2,0,5.695
1140,-3,-5,-4,20,-7,-2,-3,-2,5.7
1141,-1,-2,2,-23,7,2,0,0,5.705
1142,-3,-8,4,-1,-4,0,-1,-2,5.71
1143,-1,4,2,-2,-5,-1,0,1,5.715
1144,-3,-18,-2,18,-2,0,1,-1,5.72
1145,1,-8,5,-8,-1,-2,0,0,5.7250000000000005
1146,-1,5,-8,0,1,1,1,0,5.73
1147,-2,2,1,-13,0,0,1,0,5.735
1148,0,4,10,-3,1,0,-2,-1,5.74
1149,-1,14,0,8,-2,-1,0,0,5.745
1150,-1,1,0,-2,2,-2,-3,-2,5.75
1151,-2,11,-1,22,-1,0,-1,-1,5.755
1152,2,27,0,-17,-4,-2,0,0,5.76
1153,-1,6,3,1,-5,-2,-2,-2,5.765
1154,-1,2,5,-1,-1,-1,-1,1,5.7700000000000005
1155,0,8,-2,1,-2,-2,-1,-2,5.775
1156,0,-10,-3,-4,-1,-1,0,0,5.78
1157,-1,-4,0,17,-1,0,-1,-2,5.785
1158,0,9,7,-24,0,0,1,0,5.79
1159,-1,-1,0,13,0,-2,-2,-1,5.795
1160,2,-4,-3,-24,-2,-2,-1,-3,5.8
1161,1,-3,-3,16,-5,-1,-2,0,5.805
1162,-4,-22,-14,-8,-1,0,-1,-1,5.8100000000000005
1163,0,-7,5,-6,-2,-2,-1,-1,5.815
1164,-1,2,3,9,5,1,0,0,5.82
1165,-1,-4,-7,1,-1,-1,-2,-1,5.825
1166,2,4,2,-14,6,0,0,1,5.83
1167,-1,1,1,2,-8,-2,-1,0,5.835
1168,-5,-16,1,-3,5,-2,-2,-2,5.84
1169,-3,-7,-16,-8,-8,-3,-2,-2,5.845
1170,1,6,4,2,1,0,-1,-2,5.8500000000000005
1171,0,-4,-7,5,0,-2,-1,0,5.855
1172,1,22,-2,-7,1,3,3,2,5.86
1173,-4,-28,1,0,0,0,-1,-2,5.865
1174,1,1,-9,4,-4,-1,-1,-1,5.87
1175,2,6,-11,10,7,0,-1,-1,5.875
1176,-7,-15,-5,-14,-4,1,0,-1,5.88
1177,0,6,2,-14,4,-1,0,1,5.885
1178,-3,16,-6,1,-1,-2,0,0,5.89
1179,4,29,4,1,4,0,0,0,5.8950000000000005
1180,0,-7,-4,6,-1,-1,-2,-1,5.9
1181,-1,1,-2,8,2,-1,1,0,5.905
1182,-1,-6,4,1,-3,0,-1,-1,5.91
1183,0,5,0,-1,-6,-1,-1,-2,5.915
1184,0,9,-3,-2,4,-1,-1,-1,5.92
1185,0,5,-3,3,1,0,-1,-1,5.925
1186,-2,-4,3,-4,2,2,1,-1,5.93
1187,-2,4,2,-9,-5,-2,-1,0,5.9350000000000005
1188,-3,-17,-2,-2,-5,-3,-1,-2,5.94
1189,-2,-3,3,0,3,-1,-2,0,5.945
1190,0,7,-9,-4,-1,-3,-1,-1,5.95
1191,-6,-65,-11,2,-1,3,2,1,5.955
1192,-1,-1,2,6,-1,0,-2,0,5.96
1193,2,11,-5,3,-3,-1,-2,0,5.965
1194,-3,-4,-1,-4,-2,2,1,-1,5.97
1195,-1,-5,7,-7,0,-1,-1,-2,5.9750000000000005
1196,2,-1,-4,4,-5,-2,-1,0,5.98
1197,0,11,2,3,6,3,2,1,5.985
1198,-3,-5,1,5,-6,0,-2,-1,5.99
1199,-2,-3,-1,4,0,-1,0,-1,5.995
1200,-1,-2,3,-5,-3,-1,0,-3,6.0
1201,0,-1,1,-8,-2,-1,-1,-1,6.005
1202,2,6,4,6,-7,-2,-1,0,6.01
1203,1,3,0,2,3,1,0,1,6.015000000000001
1204,1,5,-1,15,-3,-2,-1,-2,6.0200000000000005
1205,-2,-9,-5,-25,3,0,-1,0,6.025
1206,-2,-7,-4,1,-5,-2,-1,-1,6.03
1207,1,2,3,-2,-7,1,-2,-1,6.035
1208,-1,-7,3,-4,3,0,-2,0,6.04
1209,-1,1,-1,15,-4,-2,-1,-2,6.045
1210,0,-3,-4,-5,1,-3,-3,-2,6.05
1211,3,5,8,-3,3,-1,1,0,6.055
1212,2,27,1,3,-4,-5,-4,-3,6.0600000000000005
1213,-4,1,-6,1,1,3,3,0,6.065
1214,-2,-4,-2,6,3,1,-2,1,6.07
1215,1,-1,-6,9,-3,-3,-2,1,6.075
1216,-2,-12,9,-15,1,3,2,0,6.08
1217,-1,8,-4,-4,-5,-2,-2,-2,6.085
1218,-1,-14,1,-8,3,1,0,-1,6.09
1219,0,0,2,1,0,2,1,-1,6.095
1220,1,18,0,4,0,0,2,-1,6.1000000000000005
1221,5,5,0,26,-11,-1,-3,0,6.105
1222,-1,-1,6,-24,4,1,1,-1,6.11
1223,-7,-34,0,-7,-1,-1,0,-1,6.115
1224,-3,-8,-1,-16,2,-1,0,0,6.12
1225,1,11,10,8,-2,-1,1,0,6.125
1226,1,13,-5,6,-5,-2,-1,-1,6.13
1227,-2,6,2,-5,1,0,-3,-1,6.135
1228,2,2,5,6,-2,0,0,0,6.140000000000001
1229,-2,-14,-6,-3,6,-1,0,-2,6.1450000000000005
1230,1,13,7,-3,2,-2,-2,-2,6.15
1231,-4,2,1,-9,0,0,-1,-1,6.155
1232,1,12,-3,-3,-9,-2,-2,0,6.16
1233,-2,-13,7,-2,9,-2,-3,-1,6.165
1234,-2,-6,-6,10,-4,1,1,-1,6.17
1235,3,6,-7,3,-1,-2,-1,-2,6.175
1236,1,-17,-4,-1,-1,-1,-3,-2,6.18
1237,-1,2,-1,-24,-7,-1,-1,-1,6.1850000000000005
1238,-2,-20,4,7,0,-1,0,0,6.19
1239,1,7,-3,-3,-6,-1,-1,0,6.195
1240,-3,-11,1,14,2,0,-1,-1,6.2
1241,1,15,0,-3,-3,-2,1,-1,6.205
1242,-4,-34,-3,-2,2,2,0,2,6.21
1243,0,8,-7,-14,-3,-1,0,-3,6.215
1244,0,3,4,3,1,-2,-2,1,6.22
1245,3,10,-5,2,-1,-1,0,0,6.2250000000000005
1246,-1,7,-8,26,-5,-3,0,-3,6.23
1247,-2,-1,-6,-23,2,-1,0,-2,6.235
1248,-3,1,-1,-7,-3,0,-1,-1,6.24
1249,-2,0,3,3,0,-2,0,-3,6.245
1250,0,6,-3,11,-4,-1,0,1,6.25
1251,-3,-12,-3,0,8,1,-1,-2,6.255
1252,-4,-13,-2,-5,-5,-1,2,-2,6.26
1253,-6,-15,-6,2,-1,0,-2,0,6.265000000000001
1254,2,10,2,-10,-3,-2,-2,-2,6.2700000000000005
1255,-4,-20,0,11,-3,-1,-1,-1,6.275
1256,2,33,3,-3,0,-1,-1,-1,6.28
1257,0,15,5,11,2,0,1,1,6.285
1258,-1,-2,6,-26,0,-2,-2,-2,6.29
1259,0,7,-1,1,0,0,0,0,6.295
1260,-2,-32,-4,13,3,-3,-1,-2,6.3
1261,-4,-20,-2,3,-2,2,0,-1,6.305
1262,1,5,-3,-5,-1,-2,-2,-2,6.3100000000000005
1263,3,6,2,-10,-6,-3,-1,1,6.315
1264,-1,-2,6,6,0,1,0,-2,6.32
1265,-2,-16,-1,-4,-1,-3,-2,-2,6.325
1266,-3,-5,-3,4,3,-1,1,-2,6.33
1267,1,27,3,3,-5,-2,0,-1,6.335
1268,-1,9,7,-1,7,-1,-2,-1,6.34
1269,1,10,5,1,-15,-2,-2,0,6.345
1270,3,13,-11,0,9,1,-1,-1,6.3500000000000005
1271,-5,-31,-6,-18,-7,-1,1,-1,6.355
1272,0,-14,-5,0,1,-1,0,-1,6.36
1273,2,2,2,-10,0,1,1,-2,6.365
1274,-1,0,-6,4,-8,-1,0,2,6.37
1275,2,0,2,11,0,-2,-1,0,6.375
1276,-4,3,-11,13,0,-1,-2,0,6.38
1277,-1,-11,-4,-34,2,0,-1,0,6.385
1278,-3,-3,0,4,-4,-2,-2,1,6.390000000000001
1279,-1,7,0,8,2,-1,-1,0,6.3950000000000005
1280,2,9,1,-6,-6,-2,0,1,6.4
1281,-1,1,-2,0,0,-3,-1,-1,6.405
1282,0,6,0,2,1,1,1,-1,6.41
1283,0,6,5,2,-3,1,1,0,6.415
1284,-1,9,3,1,1,0,0,-1,6.42
1285,1,8,-7,-4,-7,2,0,2,6.425
1286,4,15,6,-10,20,2,0,1,6.43
1287,-3,-16,3,16,-2,-1,-2,-2,6.4350000000000005
1288,-5,-7,-6,-6,-2,-3,-1,-2,6.44
1289,-1,-3,-5,3,-1,0,-2,1,6.445
1290,-1,-10,8,-4,-8,-3,-2,-2,6.45
1291,-1,-4,6,1,0,-2,-1,-2,6.455
1292,-2,-2,0,-12,4,1,-2,1,6.46
1293,0,-22,1,23,1,-2,0,-1,6.465
1294,2,4,6,-16,0,0,-2,-1,6.47
1295,-1,-3,-4,-10,3,-2,-1,0,6.4750000000000005
1296,-2,-11,-3,-13,-6,-1,0,-1,6.48
1297,-1,1,-1,16,-3,-2,1,-1,6.485
1298,3,4,-10,3,-1,0,-1,0,6.49
1299,5,17,2,-3,0,1,1,1,6.495
1300,-3,-17,-11,-9,11,2,2,0,6.5
1301,-7,-59,-11,-3,0,0,-1,-1,6.505
1302,-2,0,-1,4,-7,-1,-2,-3,6.51
1303,-3,2,-2,-3,-6,-3,-2,0,6.515000000000001
1304,-1,12,4,10,-4,-1,-1,0,6.5200000000000005
1305,1,17,6,-15,0,-2,-2,-2,6.525
1306,0,-1,-3,10,1,-2,-1,0,6.53
1307,0,-9,-1,-8,-4,-2,0,1,6.535
1308,0,5,5,7,-4,-2,0,-1,6.54
1309,-4,5,2,6,8,2,0,-1,6.545
1310,3,4,2,-4,-3,-1,0,0,6.55
1311,0,13,11,-6,2,-2,-2,0,6.555
1312,0,-21,4,8,-2,-1,-1,1,6.5600000000000005
1313,2,16,-2,-4,-4,-3,-2,0,6.565
1314,-2,-7,3,7,-2,-1,-1,-2,6.57
1315,-5,-22,-3,2,2,0,0,-1,6.575
1316,3,22,4,-9,-2,-1,1,1,6.58
1317,-4,-11,-3,1,-5,-2,-2,-1,6.585
1318,-3,-4,-4,1,1,-1,3,0,6.59
1319,0,1,1,-2,-2,-2,-3,-2,6.595
1320,-4,-7,0,-3,-6,-1,0,0,6.6000000000000005
1321,0,11,0,-2,15,2,2,2,6.605
1322,-10,-60,-11,-25,-8,-2,-1,1,6.61
1323,-2,-30,4,5,5,2,1,-1,6.615
1324,1,4,0,6,-9,-3,-3,-2,6.62
1325,-2,-12,3,9,-3,-1,1,-1,6.625
1326,-4,-15,-4,-4,2,0,-2,0,6.63
1327,3,15,-5,4,-3,1,-2,0,6.635
1328,0,-2,-3,-8,0,-4,-2,-1,6.640000000000001
1329,3,0,2,-11,0,0,-2,0,6.6450000000000005
1330,3,18,7,9,-1,-3,-1,-1,6.65
1331,-2,-21,-9,1,0,1,-1,0,6.655
1332,0,-7,1,6,4,1,-1,-2,6.66
1333,1,8,-4,-5,-1,-2,-1,-1,6.665
1334,-1,7,-4,0,-4,-1,1,0,6.67
1335,1,31,8,2,-5,-3,-3,-2,6.675
1336,1,1,-1,-12,4,-1,0,0,6.68
1337,-2,-12,-1,1,1,2,-1,-1,6.6850000000000005
1338,14,61,0,-6,-2,-3,-3,-2,6.69
1339,0,7,0,-3,6,3,1,0,6.695
1340,0,12,0,6,-3,-2,-3,-1,6.7
1341,0,10,2,1,-7,-3,-2,-2,6.705
1342,6,53,4,4,-5,-2,-1,0,6.71
1343,-1,3,-7,3,5,-1,-2,-1,6.715
1344,0,-14,10,2,-3,-2,2,-1,6.72
1345,2,8,-1,1,0,-2,1,-2,6.7250000000000005
1346,-4,-4,-3,-17,2,1,-1,-1,6.73
1347,0,0,-1,18,-6,0,1,0,6.735
1348,-3,-6,0,-8,6,1,1,-1,6.74
1349,-1,6,-2,4,-6,-3,-2,0,6.745
1350,-9,-43,-1,2,0,0,0,-2,6.75
1351,-3,8,-1,-6,-3,-3,-1,-2,6.755
1352,0,-2,-3,0,-2,0,-1,1,6.76
1353,-2,-29,-3,-2,1,2,0,2,6.765000000000001
1354,-8,-32,-7,23,-13,-3,-3,0,6.7700000000000005
1355,1,0,1,-15,22,2,2,1,6.775
1356,-3,0,3,9,-11,-2,-1,-1,6.78
1357,-3,-17,-5,-20,7,-2,-1,-3,6.785
1358,3,30,10,-3,-7,1,1,0,6.79
1359,-3,-3,-6,10,0,-2,-3,-3,6.795
1360,-4,-38,0,-16,3,1,1,-1,6.8
1361,-1,9,2,8,-3,0,0,2,6.805
1362,-2,-1,-4,4,0,-3,-1,0,6.8100000000000005
1363,4,8,4,-4,-5,1,0,0,6.815
1364,0,-4,-4,-5,-1,-1,-1,0,6.82
1365,-3,0,2,14,-1,1,-1,-1,6.825
1366,0,-10,3,-9,3,2,2,0,6.83
1367,2,13,0,-1,-7,-5,0,0,6.835
1368,2,19,-1,4,1,2,1,-1,6.84
1369,-1,9,-6,4,-5,0,0,-1,6.845
1370,-3,-6,-3,4,4,-1,0,-2,6.8500000000000005
1371,-5,-50,5,-16,2,1,1,1,6.855
1372,0,5,-2,10,-3,-3,-2,-2,6.86
1373,-1,9,2,-5,-3,-3,-2,-1,6.865
1374,1,-20,6,-18,-3,2,0,1,6.87
1375,0,-9,-6,18,3,-1,0,-1,6.875
1376,-4,15,10,-21,2,1,0,-2,6.88
1377,-5,-41,1,5,-4,0,0,-1,6.885
1378,0,5,-9,-4,-2,-5,-3,-3,6.890000000000001
1379,2,36,1,4,-6,-4,-3,-2,6.8950000000000005
1380,3,0,0,4,3,1,-1,2,6.9
1381,5,18,5,-3,-1,0,0,1,6.905
1382,-4,-18,1,-1,-1,-1,0,-1,6.91
1383,0,-12,1,-4,-4,-1,-1,-1,6.915
1384,-7,-5,7,6,3,2,-1,-2,6.92
1385,0,10,-2,-17,2,0,-3,-1,6.925
1386,2,1,-3,41,-6,-1,-2,0,6.93
1387,-3,-41,0,-31,-3,2,1,1,6.9350000000000005
1388,1,0,-5,6,7,0,0,0,6.94
1389,3,17,4,-10,-3,-3,-3,-5,6.945
1390,0,3,-1,6,0,-2,-3,-5,6.95
1391,0,7,-6,11,-4,-1,-3,-2,6.955
1392,4,9,-1,-11,-22,-5,-3,1,6.96
1393,5,9,-1,20,9,5,3,2,6.965
1394,-5,-4,-7,-57,16,-1,0,-2,6.97
1395,10,66,10,0,-7,-2,-4,-2,6.9750000000000005
1396,-3,-6,-10,-10,4,-2,0,-2,6.98
1397,-1,-4,-8,13,-5,0,0,4,6.985
1398,-3,-1,3,8,-1,2,1,1,6.99
1399,-6,-21,-3,-16,-2,-2,-2,-3,6.995
1400,7,-7,-5,28,-1,1,-1,1,7.0
1401,3,6,3,-31,-1,-5,-5,-3,7.005
1402,-3,-15,1,9,4,-2,-2,-2,7.01
1403,0,3,-3,5,1,-2,1,1,7.015000000000001
1404,2,21,-3,13,-17,-1,0,1,7.0200000000000005
1405,-2,5,-3,-9,15,-2,1,0,7.025
1406,4,-13,12,5,-3,6,3,0,7.03
1407,0,28,4,2,-1,0,0,-3,7.035
1408,-12,-63,7,-22,23,3,3,3,7.04
1409,9,4,-17,41,-22,-4,6,26,7.045
1410,3,22,-12,-17,-11,-1,0,-11,7.05
1411,-7,-32,6,-30,16,1,-5,-20,7.055
1412,-8,10,21,-23,-12,-5,-4,13,7.0600000000000005
1413,-8,0,13,36,-27,-6,-10,-15,7.065
1414,-11,-21,3,2,27,1,-3,-25,7.07
1415,-3,-41,-6,80,-45,-8,-4,-7,7.075
1416,11,12,7,23,26,5,6,4,7.08
1417,-10,-63,19,-114,73,13,4,8,7.085
1418,-1,-7,23,73,-27,-11,-5,10,7.09
1419,7,33,2,42,2,1,4,7,7.095
1420,-9,-14,-6,31,-27,-4,-1,-5,7.1000000000000005
1421,8,26,-32,91,-29,-5,3,9,7.105
1422,25,51,52,-72,20,9,5,9,7.11
1423,-26,-29,11,-66,31,9,2,11,7.115
1424,-21,55,47,-37,-5,-2,-13,-57,7.12
1425,-12,-23,-19,28,-21,-11,-8,3,7.125
1426,-7,25,47,-51,-13,-7,-11,-10,7.13
1427,10,39,120,40,-26,-6,2,-3,7.135
1428,9,-3,63,-4,35,8,12,24,7.140000000000001
1429,7,10,22,-68,1,6,6,3,7.1450000000000005
1430,3,-2,-65,25,8,-2,-4,-11,7.15
1431,-15,-43,-98,-17,2,-2,-6,0,7.155
1432,7,-26,-118,123,-52,-14,-1,10,7.16
1433,34,12,-71,-76,58,21,26,47,7.165
1434,-27,-38,-36,69,-37,-6,-6,-26,7.17
1435,-24,59,-43,-61,30,-9,-24,-63,7.175
1436,-19,4,-29,58,-3,-8,-19,-37,7.18
1437,-11,-70,-7,8,-36,0,-4,-4,7.1850000000000005
1438,33,29,-39,15,7,10,21,57,7.19
1439,24,-4,13,-85,51,9,3,12,7.195
1440,-15,13,-17,31,-83,-9,-2,8,7.2
1441,-9,22,-29,-33,73,-3,-12,-12,7.205
1442,-7,24,11,30,-34,-2,7,6,7.21
1443,1,23,-52,84,-57,-11,2,9,7.215
1444,42,20,1,-74,84,11,6,26,7.22
1445,-31,15,33,3,-52,-5,-9,-33,7.2250000000000005
1446,-12,-25,-45,-20,15,-1,-8,-8,7.23
1447,19,-16,-55,106,-48,-1,14,22,7.235
1448,-12,-24,-18,-101,54,10,0,5,7.24
1449,-32,-37,-108,30,-47,-18,-16,-36,7.245
1450,-6,-18,-107,-8,26,-4,-11,-10,7.25
1451,10,27,-105,70,-45,3,9,24,7.255
1452,15,-5,-72,-106,29,13,11,13,7.26
1453,-3,-1,-32,74,-12,-7,-2,-10,7.265000000000001
1454,-2,-19,-14,-108,21,15,4,14,7.2700000000000005
1455,2,-22,-11,93,-31,-19,-11,-13,7.275
1456,13,69,91,85,-13,6,6,10,7.28
1457,8,13,55,-67,76,20,5,-5,7.285
1458,1,-17,10,60,-54,-21,-7,14,7.29
1459,-8,-53,4,-24,72,22,7,-1,7.295
1460,-28,-19,-11,38,-81,-24,-17,-37,7.3
1461,20,-12,-12,-85,11,0,-3,5,7.305
1462,-11,38,-57,23,-6,-5,-4,-17,7.3100000000000005
1463,14,-13,43,64,-46,-4,4,11,7.315
1464,7,5,25,-116,99,20,6,7,7.32
1465,-15,-52,87,37,-19,5,8,4,7.325
1466,-6,13,101,48,-8,-7,-2,-7,7.33
1467,-6,12,82,-83,19,3,5,3,7.335
1468,22,39,40,127,-65,-5,9,13,7.34
1469,7,-9,52,-80,26,-6,-10,-3,7.345
1470,-2,22,51,13,45,7,4,4,7.3500000000000005
1471,-16,-56,43,9,3,1,1,6,7.355
1472,-11,-45,3,-39,-7,-6,-8,-21,7.36
1473,15,40,13,72,-45,-8,2,3,7.365
1474,7,-23,24,-50,2,8,7,18,7.37
1475,-23,25,24,-23,-13,-11,-19,-29,7.375
1476,-2,2,-9,24,31,1,-3,-6,7.38
1477,1,38,1,-40,25,-3,-8,-5,7.385
1478,-1,-25,18,-42,-29,1,3,9,7.390000000000001
1479,21,30,12,10,37,10,12,20,7.3950000000000005
1480,0,7,-13,-4,-9,-1,-5,4,7.4
1481,4,49,-1,113,-68,-14,-2,-8,7.405
1482,8,59,8,94,-5,-3,-1,0,7.41
1483,13,37,4,-128,17,10,2,22,7.415
1484,-13,-34,-10,48,-4,-9,-6,-22,7.42
1485,6,38,2,67,-57,-11,-6,-7,7.425
1486,0,48,5,-93,91,21,4,11,7.43
1487,-15,-18,2,42,0,-1,-3,-29,7.4350000000000005
1488,-1,-19,-4,15,-57,-15,-7,10,7.44
1489,-7,14,0,-35,22,-2,-6,-5,7.445
1490,-2,-19,2,111,-56,-14,2,1,7.45
1491,6,25,3,-128,73,15,3,13,7.455
1492,-8,-44,-5,-51,-1,-2,-3,-7,7.46
1493,5,-28,-2,106,-45,-9,4,5,7.465
1494,-7,-86,2,-73,15,14,4,10,7.47
1495,-14,13,3,62,-82,-21,-11,-11,7.4750000000000005
1496,14,18,-4,41,55,13,3,0,7.48
1497,6,-4,-1,4,6,4,1,-1,7.485
1498,39,34,2,29,-56,-12,3,39,7.49
1499,-3,-87,1,-5,7,11,-1,-29,7.495
1500,-10,45,-4,-25,10,-9,-8,-12,7.5
1501,-16,6,-1,-14,14,-5,1,24,7.505
1502,-30,-2,1,53,-49,-4,-6,-51,7.51
1503,1,2,0,-116,84,7,-4,10,7.515000000000001
1504,5,17,-3,24,-22,-13,-8,3,7.5200000000000005
1505,-5,7,0,66,-6,-5,-9,-30,7.525
1506,3,-36,0,22,-5,3,5,11,7.53
1507,16,16,0,38,-55,-10,4,21,7.535
1508,-4,35,-2,-52,51,11,6,11,7.54
1509,-31,-50,0,-34,-8,-6,-11,-20,7.545
1510,8,11,0,60,-21,-6,3,-9,7.55
1511,9,7,0,87,-43,-4,1,9,7.555
1512,7,-14,-2,-90,81,20,6,14,7.5600000000000005
1513,6,11,-1,28,0,1,2,5,7.565
1514,-24,0,0,-52,29,-14,-19,-29,7.57
1515,-4,16,0,89,8,-12,-4,-4,7.575
1516,-5,-13,-1,59,-121,-16,-1,0,7.58
1517,19,15,-1,-68,77,20,2,7,7.585
1518,29,36,0,-119,4,25,22,34,7.59
1519,-28,-73,-1,106,-39,-18,-11,-20,7.595
1520,-10,-28,-1,-100,44,7,-1,-10,7.6000000000000005
1521,-13,18,-1,-10,-14,-9,-12,-19,7.605
1522,9,-39,0,61,-11,-5,-6,-7,7.61
1523,15,29,0,-39,6,4,4,15,7.615
1524,-13,-23,-1,18,-33,-7,-3,-16,7.62
1525,2,-36,0,26,-5,7,11,28,7.625
1526,12,68,0,-13,21,-10,-11,-8,7.63
1527,-8,4,0,74,10,1,4,13,7.635
1528,-3,0,-1,40,20,3,0,-6,7.640000000000001
1529,14,21,0,-23,5,10,8,6,7.6450000000000005
1530,-1,-3,0,-82,32,-1,-5,-10,7.65
1531,4,17,-1,-21,76,8,1,-3,7.655
1532,-10,-42,-1,-2,-46,-10,-3,-2,7.66
1533,9,-1,-1,106,-63,-10,2,19,7.665
1534,-7,-15,-1,-60,47,3,1,-7,7.67
1535,-34,-37,0,-7,-16,-5,-11,-34,7.675
1536,-15,-63,-1,49,4,2,1,-4,7.68
1537,-1,2,-1,-16,1,-4,0,-16,7.6850000000000005
1538,10,5,-1,64,-45,-12,-9,18,7.69
1539,22,46,-1,-67,1,3,8,21,7.695
1540,4,13,-1,-16,10,0,-7,4,7.7
1541,-11,27,-1,16,-5,-2,8,-39,7.705
1542,-16,-15,-1,-28,-1,-6,-13,17,7.71
1543,-15,-26,-1,-31,-2,-3,-8,-5,7.715
1544,12,36,-1,21,-22,-6,0,2,7.72
1545,7,34,-1,-11,15,8,0,12,7.7250000000000005
1546,-5,-14,-1,10,20,9,23,-10,7.73
1547,-1,14,-2,3,-14,-1,-1,-7,7.735
1548,17,71,-1,-22,-22,-5,-1,16,7.74
1549,-5,-14,-1,-49,20,2,-8,-7,7.745
1550,-12,25,-1,47,-7,0,-2,-33,7.75
1551,12,31,-1,2,-13,-6,-7,15,7.755
1552,4,-2,-1,-16,8,9,10,4,7.76
1553,-2,21,-1,-26,14,1,-5,5,7.765000000000001
1554,-3,2,-1,-17,-12,-4,4,-7,7.7700000000000005
1555,2,-3,-1,8,-16,-4,-4,-1,7.775
1556,-3,-8,-1,23,4,2,4,-6,7.78
1557,0,-13,-1,6,6,-1,1,16,7.785
1558,-1,-30,-1,-26,4,-1,-4,5,7.79
1559,-3,-6,-1,-11,5,2,4,-6,7.795
1560,-2,-14,-1,32,-12,-3,-5,-1,7.8
1561,5,21,-1,15,-9,-2,2,-1,7.805000000000001
1562,-4,22,-1,1,7,2,-3,-4,7.8100000000000005
1563,-1,1,0,-13,5,4,5,-4,7.815
1564,-4,10,-1,-1,-4,-4,-6,-1,7.82
1565,-2,41,10,-8,-4,-1,-1,-7,7.825
1566,0,-10,18,-2,0,-3,-2,-1,7.83
1567,1,-4,16,-16,-3,1,3,2,7.835
1568,2,-8,14,21,1,1,0,9,7.84
1569,2,-20,17,-12,4,1,5,0,7.845
1570,-5,-18,12,25,-5,-2,-8,-7,7.8500000000000005
1571,-1,-9,11,0,-1,0,0,-2,7.855
1572,2,15,18,-18,1,0,12,-5,7.86
1573,0,-12,112,-6,-4,4,-13,7,7.865
1574,-3,-28,124,12,-3,-6,-7,-1,7.87
1575,-3,-11,127,-19,2,-2,-3,-1,7.875
1576,1,57,127,19,-3,-3,-5,-8,7.88
1577,-2,12,118,-32,1,-2,3,1,7.885
1578,1,20,112,29,5,5,0,5,7.890000000000001
1579,0,8,12,-18,-15,-2,-2,-3,7.8950000000000005
1580,0,-8,27,8,10,-1,-3,1,7.9
1581,-5,-30,-87,43,-4,-1,2,2,7.905
1582,1,14,-17,-30,-2,-1,-4,-3,7.91
1583,4,15,-70,-15,4,0,0,-2,7.915
1584,1,-11,-77,7,-2,2,3,5,7.92
1585,-2,11,-128,15,-5,-4,-2,-1,7.925
1586,1,5,-121,-26,-3,-3,-2,-4,7.930000000000001
1587,0,0,-33,37,2,0,3,2,7.9350000000000005
1588,0,-12,-4,-36,2,2,0,1,7.94
1589,0,-29,110,12,10,4,3,1,7.945
1590,-2,-14,-21,15,-3,-1,0,-2,7.95
1591,-3,-10,-38,-15,-7,-3,-2,1,7.955
1592,-3,-18,-90,-7,3,1,-2,1,7.96
1593,-1,-4,-100,2,-7,-2,-3,-3,7.965
1594,-1,-7,-86,-1,0,-2,-4,0,7.97
1595,0,-6,-78,12,8,4,2,3,7.9750000000000005
1596,2,10,-63,22,7,-1,-4,-1,7.98
1597,-2,-7,-63,-28,-13,-7,-4,-3,7.985
1598,-2,-2,-45,32,-5,-2,-1,-1,7.99
1599,5,28,-30,-50,24,8,1,0,7.995
1600,-6,-20,-22,20,-20,-8,-1,-1,8.0
1601,1,11,-18,-47,-3,-1,0,0,8.005
1602,-1,8,-24,31,4,-2,-3,-2,8.01
1603,-3,-6,-4,29,-1,-3,-1,-4,8.015
1604,2,3,-1,-28,1,3,2,1,8.02
1605,2,14,-15,15,0,-2,-2,1,8.025
1606,-1,-1,-8,22,-4,-3,2,1,8.03
1607,0,45,1,-24,-1,1,4,0,8.035
1608,-5,-20,1,4,-1,-1,2,1,8.040000000000001
1609,-3,-14,-8,-13,-1,0,3,0,8.045
1610,4,9,-4,-11,7,2,3,0,8.05
1611,4,-3,5,23,-2,-2,0,-1,8.055
1612,-4,-35,-3,27,-4,1,2,0,8.06
1613,-5,-49,-4,-43,4,1,3,1,8.065
1614,1,-12,-1,42,-9,-3,2,-1,8.07
1615,-3,-39,-1,-39,17,7,5,4,8.075
1616,3,1,0,0,-2,0,2,2,8.08
1617,-1,18,-3,14,0,-2,0,-3,8.085
1618,-4,-40,-1,1,-5,0,-1,-1,8.09
1619,1,-13,0,-17,-1,-1,-3,-1,8.095
1620,-1,3,0,-8,-1,1,-1,-2,8.1
1621,3,4,-1,-14,-3,0,2,0,8.105
1622,-4,2,-3,-24,-9,-4,-2,-3,8.11
1623,-2,4,0,49,2,-3,-2,-2,8.115
1624,-2,9,1,-41,0,0,1,-1,8.120000000000001
1625,0,1,-3,6,2,-2,-2,-3,8.125
1626,2,7,-2,0,0,1,0,-1,8.13
1627,-7,-27,0,-6,-12,-3,-1,-1,8.135
1628,6,39,0,31,-6,-3,-3,-4,8.14
1629,-11,-23,-2,27,11,7,4,4,8.145
1630,-5,-9,-1,-37,8,1,0,-2,8.15
1631,-2,-10,-5,5,-4,-1,-1,-2,8.155
1632,-1,-14,-21,-8,-10,-3,0,-1,8.16
1633,4,26,-61,18,2,-2,-2,1,8.165000000000001
1634,0,5,-73,-25,-1,2,1,0,8.17
1635,1,16,-53,74,-7,-5,-3,-3,8.175
1636,1,13,-24,-84,3,1,-2,-1,8.18
1637,-3,-46,-38,24,6,0,1,-1,8.185
1638,-1,-11,-41,8,-3,-4,1,-2,8.19
1639,-1,-3,-10,-8,-6,-5,-2,-2,8.195
1640,-1,-8,2,35,3,1,0,3,8.2
1641,-1,-4,14,-37,-3,0,0,0,8.205
1642,-3,-3,3,15,-5,-1,-1,-1,8.21
1643,3,13,15,-6,-8,-3,-2,1,8.215
1644,-3,-6,33,20,11,-1,-2,-2,8.22
1645,1,10,4,-11,-4,-2,-2,-3,8.225
1646,2,14,11,1,2,3,1,1,8.23
1647,-4,-18,-11,-41,-8,-3,-2,-1,8.235
1648,-1,-47,9,15,-4,0,1,1,8.24
1649,-2,28,2,23,-5,-5,-4,-4,8.245000000000001
1650,5,19,15,7,11,0,-1,2,8.25
1651,-6,-33,13,-51,-9,-1,-1,-1,8.255
1652,-6,-37,-1,25,1,1,0,1,8.26
1653,-1,-2,7,-3,3,0,0,-2,8.265
1654,1,-1,-5,-2,-9,-5,1,0,8.27
1655,0,9,26,-7,15,5,0,-1,8.275
1656,6,42,1,4,-7,-4,-2,-3,8.28
1657,-5,-29,13,0,-1,0,0,-3,8.285
1658,-4,1,7,16,-5,-5,-3,-2,8.290000000000001
1659,2,16,9,-9,2,1,2,1,8.295
1660,-1,-5,24,-5,6,1,-2,-1,8.3
1661,-1,12,12,13,4,3,2,0,8.305
1662,-3,11,3,-6,-3,-2,-3,-2,8.31
1663,2,6,10,16,-3,-2,2,0,8.315
1664,7,67,10,-2,3,1,-3,-2,8.32
1665,0,2,-5,-41,-5,-4,-4,-1,8.325
1666,-2,-26,16,-23,0,0,-2,-3,8.33
1667,-1,9,-11,58,-6,1,-1,0,8.335
1668,-5,-14,2,-38,10,-2,-2,-1,8.34
1669,2,6,0,-12,-3,3,2,2,8.345
1670,1,12,15,4,-1,0,-1,1,8.35
1671,0,0,-15,-30,-8,-3,-2,-3,8.355
1672,3,-9,11,63,0,-6,-3,0,8.36
1673,3,47,12,-43,-6,-3,-2,-2,8.365
1674,4,34,-27,26,7,3,0,2,8.370000000000001
1675,-1,12,-1,-41,-4,-3,-2,1,8.375
1676,-1,-2,-2,-34,-5,-2,0,0,8.38
1677,-8,-63,-14,50,1,-1,1,1,8.385
1678,0,2,7,19,-1,3,0,-2,8.39
1679,-1,0,4,-7,1,-1,-1,0,8.395
1680,-6,-48,-9,-15,-4,2,2,2,8.4
1681,3,2,8,-2,-4,-5,-2,0,8.405
1682,-5,-23,2,14,3,-1,0,0,8.41
1683,-1,-13,13,32,5,-1,0,0,8.415000000000001
1684,2,19,16,-16,7,3,1,0,8.42
1685,-3,-5,-12,10,-5,-2,-1,-1,8.425
1686,-2,-13,-3,-17,-3,0,0,-1,8.43
1687,6,8,0,-28,-4,-2,-3,0,8.435
1688,-8,-18,3,31,-4,0,1,2,8.44
1689,2,5,6,-9,1,-1,-2,-2,8.445
1690,4,7,9,-17,3,0,0,1,8.45
1691,0,0,5,7,-2,-2,0,-1,8.455
1692,2,16,2,-2,-4,-4,-2,-4,8.46
1693,-7,-23,-1,-12,-11,-4,-1,-1,8.465
1694,-7,-36,-28,-20,5,3,0,0,8.47
1695,4,42,10,-26,-2,-5,-1,-2,8.475
1696,-4,-54,-24,21,-2,-1,2,2,8.48
1697,2,31,13,0,1,-2,-2,-2,8.485
1698,2,13,14,8,1,0,-1,0,8.49
1699,-2,-5,-3,29,2,0,-1,-1,8.495000000000001
1700,4,36,-9,-26,-5,-3,-2,-2,8.5
1701,1,9,-6,-18,2,2,0,2,8.505
1702,2,-8,1,14,-1,-4,-4,-3,8.51
1703,-5,-22,-9,-30,-3,0,1,-3,8.515
1704,-3,32,10,15,-1,0,-1,-1,8.52
1705,2,-12,-14,-4,-7,0,1,-2,8.525
1706,-1,9,-4,-14,5,-2,-1,-2,8.53
1707,-1,-3,-1,84,-11,-4,-3,-2,8.535
1708,-4,-34,-1,-83,7,5,0,0,8.540000000000001
1709,0,-6,-1,-8,6,0,-1,-1,8.545
1710,-5,-24,6,18,-4,-3,-1,0,8.55
1711,3,26,18,9,0,0,-1,-1,8.555
1712,-9,-52,-8,34,0,1,0,0,8.56
1713,-2,-9,-3,6,-4,1,-1,0,8.565
1714,-1,-7,11,-14,3,0,1,0,8.57
1715,-6,-35,-17,-28,1,0,1,-1,8.575000000000001
1716,0,-1,-9,-14,-6,-5,-6,-4,8.58
1717,-3,-12,3,28,1,1,0,-2,8.585
1718,-2,2,-15,-20,-15,-4,-1,-2,8.59
1719,3,13,6,-1,16,6,2,0,8.595
1720,-1,15,1,19,0,0,0,-1,8.6
1721,6,2,11,25,0,0,0,0,8.605
1722,1,14,19,-14,-5,-3,-2,-1,8.61
1723,-6,-3,-39,17,-5,-3,-2,-3,8.615
1724,8,49,11,-11,-1,-4,-2,-1,8.620000000000001
1725,1,39,-11,14,1,-1,-3,-2,8.625
1726,-1,-1,2,11,-1,-1,1,0,8.63
1727,1,6,18,-5,3,1,0,1,8.635
1728,0,3,-4,5,0,-1,-1,-3,8.64
1729,1,-11,2,-3,-3,-2,0,0,8.645
1730,4,26,-1,1,1,-1,-2,-1,8.65
1731,-7,-18,4,0,-1,-2,-1,-3,8.655
1732,5,46,2,20,-8,-3,0,0,8.66
1733,-12,-66,0,-4,12,1,0,-2,8.665000000000001
1734,-6,-35,-36,-77,-13,2,0,0,8.67
1735,2,12,23,-5,4,-3,-1,0,8.675
1736,-2,-6,9,26,-6,-1,0,-1,8.68
1737,0,2,6,6,0,-2,-1,-1,8.685
1738,0,9,-2,14,-1,0,-1,-2,8.69
1739,-2,-4,5,0,-6,-1,-2,0,8.695
1740,-2,-8,-6,-11,1,-3,-3,-2,8.700000000000001
1741,-1,5,3,-3,-5,-3,-3,-1,8.705
1742,-3,-25,7,13,5,3,3,2,8.71
1743,-1,-11,-4,-40,5,2,-1,0,8.715
1744,-2,-22,7,4,5,1,2,1,8.72
1745,3,-22,-6,-55,-2,0,1,2,8.725
1746,0,20,-2,33,-13,-7,-4,-4,8.73
1747,-2,-6,1,-12,0,-1,0,-2,8.735
1748,-4,-15,6,-3,-5,-2,-1,0,8.74
1749,4,59,16,25,4,1,0,-1,8.745000000000001
1750,1,11,23,-10,8,0,0,1,8.75
1751,0,-3,-5,25,-8,0,1,1,8.755
1752,-3,-1,1,1,-3,-2,-2,-3,8.76
1753,0,15,6,15,3,1,-1,-1,8.765
1754,1,-4,-10,-45,-4,-2,-1,0,8.77
1755,-7,-41,-16,13,-3,0,0,1,8.775
1756,-5,-25,10,4,2,0,-3,-1,8.78
1757,-2,-4,-16,-9,-6,-3,-3,-1,8.785
1758,-3,-4,-8,14,6,-1,1,-1,8.790000000000001
1759,2,6,10,-12,-1,-1,-1,-1,8.795
1760,12,71,13,-7,0,-2,-1,-2,8.8
1761,-2,-12,3,52,-7,-3,0,0,8.805
1762,-2,4,11,-2,11,2,-1,-1,8.81
1763,0,-2,0,-33,-5,-2,-3,-2,8.815
1764,1,20,9,-19,-6,-4,1,-1,8.82
1765,0,-2,-15,-13,4,0,-2,0,8.825000000000001
1766,-2,12,4,49,4,-1,-1,-1,8.83
1767,0,-10,-4,-14,-1,2,0,0,8.835
1768,-8,-67,-17,6,2,-1,1,0,8.84
1769,1,28,11,-14,-6,-2,-1,-2,8.845
1770,0,-10,0,-5,0,-3,-3,-2,8.85
1771,-1,-2,-7,-13,-3,-1,-2,-1,8.855
1772,-1,10,-14,-5,-5,-1,-1,2,8.86
1773,1,2,1,-6,2,0,1,1,8.865
1774,2,8,-2,47,0,-2,-3,-2,8.870000000000001
1775,0,-38,6,-17,3,3,2,1,8.875
1776,0,-4,-7,19,-1,1,-1,-1,8.88
1777,-3,-6,1,-35,-3,-2,0,-1,8.885
1778,5,7,3,12,0,-3,-2,1,8.89
1779,2,36,-11,1,-2,-2,-2,0,8.895
1780,-2,-5,3,1,6,1,0,-1,8.9
1781,-3,-13,-20,-8,-4,0,-2,0,8.905
1782,-2,-9,0,-32,-9,-3,0,-2,8.91
1783,-4,-4,-4,20,5,-3,-1,-2,8.915000000000001
1784,4,16,9,-3,8,2,0,-1,8.92
1785,4,34,13,27,-2,-2,0,1,8.925
1786,-1,8,-12,-4,-5,3,2,1,8.93
1787,2,13,15,6,-4,-1,-2,0,8.935
1788,5,10,1,10,1,-1,-1,-1,8.94
1789,-6,-14,-10,2,-12,-2,-1,-3,8.945
1790,-3,-12,-7,-57,0,1,0,1,8.950000000000001
1791,-4,-8,17,-6,4,0,0,0,8.955
1792,0,-6,-20,-5,-4,-2,0,-1,8.96
1793,1,-7,10,0,2,1,-1,-1,8.965
1794,-6,-53,-7,-1,-1,-2,-1,0,8.97
1795,2,-3,1,50,-3,2,-1,-1,8.975
1796,0,5,2,-28,1,0,-1,-2,8.98
1797,2,18,-1,5,2,0,0,0,8.985
1798,-2,48,-20,-41,0,-2,0,-1,8.99
1799,1,17,9,16,-1,-2,0,-3,8.995000000000001
1800,-2,-18,5,11,-6,-1,-1,0,9.0
1801,-1,-17,-2,-14,3,0,1,0,9.005
1802,4,9,24,56,-3,1,-1,-1,9.01
1803,0,1,-18,-14,2,-2,-1,-2,9.015
1804,-11,-38,-2,-23,3,4,2,-1,9.02
1805,-3,-4,-21,-38,-3,-5,-3,-3,9.025
1806,-1,-6,7,3,6,2,1,0,9.03
1807,0,35,8,4,-2,-1,-1,-2,9.035
1808,2,15,5,29,0,0,-1,-1,9.040000000000001
1809,0,-13,5,-16,-1,1,-1,0,9.045
1810,-2,-8,-2,13,-2,-2,0,0,9.05
1811,1,2,-3,1,0,-1,1,1,9.055
1812,4,12,6,-7,1,0,-2,0,9.06
1813,-5,-48,-42,5,-3,2,3,2,9.065
1814,-5,-16,15,-1,1,-1,-3,-2,9.07
1815,-4,-11,-12,-20,-5,-3,-1,-2,9.075000000000001
1816,0,10,4,-19,-11,0,0,-2,9.08
1817,-1,6,7,21,13,-1,-1,-1,9.085
1818,6,17,13,14,1,0,-3,0,9.09
1819,-1,-2,3,3,-1,-1,-1,-1,9.095
1820,-5,-12,-13,4,2,0,-1,-1,9.1
1821,4,11,16,-1,0,0,1,1,9.105
1822,6,39,23,4,-4,-2,-2,-1,9.11
1823,-9,-49,-25,11,-9,-5,-3,-2,9.115
1824,-2,28,-16,-62,4,3,0,-1,9.120000000000001
1825,-4,-26,12,-11,-4,-1,-1,-1,9.125
1826,1,-1,-2,-14,-1,-2,-2,-4,9.13
1827,-2,-18,26,19,2,-2,-3,-1,9.135
1828,-4,-28,-1,32,-3,-3,-1,-3,9.14
1829,0,16,0,-11,-4,-3,-1,-2,9.145
1830,3,9,-5,-28,1,0,1,0,9.15
1831,0,13,-6,-7,-4,-1,-2,-2,9.155
1832,0,-12,2,15,3,-1,-2,0,9.16
1833,1,16,26,17,-2,1,-2,-2,9.165000000000001
1834,-3,-17,-18,17,-2,-2,0,-1,9.17
1835,3,12,-2,-32,5,0,0,0,9.175
1836,4,63,2,15,-3,-7,-5,-4,9.18
1837,-2,-20,5,-5,-4,-1,-2,0,9.185
1838,-6,-22,-3,0,2,4,3,2,9.19
1839,-1,4,-1,-13,-4,-1,0,0,9.195
1840,-8,-47,-16,-4,-5,-4,-2,-1,9.200000000000001
1841,0,8,10,7,0,-2,-1,-1,9.205
1842,-2,1,13,19,0,0,0,0,9.21
1843,5,23,-9,-6,2,1,-1,1,9.215
1844,0,-7,14,5,-1,-1,-2,0,9.22
1845,2,0,-3,13,0,-1,-3,-1,9.225
1846,-8,-62,-20,-24,-6,1,2,1,9.23
1847,-1,1,7,31,6,2,1,0,9.235
1848,0,0,-16,-43,-6,-2,1,-2,9.24
1849,-4,16,-8,-19,7,0,-1,-1,9.245000000000001
1850,3,27,5,15,0,-1,-2,-1,9.25
1851,0,4,12,-13,-3,-3,0,0,9.255
1852,0,8,0,14,0,0,0,1,9.26
1853,1,18,0,5,-4,-2,-3,-1,9.265
1854,-1,0,1,-11,-1,-3,-2,-2,9.27
1855,-2,0,5,1,0,0,1,0,9.275
1856,2,10,4,3,-1,-1,0,-2,9.28
1857,-2,-4,3,1,1,-1,0,-1,9.285
1858,10,68,1,6,2,1,-1,-1,9.290000000000001
1859,-12,-83,-8,51,1,4,4,3,9.295
1860,-3,-16,-16,-63,-8,-6,-4,-2,9.3
1861,-8,-14,-40,-33,-6,-1,-1,-3,9.305
1862,-4,-23,-14,-12,-3,-1,0,-2,9.31
1863,6,32,0,-7,2,-2,-1,-1,9.315
1864,2,8,2,35,3,-1,-1,1,9.32
1865,0,-17,13,21,5,0,-1,0,9.325000000000001
1866,-2,1,2,-2,-2,-2,-2,1,9.33
1867,4,19,-1,-5,-3,1,-1,-2,9.335
1868,1,29,-5,16,-1,-1,-1,1,9.34
1869,5,52,13,-8,-5,-2,0,-1,9.345
1870,2,49,-6,26,1,-5,-1,0,9.35
1871,2,-2,20,-12,8,3,1,0,9.355
1872,-3,1,-15,3,-6,-2,0,-1,9.36
1873,-2,-20,-6,-69,3,1,-2,-2,9.365
1874,-2,-8,9,-13,-11,-5,-4,-2,9.370000000000001
1875,-5,-9,-28,-3,-6,-6,-4,-5,9.375
1876,0,-9,27,37,4,1,1,0,9.38
1877,-1,-11,-5,32,-1,1,1,-1,9.385
1878,-3,-16,-7,4,-1,1,1,-1,9.39
1879,-2,2,5,-11,-2,-1,-1,0,9.395
1880,-3,-18,-2,-1,0,1,1,0,9.4
1881,-2,-58,-10,30,2,2,2,1,9.405
1882,-3,-25,-2,-13,1,0,0,0,9.41
1883,-1,28,-5,-3,-4,-2,0,1,9.415000000000001
1884,0,5,-7,1,-9,-2,0,0,9.42
1885,-1,-13,22,15,16,2,0,1,9.425
1886,1,5,-10,2,-6,-1,-2,-1,9.43
1887,-5,-45,-8,-24,-3,-1,1,0,9.435
1888,0,37,12,15,-3,-2,-3,-3,9.44
1889,3,41,7,-22,-7,-4,-3,-2,9.445
1890,-5,-18,-11,-15,3,4,2,-2,9.450000000000001
1891,3,25,5,-7,-1,-2,-1,-1,9.455
1892,1,-13,9,10,-1,1,2,0,9.46
1893,-2,2,-1,20,-5,-3,-2,-1,9.465
1894,-4,-15,-10,-16,2,1,-1,-1,9.47
1895,5,32,6,12,-2,-1,-1,0,9.475
1896,-2,-14,-11,-27,4,-1,-1,-2,9.48
1897,3,19,7,17,-3,-1,-1,-1,9.485
1898,-6,-38,0,-6,2,1,0,0,9.49
1899,-1,-12,2,-2,0,0,-1,-2,9.495000000000001
1900,1,-6,2,7,-10,-1,1,-1,9.5
1901,1,-1,4,-7,20,3,1,2,9.505
1902,-5,-5,0,-12,-6,-2,-3,-1,9.51
1903,1,-5,5,-2,-2,-2,-1,0,9.515
1904,-2,-5,-3,14,2,2,2,1,9.52
1905,-5,-15,-3,16,-12,-4,-1,-2,9.525
1906,-4,-47,3,-23,5,3,3,2,9.53
1907,-1,14,17,2,2,1,-1,-3,9.535
1908,-3,-4,-1,-10,4,2,-1,2,9.540000000000001
1909,-1,20,-27,8,-9,-2,-2,-1,9.545
1910,3,10,15,1,-3,-3,-4,0,9.55
1911,-3,-2,5,12,-6,-6,-1,0,9.555
1912,-1,-7,-1,-10,11,1,1,1,9.56
1913,1,2,5,8,-2,-1,0,-2,9.565
1914,0,3,3,20,1,-3,-2,-2,9.57
1915,0,-6,-8,-36,-1,1,-1,-1,9.575000000000001
1916,3,16,2,26,0,-2,-3,-5,9.58
1917,0,-12,-20,-50,-5,-1,-1,-1,9.585
1918,-4,-1,-3,33,-2,2,2,-1,9.59
1919,-8,-40,-20,3,12,0,0,1,9.595
1920,6,29,10,-8,-3,-2,-3,-1,9.6
1921,-1,-11,7,4,5,2,1,0,9.605
1922,8,30,-8,10,-11,-6,-3,-3,9.61
1923,2,0,-7,-11,6,2,0,1,9.615
1924,-5,-17,-24,2,-3,0,1,0,9.620000000000001
1925,2,13,6,-13,0,1,-1,-1,9.625
1926,-1,-12,9,11,2,0,-1,-2,9.63
1927,2,11,0,12,-4,-2,-1,0,9.635
1928,0,-1,-7,-6,2,1,-2,-1,9.64
1929,-5,-11,-2,-17,-6,-2,-1,-1,9.645
1930,-1,-2,1,-2,5,0,0,0,9.65
1931,1,13,-1,3,-8,-2,-1,-2,9.655
1932,-3,-10,4,3,6,1,-1,-2,9.66
1933,1,-5,-1,-10,-1,-4,-5,-2,9.665000000000001
1934,-3,4,-6,11,1,-1,-1,-1,9.67
1935,2,6,2,-15,9,2,0,-2,9.675
1936,-1,-9,-2,-8,-3,-1,-1,1,9.68
1937,2,9,2,27,2,3,1,0,9.685
1938,9,62,12,-35,-10,-6,-6,-5,9.69
1939,-1,28,-8,9,-3,0,-2,0,9.695
1940,-6,-14,-11,-18,-3,-4,-1,-2,9.700000000000001
1941,-3,-11,-16,18,-3,-2,-1,-2,9.705
1942,2,11,4,-29,0,1,0,2,9.71
1943,4,4,18,7,-2,0,1,-1,9.715
1944,-1,-3,8,-12,-3,-1,-2,-3,9.72
1945,0,5,10,2,3,-1,0,0,9.725
1946,-3,-20,-15,3,3,-3,-1,-1,9.73
1947,-2,-15,4,-21,0,-2,-2,-2,9.735
1948,-8,-55,1,13,2,3,2,1,9.74
1949,0,-3,-3,27,-5,-2,1,-2,9.745000000000001
1950,-3,-2,-11,3,4,0,2,-1,9.75
1951,-2,-9,-11,-12,-5,-2,0,-2,9.755
1952,-2,11,-1,-12,2,-2,1,-1,9.76
1953,0,5,0,11,-2,0,0,0,9.765
1954,1,-7,15,-6,0,3,1,1,9.77
1955,-4,-10,-12,-5,-8,-1,-4,-3,9.775
1956,3,23,14,27,-5,-1,-3,-2,9.78
1957,8,57,10,-2,6,2,0,0,9.785
1958,-10,-66,-3,11,3,2,3,1,9.790000000000001
1959,-2,0,9,7,-4,0,0,0,9.795
1960,3,16,7,-19,-4,-3,-2,-1,9.8
1961,-4,-21,-10,9,-1,-1,-2,0,9.805
1962,-7,-19,-14,-34,-9,-3,-3,-3,9.81
1963,2,10,9,14,2,0,-1,0,9.815
1964,-5,-20,-12,-7,9,1,2,-1,9.82
1965,-4,-4,13,-14,-6,0,0,0,9.825000000000001
1966,5,21,10,33,2,-1,2,-1,9.83
1967,0,-16,-1,-20,-10,-2,0,-1,9.835
1968,4,30,9,-16,2,-2,-2,-2,9.84
1969,-1,11,-5,-38,-3,-2,1,-1,9.845
1970,2,9,3,5,2,1,-1,-2,9.85
1971,2,11,-2,52,2,0,-1,1,9.855
1972,9,42,11,-7,-8,-3,0,-1,9.86
1973,0,-15,-6,-11,-2,1,0,1,9.865
1974,4,10,-1,0,6,1,-3,-1,9.870000000000001
1975,-3,-20,-8,3,5,-3,0,-2,9.875
1976,6,30,-2,-4,-2,-3,-5,-2,9.88
1977,-12,-47,-5,13,-3,-1,0,-1,9.885
1978,-5,-27,6,7,0,0,0,1,9.89
1979,-1,-1,0,-8,0,-1,-1,0,9.895
1980,-2,-9,-6,-6,-3,-3,-3,-2,9.9
1981,1,9,11,20,-3,-1,-1,-2,9.905
1982,5,16,11,-5,2,1,-1,1,9.91
1983,-6,24,5,-14,7,-1,-2,-4,9.915000000000001
1984,-7,-30,-8,23,-4,-1,0,0,9.92
1985,3,5,-11,-44,-3,-3,-2,-2,9.925
1986,0,4,5,19,-1,-2,0,-1,9.93
1987,4,-8,9,11,-3,1,0,1,9.935
1988,-1,-3,-17,-17,-4,0,-2,0,9.94
1989,2,9,-9,4,-4,-4,-2,-1,9.945
1990,0,10,6,-28,0,2,-1,0,9.950000000000001
1991,4,43,23,18,-1,-3,-2,-2,9.955
1992,-4,-14,-2,-5,3,-1,0,-2,9.96
1993,-4,-34,-7,-11,-3,1,-1,1,9.965
1994,-1,-4,-3,9,-8,-5,-3,1,9.97
1995,0,31,-2,3,-4,-2,-3,-4,9.975
1996,0,-11,-4,22,7,2,0,1,9.98
1997,-1,-4,-4,-34,-8,-6,-1,-3,9.985
1998,-1,11,-1,2,3,-2,-2,-4,9.99
1999,0,-16,-11,14,-11,-1,0,-1,9.995000000000001
2000,1,2,3,-11,-1,0,0,-1,10.0
2001,0,-7,5,9,13,2,-1,-1,10.005
2002,1,35,3,-1,-4,-1,0,1,10.01
2003,-3,-18,0,-4,1,0,-1,0,10.015
2004,-3,-22,-5,-17,-7,-1,0,0,10.02
2005,-6,-42,-16,13,0,-1,-1,-1,10.025
2006,1,4,3,13,1,-1,0,-2,10.03
2007,-4,-33,-22,-21,-3,-1,-2,0,10.035
2008,-4,-9,3,8,1,-1,-1,-2,10.040000000000001
2009,3,21,11,16,2,1,0,0,10.045
2010,-2,-15,-9,4,2,1,0,-1,10.05
2011,-1,-14,-9,-8,-5,-3,1,0,10.055
2012,4,4,6,0,-2,-1,0,0,10.06
2013,1,13,-1,7,1,2,0,0,10.065
2014,-2,-5,0,-9,-4,-2,-1,-1,10.07
2015,2,6,-29,-1,9,2,0,0,10.075000000000001
2016,2,-18,-39,0,-10,-1,0,0,10.08
2017,-4,-34,-5,23,-1,-4,0,-1,10.085
2018,-1,1,8,-15,15,2,1,0,10.09
2019,-2,-12,30,3,0,1,1,-1,10.095
2020,0,1,17,-18,-1,-1,-1,-1,10.1
2021,-4,-36,-3,-21,-9,-1,0,1,10.105
2022,-1,0,0,28,-6,-2,-1,-2,10.11
2023,-5,-5,6,-22,-4,-3,-1,-1,10.115
2024,-1,0,-5,1,7,1,0,-1,10.120000000000001
2025,-4,-25,4,19,-2,-3,-1,-1,10.125
2026,-1,-3,-6,-7,-2,0,0,-2,10.13
2027,-1,0,13,4,7,0,1,2,10.135
2028,4,19,14,6,-4,-1,-1,0,10.14
2029,1,34,-1,14,0,0,-1,0,10.145
2030,-1,-4,-14,-17,-2,1,0,0,10.15
2031,-4,-6,-23,-18,-7,-2,-1,-1,10.155
2032,2,15,9,3,-2,-1,0,0,10.16
2033,5,27,10,-9,6,2,-1,0,10.165000000000001
2034,6,38,11,6,1,-4,-3,-1,10.17
2035,5,34,9,4,-3,-1,-2,-2,10.175
2036,-2,5,1,-9,-2,-1,-3,-2,10.18
2037,-1,11,-6,23,-9,-5,-3,-3,10.185
2038,-1,19,11,-16,6,3,-1,0,10.19
2039,1,9,1,-3,-7,-2,-3,-1,10.195
2040,-2,-7,2,-15,4,1,1,-2,10.200000000000001
2041,-1,-13,-14,-11,-8,-3,-1,-3,10.205
2042,-2,-8,6,18,-2,-1,1,1,10.21
2043,-6,-59,-24,5,2,-1,0,1,10.215
2044,-3,-1,-1,-14,-3,0,-1,1,10.22
2045,6,34,17,2,5,0,-1,2,10.225
2046,-2,-14,8,7,-6,-3,-2,-2,10.23
2047,-9,-9,-27,-10,5,-2,-1,-1,10.235
2048,-1,0,13,3,1,1,-1,-1,10.24
2049,2,32,5,-12,3,2,1,-1,10.245000000000001
2050,-3,-14,-9,-16,3,-1,0,-1,10.25
2051,0,4,11,22,-6,-1,-1,0,10.255
2052,-2,1,-12,-2,1,-1,-2,-2,10.26
2053,1,26,19,-7,2,-2,-2,-3,10.265
2054,3,-9,0,21,-11,-4,-2,0,10.27
2055,6,34,17,3,9,-3,1,0,10.275
2056,0,6,-20,-9,1,-1,-1,-1,10.28
2057,-3,-16,-24,-19,-4,0,1,0,10.285
2058,0,3,-6,26,-8,-3,-2,-1,10.290000000000001
2059,7,22,-3,10,-1,1,0,-1,10.295
2060,-2,7,-14,-42,-11,-5,-2,-1,10.3
2061,7,29,13,1,5,-3,-4,-2,10.305
2062,-5,-21,-3,2,-5,0,-1,1,10.31
2063,-1,-4,18,15,2,-1,-2,-1,10.315
2064,-2,-8,6,23,2,0,0,0,10.32
2065,4,28,23,-8,-1,0,0,-2,10.325000000000001
2066,-1,-14,-15,-34,-1,-2,-3,-1,10.33
2067,-2,-10,7,-2,-1,2,-2,0,10.335
2068,-1,-3,-6,7,0,-2,0,0,10.34
2069,-12,-78,-35,9,0,1,1,2,10.345
2070,0,2,6,-1,3,1,1,2,10.35
2071,1,4,13,5,-4,0,0,-2,10.355
2072,-4,-25,-3,-7,10,2,0,0,10.36
2073,1,6,-4,-5,3,-2,-1,-1,10.365
2074,4,37,22,11,-1,-3,-1,-2,10.370000000000001
2075,-4,-14,-27,19,-8,-2,-1,-2,10.375
2076,-5,-22,5,-20,-2,-1,1,1,10.38
2077,-3,-2,9,0,-2,1,0,-2,10.385
2078,-5,-1,-4,3,3,-1,0,0,10.39
2079,0,-18,-1,-16,0,-1,0,0,10.395
2080,-1,-4,-29,34,0,-2,-1,0,10.4
2081,0,-12,-35,-15,-8,-1,1,0,10.405
2082,-6,-31,-16,-3,6,0,0,-1,10.41
2083,-2,2,5,-15,2,-1,-2,0,10.415000000000001
2084,1,-12,16,-8,5,0,-1,-2,10.42
2085,-2,-8,12,13,-8,0,-1,-1,10.425
2086,-6,-46,3,-10,2,2,1,0,10.43
2087,-3,-2,-6,7,-5,-7,-2,-3,10.435
2088,-1,-1,9,-5,6,0,-1,-2,10.44
2089,2,16,13,36,-3,1,1,1,10.445
2090,1,8,13,-31,9,2,1,0,10.450000000000001
2091,2,3,-18,-8,1,-1,0,-1,10.455
2092,4,45,-3,-23,-18,-6,-3,-3,10.46
2093,-1,-5,2,1,1,0,-1,-1,10.465
2094,1,-2,0,18,-7,-4,-3,-1,10.47
2095,-2,-11,-4,-21,3,1,2,1,10.475
2096,13,86,9,18,-3,-3,-4,-2,10.48
2097,-2,-5,-16,-1,2,-1,-1,-3,10.485
2098,0,1,-2,-8,-5,-4,-3,-1,10.49
2099,0,2,21,-1,-5,-3,-3,0,10.495000000000001
2100,-3,-31,23,13,2,-2,0,0,10.5
2101,-3,-1,8,-16,-2,-1,-3,0,10.505
2102,-4,19,5,1,-8,-3,-1,-3,10.51
2103,-1,9,5,-4,2,-1,-2,-2,10.515
2104,-5,-32,3,21,-2,2,4,1,10.52
2105,-2,-34,-15,-20,8,-1,0,0,10.525
2106,0,-3,5,5,0,0,-1,-3,10.53
2107,-1,-5,8,-5,-2,2,-1,-3,10.535
2108,-4,-34,0,40,6,3,1,0,10.540000000000001
2109,0,33,21,-15,-4,-1,-2,-2,10.545
2110,0,9,-11,-24,0,0,-1,-2,10.55
2111,-7,-38,7,-5,-3,1,1,0,10.555
2112,2,18,8,4,-2,0,0,-1,10.56
2113,3,23,16,33,6,1,3,0,10.565
2114,0,-7,-8,-26,12,2,1,-2,10.57
2115,-2,11,3,21,-3,-3,-1,2,10.575000000000001
2116,-1,2,9,9,1,-2,-3,-1,10.58
2117,0,7,-28,-57,-12,-3,-2,-3,10.585
2118,4,3,14,10,-10,-5,-3,-3,10.59
2119,7,38,-8,-7,3,-2,-1,-1,10.595
2120,-4,-20,3,3,3,2,1,2,10.6
2121,-2,4,9,6,0,-4,-3,-3,10.605
2122,2,2,-3,6,-1,2,-2,0,10.61
2123,-3,0,2,10,2,1,-1,-2,10.615
2124,4,9,-10,-3,-9,-2,-2,0,10.620000000000001
2125,-2,-13,1,-35,4,0,-1,-1,10.625
2126,-2,-16,0,10,-5,-1,0,1,10.63
2127,-3,-20,3,9,-2,-1,0,-1,10.635
2128,-6,17,-1,0,-4,-2,-3,-1,10.64
2129,0,16,-9,18,10,4,2,0,10.645
2130,-6,1,-19,-15,1,-1,0,-2,10.65
2131,0,4,7,-33,-4,-3,-1,1,10.655
2132,-5,-46,-9,-9,-5,-3,0,-1,10.66
2133,-1,-8,10,53,3,-2,-1,1,10.665000000000001
2134,1,3,21,-4,-4,-2,-1,-1,10.67
2135,-10,-59,-41,-24,-3,1,1,-1,10.675
2136,-1,14,-3,-35,4,-1,-2,-2,10.68
2137,-5,-40,-1,11,-4,-1,-2,2,10.685
2138,-1,1,1,44,1,3,3,2,10.69
2139,9,56,16,-9,1,-2,-5,-2,10.695
2140,-2,17,9,15,-6,1,0,-1,10.700000000000001
2141,0,-1,-27,-26,2,-1,-3,-1,10.705
2142,-1,32,-2,-14,-4,-3,-1,-1,10.71
2143,-1,-2,-5,2,0,-1,0,0,10.715
2144,2,18,-4,21,4,-1,-1,-1,10.72
2145,1,9,4,-7,-4,1,-1,-2,10.725
2146,-3,-13,-6,-8,-2,-2,0,-1,10.73
2147,2,-8,-1,-1,3,0,1,-1,10.735
2148,0,-10,10,10,0,-2,-2,1,10.74
2149,-4,-13,4,16,-3,-3,-3,-2,10.745000000000001
2150,1,22,-9,-3,1,-2,0,1,10.75
2151,-9,-34,11,16,2,0,1,-1,10.755
2152,4,26,-16,-44,-1,0,0,0,10.76
2153,6,28,10,-15,-3,-3,0,0,10.765
2154,6,45,15,26,-5,-1,-3,1,10.77
2155,-8,-34,-27,-20,-3,-1,-2,-3,10.775
2156,-1,-2,-5,6,2,0,0,0,10.78
2157,-3,-7,4,6,-3,0,-2,-2,10.785
2158,-7,-51,6,5,-5,-1,-2,-2,10.790000000000001
2159,6,34,10,6,8,0,1,1,10.795
2160,-3,-15,-11,-8,-8,-6,-4,-2,10.8
2161,-1,-7,4,-9,3,0,0,-1,10.805
2162,-2,-11,-18,-27,-2,1,1,0,10.81
2163,0,13,-12,42,-2,1,-1,0,10.815
2164,-3,-11,8,-23,2,0,2,-1,10.82
2165,-1,-4,7,25,1,1,0,0,10.825000000000001
2166,-2,-26,2,-8,1,0,0,0,10.83
2167,-10,-20,-21,-11,-3,2,1,0,10.835
2168,1,6,1,11,6,-1,-1,0,10.84
2169,0,-6,-1,11,0,-1,0,0,10.845
2170,-7,-63,-20,4,0,-1,0,2,10.85
2171,8,48,8,8,-4,-3,1,1,10.855
2172,-4,-17,-12,-26,-7,-1,-2,-3,10.86
2173,2,20,-2,-12,-3,-1,-1,-1,10.865
2174,3,10,13,3,8,-1,-2,-1,10.870000000000001
2175,2,5,-1,-11,-2,-1,0,1,10.875
2176,-5,-32,-11,34,-2,-2,-2,-2,10.88
2177,-1,-9,4,-11,-2,0,2,-1,10.885
2178,-3,-7,1,10,4,4,1,-1,10.89
2179,3,-17,13,-22,-1,1,-2,0,10.895
2180,0,-11,13,4,-1,-1,0,-1,10.9
2181,-2,-18,-13,-7,-2,-4,-2,-1,10.905
2182,0,10,14,17,-5,-2,-1,-1,10.91
2183,0,4,-12,-24,4,0,-1,-2,10.915000000000001
2184,6,30,5,4,-1,-1,-2,-1,10.92
2185,-5,-38,-2,-4,-7,-2,-1,-2,10.925
2186,-4,12,-14,-22,-10,-2,0,-2,10.93
2187,1,13,14,31,12,-1,-2,0,10.935
2188,0,-3,-8,-1,-7,-1,0,1,10.94
2189,6,41,7,-16,2,0,-2,-2,10.945
2190,0,11,-3,9,-5,-2,-1,-1,10.950000000000001
2191,0,-35,2,14,-4,-3,0,0,10.955
2192,0,8,10,6,3,2,0,0,10.96
2193,2,13,-14,-2,-6,-1,-1,-1,10.965
2194,0,8,7,10,-3,-2,-1,-2,10.97
2195,0,15,3,-27,-3,-3,-1,-1,10.975
2196,-4,-18,0,25,9,1,0,0,10.98
2197,0,3,8,-6,-4,0,-1,-1,10.985
2198,3,24,-5,-6,5,-1,-3,0,10.99
2199,1,-2,2,5,-9,-1,-1,-1,10.995000000000001
2200,1,5,-8,-26,-7,-3,-2,-3,11.0
2201,-5,-8,3,1,4,-1,0,1,11.005
2202,-5,-21,-3,13,3,4,4,1,11.01
2203,1,18,16,15,-6,0,0,0,11.015
2204,-5,-12,-10,-22,6,0,0,-2,11.02
2205,1,1,12,18,-2,-3,-1,-1,11.025
2206,-4,-28,-2,9,0,1,1,0,11.03
2207,-3,-3,3,-17,1,1,0,-3,11.035
2208,-3,-18,-3,-14,-2,1,-1,0,11.040000000000001
2209,-2,12,1,0,-4,-2,-3,-1,11.045
2210,5,11,0,-6,1,-3,-3,-1,11.05
2211,-2,-13,-9,-16,-4,2,-1,-1,11.055
2212,-1,15,-5,14,-3,-1,0,1,11.06
2213,-2,1,16,19,3,3,0,-1,11.065
2214,-7,-20,-4,-20,2,0,1,1,11.07
2215,2,11,3,13,0,-5,-3,-3,11.075000000000001
2216,3,42,9,7,-1,0,0,1,11.08
2217,2,-8,-5,-13,-6,-4,-2,-2,11.085
2218,4,22,7,-8,-6,-3,-4,-2,11.09
2219,-6,-17,-3,12,2,2,-2,1,11.095
2220,0,-7,-15,-2,-1,-1,-1,-1,11.1
2221,2,-6,6,-14,7,1,0,0,11.105
2222,-1,-5,-5,5,-6,-1,-1,0,11.11
2223,2,31,12,20,4,-2,-1,-1,11.115
2224,0,-19,-4,-5,-2,1,0,0,11.120000000000001
2225,-3,-20,-10,-16,4,0,1,-2,11.125
2226,-1,-3,-4,-20,-4,-3,-4,-4,11.13
2227,-1,8,-2,42,2,-1,-2,-1,11.135
2228,-3,-6,-6,-6,1,0,0,-1,11.14
2229,-4,0,-3,-4,-2,-1,0,-1,11.145
2230,1,10,11,3,-6,-2,-3,-1,11.15
2231,1,29,-5,-23,6,-1,-2,-2,11.155
2232,1,-3,9,2,1,2,-1,2,11.16
2233,-3,-23,-2,49,-2,-1,-1,-1,11.165000000000001
2234,-10,-54,-5,-38,-6,-2,-2,-2,11.17
2235,0,-4,-11,1,-6,-2,-2,-1,11.175
2236,-6,-48,-9,-1,-5,-2,0,2,11.18
2237,-2,-2,-7,-1,10,4,2,3,11.185
2238,5,29,8,9,6,-2,-1,0,11.19
2239,0,-9,-5,-27,-7,-2,-2,-1,11.195
2240,-3,-25,10,10,-3,-1,0,0,11.200000000000001
2241,6,57,-10,-6,-8,-3,0,1,11.205
2242,-1,-7,-5,19,-2,-3,-1,1,11.21
2243,-1,-15,-4,-9,11,1,1,1,11.215
2244,1,31,-8,-24,-4,-2,-3,-2,11.22
2245,0,3,4,-8,-6,-2,0,0,11.225
2246,-5,-28,4,11,11,4,3,2,11.23
2247,-2,6,5,-5,-6,0,1,-1,11.235
2248,3,40,0,16,-2,-4,-3,-3,11.24
2249,-4,-15,-7,-26,-5,-1,-1,-1,11.245000000000001
2250,8,59,5,-1,-10,-2,-2,-2,11.25
2251,8,25,1,-11,-3,-5,-5,-2,11.255
2252,3,25,14,3,7,1,1,-1,11.26
2253,-6,-22,2,-12,0,1,-2,-2,11.265
2254,2,1,-4,13,-4,-2,-2,-1,11.27
2255,0,8,-3,14,-9,-2,-2,0,11.275
2256,2,9,8,15,1,-2,-1,-1,11.28
2257,4,3,11,1,-9,-3,-2,1,11.285
2258,2,7,-11,-46,21,0,-1,-2,11.290000000000001
2259,-13,-51,3,5,-1,0,2,0,11.295
2260,0,18,-6,-6,-3,-2,0,0,11.3
2261,1,12,4,16,2,0,-1,1,11.305
2262,-2,-72,0,9,-8,-2,-2,-4,11.31
2263,1,6,-18,4,-10,-1,1,3,11.315
2264,-15,-73,-9,-13,20,9,4,2,11.32
2265,-9,15,-6,12,-1,-5,-1,-4,11.325000000000001
2266,5,37,0,-18,-7,-3,-5,-6,11.33
2267,-6,14,-2,21,1,0,-1,-6,11.335
2268,5,-12,-5,-24,-11,-3,2,16,11.34
2269,8,3,-5,-4,7,4,4,6,11.345
2270,0,22,8,53,2,3,5,29,11.35
2271,-12,-8,11,-28,19,1,-7,-47,11.355
2272,2,1,16,-16,-12,-5,-5,2,11.36
2273,-6,34,13,-6,-10,-7,-9,-23,11.365
2274,7,15,9,51,5,-1,-2,-10,11.370000000000001
2275,10,4,-10,-23,-12,1,6,44,11.375
2276,3,19,-4,-7,5,-2,-2,-23,11.38
2277,9,-2,13,12,-5,2,1,7,11.385
2278,0,-1,-15,-4,22,2,1,3,11.39
2279,-2,-30,-3,7,5,4,4,7,11.395
2280,6,6,-14,84,-49,-15,-4,2,11.4
2281,-16,14,23,-9,23,16,6,8,11.405
2282,-10,25,5,-26,-3,-5,-13,-29,11.41
2283,26,19,11,-4,24,12,18,37,11.415000000000001
2284,0,24,45,-43,31,1,-9,-25,11.42
2285,10,17,14,75,-38,-12,0,3,11.425
2286,-23,20,18,-45,-2,1,-2,-4,11.43
2287,-23,31,19,49,13,-6,-12,-22,11.435
2288,-1,-75,16,-25,-13,1,-2,19,11.44
2289,27,52,18,-13,-36,-3,2,-9,11.445
2290,6,-17,35,-87,59,13,6,-1,11.450000000000001
2291,16,56,93,68,-37,-15,-6,1,11.455
2292,-9,-35,95,-20,15,2,4,10,11.46
2293,-21,-66,70,-32,6,-3,-10,-27,11.465
2294,21,44,4,59,-31,-5,4,14,11.47
2295,15,-35,-81,19,-10,-2,0,-7,11.475
2296,1,29,-97,6,-5,-5,-6,5,11.48
2297,-7,-41,-114,-101,17,-2,-4,-2,11.485
2298,1,-39,-61,101,-21,-5,0,2,11.49
2299,15,36,-52,19,56,15,13,40,11.495000000000001
2300,-2,21,-26,-1,-30,0,0,-43,11.5
2301,-13,-24,-39,-5,23,7,1,-5,11.505
2302,1,-1,-47,-55,-27,-9,-9,27,11.51
2303,-15,4,23,40,-1,4,1,-33,11.515
2304,-14,11,-19,-29,15,-2,-9,-20,11.52
2305,-1,37,-11,4,15,4,3,7,11.525
2306,-11,-7,-35,-4,-27,-13,-11,-11,11.53
2307,5,-31,-33,-47,-30,-9,-1,14,11.535
2308,2,30,-78,85,-25,3,8,16,11.540000000000001
2309,9,-32,-22,-59,50,9,1,8,11.545
2310,26,31,-28,-32,18,3,2,4,11.55
2311,0,27,-54,-17,-14,-3,-3,3,11.555
2312,-19,17,-58,33,36,2,-2,-21,11.56
2313,-19,-24,-70,122,-71,-19,-9,8,11.565
2314,28,24,-45,-80,30,23,24,32,11.57
2315,-17,-21,7,-124,29,-3,-12,-35,11.575000000000001
2316,-1,-8,-20,44,-17,-12,-8,0,11.58
2317,-2,11,40,-11,20,-5,-7,5,11.585
2318,-27,-82,18,19,-24,-3,-4,-41,11.59
2319,14,35,-60,84,-52,-5,4,3,11.595
2320,38,55,-54,73,-16,7,23,52,11.6
2321,-1,5,-87,-100,110,20,4,-5,11.605
2322,-53,-56,-126,47,-51,-29,-29,-53,11.61
2323,-19,-42,-30,63,-44,-10,-10,-9,11.615
2324,42,52,70,-37,35,9,16,39,11.620000000000001
2325,-9,-41,82,-11,-17,2,12,0,11.625
2326,4,-41,113,-1,-4,-1,-3,-14,11.63
2327,-11,-41,96,11,12,5,3,-7,11.635
2328,-13,15,72,-82,-22,-9,-10,-14,11.64
2329,10,-68,65,57,-38,-10,-1,11,11.645
2330,24,35,63,-18,3,21,27,41,11.65
2331,-16,-39,39,3,49,0,-5,-13,11.655
2332,8,15,42,-62,-6,-5,-11,11,11.66
2333,-19,59,19,-15,16,-5,-12,-35,11.665000000000001
2334,-29,47,32,118,-62,-5,-7,-16,11.67
2335,9,2,12,-128,59,9,6,16,11.675
2336,-3,65,8,127,-78,-15,-3,-6,11.68
2337,21,-7,6,-41,62,9,3,23,11.685
2338,16,-15,8,59,-15,-4,2,6,11.69
2339,-7,-33,5,-30,31,7,3,33,11.695
2340,-43,-56,0,-34,23,-4,-21,-69,11.700000000000001
2341,7,13,-3,-4,-36,-12,-8,-5,11.705
2342,7,27,10,54,2,4,10,23,11.71
2343,14,-16,-1,-63,54,15,3,8,11.715
2344,-39,-41,2,61,-45,-11,-6,-10,11.72
2345,5,-44,-2,8,13,3,2,5,11.725
2346,11,14,3,-23,17,1,5,6,11.73
2347,4,9,0,31,-77,-14,-8,-7,11.735
2348,-13,-14,-2,-128,39,9,9,13,11.74
2349,8,30,-1,42,14,1,3,-2,11.745000000000001
2350,-25,10,1,-48,1,-10,-18,-17,11.75
2351,41,38,-1,49,-26,-3,8,16,11.755
2352,5,-26,1,-94,74,18,8,17,11.76
2353,-34,-22,-2,95,-93,-17,-11,-33,11.765
2354,43,55,2,-33,67,18,17,56,11.77
2355,-35,47,-1,-36,4,-7,-19,-59,11.775
2356,-4,-34,-1,82,-24,-3,-5,-15,11.78
2357,14,-18,-1,49,-14,1,6,29,11.785
2358,-4,-31,-1,-13,-5,-5,-2,-6,11.790000000000001
2359,-2,3,0,50,16,3,2,9,11.795
2360,35,30,-1,73,-46,4,13,52,11.8
2361,-22,59,-2,-33,24,-1,-15,-50,11.805
2362,-12,-18,1,36,17,-2,-5,-12,11.81
2363,-3,-46,-1,-76,20,6,7,11,11.815
2364,-15,-45,-1,-30,-26,-12,-7,-7,11.82
2365,6,-58,-2,-16,0,3,-1,10,11.825000000000001
2366,-6,6,0,-12,-35,-13,-9,-17,11.83
2367,-3,4,-1,89,-25,-8,-6,-12,11.835
2368,22,20,-2,-73,50,18,12,23,11.84
2369,7,8,-1,87,-37,-2,6,8,11.845
2370,-61,-29,0,-18,26,0,-12,-56,11.85
2371,-11,1,-1,120,-128,-36,-19,-13,11.855
2372,41,13,-1,-96,117,25,15,30,11.86
2373,2,-20,-2,-79,-3,-2,5,17,11.865
2374,-21,21,0,31,-38,-2,-9,-21,11.870000000000001
2375,-23,-23,-2,42,10,-1,-1,-12,11.875
2376,-5,7,-1,93,-13,-12,-10,-22,11.88
2377,50,78,-1,-95,7,13,15,41,11.885
2378,7,-43,-1,-83,58,8,2,2,11.89
2379,-37,-48,-1,-38,-19,-8,-11,-17,11.895
2380,1,35,-1,70,-41,-16,-10,-20,11.9
2381,-9,-62,-1,-62,2,5,0,3,11.905
2382,15,21,0,47,-4,-5,5,20,11.91
2383,12,-32,-1,-15,-13,5,4,-3,11.915000000000001
2384,5,-45,-1,-58,62,11,10,11,11.92
2385,-14,87,-1,-3,-15,-10,-11,-19,11.925
2386,-19,-58,0,26,-30,-8,-4,8,11.93
2387,8,-15,-1,-36,21,9,3,-4,11.935
2388,-11,46,-1,-17,-57,-15,-9,-18,11.94
2389,7,-16,-1,-21,59,11,2,1,11.945
2390,26,14,-1,45,10,3,4,25,11.950000000000001
2391,-1,22,-1,9,-14,-4,-4,-8,11.955
2392,-24,-53,-1,-16,-9,-4,-8,-9,11.96
2393,-3,17,-1,-51,-22,-1,4,-3,11.965
2394,33,72,-1,14,-7,0,13,33,11.97
2395,-18,-12,0,14,30,6,-5,-36,11.975
2396,-13,-27,-1,-8,-15,-1,-4,-27,11.98
2397,7,22,-1,80,6,-3,0,14,11.985
2398,-4,-14,-1,-17,-6,-6,-6,4,11.99
2399,17,35,0,-93,-6,6,9,18,11.995000000000001
2400,-13,-18,-1,-9,13,7,3,-3,12.0
2401,1,-26,-1,85,-28,-12,-1,-27,12.005
2402,14,27,-1,23,-6,3,-5,17,12.01
2403,-15,51,-1,-67,-12,-8,-3,15,12.015
2404,6,10,-1,32,16,3,1,-8,12.02
2405,2,-29,-1,-64,-12,6,2,20,12.025
2406,-5,-5,-1,25,-35,-2,5,-14,12.030000000000001
2407,16,43,-1,-79,56,0,-2,11,12.035
2408,2,1,-1,65,-14,-2,-5,-10,12.040000000000001
2409,7,-6,-1,127,-20,-11,5,29,12.045
2410,14,-20,-1,-128,96,35,20,29,12.05
2411,-30,-4,0,62,-38,-19,-26,-76,12.055
2412,-14,-71,0,-20,-6,-8,-5,-37,12.06
2413,-6,-4,-1,22,-33,-11,-18,31,12.065
2414,10,-19,0,70,-12,-4,0,-3,12.07
2415,23,18,-1,-25,39,16,21,68,12.075000000000001
2416,-5,23,-1,-14,-25,-10,-8,-13,12.08
2417,-17,67,2,65,-16,-10,-14,-39,12.085
2418,-18,-19,2,-28,-7,-1,-2,-22,12.09
2419,9,-18,9,-13,24,12,5,18,12.095
2420,10,31,15,-3,-18,-7,-1,-5,12.1
2421,10,-1,7,55,3,-10,3,16,12.105
2422,-13,-12,-1,-82,37,12,0,-3,12.11
2423,-13,-34,3,84,-42,-12,-4,-18,12.115
2424,-4,-11,7,-30,10,2,4,19,12.120000000000001
2425,19,-35,4,65,-18,8,18,34,12.125
2426,-4,-22,-6,-21,-22,-15,-13,-39,12.13
2427,7,-11,1,40,7,5,4,4,12.135
2428,20,20,7,56,-67,-6,0,29,12.14
2429,0,-45,-2,-113,111,24,16,50,12.145
2430,-53,4,-7,12,-27,-24,-42,-97,12.15
2431,-5,31,-2,-51,-2,1,-1,-14,12.155000000000001
2432,-4,37,4,68,-20,-3,2,18,12.16
2433,2,11,-2,-3,-29,-2,1,-9,12.165000000000001
2434,27,0,-6,20,16,7,16,41,12.17
2435,12,14,-1,57,-10,1,5,6,12.175
2436,-1,1,3,-82,20,6,2,5,12.18
2437,-21,-9,1,3,10,-3,-12,-35,12.185
2438,-15,-12,0,-40,-8,-7,-5,-5,12.19
2439,4,-20,-3,27,-14,-3,5,-1,12.195
2440,14,11,0,87,-11,1,10,-2,12.200000000000001
2441,-5,28,0,-128,44,11,-7,7,12.205
2442,3,5,-4,44,-24,-10,-1,-9,12.21
2443,13,25,-5,5,-7,2,5,23,12.215
2444,2,7,-2,-20,22,7,0,2,12.22
2445,-21,-19,-3,-7,-4,-5,-13,-41,12.225
2446,6,6,-1,44,-5,4,11,17,12.23
2447,6,-2,-1,-53,13,3,2,4,12.235
2448,-2,4,-4,-26,4,-3,-5,2,12.24
2449,0,26,-5,85,-28,-8,-4,-29,12.245000000000001
2450,20,35,-8,-36,15,6,2,32,12.25
2451,-12,-13,-2,-40,0,-4,-2,-8,12.255
2452,-9,-3,-3,28,8,-1,1,-11,12.26
2453,5,5,-4,37,-21,-4,-8,6,12.265
2454,1,-2,-6,55,-16,-5,2,-2,12.27
2455,3,-4,4,-44,39,10,1,5,12.275
2456,-6,-29,3,6,14,2,-1,-7,12.280000000000001
2457,-5,6,0,-66,-14,-2,-4,-11,12.285
2458,-2,-19,3,23,-5,-5,6,7,12.290000000000001
2459,0,-20,0,25,-11,-5,2,4,12.295
2460,-1,-43,2,3,10,3,-1,7,12.3
2461,-2,18,-3,-15,0,1,7,-11,12.305
2462,-8,-71,-2,2,-8,1,-5,4,12.31
2463,0,-23,2,11,5,3,-1,1,12.315
2464,3,44,1,-5,15,1,0,2,12.32
2465,-5,-12,-1,-14,-14,-2,1,-6,12.325000000000001
2466,2,24,-2,8,-4,-6,-3,-7,12.33
2467,0,8,2,-7,10,0,0,5,12.335
2468,-5,-15,1,-20,-5,-1,-3,-5,12.34
2469,1,-2,7,25,-1,1,1,-3,12.345
2470,4,23,6,2,10,0,0,0,12.35
2471,0,-6,1,0,-10,-2,-3,0,12.355
2472,-1,0,2,-7,-8,-5,-6,0,12.36
2473,-1,-8,5,-19,-2,-3,3,-6,12.365
2474,-3,-25,4,18,1,3,0,0,12.370000000000001
2475,-5,-14,0,7,-1,-2,-5,-1,12.375
2476,5,75,7,-17,1,-3,-4,-5,12.38
2477,4,22,13,15,0,1,3,-1,12.385
2478,-3,-12,25,-1,0,0,-10,-7,12.39
2479,2,10,59,-11,-15,-7,9,-1,12.395
2480,1,4,110,-4,7,1,-4,3,12.4
2481,3,-1,127,14,-5,-2,-1,-2,12.405000000000001
2482,1,16,127,8,-7,0,1,3,12.41
2483,4,17,110,4,17,4,-8,0,12.415000000000001
2484,-4,-26,-53,-36,-3,-2,-5,-2,12.42
2485,-1,-8,-109,13,-8,-2,-4,-4,12.425
2486,1,4,-128,-28,2,1,-3,4,12.43
2487,1,-2,-128,27,-7,-3,-8,0,12.435
2488,-4,-26,-118,4,-7,-1,-3,-1,12.44
2489,-4,-6,-123,-32,11,0,-5,0,12.445
2490,-3,11,-118,-16,5,-3,-1,-4,12.450000000000001
2491,-2,-2,-108,24,-1,-3,-6,4,12.455
2492,-4,-22,-89,-46,-2,-5,4,-1,12.46
2493,4,22,-75,-2,-12,-3,-2,1,12.465
2494,-3,-22,-46,-5,-4,-4,0,-5,12.47
2495,-4,20,-49,7,7,-1,-1,0,12.475
2496,1,-13,-41,9,-1,2,5,1,12.48
2497,-1,-9,-16,6,-4,-4,0,-3,12.485
2498,2,16,-9,2,0,1,4,0,12.49
2499,-2,-50,-21,10,-9,-1,2,2,12.495000000000001
2500,-13,-26,-12,28,-6,-1,2,-2,12.5
2501,-1,-5,2,-21,10,6,7,0,12.505
2502,7,24,-2,1,10,5,2,3,12.51
2503,-6,-37,-14,18,-5,-2,4,-3,12.515
2504,5,20,-1,25,-5,-4,1,2,12.52
2505,-5,-25,2,-14,1,2,1,0,12.525
2506,-1,14,-4,8,3,-2,-1,-2,12.530000000000001
2507,-1,8,-4,-10,-15,1,1,0,12.535
2508,4,6,0,-48,21,4,1,3,12.540000000000001
2509,-5,-34,0,31,-10,-4,0,0,12.545
2510,3,-5,-1,-59,-4,-2,-2,-3,12.55
2511,2,18,-3,31,0,-1,-1,-3,12.555
2512,-6,-16,-1,36,0,-4,-3,-2,12.56
2513,2,21,-2,13,-3,-2,-1,-3,12.565
2514,3,35,1,-12,2,0,3,1,12.57
2515,-5,-9,-2,4,-2,-1,1,0,12.575000000000001
2516,0,-4,-3,-5,-3,-1,0,-2,12.58
2517,-6,18,0,20,-2,0,3,-2,12.585
2518,3,2,1,-4,15,1,-1,-1,12.59
2519,-4,2,-3,-52,-9,-3,0,-3,12.595
2520,4,14,-2,24,3,1,0,-1,12.6
2521,0,-4,1,-11,-7,-3,2,1,12.605
2522,-1,-15,-1,13,-3,2,1,-1,12.61
2523,4,19,-3,27,-1,0,2,0,12.615
2524,3,1,0,-20,9,2,0,1,12.620000000000001
2525,-5,-21,0,-45,-14,-5,-2,-2,12.625
2526,-2,-25,-1,38,-2,-2,1,0,12.63
2527,-7,-25,-2,-7,-2,-1,0,0,12.635
2528,1,46,-1,-39,-3,-4,-2,-3,12.64
2529,-1,-2,-1,6,4,1,-1,-2,12.645
2530,-8,-32,-42,18,-3,1,4,1,12.65
2531,2,-8,-57,-8,7,2,-1,-1,12.655000000000001
2532,-4,-15,-21,16,-1,0,2,1,12.66
2533,-8,-19,-74,13,1,0,-3,-3,12.665000000000001
2534,2,3,-8,-14,-6,-2,-4,1,12.67
2535,3,23,-45,-3,3,-1,-2,-1,12.675
2536,0,-16,10,-20,2,1,-2,-2,12.68
2537,2,17,-20,-32,-2,-2,-2,-2,12.685
2538,-4,-25,-1,25,-2,-2,-2,1,12.69
2539,-1,3,1,-13,1,2,0,-1,12.695
2540,0,-11,-10,-35,-5,1,1,0,12.700000000000001
2541,-2,-17,13,44,5,2,0,0,12.705
2542,0,13,3,-43,-12,-5,-5,-5,12.71
2543,-1,15,26,-37,6,1,-2,-2,12.715
2544,4,4,-1,32,-8,-4,-4,-1,12.72
2545,-1,8,12,-19,11,3,0,0,12.725
2546,-5,-8,-1,13,-10,-2,0,2,12.73
2547,2,-15,10,20,9,3,-2,0,12.735
2548,-6,-11,-2,-62,-3,-2,-2,-1,12.74
2549,4,6,15,22,4,1,1,-1,12.745000000000001
2550,1,14,6,4,-10,-3,-1,-1,12.75
2551,-6,-9,16,49,10,-1,0,0,12.755
2552,0,4,11,12,1,2,1,1,12.76
2553,1,-4,15,-8,-2,-2,-1,0,12.765
2554,-3,-33,-17,33,8,7,4,2,12.77
2555,1,1,-3,-8,-11,-5,-3,-1,12.775
2556,-3,-13,-22,-16,-4,1,-1,-3,12.780000000000001
2557,1,9,12,-28,-3,-3,-3,-1,12.785
2558,2,12,13,62,13,1,0,-1,12.790000000000001
2559,4,20,-19,-30,-10,-7,-2,0,12.795
2560,1,-4,0,17,6,6,2,1,12.8
2561,-2,-3,-3,-25,2,-2,-2,-2,12.805
2562,0,0,3,8,2,0,-1,-1,12.81
2563,4,33,11,-11,-2,1,1,1,12.815
2564,-1,4,10,36,-5,-1,0,0,12.82
2565,1,6,-18,2,-6,-2,-2,-2,12.825000000000001
2566,-4,-2,8,-30,0,-2,-3,-2,12.83
2567,2,19,15,3,3,-1,-1,-2,12.835
2568,2,9,14,15,4,-2,0,1,12.84
2569,0,-6,23,-17,-3,0,0,1,12.845
2570,-3,2,4,-3,-7,-5,-4,-2,12.85
2571,-4,-16,-14,-46,-4,-1,0,-1,12.855
2572,-1,1,-3,16,-7,-3,-3,-3,12.86
2573,7,46,20,28,4,0,0,1,12.865
2574,0,-2,9,-28,-1,-1,0,1,12.870000000000001
2575,1,12,1,-32,-9,-4,-2,0,12.875
2576,-2,-3,3,3,4,1,0,-2,12.88
2577,-4,-4,-18,-12,-7,-4,-2,-2,12.885
2578,-2,-17,1,-29,4,4,0,-2,12.89
2579,-1,-9,18,53,-3,1,-2,-2,12.895
2580,1,-2,11,-4,6,2,0,3,12.9
2581,-3,-15,15,0,-4,0,-2,-1,12.905000000000001
2582,-1,9,4,-8,-1,0,0,1,12.91
2583,-2,-24,-9,-10,0,2,-1,-1,12.915000000000001
2584,-11,-66,-17,-1,-12,-5,-3,-2,12.92
2585,-1,-7,8,9,0,2,0,1,12.925
2586,-4,-13,-5,-4,1,1,0,-1,12.93
2587,0,18,14,11,1,2,1,-1,12.935
2588,10,29,24,6,1,-3,-2,0,12.94
2589,-3,-25,-16,25,-1,-2,-1,0,12.945
2590,0,-7,5,-28,-3,1,-2,-2,12.950000000000001
2591,0,-5,3,15,0,-1,-1,-1,12.955
2592,-1,10,1,10,-6,-1,-3,-3,12.96
2593,-3,-29,6,-39,8,0,0,-2,12.965
2594,-1,8,8,16,-5,-3,0,0,12.97
2595,-3,-14,12,6,1,-3,-1,-2,12.975
2596,-1,2,-11,-35,6,2,1,2,12.98
2597,4,33,7,-4,-1,-3,-3,-1,12.985
2598,-3,-9,-1,9,-1,-1,-1,-1,12.99
2599,-1,1,17,-13,-11,-3,-2,-2,12.995000000000001
2600,-5,-39,-28,27,8,-1,2,0,13.0
2601,3,41,23,27,1,2,2,-1,13.005
2602,0,8,-9,-16,1,-4,-3,-1,13.01
2603,1,-27,2,32,-3,-3,-3,0,13.015
2604,5,63,13,-28,-9,-2,-4,-4,13.02
2605,0,-15,-6,15,2,0,1,1,13.025
2606,2,3,11,6,1,1,1,0,13.030000000000001
2607,-3,-5,4,37,12,4,1,0,13.035
2608,-3,2,-3,23,-11,-4,-2,-2,13.040000000000001
2609,-6,4,-46,-85,8,3,-1,-1,13.045
2610,0,5,-2,-1,1,-1,1,-1,13.05
2611,0,-14,2,-20,-4,0,0,0,13.055
2612,1,-1,23,36,5,0,-1,1,13.06
2613,-4,-14,8,34,-11,-2,-3,-1,13.065
2614,-3,-14,-19,-20,-1,0,-2,0,13.07
2615,-1,9,-7,-9,2,0,0,0,13.075000000000001
2616,4,16,0,0,0,1,1,0,13.08
2617,-4,-29,4,38,-2,-3,-1,-1,13.085
2618,7,52,4,-6,1,-2,-2,0,13.09
2619,4,0,-1,22,0,-1,-1,0,13.095
2620,-4,-12,-33,-82,-3,-3,-3,-4,13.1
2621,-11,-38,-18,-17,-1,1,2,-2,13.105
2622,0,-3,13,10,-1,-1,0,-1,13.11
2623,2,2,21,4,4,1,2,2,13.115
2624,-7,-43,-9,29,-2,-1,0,0,13.120000000000001
2625,4,6,4,9,-2,-1,-1,0,13.125
2626,-3,-11,-4,2,4,-2,-1,-1,13.13
2627,-6,-16,-17,-18,-6,0,-1,-2,13.135
2628,2,10,8,39,-1,3,0,0,13.14
2629,4,10,9,2,11,0,1,-1,13.145
2630,-8,5,-27,-26,-9,-3,-3,-6,13.15
2631,2,28,0,-37,7,2,1,-1,13.155000000000001
2632,-2,-14,20,1,-6,-1,-3,-3,13.16
2633,4,32,30,-4,-11,-6,-4,-1,13.165000000000001
2634,-2,-11,-34,6,0,1,0,-1,13.17
2635,-1,-12,-4,11,-2,-1,-1,-2,13.175
2636,-2,-8,-1,14,7,-1,1,-1,13.18
2637,2,16,2,19,0,1,1,1,13.185
2638,2,3,5,-57,-4,-1,-2,-1,13.19
2639,-6,-5,-2,3,-9,-4,-1,0,13.195
2640,-1,5,-18,2,19,4,1,2,13.200000000000001
2641,0,1,16,6,-11,-3,-2,-1,13.205
2642,-3,-39,-6,19,3,2,2,3,13.21
2643,-4,-18,-20,-8,0,-2,-4,-1,13.215
2644,-2,6,5,-12,-11,-2,-1,-1,13.22
2645,-3,-14,-3,1,4,2,1,0,13.225
2646,0,-5,21,19,7,2,-1,-1,13.23
2647,3,5,21,-7,-3,0,1,2,13.235
2648,-1,11,-5,9,-3,-1,-3,0,13.24
2649,0,14,-3,-13,-4,-2,-1,0,13.245000000000001
2650,3,14,8,44,-2,-3,0,2,13.25
2651,-4,-5,-10,-22,-5,-5,-6,-5,13.255
2652,4,19,12,-8,1,0,0,0,13.26
2653,0,-10,-12,12,1,0,0,-1,13.265
2654,-8,-47,22,-21,-2,1,0,-1,13.27
2655,-1,9,3,6,4,-1,-1,0,13.275
2656,-5,-21,35,6,2,2,0,-2,13.280000000000001
2657,3,9,40,-13,-5,0,-3,1,13.285
2658,-3,0,-1,-7,-2,-2,-3,-3,13.290000000000001
2659,3,18,-16,-12,-4,-1,0,0,13.295
2660,-1,-23,-26,29,-21,-2,0,0,13.3
2661,4,5,-8,-42,16,1,-3,-2,13.305
2662,1,15,-3,31,1,-1,-3,-3,13.31
2663,0,4,-13,-13,-1,3,1,-1,13.315
2664,3,22,1,-9,-4,-3,-1,0,13.32
2665,-6,-14,-11,30,-9,-6,-2,-1,13.325000000000001
2666,1,10,-22,-28,-10,-6,-1,0,13.33
2667,-4,-7,7,8,10,3,0,0,13.335
2668,0,16,-11,-1,4,-3,0,-1,13.34
2669,-4,-9,17,6,-9,1,-1,-1,13.345
2670,-3,-14,-3,-9,5,0,-1,-1,13.35
2671,-1,-20,-6,19,-5,-4,-2,0,13.355
2672,1,-18,-1,-14,3,1,2,2,13.36
2673,-4,-17,-24,-3,2,-1,0,-1,13.365
2674,0,18,22,20,0,1,1,1,13.370000000000001
2675,2,10,-2,26,-5,-1,2,-2,13.375
2676,-2,5,3,-44,10,2,-1,-1,13.38
2677,-1,-12,8,22,-4,2,1,-1,13.385
2678,-1,-10,-7,-23,8,-2,0,-1,13.39
2679,-4,-8,-9,3,-7,-3,-2,-3,13.395
2680,0,7,4,23,1,0,1,0,13.4
2681,-3,-3,-34,-21,-4,-2,-2,-2,13.405000000000001
2682,2,6,2,23,-5,0,-1,0,13.41
2683,2,16,8,3,11,3,2,3,13.415000000000001
2684,2,-1,15,-39,0,1,-1,0,13.42
2685,-3,-14,-12,-3,-3,-2,-1,-3,13.425
2686,3,31,-8,-14,-4,-2,-1,0,13.43
2687,-8,-40,5,28,3,-1,0,-1,13.435
2688,1,14,-2,-6,-2,0,-1,-2,13.44
2689,4,14,-2,33,-3,-3,-3,-1,13.445
2690,-4,-27,-7,-38,-3,-3,-3,-3,13.450000000000001
2691,-9,-43,-4,-13,-1,1,1,-1,13.455
2692,2,18,-4,28,-5,-3,-2,0,13.46
2693,10,44,16,-45,4,-2,-3,-1,13.465
2694,-2,-5,3,42,1,3,-1,0,13.47
2695,2,22,0,-53,-9,-3,-6,-3,13.475
2696,-3,-20,-11,-7,-1,-2,1,-2,13.48
2697,-2,3,0,12,-5,-3,0,0,13.485
2698,1,7,0,13,0,-1,0,-1,13.49
2699,2,15,15,16,5,0,-2,-1,13.495000000000001
2700,3,28,9,30,-4,-4,-3,-1,13.5
2701,-8,-15,-16,-36,-10,-3,-2,-3,13.505
2702,-1,11,2,-27,12,3,0,-1,13.51
2703,-4,-18,8,-37,0,4,2,-1,13.515
2704,-5,-31,-3,20,-2,-1,0,2,13.52
2705,-1,-48,3,-1,7,0,0,-1,13.525
2706,-3,11,-1,21,-4,-2,1,2,13.530000000000001
2707,2,9,-24,-31,-8,-5,-3,-2,13.535
2708,0,6,6,0,3,0,0,-1,13.540000000000001
2709,-2,-3,16,32,2,1,-1,1,13.545
2710,2,2,-14,-43,-8,-4,-2,0,13.55
2711,4,17,-6,10,-3,-1,1,1,13.555
2712,-6,-27,-3,16,6,0,-4,-3,13.56
2713,-4,-11,4,-7,0,1,2,2,13.565
2714,-8,-19,-7,-15,-5,1,0,-3,13.57
2715,-1,9,3,6,-7,-4,-2,-2,13.575000000000001
2716,-1,-16,-4,-30,-5,-2,0,-2,13.58
2717,2,15,1,17,2,-2,-1,-1,13.585
2718,5,12,17,36,1,0,-1,0,13.59
2719,2,4,21,-15,-3,-1,-1,-2,13.595
2720,0,9,11,-8,2,1,0,0,13.6
2721,-2,-7,-13,21,2,-2,-2,0,13.605
2722,4,8,3,-10,-9,-2,0,-1,13.61
2723,-5,-13,-17,-26,3,-1,-1,-3,13.615
2724,-4,-20,-4,-8,-3,-3,-1,0,13.620000000000001
2725,-1,8,-10,-4,-4,-2,0,-2,13.625
2726,1,10,21,16,-2,-1,-2,-2,13.63
2727,3,15,1,28,-7,-2,-3,-2,13.635
2728,-4,-22,-3,-13,15,4,1,0,13.64
2729,-2,3,12,-10,-5,0,-2,-2,13.645
2730,-2,5,-6,-8,-3,1,-1,-1,13.65
2731,-3,-30,5,18,2,-1,1,-1,13.655000000000001
2732,0,19,-5,-27,-12,-4,-2,-3,13.66
2733,-1,-8,23,25,7,4,5,3,13.665000000000001
2734,0,-22,-16,-17,2,-2,-2,-3,13.67
2735,4,28,18,11,-1,2,1,3,13.675
2736,-3,0,0,56,5,-3,-3,-2,13.68
2737,-1,2,-12,-19,-4,-4,-4,-2,13.685
2738,8,21,14,27,-1,-2,0,2,13.69
2739,-2,-8,7,-23,2,-1,0,0,13.695
2740,-2,-17,10,-25,-1,-3,-2,-2,13.700000000000001
2741,-6,-25,-23,-34,-5,1,1,0,13.705
2742,-6,-28,-7,4,-5,-2,-1,-1,13.71
2743,1,8,-2,26,6,1,0,0,13.715
2744,1,17,14,-12,0,0,0,-1,13.72
2745,-1,-16,-3,9,-4,-1,-3,0,13.725
2746,-5,-5,-2,3,3,1,1,0,13.73
2747,-3,3,-1,0,-3,-2,-1,-2,13.735
2748,2,2,-16,-21,-13,-3,-1,-1,13.74
2749,5,21,-1,40,3,0,0,-1,13.745000000000001
2750,3,30,2,-30,1,-1,0,-1,13.75
2751,-3,-32,-4,-14,1,0,0,-1,13.755
2752,0,-19,-7,0,-4,-1,0,0,13.76
2753,3,12,12,20,2,0,-1,0,13.765
2754,1,16,-2,14,3,0,-3,-2,13.77
2755,2,24,-16,-12,-8,-3,-2,-1,13.775
2756,-4,-8,-41,-27,0,-2,-5,-4,13.780000000000001
2757,-4,-28,19,-31,-11,-3,-1,-1,13.785
2758,1,-20,26,12,13,3,2,2,13.790000000000001
2759,-1,8,-13,8,-2,-1,-1,-1,13.795
2760,-1,16,13,26,-1,0,-1,0,13.8
2761,8,32,-13,14,-4,-1,0,1,13.805
2762,-3,-5,-17,-37,-3,-1,-2,-3,13.81
2763,-2,-31,-9,34,6,1,1,1,13.815
2764,5,51,4,-17,2,0,0,1,13.82
2765,-2,-1,-14,-34,-6,-2,-1,-2,13.825000000000001
2766,-2,-14,0,3,-1,-1,0,1,13.83
2767,-1,6,8,-1,2,-2,-1,0,13.835
2768,4,40,17,19,-3,-2,-3,-3,13.84
2769,-1,9,25,17,5,3,3,1,13.845
2770,-7,-21,-66,-20,-10,-2,0,-2,13.85
2771,1,11,14,-23,-4,1,0,-1,13.855
2772,0,-9,-9,16,-3,-3,-3,-1,13.86
2773,-4,0,-33,-47,1,0,0,-1,13.865
2774,-1,17,0,25,-5,-3,0,-1,13.870000000000001
2775,0,-4,-2,12,0,-1,0,0,13.875
2776,1,-10,8,-11,3,3,2,1,13.88
2777,1,-18,12,35,4,2,0,1,13.885
2778,-1,0,-2,8,-11,-3,-3,-2,13.89
2779,-3,32,-18,-26,15,0,-2,-3,13.895
2780,-5,-33,14,-21,3,4,3,0,13.9
2781,0,16,16,49,1,-2,-2,0,13.905000000000001
2782,-4,-16,-8,-87,-10,-4,-3,-3,13.91
2783,1,-20,4,29,-1,-2,0,2,13.915000000000001
2784,-4,-31,-9,-1,-7,-4,-2,-1,13.92
2785,0,2,7,6,7,1,0,0,13.925
2786,1,-1,17,29,2,1,-2,1,13.93
2787,1,-8,-4,-5,-5,0,-2,0,13.935
2788,1,9,-3,-1,0,1,1,1,13.94
2789,-3,-29,2,-5,-2,-3,-1,-1,13.945
2790,2,19,10,35,9,0,0,1,13.950000000000001
2791,0,-12,2,11,-3,1,-1,-2,13.955
2792,-6,-55,-5,-68,-4,-2,1,1,13.96
2793,3,21,-1,-14,-2,-2,-1,-3,13.965
2794,-2,-6,-9,-29,-2,-2,0,-2,13.97
2795,2,11,12,23,2,1,0,-1,13.975
2796,2,24,6,18,-10,-3,-2,-2,13.98
2797,-1,7,-6,-7,9,0,-3,-1,13.985
2798,-1,-10,6,7,1,-1,-1,0,13.99
2799,0,5,6,-2,-3,0,-1,-1,13.995000000000001
2800,1,1,5,14,-7,-2,-3,-3,14.0
2801,-16,-60,-24,-14,-2,3,4,2,14.005
2802,0,15,7,21,-4,-1,-3,-2,14.01
2803,-5,2,10,-13,6,-2,-1,-3,14.015
2804,3,6,14,21,4,5,2,1,14.02
2805,14,60,6,-10,1,-2,-3,-2,14.025
2806,1,3,-7,-14,-4,-1,0,0,14.030000000000001
2807,-5,-9,4,-4,-1,-2,-2,-1,14.035
2808,-5,1,-22,-44,-4,-6,-4,-3,14.040000000000001
2809,0,8,-1,4,-8,-5,-5,-2,14.045
2810,1,6,19,6,-2,0,-1,-1,14.05
2811,4,13,3,-5,-7,0,-1,0,14.055
2812,1,0,-8,40,23,2,2,1,14.06
2813,0,-7,-4,8,-7,-1,-1,-2,14.065
2814,7,21,-1,-12,2,-1,0,-1,14.07
2815,-4,-33,-3,41,-3,2,3,1,14.075000000000001
2816,-5,-11,3,-20,-2,-1,-1,1,14.08
2817,-6,-10,-19,-13,-8,-3,-4,-4,14.085
2818,-2,5,-7,15,3,1,1,2,14.09
2819,-3,6,4,-44,-7,-1,0,-1,14.095
2820,1,22,19,42,7,2,-1,0,14.1
2821,3,4,5,-19,6,0,0,-1,14.105
2822,-1,32,-8,20,4,-1,1,0,14.11
2823,-1,-1,-14,-11,-5,-2,-3,-2,14.115
2824,1,2,6,3,-5,0,-2,-1,14.120000000000001
2825,-1,0,-1,12,-2,0,-2,-2,14.125
2826,3,4,-2,-22,-2,2,1,-1,14.13
2827,-2,-20,-15,17,-13,-4,-3,-1,14.135
2828,1,2,6,-12,14,4,2,0,14.14
2829,-2,0,-1,-30,-8,-5,-1,-3,14.145
2830,-1,-16,-8,1,-10,0,0,0,14.15
2831,5,29,-1,1,5,-4,-3,1,14.155000000000001
2832,3,18,6,17,-10,-5,-1,-1,14.16
2833,-5,-55,-21,23,2,3,4,2,14.165000000000001
2834,-6,-31,11,-35,1,1,-1,1,14.17
2835,1,9,-25,0,-2,-3,-1,-1,14.175
2836,-4,7,3,43,-8,-2,0,-3,14.18
2837,-5,-1,-6,-48,5,1,2,0,14.185
2838,-8,-52,-8,-3,-3,-2,0,-2,14.19
2839,-1,-13,13,18,5,1,2,1,14.195
2840,-2,5,-12,-20,-4,-4,-2,-3,14.200000000000001
2841,1,-1,1,23,1,1,-1,0,14.205
2842,0,7,2,16,0,0,1,0,14.21
2843,1,-14,17,-22,4,3,-1,0,14.215
2844,1,4,-6,14,-4,-3,-2,0,14.22
2845,-3,5,-17,-29,-9,-4,-2,-4,14.225
2846,-2,1,8,-27,4,-4,-3,-2,14.23
2847,5,41,13,5,8,1,0,1,14.235
2848,-1,-23,-22,-18,-5,2,3,1,14.24
2849,2,9,0,26,-3,1,1,1,14.245000000000001
2850,1,5,15,33,4,1,0,1,14.25
2851,-1,7,-11,-31,-7,-3,-3,-2,14.255
2852,6,32,17,15,-2,-3,-5,-2,14.26
2853,-6,-12,-1,4,1,-1,-2,0,14.265
2854,0,0,0,37,-3,-1,-1,-3,14.27
2855,-4,-11,15,-18,-4,-1,-1,0,14.275
2856,-8,-21,2,-16,-2,-2,-1,-2,14.280000000000001
2857,-1,-4,3,8,-1,0,2,-1,14.285
2858,2,9,-3,6,4,2,0,1,14.290000000000001
2859,-3,-35,10,-8,5,0,2,1,14.295
2860,-6,-63,-25,6,-2,1,0,0,14.3
2861,2,45,16,-24,-8,-2,-2,0,14.305
2862,-3,-11,-14,7,7,-2,-1,0,14.31
2863,1,18,-3,5,-6,-1,0,-3,14.315
2864,-2,9,13,2,0,2,-1,0,14.32
2865,-3,-14,-8,19,-7,-1,0,0,14.325000000000001
2866,-2,-6,0,-38,13,2,-3,-1,14.33
2867,-5,-18,-1,21,-4,-3,0,-2,14.335
2868,7,21,18,-16,0,1,0,0,14.34
2869,2,18,-7,16,-4,-2,-2,0,14.345
2870,-3,7,-1,18,1,-2,-1,0,14.35
2871,3,21,-2,-34,1,0,0,2,14.355
2872,-1,-5,4,9,-2,-2,-2,-2,14.36
2873,-11,-50,-13,3,2,1,1,0,14.365
2874,-2,1,6,-16,-9,-6,-1,-2,14.370000000000001
2875,1,15,-1,34,5,0,1,0,14.375
2876,-1,-3,-2,-17,-7,-4,-1,-1,14.38
2877,4,10,9,-51,5,3,1,0,14.385
2878,-1,-13,-7,43,2,-3,0,-1,14.39
2879,-3,-6,25,19,1,1,0,-2,14.395
2880,-4,-2,-13,-4,-1,-1,0,-1,14.4
2881,13,42,23,17,4,-2,-3,-1,14.405000000000001
2882,-7,-33,10,-22,-9,1,2,1,14.41
2883,1,11,-20,-17,-7,-1,-2,-2,14.415000000000001
2884,-2,-3,-2,1,3,-1,1,0,14.42
2885,4,-10,15,19,-5,-2,-2,-3,14.425
2886,0,3,-6,4,4,0,-1,1,14.43
2887,-2,2,-3,14,-4,-1,-2,-1,14.435
2888,0,7,17,-24,6,2,-1,0,14.44
2889,5,33,3,-32,-3,-2,-1,-3,14.445
2890,-1,11,0,14,-11,-1,-1,-2,14.450000000000001
2891,-4,-17,-7,11,-3,-5,-1,-2,14.455
2892,-1,-3,6,12,-1,-2,-1,-1,14.46
2893,1,-1,6,-18,4,0,1,1,14.465
2894,-3,-33,-21,-3,-4,0,0,1,14.47
2895,-5,-19,-12,-6,10,0,-1,-1,14.475
2896,0,4,13,-1,-2,0,0,2,14.48
2897,-5,12,0,24,5,0,1,-1,14.485
2898,-1,9,-13,-23,-6,-3,-1,-2,14.49
2899,-4,-32,-11,16,-4,0,-2,2,14.495000000000001
2900,-2,-22,-6,-31,-2,-3,-1,-3,14.5
2901,-6,-28,-6,13,3,-1,-2,0,14.505
2902,-1,13,8,20,-3,-2,-1,-1,14.51
2903,3,16,8,-7,-1,2,1,1,14.515
2904,4,42,-2,2,-3,-2,-3,-2,14.52
2905,-1,-4,-15,-32,8,1,-1,0,14.525
2906,-7,-37,-7,-1,-2,-3,0,-1,14.530000000000001
2907,-1,9,8,3,3,0,-1,-2,14.535
2908,3,21,-1,24,-1,-1,0,0,14.540000000000001
2909,-7,-33,-8,-14,-7,-3,-3,-1,14.545
2910,2,15,18,-28,-3,-1,-1,-2,14.55
2911,-4,-10,-15,-22,-3,-5,-2,-3,14.555
2912,-3,-7,12,22,-2,2,2,1,14.56
2913,-6,-18,2,1,-4,4,2,0,14.565
2914,4,25,-11,8,10,2,3,0,14.57
2915,4,20,16,-3,-3,-2,1,1,14.575000000000001
2916,3,15,3,21,0,-2,-2,-1,14.58
2917,0,-1,-11,10,-6,-5,-2,-2,14.585
2918,3,6,2,-42,-4,-1,0,-1,14.59
2919,-5,-21,-14,-10,-4,-2,-2,0,14.595
2920,0,-11,-5,-7,-2,0,1,-1,14.6
2921,4,39,3,0,5,0,-1,-1,14.605
2922,0,5,3,17,0,-2,-3,0,14.61
2923,1,5,3,19,-4,-2,-1,-1,14.615
2924,-5,-10,-15,-39,6,-1,0,0,14.620000000000001
2925,1,2,8,18,3,0,1,0,14.625
2926,5,20,-2,-7,-5,-1,-1,-1,14.63
2927,-2,4,1,-3,4,1,-1,-1,14.635
2928,-5,-46,-8,13,-5,-2,-2,-3,14.64
2929,2,8,15,14,1,-3,-2,1,14.645
2930,-3,1,-22,-35,-1,-1,0,0,14.65
2931,0,-9,8,9,-4,-1,-1,-2,14.655000000000001
2932,-1,-5,-11,11,4,1,1,0,14.66
2933,1,-7,1,-17,3,0,-1,0,14.665000000000001
2934,-3,-23,21,3,3,2,-1,-2,14.67
2935,-1,1,-4,5,-2,-1,0,-1,14.675
2936,-1,-8,-1,-19,-3,-4,-1,-1,14.68
2937,4,25,10,10,3,0,2,1,14.685
2938,-2,-2,-15,9,-7,-6,-5,-2,14.69
2939,-1,-2,10,-19,1,1,2,1,14.695
2940,-2,4,-4,-10,-2,0,-2,-2,14.700000000000001
2941,-1,-4,1,-24,-8,0,0,0,14.705
2942,0,-2,5,18,5,3,2,2,14.71
2943,0,25,1,-14,6,-1,0,0,14.715
2944,0,32,11,6,-11,-2,-3,-1,14.72
2945,-2,-13,8,15,8,-2,-3,-2,14.725
2946,3,13,1,-7,-8,-3,-2,-2,14.73
2947,-8,-44,-22,-5,-7,-3,-3,-3,14.735
2948,-7,-22,4,8,0,-2,-3,-1,14.74
2949,2,13,-18,-9,-6,-1,-1,-2,14.745000000000001
2950,-1,6,-3,2,-3,-1,-3,-1,14.75
2951,3,14,6,21,7,1,-1,-1,14.755
2952,-1,-9,-4,-57,2,1,1,0,14.76
2953,-4,-28,7,19,-2,-1,-2,-1,14.765
2954,0,-8,-3,13,4,3,3,2,14.77
2955,-2,2,11,-16,-4,-2,-1,0,14.775
2956,-11,-53,-13,6,-5,-4,-1,0,14.780000000000001
2957,4,24,6,0,-3,-2,-2,-1,14.785
2958,1,1,-5,18,1,1,1,-1,14.790000000000001
2959,4,1,18,13,2,3,-1,0,14.795
2960,1,17,10,-15,2,2,1,-1,14.8
2961,-6,-5,-9,-6,0,-1,1,-2,14.805
2962,0,3,12,1,-6,-2,-2,-2,14.81
2963,1,5,5,24,7,0,0,0,14.815
2964,0,-12,0,-29,2,0,1,2,14.82
2965,-9,-14,-16,35,-9,-5,-1,-4,14.825000000000001
2966,-5,-14,-11,-41,-2,-1,0,-2,14.83
2967,-2,-9,3,-3,-2,2,2,-1,14.835
2968,5,11,9,40,1,-1,0,0,14.84
2969,2,2,7,-24,2,0,1,1,14.845
2970,-2,-4,-2,30,-5,-1,0,1,14.85
2971,0,8,-14,-21,0,-4,-3,-2,14.855
2972,1,25,6,-10,-2,0,-2,-1,14.86
2973,-1,-14,0,20,2,0,-1,1,14.865
2974,1,14,1,-6,0,-1,-2,-2,14.870000000000001
2975,2,-23,-18,-25,-9,-4,-2,-1,14.875
2976,0,-3,-5,29,-3,1,1,1,14.88
2977,5,38,-3,-29,2,-2,-2,0,14.885
2978,-2,6,1,58,8,2,-2,0,14.89
2979,2,25,-10,-28,-1,-1,-3,-1,14.895
2980,4,59,13,-8,-2,-1,-2,-3,14.9
2981,-1,-19,-3,11,-4,1,2,0,14.905000000000001
2982,-1,-5,-11,-30,-8,-1,0,-2,14.91
2983,3,25,10,13,2,-1,-2,-1,14.915000000000001
2984,1,8,3,16,2,-2,-1,-3,14.92
2985,-3,-17,7,8,-2,0,-1,0,14.925
2986,-3,-20,4,-18,1,-2,-1,-2,14.93
2987,-1,-14,1,5,-1,-1,0,0,14.935
2988,-1,-8,3,-9,0,-2,-1,0,14.94
2989,-1,-5,18,8,-1,0,-1,0,14.945
2990,-5,-22,-21,3,0,-2,0,-1,14.950000000000001
2991,-1,3,-3,-1,-9,-2,-1,0,14.955
2992,3,15,4,-7,5,0,0,-1,14.96
2993,-6,-45,-27,-4,-1,2,1,-1,14.965
2994,0,10,17,-32,7,2,1,-1,14.97
2995,-2,-2,2,28,-11,-3,0,-1,14.975
2996,2,2,8,60,14,2,-1,0,14.98
2997,-1,-10,-4,-36,-8,-6,-4,-4,14.985
2998,1,-1,-15,-21,-8,-4,-2,0,14.99
2999,-3,-15,-5,-28,-3,1,2,1,14.995000000000001
3000,2,15,0,9,0,-3,-3,-2,15.0
3001,3,17,0,8,1,0,0,-1,15.005
3002,-2,-11,-4,25,4,1,1,0,15.01
3003,-2,-8,-9,-16,2,-3,-2,-1,15.015
3004,-2,-10,-9,-5,-6,0,2,0,15.02
3005,-2,-5,2,-1,1,-1,-1,1,15.025
3006,-1,4,15,11,-1,-2,-1,0,15.030000000000001
3007,-2,-11,0,3,2,0,0,-2,15.035
3008,7,44,-12,-36,-9,-4,-2,0,15.040000000000001
3009,-4,0,-9,23,5,2,-1,-1,15.045
3010,-3,-18,2,-8,-1,-2,-4,0,15.05
3011,-5,-16,9,7,-20,-4,-1,-2,15.055
3012,0,-4,-6,-13,22,6,0,0,15.06
3013,2,16,18,-9,-6,-2,0,1,15.065
3014,2,3,7,18,6,1,0,1,15.07
3015,-2,9,-12,1,0,-2,-1,-1,15.075000000000001
3016,-3,9,9,-19,-16,-5,-3,-2,15.08
3017,-6,7,-14,-4,4,3,2,2,15.085
3018,1,9,-3,-11,-3,-1,-2,0,15.09
3019,-5,-17,3,-4,2,-1,2,0,15.095
3020,1,-15,15,48,1,1,1,1,15.1
3021,-1,-4,-25,-5,1,-2,-2,-4,15.105
3022,0,10,13,-17,-8,-5,0,-1,15.11
3023,2,-7,9,-6,7,3,-1,0,15.115
3024,-5,-5,-14,8,-6,-3,-4,-2,15.120000000000001
3025,0,1,9,-1,-1,1,1,1,15.125
3026,-3,-1,5,-1,4,0,-1,-1,15.13
3027,-3,38,7,2,-5,-2,-2,-3,15.135
3028,3,13,22,0,5,-1,0,-1,15.14
3029,-2,-1,-12,-13,-7,-3,-2,-1,15.145
3030,-2,10,-14,11,0,-2,0,-2,15.15
3031,2,5,12,-8,2,0,0,0,15.155000000000001
3032,-2,-21,3,32,4,3,-2,-1,15.16
3033,-2,5,5,-36,-7,-1,-1,-1,15.165000000000001
3034,4,-6,13,5,2,3,1,0,15.17
3035,-2,0,-1,-7,-5,-1,0,0,15.175
3036,1,11,16,-3,-1,-2,-2,-1,15.18
3037,1,-9,12,17,-3,-2,-1,-2,15.185
3038,3,-21,-10,-14,4,1,1,0,15.19
3039,-2,3,-5,23,-5,1,-1,-1,15.195
3040,-4,-16,0,-13,5,0,0,1,15.200000000000001
3041,0,3,3,-2,-4,0,-1,-1,15.205
3042,-5,-12,-10,12,-1,-2,-1,-2,15.21
3043,-1,1,1,5,-1,-1,-1,0,15.215
3044,-1,-16,-9,-14,-3,-1,0,0,15.22
3045,-6,-39,-16,11,-4,-1,-1,-1,15.225
3046,-5,0,6,-8,12,-2,0,-1,15.23
3047,5,35,6,-28,-4,-6,-2,-1,15.235
3048,-1,-15,7,21,-6,-2,0,0,15.24
3049,-1,-2,3,2,0,-1,0,0,15.245000000000001
3050,-2,5,-32,-7,-8,-3,-3,-2,15.25
3051,-3,-30,6,-2,3,-1,-1,0,15.255
3052,-5,-18,-11,-17,-11,-2,-1,-2,15.26
3053,7,14,6,51,4,2,-1,0,15.265
3054,2,11,6,-50,19,6,1,1,15.27
3055,1,-1,7,19,0,-1,-1,0,15.275
3056,-5,-53,-25,-22,-8,-1,0,0,15.280000000000001
3057,-4,1,-6,30,3,-1,-1,-1,15.285
3058,-3,-5,-16,-2,-24,-5,-1,-1,15.290000000000001
3059,4,14,9,-17,18,3,0,0,15.295
3060,0,23,14,4,4,0,0,-1,15.3
3061,2,4,-4,-21,-5,-3,-1,-1,15.305
3062,-4,-13,9,9,-6,-3,-3,-1,15.31
3063,-3,-26,-6,7,-2,1,1,1,15.315
3064,-3,6,-9,6,-3,-4,-3,-2,15.32
3065,1,-8,-2,-22,6,0,1,0,15.325000000000001
3066,2,16,14,7,-6,-1,-2,-2,15.33
3067,2,14,-2,0,4,1,1,1,15.335
3068,0,10,5,3,0,0,1,0,15.34
3069,1,-10,-4,-7,-5,-4,-1,-1,15.345
3070,1,11,-7,-3,-4,-1,-3,-3,15.35
3071,-1,-1,1,14,-14,-3,-2,-2,15.355
3072,3,4,-8,-23,9,0,-1,-3,15.36
3073,-1,-6,10,-18,9,2,1,-1,15.365
3074,1,21,11,43,0,-2,0,0,15.370000000000001
3075,3,19,-8,-32,-5,-3,-1,-2,15.375
3076,-2,10,-4,3,-9,-4,0,-1,15.38
3077,-7,-17,-6,-16,-4,1,-1,0,15.385
3078,-5,-14,-12,-12,5,2,3,2,15.39
3079,-2,3,-14,14,-5,-3,-2,-3,15.395
3080,0,-14,8,-18,-3,0,-1,0,15.4
3081,10,42,14,-11,13,1,-3,-1,15.405000000000001
3082,-5,-32,20,39,-3,2,4,1,15.41
3083,-4,10,-10,-15,2,1,-1,-1,15.415000000000001
3084,-3,-11,5,5,-6,-3,-2,-1,15.42
3085,1,20,3,-7,-4,0,-1,-2,15.425
3086,-2,-8,-14,21,-4,-1,-1,0,15.43
3087,-2,-17,-7,-19,1,1,1,0,15.435
3088,-4,-29,2,-4,-3,-1,1,0,15.44
3089,-3,-12,-2,16,6,0,0,-1,15.445
3090,-1,-2,-1,2,-6,-3,-2,-2,15.450000000000001
3091,-4,-19,-4,6,3,0,-2,-1,15.455
3092,0,11,-9,29,0,2,-1,-1,15.46
3093,3,9,15,-17,-4,-2,-2,0,15.465
3094,2,10,-5,-11,0,-2,0,0,15.47
3095,1,29,1,-7,-7,-4,-2,-1,15.475
3096,-1,7,-8,-19,-9,-6,-2,-1,15.48
3097,4,15,7,27,-3,-5,-4,-2,15.485000000000001
3098,-4,-18,9,-39,12,4,1,1,15.49
3099,0,-17,0,16,0,0,0,-1,15.495000000000001
3100,-3,-21,18,-3,4,3,2,-1,15.5
3101,-2,0,0,32,-4,-2,1,-1,15.505
3102,-3,-22,-1,-45,-8,-3,-2,-2,15.51
3103,-3,-4,-5,-18,1,0,-2,0,15.515
3104,3,20,4,16,2,-3,-3,-2,15.52
3105,-7,-40,-2,-15,4,1,1,1,15.525
3106,-3,1,21,17,-3,0,-1,-1,15.530000000000001
3107,0,-14,0,22,9,4,1,-1,15.535
3108,-2,9,9,-18,-5,-1,-1,-1,15.540000000000001
3109,3,15,6,8,-4,-1,-1,0,15.545
3110,5,18,-6,19,-1,-3,0,-1,15.55
3111,-7,-10,10,-2,7,1,1,-1,15.555
3112,1,1,-1,-20,-2,0,-1,0,15.56
3113,-3,15,-9,-2,1,-1,0,-3,15.565
3114,-1,-7,3,17,-7,-2,-1,0,15.57
3115,0,1,14,9,-7,-3,-3,-1,15.575000000000001
3116,-4,-10,-26,-17,4,1,-1,0,15.58
3117,-4,-18,-7,-6,6,1,0,-2,15.585
3118,8,34,2,-14,-5,-5,-4,-2,15.59
3119,-4,-7,-17,6,-4,-3,1,0,15.595
3120,2,13,14,18,1,-1,1,1,15.6
3121,1,-10,-4,-24,-3,-1,1,0,15.605
3122,1,-5,-14,6,1,1,0,0,15.610000000000001
3123,4,-26,20,26,-4,1,1,1,15.615
3124,-3,-8,-16,-16,7,0,-2,0,15.620000000000001
3125,-5,-10,-15,12,-4,0,1,0,15.625
3126,-3,-3,5,58,0,-1,-4,-1,15.63
3127,0,5,-30,-97,-7,-5,-2,-1,15.635
3128,-3,-5,10,4,2,2,1,0,15.64
3129,-2,-14,-1,-5,-5,1,-1,1,15.645
3130,1,2,-1,-12,-1,-3,-1,-1,15.65
3131,0,5,-5,23,-1,-3,-2,-1,15.655000000000001
3132,1,-3,-8,-7,-1,-1,-1,-1,15.66
3133,-2,3,-8,0,-4,-2,-1,0,15.665000000000001
3134,2,1,0,-2,0,-1,-1,0,15.67
3135,0,1,0,10,6,3,-1,0,15.675
3136,-4,-29,-11,-15,-9,1,2,0,15.68
3137,-2,-10,-4,5,-1,-1,-1,-1,15.685
3138,-5,-10,-11,-24,2,0,-1,0,15.69
3139,1,10,18,21,1,2,0,0,15.695
3140,0,1,2,20,-3,0,1,0,15.700000000000001
3141,1,22,-6,-26,-3,-3,-1,-3,15.705
3142,1,-14,-2,2,-3,0,-1,1,15.71
3143,0,6,-3,2,1,-2,-1,0,15.715
3144,-5,-28,-1,9,3,-2,-2,-1,15.72
3145,0,15,-10,43,-3,-1,-4,-2,15.725
3146,-1,4,6,-61,3,3,3,0,15.73
3147,1,27,9,20,0,2,2,2,15.735000000000001
3148,-1,-10,-12,-1,-6,-3,-2,1,15.74
3149,-3,-25,-12,4,-5,-2,-1,0,15.745000000000001
3150,-1,-1,-8,5,-1,-1,-1,-1,15.75
3151,1,6,0,2,-1,-2,-4,-3,15.755
3152,0,7,26,-14,0,-1,-1,-1,15.76
3153,-6,-12,10,5,11,5,2,1,15.765
3154,-2,-11,1,-8,-5,-2,0,-1,15.77
3155,-9,-36,-10,-14,-8,0,1,-2,15.775
3156,-1,-23,-1,29,3,0,-4,-4,15.780000000000001
3157,2,5,-7,-22,-8,-4,-1,-1,15.785
3158,7,14,-2,4,2,1,0,1,15.790000000000001
3159,5,32,5,-3,12,1,1,-1,15.795
3160,-10,-18,-1,8,-6,-3,-5,-4,15.8
3161,-1,-12,7,-18,-1,2,1,1,15.805
3162,1,35,5,13,-3,-1,0,0,15.81
3163,1,-8,-5,-3,-4,1,-1,2,15.815
3164,2,16,-8,-33,-1,-3,-2,-2,15.82
3165,1,7,7,9,5,-3,-2,-1,15.825000000000001
3166,-2,2,-2,21,4,4,2,1,15.83
3167,6,1,5,-19,-3,0,-1,-1,15.835
3168,-2,-13,-2,28,-10,2,1,1,15.84
3169,-4,2,12,-55,7,0,-2,-2,15.845
3170,-7,-49,6,9,-2,-4,-3,-5,15.85
3171,-6,-21,-5,-15,3,2,0,-1,15.855
3172,7,63,7,2,-10,-8,-3,0,15.860000000000001
3173,3,-4,-2,52,-10,-1,1,0,15.865
3174,-9,-45,-14,-42,3,3,1,1,15.870000000000001
3175,-19,-70,-4,-16,16,2,2,3,15.875
3176,2,-12,5,14,1,3,0,1,15.88
3177,3,10,1,0,7,0,-2,0,15.885
3178,-3,12,11,-13,-12,-5,-2,-3,15.89
3179,8,4,11,15,-17,-4,-2,-1,15.895
3180,-11,-18,5,-3,22,3,-1,0,15.9
3181,0,-12,-6,-16,-20,-2,1,-2,15.905000000000001
3182,4,12,-6,29,-10,-4,-3,-3,15.91
3183,-2,0,-15,-18,3,-2,-1,-2,15.915000000000001
3184,20,31,17,71,-7,1,3,5,15.92
3185,-17,-7,-17,-68,3,-2,-3,-1,15.925
3186,2,4,11,0,21,1,0,-2,15.93
3187,-5,30,-2,30,-20,1,2,0,15.935
3188,-3,-4,-21,-40,-16,-7,-1,-1,15.94
3189,-6,-24,14,-6,37,15,6,-2,15.945
3190,-18,10,7,-64,-6,-7,-7,-10,15.950000000000001
3191,13,-7,28,7,-11,-12,-12,-6,15.955
3192,-8,-14,-6,18,-49,-13,-8,-9,15.96
3193,-6,-29,-8,-39,37,15,8,10,15.965
3194,6,29,-13,4,-16,-5,-2,4,15.97
3195,19,65,30,93,5,1,0,0,15.975
3196,-4,-1,-6,-91,-27,1,1,-1,15.98
3197,-8,-3,-6,89,22,-4,-6,-5,15.985000000000001
3198,10,2,13,15,7,4,4,8,15.99
3199,15,-17,-41,-5,-3,5,10,23,15.995000000000001
3200,-8,12,-66,-45,56,1,-3,-23,16.0
3201,-2,-6,-11,25,-43,-11,-5,-14,16.005
3202,-12,-91,-64,73,5,-8,-9,0,16.01
3203,-5,41,-4,-55,38,6,3,-1,16.015
3204,22,44,-19,51,-17,2,-1,13,16.02
3205,-25,-18,-38,-85,0,-2,-8,-31,16.025
3206,10,-12,-2,39,17,-5,-7,-4,16.03
3207,-31,-80,-65,37,-45,-12,-3,1,16.035
3208,17,-9,-60,68,7,6,14,29,16.04
3209,-13,25,36,-32,3,7,5,11,16.045
3210,17,-4,-61,-28,-42,2,6,4,16.05
3211,1,36,74,40,-14,1,0,0,16.055
3212,-8,-26,-2,-36,5,-1,6,5,16.06
3213,29,8,-48,-56,48,3,5,8,16.065
3214,-18,3,-91,71,55,10,3,-32,16.07
3215,-7,19,-128,11,-27,-9,-13,-27,16.075
3216,-16,-36,-99,-83,-14,9,7,-6,16.080000000000002
3217,45,-14,-37,82,-42,-8,6,47,16.085
3218,-6,43,75,28,-5,1,0,-9,16.09
3219,-1,42,78,-46,-8,2,-2,-20,16.095
3220,-20,-33,103,-12,83,12,-1,8,16.1
3221,1,12,68,-89,11,-1,-1,-13,16.105
3222,-15,-27,75,65,-49,-10,-4,-4,16.11
3223,13,42,63,-2,-1,-1,0,14,16.115000000000002
3224,15,49,61,91,-44,-3,1,6,16.12
3225,32,26,33,34,-27,-4,7,6,16.125
3226,-12,71,39,-28,101,34,14,49,16.13
3227,-48,-18,11,-53,-54,-23,-29,-77,16.135
3228,-2,-14,32,-30,29,3,-5,-7,16.14
3229,-4,-7,5,39,-11,-7,-9,-13,16.145
3230,39,42,8,62,-95,-9,4,16,16.15
3231,8,-62,5,-53,127,25,20,42,16.155
3232,-4,47,14,41,-38,-8,-10,-16,16.16
3233,-6,-20,2,78,-55,-10,-7,-7,16.165
3234,5,44,3,-114,-34,-11,-2,25,16.17
3235,3,-62,3,-65,14,6,-2,-13,16.175
3236,-9,-2,10,31,-5,-4,1,1,16.18
3237,-1,55,-7,-67,19,-6,-11,-14,16.185
3238,-46,-125,4,33,-42,-11,-14,-40,16.19
3239,-6,-34,-2,-81,47,5,0,15,16.195
3240,27,89,4,65,-37,-11,1,4,16.2
3241,4,1,-3,-96,24,9,3,2,16.205000000000002
3242,2,-6,1,4,16,-4,-6,-8,16.21
3243,-15,24,0,92,-24,-13,-11,-4,16.215
3244,-3,-38,3,13,-53,-6,-1,0,16.22
3245,24,53,-2,-24,44,16,14,23,16.225
3246,2,37,2,36,10,6,2,0,16.23
3247,13,-44,-3,-54,93,12,11,4,16.235
3248,-23,-44,3,19,-2,-3,-4,9,16.240000000000002
3249,-13,48,-2,127,-77,-19,-10,-25,16.245
3250,-7,-61,-1,-128,102,10,-3,1,16.25
3251,-14,-30,-1,2,-53,-2,-1,-4,16.255
3252,1,-30,1,42,-24,-9,-3,-1,16.26
3253,0,11,-1,28,-23,4,-1,2,16.265
3254,4,15,0,-83,22,-3,4,-2,16.27
3255,40,67,0,109,-37,-6,2,33,16.275
3256,24,38,2,-128,53,16,8,-10,16.28
3257,-44,-9,-3,78,-15,-10,-20,-27,16.285
3258,10,-8,0,82,-110,-18,-3,12,16.29
3259,8,2,-1,-101,63,27,17,42,16.295
3260,-3,35,0,86,-67,-12,-14,-52,16.3
3261,-1,-37,-1,-114,101,14,4,12,16.305
3262,12,-10,1,-7,-71,-10,2,-6,16.31
3263,-14,5,-1,127,-54,-20,-13,-10,16.315
3264,-5,-26,0,-36,49,7,1,9,16.32
3265,-11,-29,-1,-44,-16,7,2,-4,16.325
3266,-50,-53,0,-26,4,-7,-11,-20,16.330000000000002
3267,56,107,-1,68,-70,-4,12,44,16.335
3268,5,27,0,-127,108,10,-3,-19,16.34
3269,-13,-25,-1,-50,-20,-14,-12,-13,16.345
3270,8,19,-1,66,1,8,5,10,16.35
3271,-11,-37,-1,-26,-21,-5,1,-2,16.355
3272,2,44,-1,-73,59,16,9,15,16.36
3273,-14,-15,-1,110,-30,-15,-10,-3,16.365000000000002
3274,27,50,-1,-73,22,6,3,-5,16.37
3275,-11,-24,-1,65,-47,-7,1,-10,16.375
3276,28,27,0,12,-5,5,5,31,16.38
3277,-36,-42,-1,-3,23,7,-2,-21,16.385
3278,-12,37,-1,64,-62,-22,-16,-30,16.39
3279,8,2,-1,-60,33,-1,5,5,16.395
3280,-19,-112,0,44,-17,-2,6,15,16.4
3281,37,36,-1,99,-50,2,13,20,16.405
3282,-12,-28,-1,87,-13,-3,-8,-29,16.41
3283,-31,-23,0,-93,26,4,-9,-33,16.415
3284,11,2,-1,38,-21,-5,-1,24,16.42
3285,-2,24,-1,1,16,-3,1,4,16.425
3286,26,1,0,98,-40,0,8,8,16.43
3287,2,18,-1,-117,40,9,3,-1,16.435
3288,-32,-67,0,-47,32,9,-6,-11,16.44
3289,-2,-44,-1,-29,-35,-9,0,5,16.445
3290,19,70,-1,10,-28,-4,7,11,16.45
3291,1,-58,0,-15,62,20,9,10,16.455000000000002
3292,-5,3,0,69,-75,-24,-16,-12,16.46
3293,14,-8,-1,115,-80,-15,-3,-4,16.465
3294,-14,-30,-1,-128,122,23,9,15,16.47
3295,-22,30,0,112,-70,-18,-10,-27,16.475
3296,16,-36,-1,83,-73,-20,-2,28,16.48
3297,20,-8,-1,-128,127,45,21,9,16.485
3298,-19,11,-1,59,-34,-15,-14,-18,16.490000000000002
3299,8,9,-1,101,-57,-15,-8,-8,16.495
3300,-5,44,-1,-104,96,16,2,-5,16.5
3301,-6,30,-1,10,-55,-15,-3,3,16.505
3302,-2,17,0,-31,31,9,1,-5,16.51
3303,-5,9,-1,1,-41,-7,-5,-21,16.515
3304,6,24,-1,-36,0,2,2,26,16.52
3305,-12,-11,-1,-15,-17,-7,-2,5,16.525
3306,-1,-4,-1,-26,47,8,1,6,16.53
3307,4,29,0,108,-71,-19,-8,-8,16.535
3308,-11,-7,-1,-100,53,10,0,-19,16.54
3309,3,-8,-1,-38,35,8,1,-7,16.545
3310,-12,-53,-1,50,-32,-16,-6,-9,16.55
3311,6,-2,-1,24,1,5,0,7,16.555
3312,-3,47,-1,81,-45,-8,-5,-37,16.56
3313,22,37,-1,10,-21,-4,5,27,16.565
3314,3,-31,-1,-35,33,9,1,8,16.57
3315,-9,-2,-1,-23,14,0,0,6,16.575
3316,-7,-91,0,18,-22,-4,-10,-14,16.580000000000002
3317,-9,-11,-1,37,7,-1,8,-15,16.585
3318,16,36,5,-121,5,6,0,15,16.59
3319,-7,-15,7,-7,6,-2,2,-10,16.595
3320,3,10,2,32,-17,-8,-8,-5,16.6
3321,-10,-17,11,9,18,4,-5,8,16.605
3322,3,0,3,14,-19,-5,2,10,16.61
3323,-2,-22,6,-48,13,2,3,3,16.615000000000002
3324,-5,20,1,-15,-26,-4,13,-13,16.62
3325,8,0,2,43,-12,-9,-9,28,16.625
3326,-1,-9,4,-28,8,1,1,-9,16.63
3327,6,5,0,-39,10,7,-6,2,16.635
3328,-11,-4,-1,42,-7,-3,3,-7,16.64
3329,-2,1,-1,-4,-17,-3,9,2,16.645
3330,4,7,3,6,7,-2,-9,-6,16.65
3331,4,28,-3,-35,-1,-1,-2,-3,16.655
3332,3,19,-3,22,8,4,3,4,16.66
3333,-3,-10,1,12,3,1,4,-3,16.665
3334,1,24,-3,59,-33,-6,-3,-1,16.67
3335,-5,-3,-2,-95,27,3,-3,1,16.675
3336,-2,8,-1,15,1,-2,-3,-2,16.68
3337,-1,-15,0,-3,-13,-4,-9,-10,16.685
3338,-1,-14,-2,-2,5,3,6,5,16.69
3339,-5,-5,0,15,-9,-3,0,-5,16.695
3340,2,-8,0,-7,-8,0,-3,3,16.7
3341,0,-15,11,-10,-6,-2,-5,-11,16.705000000000002
3342,0,11,10,6,8,2,2,2,16.71
3343,0,-6,3,15,4,-2,4,7,16.715
3344,2,-1,5,-14,-2,-1,-7,-4,16.72
3345,1,7,3,24,1,-3,-7,-6,16.725
3346,-2,-7,1,-29,-4,-2,10,6,16.73
3347,-2,-18,0,32,6,5,-2,3,16.735
3348,-3,-12,2,-14,-4,-2,-2,2,16.740000000000002
3349,1,5,0,16,0,0,-1,-8,16.745
3350,4,1,106,-21,6,4,0,4,16.75
3351,-4,-4,124,7,3,-4,-2,-3,16.755
3352,3,-5,127,4,-9,3,6,6,16.76
3353,1,38,127,-17,3,-1,-9,-7,16.765
3354,-1,-6,5,23,-7,-1,-3,2,16.77
3355,-1,13,-101,-32,9,-1,-3,-1,16.775
3356,-3,-21,-71,4,2,0,-5,0,16.78
3357,-4,-3,-73,-7,-3,-3,-3,-3,16.785
3358,-3,6,-98,14,-4,-3,-3,-1,16.79
3359,7,10,-91,7,-4,1,-3,0,16.795
3360,-5,4,-128,-12,-6,-6,-3,-2,16.8
3361,-1,-4,-126,-19,3,0,1,2,16.805
3362,-1,-11,-107,7,-9,-2,-2,-1,16.81
3363,-3,-39,-113,-3,-4,-3,-2,-4,16.815
3364,2,31,-75,-4,4,1,1,-1,16.82
3365,-3,-15,-63,7,-4,-1,2,0,16.825
3366,3,23,-60,9,6,1,2,-1,16.830000000000002
3367,-4,-24,-34,-9,-5,-3,-4,-2,16.835
3368,-1,4,-13,-15,-5,-3,-5,1,16.84
3369,0,-3,-24,8,-6,-1,11,-5,16.845
3370,-8,-36,-32,17,6,5,-1,-1,16.85
3371,-2,-2,6,32,2,-2,3,2,16.855
3372,13,58,0,-14,-7,-5,-5,-4,16.86
3373,-1,-4,-26,15,0,-2,-4,1,16.865000000000002
3374,4,6,-5,-54,16,5,2,0,16.87
3375,5,27,10,17,-1,2,3,1,16.875
3376,-5,15,-4,4,-6,0,1,-1,16.88
3377,-4,-3,-10,-4,-4,-4,-2,-4,16.885
3378,3,12,2,16,-9,-7,0,-2,16.89
3379,-3,-24,6,-21,-3,1,-1,-2,16.895
3380,0,-19,-7,12,8,4,6,1,16.9
3381,3,11,-1,-3,1,2,1,1,16.905
3382,-5,-38,1,7,0,2,0,1,16.91
3383,-4,-1,-4,-26,-6,-7,-6,-5,16.915
3384,-2,-28,0,64,4,2,5,1,16.92
3385,-3,1,-39,-37,-2,0,-1,-1,16.925
3386,-1,6,-66,19,0,-3,-3,-3,16.93
3387,0,-7,-49,-9,4,2,4,0,16.935
3388,0,-4,-21,-10,3,-1,4,-1,16.94
3389,1,6,-23,15,3,0,-1,1,16.945
