slno,emg1,emg2,emg3,emg4,emg5,emg6,emg7,emg8,Time
0,1,-1,0,3,-1,0,-1,-1,0.0
1,-1,-2,-1,2,-2,0,-1,0,0.005
2,-1,-1,0,1,0,1,-2,0,0.01
3,0,1,-1,-11,-4,-2,0,-1,0.015
4,0,1,-2,7,3,-2,-1,-1,0.02
5,0,-3,0,0,-1,-2,2,0,0.025
6,0,-1,-1,0,-2,0,-2,-2,0.03
7,1,0,4,6,-6,-4,-2,-2,0.035
8,0,1,-4,-13,5,2,1,-1,0.04
9,-2,-4,-1,-5,-2,-3,-2,-4,0.045
10,-2,1,1,-1,-1,-1,-1,-2,0.05
11,0,0,-2,3,-1,-1,0,0,0.055
12,-1,0,2,2,-5,-2,0,-2,0.06
13,-1,-1,2,2,1,1,0,0,0.065
14,-1,-2,-1,-2,0,-1,1,-2,0.07
15,-1,-1,-3,0,-1,0,-2,-2,0.075
16,-1,-3,-2,-1,-1,-1,-2,-3,0.08
17,-1,2,-1,2,-2,-2,0,0,0.085
18,-1,-1,-2,-15,-3,-1,0,-1,0.09
19,-2,-3,-2,3,3,-2,-1,-1,0.095
20,0,0,0,9,-1,-1,-1,0,0.1
21,1,6,1,-11,1,0,-1,-1,0.105
22,-3,-7,-2,5,-5,0,-1,0,0.11
23,-1,-2,-4,-13,1,-1,0,0,0.115
24,0,-1,0,-2,-3,-2,0,0,0.12
25,-1,-1,-2,-4,-3,-2,0,-1,0.125
26,-1,-1,-2,1,0,-1,-2,0,0.13
27,-1,0,1,2,0,0,-1,0,0.135
28,0,-1,0,0,-2,-2,-2,0,0.14
29,-1,-1,-2,-1,0,-1,0,-1,0.145
30,-2,2,-1,-2,-2,-1,0,-1,0.15
31,0,-3,-4,0,-2,0,0,-1,0.155
32,-2,0,-2,0,-1,1,-2,-1,0.16
33,1,-1,-3,0,0,0,-1,-1,0.165
34,-1,0,1,-3,-3,-2,0,0,0.17
35,0,0,1,-3,0,-1,0,1,0.17500000000000002
36,0,1,-1,-1,2,2,-1,-1,0.18
37,0,-2,1,9,-1,-2,0,-2,0.185
38,-2,-10,-2,-7,3,1,-1,0,0.19
39,-1,1,-1,-5,-4,-3,0,0,0.195
40,0,-1,-2,1,1,-1,-1,0,0.2
41,-1,-2,-2,-11,-3,0,0,0,0.20500000000000002
42,0,2,1,1,1,0,1,0,0.21
43,-1,-4,-2,3,-3,0,0,0,0.215
44,-1,0,0,2,-1,-1,0,-2,0.22
45,0,2,1,-2,-1,0,-1,0,0.225
46,-1,-2,-3,4,-2,0,-1,0,0.23
47,0,3,2,-2,0,-3,-1,-1,0.23500000000000001
48,-1,-1,-2,-1,-4,-1,-1,1,0.24
49,0,-2,0,11,2,1,-1,1,0.245
50,0,-1,-1,-3,-5,-2,-2,-2,0.25
51,0,-2,-2,-13,9,0,1,-2,0.255
52,-2,2,0,-4,-4,-2,0,-1,0.26
53,0,0,0,-1,-1,-1,0,0,0.265
54,0,0,0,2,-3,0,-2,-1,0.27
55,-1,1,0,-1,-5,0,-1,0,0.275
56,-1,-3,2,0,-2,-1,-1,0,0.28
57,-1,0,-1,-3,4,1,-2,0,0.28500000000000003
58,0,1,-2,2,-2,-1,-1,-1,0.29
59,-1,-4,-1,-2,-4,-1,-1,-2,0.295
60,-1,-2,0,3,0,0,0,1,0.3
61,-2,-1,-2,-11,-3,-1,0,1,0.305
62,-2,-1,-3,-3,3,-3,0,-1,0.31
63,-1,-1,-1,7,-2,-1,-2,-1,0.315
64,-2,-1,-3,-6,0,0,-1,-2,0.32
65,-1,-1,1,-1,-3,-2,-1,-1,0.325
66,-1,-1,-1,4,1,-1,-1,2,0.33
67,-2,0,-1,5,-2,1,-2,-1,0.335
68,-2,0,0,0,1,-1,-1,0,0.34
69,-1,0,1,6,-5,-1,-2,-2,0.34500000000000003
70,-2,-2,-2,-9,3,3,0,-2,0.35000000000000003
71,-1,-2,-1,-15,1,2,1,0,0.355
72,1,2,-1,4,2,0,-2,1,0.36
73,1,-1,1,3,-1,-2,-1,-1,0.365
74,-1,2,2,2,-4,-2,-1,-1,0.37
75,0,-1,1,1,-5,-2,0,-1,0.375
76,-2,-1,-1,3,3,0,1,-1,0.38
77,1,2,-2,2,3,-1,0,1,0.385
78,0,-2,0,-5,-2,0,-1,-1,0.39
79,0,-4,-1,-1,1,-1,-2,-1,0.395
80,-1,-1,1,-7,-4,-2,0,0,0.4
81,-2,-3,-3,-2,0,0,-1,0,0.405
82,-1,1,-1,3,1,1,-2,1,0.41000000000000003
83,1,0,1,5,0,-1,0,-1,0.41500000000000004
84,0,2,0,13,-3,-1,-1,0,0.42
85,-2,1,1,-7,-3,1,0,-2,0.425
86,1,-2,-2,-9,3,0,1,0,0.43
87,-2,-2,1,2,-1,-1,0,-1,0.435
88,1,-1,0,1,-3,-2,-2,-2,0.44
89,1,-1,0,-8,0,-2,0,0,0.445
90,-2,-3,-5,2,-5,-2,-2,-1,0.45
91,1,2,-1,9,-3,-1,-2,0,0.455
92,0,-2,-2,-21,1,2,0,-1,0.46
93,-2,-2,1,9,1,0,-1,-1,0.465
94,-1,-2,0,-5,-1,-1,0,-3,0.47000000000000003
95,-1,-2,-2,4,0,-2,-1,-1,0.47500000000000003
96,1,-3,2,11,-4,-1,0,-1,0.48
97,-1,0,-3,-14,2,-1,0,0,0.485
98,0,2,2,9,2,-1,0,1,0.49
99,-1,-2,-3,-14,-1,0,-1,0,0.495
100,-1,-1,0,27,1,-1,-1,-1,0.5
101,-2,-3,-4,-22,0,-1,0,0,0.505
102,0,-1,0,3,-3,-1,0,-1,0.51
103,-1,2,0,3,3,-2,-1,-1,0.515
104,-1,-2,-4,-12,-3,-1,0,-2,0.52
105,-1,0,2,14,-3,0,-1,-1,0.525
106,0,0,1,-5,-4,-1,-1,0,0.53
107,1,0,0,-2,2,0,0,0,0.535
108,0,0,0,-6,0,-1,-1,0,0.54
109,-1,-1,-2,4,0,-1,-1,1,0.545
110,-1,0,1,-1,-3,0,0,-2,0.55
111,-1,-1,-2,-8,-1,-1,-1,-1,0.555
112,-1,5,2,13,-2,-1,0,-1,0.56
113,-1,-9,-5,-23,-5,0,-2,-3,0.5650000000000001
114,-1,0,-1,8,12,1,0,0,0.5700000000000001
115,-3,-1,1,6,-1,-1,1,0,0.5750000000000001
116,0,-1,-3,-7,-1,0,0,-1,0.58
117,-1,3,2,7,-4,0,0,-1,0.585
118,0,-1,-1,-4,-7,-3,-1,-1,0.59
119,1,0,-3,6,-2,1,-1,-1,0.595
120,-3,-4,-1,-10,2,-2,2,-1,0.6
121,-1,0,1,5,-1,-1,-1,0,0.605
122,-1,-2,-2,-6,-2,-1,0,-1,0.61
123,0,0,0,3,-2,-1,0,-2,0.615
124,0,-1,0,-7,-3,0,-2,-1,0.62
125,1,0,-2,8,1,-2,-1,-1,0.625
126,0,2,2,3,1,-1,-1,0,0.63
127,-2,-3,-2,-6,-6,-3,-4,-2,0.635
128,0,0,0,12,3,1,-1,0,0.64
129,-1,-3,-2,-17,-2,-1,0,-1,0.645
130,-1,-1,0,2,0,0,-1,0,0.65
131,-1,0,2,-3,-3,-1,0,2,0.655
132,-2,-3,-4,-7,-2,-1,-2,0,0.66
133,-2,2,1,25,-1,-2,0,0,0.665
134,0,-1,-1,-24,-3,-1,-1,0,0.67
135,-3,-1,3,-1,-5,0,-1,-3,0.675
136,0,-3,-6,-4,5,1,-1,-1,0.68
137,1,1,-1,0,0,-2,1,-1,0.685
138,0,-1,-2,7,-2,-1,-2,-1,0.6900000000000001
139,-1,-2,1,7,0,-3,-1,0,0.6950000000000001
140,0,0,2,-11,1,0,0,-1,0.7000000000000001
141,-1,-2,-1,3,-2,-1,-2,-3,0.705
142,0,1,-1,1,0,-1,-1,-2,0.71
143,0,0,1,-3,0,1,-1,0,0.715
144,-2,-1,-2,-2,-2,-1,-1,-1,0.72
145,0,0,-1,-2,2,0,-1,0,0.725
146,0,-2,-1,0,-2,-2,0,-1,0.73
147,-1,-1,2,19,3,-1,-1,-1,0.735
148,0,-2,-2,-13,0,-1,-2,-1,0.74
149,1,1,-2,-17,-3,-1,-1,0,0.745
150,-3,-4,-3,3,-1,0,-1,-1,0.75
151,1,0,-1,2,-1,-2,-2,-1,0.755
152,0,1,-2,-1,-1,-1,0,1,0.76
153,-2,-1,1,8,1,0,0,-1,0.765
154,0,-2,0,-2,-2,-1,1,-2,0.77
155,-1,1,-2,-6,0,1,-2,0,0.775
156,0,1,1,2,-8,-1,-2,-1,0.78
157,0,-2,1,7,2,0,-1,0,0.785
158,-1,0,0,-7,4,-1,-3,-1,0.79
159,-3,-2,-3,-3,0,-1,0,-1,0.795
160,0,1,0,-2,-5,-1,-1,-1,0.8
161,-1,-2,-2,2,-5,-1,-1,-2,0.805
162,0,-1,-2,0,0,-1,-1,0,0.81
163,0,-4,-1,-4,-4,0,0,-1,0.8150000000000001
164,-3,-2,1,-6,3,1,-1,0,0.8200000000000001
165,-2,2,-2,-15,-3,0,0,1,0.8250000000000001
166,-1,-1,0,3,-2,-2,-1,1,0.8300000000000001
167,0,0,-2,-6,1,-3,-2,-2,0.835
168,0,0,2,8,0,0,1,-1,0.84
169,-1,0,1,6,-1,-1,-1,-1,0.845
170,0,-1,1,4,-4,-2,-1,-1,0.85
171,1,0,-1,-18,-2,-1,-1,-2,0.855
172,-1,-2,-4,-7,7,2,0,0,0.86
173,0,-2,-2,6,-1,-3,-1,0,0.865
174,-3,1,0,-3,-2,-1,0,-1,0.87
175,0,-1,0,6,-3,-2,-1,-1,0.875
176,0,-2,0,-2,-5,-2,0,-2,0.88
177,0,0,-2,-7,0,-1,-2,0,0.885
178,-1,-1,1,4,-1,-3,-1,0,0.89
179,0,-1,-2,-2,2,0,1,-1,0.895
180,-1,0,-2,-2,-2,-2,0,-1,0.9
181,0,-1,0,4,-1,-1,0,-1,0.905
182,0,0,-2,1,-1,1,0,-1,0.91
183,0,0,0,-2,1,1,-1,-1,0.915
184,-2,-4,-2,13,-1,-1,-2,-2,0.92
185,-1,2,-1,-2,2,0,0,-1,0.925
186,-1,-1,3,2,2,1,0,-1,0.93
187,-1,-1,-6,-28,3,0,3,0,0.935
188,-1,-1,2,10,-3,-1,-2,-1,0.9400000000000001
189,-1,1,1,3,-3,0,1,-1,0.9450000000000001
190,-1,0,-1,1,-4,0,-2,-1,0.9500000000000001
191,0,1,1,4,3,0,-1,0,0.9550000000000001
192,-1,-4,-6,5,0,0,-2,0,0.96
193,0,-2,-3,-3,-1,-2,-1,-1,0.965
194,-1,0,-1,-6,-3,-2,0,-2,0.97
195,0,-1,1,1,-5,0,-1,0,0.975
196,1,1,-1,-10,-2,-3,0,0,0.98
197,-1,-1,-1,-3,1,-1,-1,-1,0.985
198,-1,-2,-1,1,-3,-1,-1,0,0.99
199,-2,-2,-3,2,-2,-2,0,0,0.995
200,-1,0,2,-4,-1,0,-1,-1,1.0
201,0,-1,2,10,-1,0,-2,-1,1.0050000000000001
202,0,-4,-3,-1,-1,1,-1,0,1.01
203,-1,-2,-3,-11,0,1,-2,-2,1.0150000000000001
204,-2,0,0,-3,4,0,-1,0,1.02
205,-2,0,1,3,-5,-1,-1,0,1.025
206,0,-1,0,-2,1,0,-1,-2,1.03
207,-2,-1,0,8,0,1,-1,-1,1.035
208,1,-1,1,1,-4,-3,0,1,1.04
209,-1,-2,-2,-12,-1,1,-1,0,1.045
210,-2,-2,-3,1,1,0,-1,0,1.05
211,-1,0,-1,7,-4,-1,-1,-1,1.055
212,-1,3,2,-17,-3,-2,-2,-3,1.06
213,0,-2,-2,1,9,2,0,0,1.065
214,-1,-3,-6,-10,-2,-2,-1,-1,1.07
215,-1,-1,-1,1,1,-2,-1,-2,1.075
216,-2,0,0,13,-4,-2,0,0,1.08
217,-1,0,0,-10,-2,-3,0,-2,1.085
218,1,2,3,-1,-1,0,-1,-2,1.09
219,0,0,0,4,0,-1,-2,0,1.095
220,-1,-2,-2,2,0,0,0,-1,1.1
221,-1,0,0,0,-2,0,0,1,1.105
222,-1,-2,0,2,-1,-2,0,-1,1.11
223,-1,-2,0,5,-2,-1,-2,-1,1.115
224,0,-1,1,-2,0,0,0,-1,1.12
225,-2,-1,-3,-11,0,1,-1,-2,1.125
226,-1,2,0,9,1,-3,0,-1,1.1300000000000001
227,-1,-1,-2,4,0,0,-2,0,1.135
228,-1,-2,-2,-3,0,0,-1,-2,1.1400000000000001
229,-1,1,0,-11,-3,-1,-3,0,1.145
230,-3,-4,1,-2,-2,-1,-1,1,1.1500000000000001
231,-2,-1,2,0,-1,-2,2,-1,1.155
232,0,-3,-2,0,1,1,0,-1,1.16
233,0,-1,-2,4,-4,-2,0,-2,1.165
234,-1,3,3,33,1,0,-1,1,1.17
235,0,-1,-5,-30,6,-1,-1,1,1.175
236,-1,1,0,7,-3,-1,0,0,1.18
237,1,0,-2,-19,-1,-1,0,-2,1.185
238,-1,-4,-2,-4,-4,-1,-2,-2,1.19
239,0,-3,1,3,-4,1,2,-1,1.195
240,-1,-1,-1,1,1,0,-1,0,1.2
241,-2,-3,0,11,-1,0,-2,-1,1.205
242,-2,1,-1,-17,-2,0,0,2,1.21
243,-2,-1,0,19,1,-1,-1,-1,1.215
244,-1,-4,-4,-4,9,1,-1,0,1.22
245,0,-1,-2,7,-3,0,0,-1,1.225
246,1,2,1,-9,-4,0,-2,-1,1.23
247,0,-1,0,-2,2,0,1,-1,1.235
248,1,0,1,-3,-5,-2,-2,-1,1.24
249,0,-2,1,-1,3,-1,0,-1,1.245
250,0,0,1,-5,-1,-1,0,-1,1.25
251,-1,0,1,3,-3,-1,-3,-2,1.2550000000000001
252,-1,-1,-1,4,-3,-1,-1,-1,1.26
253,-1,-2,-3,10,4,-2,0,-1,1.2650000000000001
254,-1,0,0,-14,1,-1,1,0,1.27
255,0,2,-1,5,-3,-1,-1,0,1.2750000000000001
256,-3,-1,-3,-8,0,0,-1,0,1.28
257,-1,1,1,-2,-5,0,-1,-2,1.285
258,1,0,-1,16,4,1,0,0,1.29
259,0,-2,-2,2,-3,-2,-2,0,1.295
260,-1,0,-1,-6,-1,0,1,-1,1.3
261,0,-3,-3,0,-3,-2,-2,0,1.305
262,-1,-1,0,-2,-2,-1,-1,-1,1.31
263,-2,-2,-2,-6,-1,-2,-1,-1,1.315
264,-1,2,-1,12,1,-1,-1,1,1.32
265,-2,-1,-3,-12,4,-1,0,0,1.325
266,-1,-3,0,0,-1,1,0,-1,1.33
267,0,-1,-1,-4,-3,0,-3,0,1.335
268,0,1,0,-2,-2,-2,-1,-3,1.34
269,-2,-1,2,8,-1,0,0,0,1.345
270,0,0,-2,-3,2,0,-1,0,1.35
271,1,-1,-3,3,-1,-1,2,0,1.355
272,-1,0,0,-5,-5,0,0,-1,1.36
273,1,0,-1,0,1,0,0,-1,1.365
274,0,-1,0,-3,-4,0,1,-1,1.37
275,0,1,-1,8,0,-1,-2,0,1.375
276,1,-2,-1,-24,1,-2,0,-1,1.3800000000000001
277,-2,-4,1,10,-2,0,-2,-2,1.385
278,0,2,0,-1,-3,-1,-1,0,1.3900000000000001
279,-1,-2,0,-5,2,-1,-1,-2,1.395
280,-1,-3,-1,-1,-3,-2,-2,1,1.4000000000000001
281,-2,1,-1,0,-2,0,1,-1,1.405
282,0,1,0,8,3,-1,-2,-2,1.41
283,2,0,-3,-7,-1,-1,-1,0,1.415
284,0,1,-1,1,0,-1,0,-1,1.42
285,1,-1,-2,-3,-1,-2,-1,0,1.425
286,-1,-2,-3,-1,-2,-2,-2,0,1.43
287,-1,-3,0,-1,-2,-2,-2,0,1.435
288,-1,-2,-1,0,-1,1,-1,-1,1.44
289,-1,0,0,2,2,-1,-1,-2,1.445
290,-2,-3,-1,-8,0,-4,-1,-3,1.45
291,0,2,1,1,-1,-1,1,0,1.455
292,0,-1,-1,8,3,0,0,-1,1.46
293,-2,0,1,15,-3,-2,-3,1,1.465
294,0,-4,-5,-15,0,-1,0,-1,1.47
295,-3,1,2,1,2,0,0,-2,1.475
296,2,0,-1,1,-2,-2,-1,-2,1.48
297,-2,-2,-2,-6,-2,-1,-1,-1,1.485
298,-1,-2,1,14,-4,0,1,0,1.49
299,0,1,-2,1,3,2,-2,-1,1.495
300,0,-2,-2,-5,1,0,0,0,1.5
301,0,1,0,-4,0,0,-2,-1,1.5050000000000001
302,-1,1,1,-2,-3,-1,-1,-1,1.51
303,-1,-3,1,1,-4,-2,-1,-1,1.5150000000000001
304,-2,-2,-3,-4,1,0,-1,-1,1.52
305,0,-2,2,-6,-2,0,0,-1,1.5250000000000001
306,-1,-4,-3,0,4,0,0,0,1.53
307,0,1,1,3,-3,-2,0,-2,1.5350000000000001
308,0,-3,-1,0,-2,1,-1,-1,1.54
309,-1,-1,-2,-6,-3,-1,-1,1,1.545
310,1,0,0,-3,-4,0,-1,-2,1.55
311,-1,-2,0,-1,-2,-1,-1,-1,1.555
312,-1,0,-2,0,4,0,0,0,1.56
313,-3,-4,-3,-6,-1,0,-1,0,1.565
314,-1,0,1,-2,0,0,0,0,1.57
315,-1,0,-2,-4,-2,-1,1,-1,1.575
316,-2,1,3,2,-4,-2,-2,-2,1.58
317,1,2,2,6,-3,0,2,-1,1.585
318,-2,-2,-2,-5,6,-1,-1,0,1.59
319,-1,-3,-3,-7,-3,-1,0,0,1.595
320,0,-2,0,-1,-2,-1,-1,-2,1.6
321,0,1,-2,9,1,-1,-1,-2,1.605
322,-1,2,-1,-7,-3,0,-1,0,1.61
323,-2,1,-2,-1,1,0,0,-1,1.615
324,-1,1,2,3,0,0,-1,0,1.62
325,-1,-1,-2,-4,-5,-2,-1,-3,1.625
326,1,-2,3,15,3,-1,-1,-1,1.6300000000000001
327,-2,-2,-1,4,1,0,-1,-1,1.635
328,-1,-2,-2,-18,2,-1,-1,1,1.6400000000000001
329,0,3,1,-16,-3,0,0,-1,1.645
330,-2,-2,-2,16,-3,-2,1,-2,1.6500000000000001
331,0,-1,0,-1,-1,-1,0,0,1.655
332,0,2,-1,9,-4,-3,-1,-1,1.6600000000000001
333,0,-3,-2,-5,2,-1,1,-1,1.665
334,-2,1,1,-12,-2,-1,-1,-1,1.67
335,0,-2,1,1,0,0,0,-1,1.675
336,-3,-2,-3,0,-3,-2,-2,-1,1.68
337,-1,-2,-1,1,0,0,0,1,1.685
338,1,0,-2,-2,-2,-2,-2,-1,1.69
339,-1,-1,1,-1,0,-1,-2,0,1.695
340,-2,1,0,2,-3,-1,-1,-2,1.7
341,0,0,2,-1,1,-1,-1,-1,1.705
342,-2,-3,-2,-12,0,0,-1,0,1.71
343,0,-1,-3,-10,-3,1,0,-1,1.715
344,-1,-4,-3,-4,0,-2,-2,0,1.72
345,-1,-1,2,8,-2,0,0,-1,1.725
346,-2,-1,0,0,-2,-1,-1,0,1.73
347,-1,1,-2,-3,-2,-1,-2,-1,1.735
348,-2,0,0,19,-2,1,-2,-1,1.74
349,-1,-1,-1,-21,0,-3,-1,-1,1.745
350,-3,0,-1,16,0,-2,-1,-1,1.75
351,0,-2,1,-1,2,0,-1,0,1.7550000000000001
352,-1,-4,-5,-4,3,-1,2,0,1.76
353,-1,1,-3,-3,-5,-3,-3,-3,1.7650000000000001
354,-1,-1,-2,-8,1,1,2,0,1.77
355,0,-5,0,8,-1,-2,0,-1,1.7750000000000001
356,0,0,1,0,-1,-2,0,-1,1.78
357,-1,-1,1,1,0,0,1,1,1.7850000000000001
358,0,0,-1,-2,-5,0,-4,-1,1.79
359,-1,2,-1,2,1,-1,1,-1,1.795
360,0,-3,-5,-6,-2,1,0,-1,1.8
361,-1,-1,-1,4,-1,0,-2,0,1.805
362,-1,-2,-1,13,0,-1,0,-2,1.81
363,-1,1,-2,-33,1,0,-1,-1,1.815
364,-1,-1,1,-5,-3,-1,0,0,1.82
365,0,1,1,13,-10,-2,-4,0,1.825
366,0,0,-4,-6,14,2,0,0,1.83
367,-1,-3,-2,12,1,0,0,-1,1.835
368,-3,0,2,0,-3,0,1,-1,1.84
369,0,0,0,-1,0,-1,1,0,1.845
370,0,0,3,-4,-6,-2,-1,-1,1.85
371,0,0,-2,-2,-3,-1,-1,0,1.855
372,-2,-1,-1,-2,2,1,-2,-1,1.86
373,-1,-2,2,1,0,-1,0,0,1.865
374,-1,-1,-1,-11,-1,-1,0,0,1.87
375,-1,0,0,5,1,0,-1,-1,1.875
376,1,-2,-1,-2,-4,-1,-1,0,1.8800000000000001
377,-1,0,-4,3,-1,0,-1,0,1.885
378,0,2,-1,-7,-2,-2,-2,-1,1.8900000000000001
379,-1,-1,-1,-4,0,0,-1,-1,1.895
380,0,1,1,6,0,-2,0,1,1.9000000000000001
381,-2,-4,-3,-13,3,0,-1,-2,1.905
382,0,-3,-2,17,-1,-2,-1,-2,1.9100000000000001
383,0,1,2,15,-4,-1,0,-1,1.915
384,-1,0,2,-12,2,-2,0,-2,1.92
385,0,-1,-2,3,2,0,1,-1,1.925
386,0,-1,1,-7,-4,-1,-1,0,1.93
387,-1,-4,-3,-2,-6,-2,-1,0,1.935
388,0,-2,-1,3,0,-2,-1,-1,1.94
389,0,-2,-2,3,0,0,-1,-1,1.945
390,-1,0,-1,1,-5,-1,-1,0,1.95
391,-2,-2,-4,-19,5,0,-1,0,1.955
392,-1,1,2,13,-6,0,-1,-1,1.96
393,-1,-3,-1,-15,0,1,-3,-1,1.965
394,0,-1,4,4,-3,0,-1,0,1.97
395,0,2,-1,2,-5,-1,-1,-1,1.975
396,-2,-5,-5,-5,0,0,-1,-1,1.98
397,-1,0,-1,11,2,0,0,-1,1.985
398,-1,0,-2,12,0,0,2,-1,1.99
399,-1,-1,1,-17,-2,-1,-1,0,1.995
400,1,-2,-2,-2,1,-2,-1,-1,2.0
401,0,1,0,0,-1,0,0,-2,2.005
402,-2,-3,-2,-10,-1,-2,0,-1,2.0100000000000002
403,-1,0,3,10,-1,-1,0,-2,2.015
404,0,-1,-1,1,0,-1,-2,0,2.02
405,-1,-2,0,-6,-2,-1,0,0,2.025
406,-1,2,0,-6,-2,0,1,0,2.0300000000000002
407,1,-3,-4,5,2,-1,-2,-1,2.035
408,0,0,1,-2,-2,0,0,-2,2.04
409,0,-2,-1,4,-1,-1,-2,-1,2.045
410,1,0,0,-4,-3,-1,0,0,2.05
411,-2,0,1,4,0,-1,-1,0,2.055
412,-1,1,0,8,-5,0,-2,0,2.06
413,0,0,-2,-2,4,0,-1,-1,2.065
414,-1,-1,-1,-11,-1,0,-1,0,2.07
415,-1,-1,-3,0,-4,-1,0,-1,2.075
416,0,1,1,-6,0,0,-1,-1,2.08
417,-1,3,2,6,-3,-2,1,-1,2.085
418,0,-2,0,3,2,-2,-2,-1,2.09
419,-1,4,1,5,1,-2,-1,-3,2.095
420,-1,-4,-4,13,-2,0,-1,0,2.1
421,-1,-3,1,-31,0,0,1,-1,2.105
422,-2,-2,-2,0,-1,-1,-3,-1,2.11
423,-1,-1,-1,-3,-3,-1,-1,0,2.115
424,-1,1,0,10,5,0,-1,0,2.12
425,-1,-1,0,-7,-3,-1,-1,-1,2.125
426,1,-1,-2,-3,-1,0,1,-2,2.13
427,-1,0,1,1,1,0,-1,-1,2.1350000000000002
428,0,-1,-3,-3,-3,-3,0,-2,2.14
429,-2,-2,-3,7,-1,-3,-2,-1,2.145
430,-2,-1,0,6,-1,-1,-1,-1,2.15
431,-1,-3,-1,-9,-1,-2,-1,0,2.1550000000000002
432,-1,-3,-1,-9,1,1,1,0,2.16
433,-1,-1,0,5,-4,-2,-2,-1,2.165
434,-1,0,-1,-5,0,0,-1,-2,2.17
435,-1,-4,-3,11,0,-1,-1,-1,2.1750000000000003
436,0,0,2,2,0,0,-1,0,2.18
437,0,0,-1,-10,0,0,0,0,2.185
438,-1,2,4,11,-3,-1,1,-1,2.19
439,-1,0,-4,-19,0,-1,-1,-1,2.195
440,-2,0,0,-7,-3,-1,-1,-1,2.2
441,-2,-2,1,18,3,0,0,0,2.205
442,-1,1,-1,-3,0,0,-2,1,2.21
443,-1,0,0,2,0,0,-2,-2,2.215
444,0,3,-1,-3,-2,-1,-1,0,2.22
445,-2,-2,-3,12,-5,-2,0,-2,2.225
446,0,1,-1,-17,3,0,0,-1,2.23
447,0,0,0,2,-2,0,-2,1,2.235
448,-1,-1,-1,-5,-3,0,-1,-1,2.24
449,2,0,-3,10,2,1,-1,0,2.245
450,-2,-5,-3,-12,0,-1,-1,-1,2.25
451,0,-2,3,3,-3,-2,-1,0,2.255
452,-2,-1,-2,-1,4,0,0,-1,2.2600000000000002
453,0,1,2,1,-2,-1,-1,0,2.265
454,-1,-1,-3,1,-4,-3,-1,-2,2.27
455,0,0,-1,-8,-2,0,0,-2,2.275
456,-2,-4,-5,2,4,0,-1,0,2.2800000000000002
457,-2,0,0,-2,0,0,-1,-2,2.285
458,-1,-4,0,-2,-1,0,0,-1,2.29
459,0,0,0,1,-2,-1,0,1,2.295
460,-1,1,-1,-1,-2,-2,-1,-2,2.3000000000000003
461,0,0,-3,6,-1,0,-1,-2,2.305
462,0,-1,-3,-15,-2,-2,-1,-1,2.31
463,0,0,3,11,0,0,-1,0,2.315
464,0,0,1,-19,-1,-1,-1,-2,2.32
465,0,1,3,1,0,0,1,1,2.325
466,0,0,5,16,-3,-1,0,0,2.33
467,-6,-9,-45,-20,-5,-3,-1,-4,2.335
468,-2,-2,5,5,-2,0,0,1,2.34
469,0,-1,5,2,-5,0,-1,0,2.345
470,0,1,3,-9,8,1,-1,1,2.35
471,1,3,14,16,3,1,-1,1,2.355
472,-1,0,-4,-1,-4,-1,-2,0,2.36
473,1,0,5,-4,2,-1,0,0,2.365
474,-4,-6,-33,-6,-5,-1,0,-1,2.37
475,-1,2,6,1,-2,-2,-2,0,2.375
476,0,-2,-3,-4,-2,-2,-1,-2,2.38
477,0,2,6,-3,2,0,-1,1,2.3850000000000002
478,-3,-1,6,7,-4,0,0,-1,2.39
479,0,0,3,-4,8,2,1,0,2.395
480,0,-3,-8,7,-3,-2,-1,-1,2.4
481,-2,-1,1,-11,-4,-2,-3,-1,2.4050000000000002
482,0,2,-5,-10,-4,0,-1,-1,2.41
483,1,-1,-5,32,1,0,-1,-2,2.415
484,1,0,11,-32,0,1,-1,0,2.42
485,-2,-3,-2,5,-1,-1,0,-2,2.4250000000000003
486,0,2,4,1,0,-1,-1,0,2.43
487,0,5,14,10,-4,-1,1,0,2.435
488,-1,1,2,4,-1,-1,-1,-2,2.44
489,-3,-6,-17,-5,1,-2,-2,-3,2.445
490,-1,1,10,4,-2,-1,-1,-1,2.45
491,-1,2,4,0,-2,1,-3,-2,2.455
492,-2,1,-3,5,-3,-2,-2,-1,2.46
493,-3,0,13,-8,0,-1,-1,0,2.465
494,-2,-6,-29,12,-2,-3,-3,-1,2.47
495,-3,-7,-6,-20,-2,-1,0,-2,2.475
496,-2,-2,-2,-14,-5,-1,-2,-2,2.48
497,-3,0,2,4,3,0,0,1,2.485
498,0,1,8,7,1,0,0,0,2.49
499,0,0,0,-4,-4,-2,0,-1,2.495
500,0,-1,-5,14,0,0,0,-1,2.5
501,0,-1,-10,-21,-5,-2,-1,-1,2.505
502,-1,0,2,10,6,0,-1,-1,2.5100000000000002
503,-3,-3,-4,-10,-1,-1,0,-2,2.515
504,0,1,3,7,0,0,0,1,2.52
505,1,0,-1,5,-6,-2,-2,-2,2.525
506,1,-1,1,-4,0,1,-1,-2,2.5300000000000002
507,-2,-4,-2,-8,-3,0,-1,-1,2.535
508,-2,-1,-10,-1,1,0,0,0,2.54
509,-1,-1,-6,11,0,-1,-1,-1,2.545
510,-1,0,0,-22,-4,-2,0,-2,2.5500000000000003
511,1,2,7,5,-1,0,-1,-1,2.555
512,-1,-2,-2,12,0,-1,1,0,2.56
513,1,3,9,-8,1,-1,-1,0,2.565
514,-2,0,-2,-6,-5,0,-2,-2,2.57
515,-1,-2,-9,-11,0,0,0,0,2.575
516,-1,-2,1,-1,2,0,-1,0,2.58
517,0,0,1,3,1,0,-1,0,2.585
518,1,0,7,15,-2,-4,-1,1,2.59
519,-1,-3,-1,-3,-1,-1,-2,-1,2.595
520,1,2,8,-3,0,-1,-1,0,2.6
521,-2,-3,-22,1,-2,1,-1,-2,2.605
522,0,2,7,2,1,-1,1,1,2.61
523,0,2,8,4,-3,0,1,-1,2.615
524,-3,-9,-17,5,-4,-3,-2,-3,2.62
525,-2,-1,-5,-25,-5,-1,-1,-1,2.625
526,1,-1,4,14,9,2,0,2,2.63
527,0,4,5,-3,0,1,-2,0,2.6350000000000002
528,1,-1,10,4,-1,0,-1,0,2.64
529,-2,-3,-7,-1,-2,-3,0,-4,2.645
530,-2,0,-5,-6,-3,-3,-2,-2,2.65
531,-1,-2,3,8,0,-1,0,0,2.6550000000000002
532,-1,0,-2,-11,-2,-1,-1,-1,2.66
533,0,-3,0,9,3,0,-1,-1,2.665
534,-1,-1,6,-6,2,0,0,0,2.67
535,-2,-3,-8,-2,2,-2,-1,-1,2.6750000000000003
536,-1,-3,-7,-11,-5,-3,-1,-2,2.68
537,0,0,5,3,-1,-1,-1,0,2.685
538,-1,-2,-13,-3,-1,0,-1,-1,2.69
539,1,1,7,5,-2,-2,0,0,2.695
540,-1,1,1,5,0,-1,0,-1,2.7
541,-1,1,10,2,2,0,-1,0,2.705
542,0,1,3,-19,-8,1,-2,-2,2.71
543,-2,-4,-14,-4,5,0,0,-1,2.715
544,-1,2,1,5,2,1,-1,0,2.72
545,1,-2,7,20,-1,0,-2,0,2.725
546,-2,-7,-13,-26,-5,-3,-3,0,2.73
547,0,2,1,-1,-2,-2,-2,-3,2.735
548,-2,-1,5,-9,-3,-1,1,-1,2.74
549,-1,-2,8,12,3,1,0,0,2.745
550,0,2,4,9,-1,-1,0,-1,2.75
551,-2,-4,-6,-9,-3,-1,0,-1,2.755
552,0,2,10,9,4,1,-1,1,2.7600000000000002
553,-2,0,-3,-5,0,-1,-1,-1,2.765
554,-1,-5,-19,-2,-3,0,-1,-1,2.77
555,-1,1,3,9,-3,0,0,-1,2.775
556,1,2,6,-8,1,0,0,1,2.7800000000000002
557,-2,-3,2,-6,0,-1,1,0,2.785
558,0,2,8,20,0,-1,-1,-1,2.79
559,0,-3,0,-10,-3,-1,-2,2,2.795
560,0,-2,-7,8,1,-2,-2,-1,2.8000000000000003
561,0,2,-2,-19,0,-1,-1,0,2.805
562,0,-1,12,6,-3,-1,-1,0,2.81
563,-2,-1,-1,15,3,-1,0,0,2.815
564,-3,0,-1,-6,-4,-2,-2,-1,2.82
565,-1,-1,-5,-1,-4,-1,1,-1,2.825
566,-3,-2,-12,2,0,0,-1,-2,2.83
567,1,0,7,-18,-4,1,0,0,2.835
568,1,-1,-1,-6,5,2,0,0,2.84
569,-2,0,-2,2,-3,-2,-1,-1,2.845
570,-2,0,14,-2,-2,-1,-2,0,2.85
571,1,3,-2,23,5,0,-2,-2,2.855
572,-2,-3,-4,-12,-3,-2,-2,-1,2.86
573,-4,-7,-4,3,-2,-1,-2,-2,2.865
574,-1,-1,-2,-2,1,-1,-1,0,2.87
575,-3,-2,-3,-14,-5,-3,-1,-1,2.875
576,0,0,-2,14,1,1,-1,-1,2.88
577,1,3,-2,1,0,-1,0,-1,2.8850000000000002
578,1,0,9,3,2,0,1,-1,2.89
579,-2,-7,-35,-12,-4,-1,1,-2,2.895
580,-4,-4,-14,-5,-6,-5,-3,-3,2.9
581,1,1,3,-9,-3,-1,0,0,2.9050000000000002
582,0,-1,14,-4,6,0,0,0,2.91
583,1,2,6,6,1,0,-1,1,2.915
584,1,1,4,12,-3,-1,0,0,2.92
585,1,-2,1,4,-2,0,-1,-1,2.9250000000000003
586,0,0,-17,-7,0,0,-1,-1,2.93
587,0,1,-9,1,2,-1,0,-2,2.935
588,-4,-10,-4,-8,-2,-3,-2,-3,2.94
589,0,7,35,10,-1,-4,-5,-3,2.945
590,-2,-8,-61,-15,-6,-3,-1,0,2.95
591,0,-1,10,-2,1,1,-1,-1,2.955
592,1,0,-7,12,1,2,0,1,2.96
593,-4,-9,-24,-4,2,-1,0,0,2.965
594,-2,2,14,-8,-5,-2,-1,-1,2.97
595,-1,-3,13,3,-3,0,-1,0,2.975
596,1,7,7,-3,0,-1,1,-1,2.98
597,-1,1,1,4,-1,-1,-1,-1,2.985
598,3,4,29,24,5,1,1,0,2.99
599,-4,-7,-30,-19,-4,-4,0,-1,2.995
600,-1,-2,14,-4,-2,-2,-1,-2,3.0
601,-1,-9,3,3,-3,-2,-1,0,3.005
602,1,-3,2,12,-1,0,0,0,3.0100000000000002
603,3,5,12,-10,2,1,-1,1,3.015
604,0,-2,-1,-14,1,-1,1,0,3.02
605,-1,4,-7,-5,0,-1,-1,0,3.025
606,-4,-4,14,19,2,-2,-2,-1,3.0300000000000002
607,1,3,12,2,-2,1,1,0,3.035
608,-2,-7,-27,-7,-3,-1,-2,-3,3.04
609,1,2,2,-6,-4,-2,-1,-1,3.045
610,-2,1,7,11,-4,-3,-1,-1,3.0500000000000003
611,-2,-2,-4,-8,8,0,-3,0,3.055
612,-1,4,11,0,-1,1,0,1,3.06
613,-1,-2,-6,-2,1,0,1,-1,3.065
614,0,-2,-7,13,-5,-1,-2,-2,3.0700000000000003
615,-1,1,9,-7,0,-3,0,-1,3.075
616,-1,1,0,-13,0,-2,-2,0,3.08
617,1,1,16,-5,3,0,-1,0,3.085
618,-2,-1,-4,-10,-4,-1,0,-1,3.09
619,-4,-8,-25,2,-2,-2,-2,-2,3.095
620,0,-2,8,9,2,1,0,-1,3.1
621,1,2,9,-3,-2,0,-1,0,3.105
622,-3,-4,-32,-21,-2,-2,0,0,3.11
623,0,3,18,13,-6,-2,-2,-1,3.115
624,-1,-1,12,4,1,-2,-1,0,3.12
625,-7,-10,-51,-8,-7,-3,-4,-3,3.125
626,1,1,10,-20,4,2,0,0,3.13
627,-2,-2,7,5,-1,-2,-1,-1,3.1350000000000002
628,0,3,-13,21,-3,0,-1,0,3.14
629,3,5,7,-18,2,1,1,1,3.145
630,-1,-3,7,-2,-3,-1,-2,-2,3.15
631,-2,0,1,5,-3,-2,-1,-2,3.1550000000000002
632,-1,-1,-7,0,-3,-1,-2,0,3.16
633,-1,-6,-36,-15,-2,-1,0,-1,3.165
634,0,-3,4,6,3,0,0,-2,3.17
635,0,-1,7,-1,-1,1,0,-2,3.1750000000000003
636,1,2,8,10,2,-1,1,0,3.18
637,0,2,6,8,-4,0,-1,-2,3.185
638,-1,3,0,-2,9,0,-1,0,3.19
639,-2,-1,6,4,-1,-2,-1,0,3.1950000000000003
640,-3,-1,0,-15,-4,-1,-1,0,3.2
641,0,-3,-4,10,-1,-1,0,-2,3.205
642,1,0,-16,-10,-2,0,-2,0,3.21
643,-2,-1,-7,-4,-2,-2,-1,0,3.215
644,1,3,2,5,-2,-2,-1,1,3.22
645,-4,-4,8,14,3,0,1,-2,3.225
646,-1,4,3,10,-2,-1,0,-1,3.23
647,-1,-2,-25,-26,-1,-1,-2,1,3.235
648,-1,-5,-12,-25,0,0,0,-1,3.24
649,-2,-1,18,23,-4,-3,-2,-3,3.245
650,-3,-1,13,-10,-5,-2,-1,-4,3.25
651,0,1,-6,18,1,0,0,-1,3.255
652,-1,0,12,2,1,0,-1,0,3.2600000000000002
653,-1,-1,-6,-8,-1,-1,-1,0,3.265
654,0,-1,1,8,0,-1,0,-1,3.27
655,0,-3,2,4,-7,-1,-4,0,3.275
656,-1,-6,-18,-12,1,-3,0,-3,3.2800000000000002
657,0,0,-2,-14,2,1,2,1,3.285
658,1,-1,-3,-3,-4,-1,-1,-2,3.29
659,1,3,14,9,0,1,-1,-1,3.295
660,0,-2,-7,11,2,-1,-1,0,3.3000000000000003
661,-1,-1,-11,-3,0,1,-1,-2,3.305
662,-4,-9,0,6,-7,-4,-3,-2,3.31
663,0,3,16,-29,3,2,0,0,3.315
664,0,4,19,2,-6,-1,-1,-1,3.3200000000000003
665,-2,-8,-28,4,5,-2,-2,-1,3.325
666,3,10,8,5,9,1,1,0,3.33
667,1,-9,-20,15,-5,-2,0,-2,3.335
668,-7,7,0,-12,-6,-3,-2,-1,3.34
669,-3,1,8,5,2,0,2,1,3.345
670,0,-1,3,-11,-5,1,0,0,3.35
671,-3,-3,-11,7,0,-1,-2,-1,3.355
672,4,-1,-1,20,3,1,0,0,3.36
673,2,3,4,1,-4,-3,-1,0,3.365
674,-1,-1,-3,-16,1,0,1,-1,3.37
675,1,6,8,0,2,1,1,1,3.375
676,-2,-7,-7,-12,-2,-1,-2,-1,3.38
677,-2,0,11,19,2,0,-3,0,3.3850000000000002
678,-1,-3,-10,-4,-4,-3,-2,1,3.39
679,-1,0,16,-1,0,-1,0,1,3.395
680,-1,-5,-28,-5,-1,-1,-1,-1,3.4
681,2,2,20,-2,-5,-1,0,-3,3.4050000000000002
682,0,0,-11,-9,8,0,0,-1,3.41
683,-1,-3,0,5,1,0,-2,-3,3.415
684,-1,1,12,3,-1,0,0,0,3.42
685,0,-1,-4,-9,-1,0,-1,0,3.4250000000000003
686,-1,-3,-4,-2,-6,-1,-2,-1,3.43
687,-1,0,9,8,-2,-1,0,-1,3.435
688,0,-1,2,-1,2,1,0,0,3.44
689,-1,-1,5,-4,-4,-1,-1,0,3.4450000000000003
690,-2,-2,1,11,-3,-2,-2,0,3.45
691,-1,1,-12,-33,3,0,0,0,3.455
692,-1,-5,-21,-9,-2,-2,0,-2,3.46
693,1,2,9,0,2,0,-2,-1,3.465
694,-2,-3,2,14,-2,-2,0,-1,3.47
695,1,1,-6,3,-1,0,-1,-2,3.475
696,0,-4,13,14,-5,-2,-2,0,3.48
697,-1,0,-15,-21,-3,-1,-1,0,3.485
698,1,5,3,3,4,-1,2,0,3.49
699,-2,-1,7,6,-2,-2,0,-1,3.495
700,-1,-1,-2,-6,1,1,0,0,3.5
701,-3,-5,-8,3,-4,-1,-2,0,3.505
702,1,2,12,-9,-5,1,1,1,3.5100000000000002
703,0,0,5,-1,-1,0,-1,-1,3.515
704,-2,-1,1,4,-1,-2,-1,-3,3.52
705,0,4,0,0,1,-1,0,-2,3.525
706,-4,-7,-1,-6,-1,0,-2,0,3.5300000000000002
707,0,-1,2,20,3,3,0,0,3.535
708,1,1,5,-16,-3,-1,0,0,3.54
709,0,-1,3,-12,1,-2,0,0,3.545
710,-3,-2,-24,1,-2,-2,-1,-2,3.5500000000000003
711,-1,0,-2,-10,0,-1,-2,0,3.555
712,0,4,7,7,0,0,1,0,3.56
713,1,3,10,8,1,1,0,0,3.565
714,-3,-6,-26,-11,-7,-3,-1,-3,3.5700000000000003
715,-3,-3,-6,-9,-8,-2,-1,0,3.575
716,0,2,7,6,7,1,-1,-1,3.58
717,-1,-4,-31,-3,0,-1,-1,-2,3.585
718,-1,2,14,6,1,0,-1,-1,3.59
719,-1,-1,-9,-6,-3,-3,-1,-1,3.595
720,-1,-1,2,3,-4,-1,0,0,3.6
721,-2,-2,-1,10,2,-1,-1,0,3.605
722,0,-2,7,-8,-3,0,-1,1,3.61
723,-1,-2,-25,-4,-3,-3,-1,-2,3.615
724,0,-3,12,19,-3,-1,-2,-1,3.62
725,-1,-2,-4,-25,1,0,0,0,3.625
726,1,-1,-4,-4,0,-1,-1,-1,3.63
727,0,3,26,9,-1,0,0,0,3.6350000000000002
728,0,0,-9,-4,4,-1,0,-1,3.64
729,-2,-2,-3,3,-4,-2,0,-2,3.645
730,-1,1,11,1,-4,-2,0,-1,3.65
731,0,-1,-12,-3,2,0,1,-1,3.6550000000000002
732,-1,-2,-12,20,3,0,-2,0,3.66
733,-1,-3,9,-18,1,2,1,2,3.665
734,-1,-1,8,0,0,-1,-2,-1,3.67
735,-1,1,2,6,1,0,0,0,3.6750000000000003
736,-2,-3,-15,-18,-8,-3,-1,-2,3.68
737,0,3,4,7,-1,0,1,-3,3.685
738,-1,0,4,22,3,0,0,1,3.69
739,-1,-1,6,-15,-2,-2,-1,-2,3.6950000000000003
740,-1,-1,-3,-7,0,0,0,0,3.7
741,-1,-6,-21,3,-2,-1,-1,0,3.705
742,-1,-1,-10,-5,-3,-1,0,-2,3.71
743,-1,-3,1,6,-1,0,-1,-1,3.715
744,-4,-1,8,-2,0,-2,0,-1,3.72
745,0,-1,7,-5,-2,-3,-3,-2,3.725
746,1,2,3,-4,2,2,-2,-1,3.73
747,-2,-3,-4,-1,-3,-2,-1,-1,3.735
748,-1,0,3,8,0,-1,1,0,3.74
749,-1,2,9,0,-1,-1,-3,-1,3.745
750,-1,0,-3,-3,-1,-1,-1,0,3.75
751,0,1,2,-4,-1,-2,1,0,3.755
752,1,-1,1,-6,-8,0,-1,0,3.7600000000000002
753,-1,0,2,36,6,-1,-1,0,3.765
754,-1,2,-7,-30,2,1,-1,-1,3.77
755,-2,-3,1,2,2,1,0,0,3.775
756,-2,-4,-7,-2,0,0,-1,-1,3.7800000000000002
757,1,0,0,-3,-4,-1,0,0,3.785
758,-1,-2,3,6,-5,-2,0,0,3.79
759,-2,-1,-4,3,-1,-1,-1,-1,3.795
760,2,1,-4,-7,0,-1,-3,-3,3.8000000000000003
761,-1,-1,7,3,-3,-2,-1,-2,3.805
762,-1,-1,2,10,0,-1,-1,-1,3.81
763,-1,-2,-7,-6,-1,-3,-1,-2,3.815
764,-1,4,10,-4,0,-1,0,0,3.8200000000000003
765,-2,-2,-8,-2,-3,-2,-1,-1,3.825
766,-1,-5,2,-9,-1,0,1,-1,3.83
767,-1,-3,-3,7,10,2,-1,1,3.835
768,-1,2,5,-4,-5,-2,-1,0,3.84
769,0,0,3,0,-2,0,0,0,3.845
770,-1,-1,-5,-1,-3,-1,-1,0,3.85
771,2,2,9,4,-5,-1,0,1,3.855
772,1,-2,-2,0,1,0,-3,-1,3.86
773,-1,0,-7,-3,-1,1,0,1,3.865
774,1,-1,16,6,2,0,-1,1,3.87
775,-2,-9,-29,-19,-2,-2,-3,-2,3.875
776,-1,2,2,1,-1,-3,-1,-2,3.88
777,-1,-3,2,-14,-1,1,-3,-1,3.8850000000000002
778,-1,1,0,9,-1,1,1,-1,3.89
779,-2,1,6,8,0,-1,-1,-2,3.895
780,0,-3,-2,-4,-2,1,0,0,3.9
781,1,1,-2,5,0,-1,-2,-2,3.9050000000000002
782,1,-1,-7,-3,-1,-2,-1,-1,3.91
783,0,0,3,-2,-2,0,0,0,3.915
784,0,-1,2,1,-2,-2,-1,-1,3.92
785,-1,-1,-2,14,-9,0,0,-2,3.9250000000000003
786,-1,-2,-11,1,23,2,2,-1,3.93
787,-1,-6,-6,-10,-4,-1,-2,-1,3.935
788,-1,0,3,-2,2,0,-1,1,3.94
789,-3,3,12,3,-5,-2,1,1,3.9450000000000003
790,-1,1,2,0,-9,-3,-1,-2,3.95
791,0,3,2,5,0,1,-1,-1,3.955
792,-2,-3,-1,0,-1,-2,0,0,3.96
793,0,-1,-5,-7,3,-2,-1,0,3.9650000000000003
794,-2,-6,-2,0,-5,-2,-2,0,3.97
795,1,4,0,10,5,-1,0,0,3.975
796,-3,-5,-12,-25,-5,-2,0,-2,3.98
797,-1,0,1,-15,4,0,-1,0,3.985
798,-1,-5,-8,1,-5,-2,-4,-2,3.99
799,-2,1,6,10,-2,-1,-1,-1,3.995
800,1,-1,1,7,0,0,1,-1,4.0
801,-1,0,1,-2,-1,-2,0,-1,4.005
802,-1,5,10,4,-7,-2,-1,0,4.01
803,-1,-5,1,9,-3,0,0,-1,4.015
804,0,1,0,-8,7,0,-1,-1,4.0200000000000005
805,-2,-5,-2,-17,-1,-1,-1,-2,4.025
806,1,1,0,-3,-4,-1,-2,-1,4.03
807,0,1,5,-2,-3,0,1,-1,4.035
808,-1,-2,-6,7,2,1,0,-1,4.04
809,0,0,-2,8,1,-1,-1,-1,4.045
810,0,-1,1,7,2,-3,0,-2,4.05
811,-1,-1,-6,-28,-4,-1,-1,0,4.055
812,-2,-2,-6,2,-5,-3,-3,-3,4.0600000000000005
813,0,-1,-1,13,7,0,-2,0,4.065
814,0,1,9,-2,-3,0,-1,0,4.07
815,-1,-2,-13,-1,1,0,0,0,4.075
816,-1,0,-4,-5,-5,-3,-1,1,4.08
817,0,-3,2,0,0,0,-1,-1,4.085
818,0,0,2,-2,0,0,-1,-2,4.09
819,2,0,7,16,-3,-2,-2,0,4.095
820,-2,1,1,-14,4,0,-1,0,4.1
821,-1,-1,-4,1,-2,-1,1,-2,4.105
822,-1,1,-3,-3,0,0,-1,-1,4.11
823,1,-2,-1,15,-2,0,-1,0,4.115
824,-1,-2,-5,-12,6,0,1,-2,4.12
825,-1,0,-4,-2,0,1,-2,0,4.125
826,-2,-3,-7,-11,-4,0,0,-1,4.13
827,-2,1,3,3,3,-1,-2,-1,4.135
828,-1,0,10,4,-6,-1,-1,0,4.14
829,-3,-7,-24,6,3,-1,-2,-1,4.1450000000000005
830,-1,2,3,-5,1,0,1,-1,4.15
831,-1,-1,-3,2,0,-1,-2,-2,4.155
832,0,-1,4,-15,-7,-2,-1,0,4.16
833,-1,3,11,26,-1,-2,2,-1,4.165
834,-4,-6,-27,-23,6,-1,-1,0,4.17
835,-3,-5,0,-22,-2,-1,-1,0,4.175
836,-1,-1,-2,2,-5,-1,0,0,4.18
837,0,0,5,8,-3,-1,-1,-1,4.1850000000000005
838,2,1,-2,8,-2,0,0,0,4.19
839,-1,1,5,-1,0,-1,0,-1,4.195
840,-2,-1,-4,7,-1,0,-1,-1,4.2
841,-1,0,4,-9,-2,-1,0,0,4.205
842,-1,-1,0,1,1,-1,-1,1,4.21
843,1,0,-1,-9,1,-2,-1,-2,4.215
844,0,-1,2,9,-3,0,-1,-2,4.22
845,0,-1,-4,-10,-3,-1,-2,-1,4.225
846,1,0,5,-1,2,0,0,-3,4.23
847,-1,-1,-5,4,-2,-2,-1,1,4.235
848,-1,-1,-18,-3,-1,-1,0,1,4.24
849,1,3,5,-5,1,0,-1,0,4.245
850,-2,-2,0,-2,-4,-1,0,0,4.25
851,1,2,12,14,-1,-1,1,0,4.255
852,0,-1,-2,-13,2,-1,0,-1,4.26
853,-1,-1,-4,-17,-2,-1,0,-2,4.265
854,-1,0,3,13,-5,2,-1,0,4.2700000000000005
855,-1,0,-3,-11,3,1,1,0,4.275
856,0,-1,2,3,-2,1,0,-1,4.28
857,-2,0,-3,1,-6,-2,-1,-1,4.285
858,1,-2,0,4,1,-2,-2,0,4.29
859,-3,-6,0,8,2,-1,-2,-3,4.295
860,-1,-2,3,13,-1,0,-1,-2,4.3
861,-2,-2,-5,-16,1,0,-1,-1,4.305
862,1,0,-1,3,-3,-2,0,-1,4.3100000000000005
863,-1,1,-3,-8,-5,-1,-1,-2,4.315
864,0,-1,1,7,3,0,-1,-1,4.32
865,-1,-2,5,7,-2,0,-1,-1,4.325
866,-1,0,-10,30,-5,-1,-1,-1,4.33
867,-3,0,-3,-49,8,1,1,1,4.335
868,-2,1,-5,6,0,-2,-1,-2,4.34
869,0,-2,3,-9,1,-1,-1,-1,4.345
870,-2,0,4,0,-2,-1,-1,-1,4.3500000000000005
871,-1,2,7,9,-4,-2,-1,-1,4.355
872,-2,-5,-7,5,0,0,0,0,4.36
873,-1,-1,-2,-13,0,-2,-2,0,4.365
874,1,-1,5,-7,-4,0,1,-2,4.37
875,0,1,3,17,2,0,0,-1,4.375
876,1,5,13,-7,-3,0,-1,-1,4.38
877,1,-3,-7,14,1,0,0,-1,4.385
878,0,-4,-3,-27,2,-1,-2,0,4.39
879,0,2,-1,10,-6,0,0,-1,4.3950000000000005
880,-2,-4,-10,-18,3,-1,0,-1,4.4
881,-2,0,8,9,-4,-1,-1,-1,4.405
882,-1,1,3,4,2,1,-1,1,4.41
883,0,-3,-9,-6,-1,-1,-1,-1,4.415
884,-1,-3,3,23,-5,-2,0,0,4.42
885,0,1,-1,-3,-1,-1,-1,-1,4.425
886,-1,-2,-4,-17,2,0,2,-1,4.43
887,-2,-1,3,2,-3,-1,0,-1,4.4350000000000005
888,0,-1,3,-1,-1,-1,-3,-2,4.44
889,-3,-3,-5,11,-4,-1,0,0,4.445
890,-1,0,5,3,1,-2,-2,-1,4.45
891,-2,-5,-33,-33,-4,-1,-1,-2,4.455
892,1,0,-1,-1,-2,0,1,-1,4.46
893,-1,0,0,-5,2,1,-1,-1,4.465
894,-1,1,-3,9,0,-1,-1,-2,4.47
895,0,-4,8,9,-3,-2,-1,0,4.4750000000000005
896,1,-1,1,1,-1,-2,-2,0,4.48
897,0,1,1,-7,0,0,-1,1,4.485
898,-1,3,2,-7,-1,-1,1,-1,4.49
899,0,-1,0,18,-1,-1,-1,0,4.495
900,-2,-4,-4,-11,-2,-1,-2,0,4.5
901,1,-1,7,9,-1,-1,0,0,4.505
902,-1,-2,-4,-7,0,1,-3,0,4.51
903,-1,-2,-3,-9,-1,-1,0,0,4.515
904,0,0,0,0,1,0,-1,-1,4.5200000000000005
905,-3,-1,-4,-6,-2,-2,-1,0,4.525
906,0,-4,-2,21,-5,-3,-2,-2,4.53
907,0,-1,2,-18,-1,-2,-2,0,4.535
908,0,2,2,1,3,1,-1,1,4.54
909,0,-2,-4,-11,-5,-1,0,-1,4.545
910,-3,-3,-1,4,1,0,0,-2,4.55
911,-1,3,7,21,4,0,0,0,4.555
912,-2,-3,-3,-22,-3,1,0,-1,4.5600000000000005
913,-2,-3,-4,7,0,-2,-1,-1,4.565
914,1,0,2,-5,-4,-2,-2,0,4.57
915,0,0,-1,-3,-4,0,0,1,4.575
916,-1,-2,-1,1,1,1,0,-2,4.58
917,0,-2,-1,2,2,0,-1,-1,4.585
918,-1,-1,-1,-7,-4,-1,-1,-1,4.59
919,0,0,0,10,1,-1,-1,-2,4.595
920,-2,2,1,-7,2,-2,0,0,4.6000000000000005
921,-2,-4,-2,-6,-4,-3,-2,-1,4.605
922,-3,-3,-6,-10,0,0,-1,0,4.61
923,-1,-1,1,4,-5,-1,-2,-1,4.615
924,-1,0,0,9,-1,-2,1,-1,4.62
925,1,-2,1,10,-1,-1,1,-2,4.625
926,-1,0,-2,-25,-2,0,-2,-1,4.63
927,0,-1,1,4,2,-1,0,-2,4.635
928,-2,0,2,5,0,-2,0,0,4.64
929,-1,0,2,-15,-3,0,1,-1,4.6450000000000005
930,-3,-4,-2,26,2,-1,1,1,4.65
931,-2,0,1,-3,0,-1,-1,-1,4.655
932,-2,-5,-2,-5,1,-2,-1,0,4.66
933,-1,1,-4,0,-2,-1,0,-2,4.665
934,1,0,3,-2,-2,0,-2,0,4.67
935,-1,-2,-2,-2,0,-3,-1,-1,4.675
936,0,2,1,4,-4,-2,-1,-2,4.68
937,0,-1,-1,-1,1,-1,1,0,4.6850000000000005
938,-1,-2,-1,-2,2,0,0,-1,4.69
939,-1,-2,1,14,-3,0,0,0,4.695
940,0,0,-3,-14,-1,1,-2,-1,4.7
941,-1,-3,-1,6,2,1,-3,-1,4.705
942,0,2,2,-25,2,-3,0,0,4.71
943,-1,-5,-1,-6,0,0,0,-2,4.715
944,1,0,0,11,-3,0,1,-1,4.72
945,-1,1,-2,-5,0,0,-2,0,4.7250000000000005
946,-1,-1,0,8,-2,-1,0,-1,4.73
947,0,1,1,-1,-6,0,-3,0,4.735
948,-1,-3,-2,2,4,0,0,0,4.74
949,1,-1,2,9,3,0,1,0,4.745
950,-1,1,0,4,-3,-1,-1,-2,4.75
951,-3,-7,-15,-23,-3,0,-2,-2,4.755
952,0,-1,2,-4,1,-1,0,-1,4.76
953,-1,0,-2,2,-1,1,-1,0,4.765
954,-1,1,4,5,1,0,-2,0,4.7700000000000005
955,-1,0,4,5,-2,-1,0,0,4.775
956,-2,-1,-4,2,-1,-1,-1,-1,4.78
957,-1,-1,-1,-5,-1,-2,0,-2,4.785
958,0,-1,-3,0,0,-1,-1,-1,4.79
959,0,1,1,18,-4,-2,-1,-2,4.795
960,-3,-1,-2,-7,-2,0,-1,0,4.8
961,1,2,1,-19,6,0,1,1,4.805
962,-2,-5,1,6,-2,-2,0,0,4.8100000000000005
963,0,-2,-13,2,3,-1,-1,1,4.815
964,-1,1,5,7,-3,-2,-1,-2,4.82
965,1,1,0,-4,-4,-2,0,-1,4.825
966,-1,-1,0,-4,-1,0,-1,-1,4.83
967,-1,2,4,-1,2,0,-1,0,4.835
968,0,0,-3,1,0,0,0,0,4.84
969,-3,-1,-3,1,-2,-3,-1,-2,4.845
970,1,-1,-3,0,1,1,0,-1,4.8500000000000005
971,-1,-1,0,-2,0,-1,0,0,4.855
972,-1,-1,-5,0,0,1,-1,-1,4.86
973,0,-1,0,1,-2,-1,0,0,4.865
974,0,-2,-2,6,-1,-1,0,1,4.87
975,-2,0,6,1,-5,-3,0,-1,4.875
976,0,-1,-4,-11,4,2,-2,1,4.88
977,-1,-2,-3,-6,1,0,-1,-2,4.885
978,-1,-3,-1,10,2,0,-1,0,4.89
979,0,-3,-7,-11,2,-1,0,0,4.8950000000000005
980,0,2,5,9,-4,-3,0,0,4.9
981,-1,-2,2,2,-6,-2,-1,0,4.905
982,0,1,-2,1,-2,-2,-1,-2,4.91
983,1,2,5,-2,0,1,0,0,4.915
984,-1,-4,-1,6,-1,-1,0,0,4.92
985,0,1,-4,0,0,0,-1,-1,4.925
986,-1,1,1,-6,-1,-2,-1,1,4.93
987,-1,-4,-1,9,0,0,0,0,4.9350000000000005
988,-2,0,-4,-18,-2,1,-1,-2,4.94
989,0,1,1,-1,4,-2,0,-1,4.945
990,-1,-1,-2,-16,-3,0,0,0,4.95
991,-1,-3,-3,12,4,0,1,-1,4.955
992,-1,0,-3,-7,-1,-2,-2,-1,4.96
993,-1,-1,1,14,-3,1,-2,2,4.965
994,1,0,-3,-7,-1,2,-1,-1,4.97
995,1,2,0,-7,0,-2,-1,0,4.9750000000000005
996,-3,-7,-1,9,-1,-2,0,-2,4.98
997,-1,0,-1,2,-1,-1,-1,-1,4.985
998,1,4,-1,-3,2,-2,-1,0,4.99
999,-2,-2,0,-1,-2,-1,-1,-1,4.995
1000,0,0,-1,-6,-2,-2,1,-1,5.0
1001,-2,-4,-3,-7,-3,-1,0,-1,5.005
1002,-2,-3,-2,4,2,0,0,1,5.01
1003,2,2,5,-5,-1,0,-1,1,5.015
1004,-2,2,-11,5,-1,-2,0,-1,5.0200000000000005
1005,-1,-4,-2,-7,-3,-1,-2,-3,5.025
1006,0,-2,1,-10,-1,0,0,-1,5.03
1007,-2,-2,-4,1,2,0,0,-2,5.035
1008,0,-1,3,1,-1,1,-1,-1,5.04
1009,-1,0,1,-8,0,0,-2,0,5.045
1010,-1,-2,-4,19,-3,-4,-2,-1,5.05
1011,-1,0,1,-1,-3,-1,-1,0,5.055
1012,2,0,3,15,-1,-1,0,-1,5.0600000000000005
1013,0,-1,-4,-25,0,-1,-1,-1,5.065
1014,-2,-3,-1,7,3,0,-1,-2,5.07
1015,-2,-3,-5,-33,-5,-1,-2,0,5.075
1016,-2,0,1,4,1,-1,-2,0,5.08
1017,0,1,1,16,-1,-2,0,1,5.085
1018,0,-4,-1,-3,-5,-2,0,1,5.09
1019,-2,1,0,8,7,1,1,0,5.095
1020,-2,-4,-1,0,-5,-2,-2,-1,5.1000000000000005
1021,-1,-1,0,-14,1,-1,-2,-1,5.105
1022,-3,0,0,-2,-3,-2,-1,0,5.11
1023,-3,-1,-1,3,-3,-1,1,-1,5.115
1024,1,-1,3,-1,-6,0,-1,-1,5.12
1025,-3,-3,-2,16,5,1,1,-1,5.125
1026,-1,0,-2,-19,1,-1,-1,-2,5.13
1027,0,-2,-1,-1,-6,-3,-1,-2,5.135
1028,-1,0,1,2,3,-1,-1,0,5.14
1029,-1,-2,-8,-4,-9,-2,0,-2,5.1450000000000005
1030,-2,2,3,0,0,0,-2,1,5.15
1031,-2,-2,-1,-1,0,-1,-2,0,5.155
1032,-1,0,0,8,1,0,-1,-2,5.16
1033,0,0,5,2,-1,-4,0,-1,5.165
1034,-2,-1,2,5,0,-1,-1,-3,5.17
1035,-2,-2,-17,3,-4,-2,-2,-2,5.175
1036,-1,0,2,-20,0,0,0,-1,5.18
1037,-1,1,3,2,-1,0,-1,2,5.1850000000000005
1038,0,-1,-6,-4,-1,1,0,0,5.19
1039,1,2,4,11,4,-1,0,3,5.195
1040,0,-2,0,2,-2,-3,1,0,5.2
1041,1,-2,2,4,0,0,-1,-1,5.205
1042,1,0,-1,-14,-3,-2,-2,0,5.21
1043,-1,-1,-1,-4,-5,0,-2,-2,5.215
1044,-1,-3,-6,-13,3,-1,-2,-1,5.22
1045,-1,-1,0,1,3,0,0,-2,5.2250000000000005
1046,-2,1,0,2,-2,0,-1,-1,5.23
1047,-2,0,2,-1,-2,0,-1,-2,5.235
1048,0,1,1,-4,-3,-2,0,0,5.24
1049,-1,-2,-3,12,0,1,1,0,5.245
1050,-1,-3,-4,-8,-4,-2,-2,-2,5.25
1051,1,0,2,-3,0,-2,0,-2,5.255
1052,0,-1,-2,5,-3,-1,0,0,5.26
1053,0,0,0,0,-3,-1,-2,-1,5.265
1054,-2,0,0,7,-1,0,1,0,5.2700000000000005
1055,-2,-1,1,-3,0,1,-2,-1,5.275
1056,1,-2,-2,15,-1,-1,1,0,5.28
1057,-1,0,0,-21,0,-2,0,-2,5.285
1058,0,-3,-4,17,-2,-2,-1,0,5.29
1059,1,1,-2,-1,-1,0,-3,-1,5.295
1060,-1,-1,1,3,5,0,-1,0,5.3
1061,-1,-3,-4,-12,2,-1,-1,-1,5.305
1062,-1,-1,1,2,-2,-2,-1,-1,5.3100000000000005
1063,-1,-1,0,-4,-1,-2,0,-1,5.315
1064,-1,2,-1,6,-4,0,-2,-1,5.32
1065,0,1,-1,-1,-3,0,-1,0,5.325
1066,-1,-4,-4,-7,2,0,-1,-2,5.33
1067,0,-2,0,7,1,-2,0,-1,5.335
1068,0,0,-1,-16,-3,-1,-1,0,5.34
1069,1,2,1,11,2,0,-1,-1,5.345
1070,-1,0,2,28,-4,-1,-1,1,5.3500000000000005
1071,1,0,-3,-27,5,0,0,-1,5.355
1072,0,-4,-1,2,1,0,0,-1,5.36
1073,-2,0,1,4,-6,-2,-1,-1,5.365
1074,0,0,0,0,4,-1,0,-1,5.37
1075,-1,-3,-1,-5,0,0,-1,-1,5.375
1076,-2,-3,-3,-6,-2,0,-1,-1,5.38
1077,0,-2,-2,2,-2,0,0,0,5.385
1078,0,2,2,-8,-1,1,-1,-1,5.39
1079,0,3,3,8,-6,-1,-1,0,5.3950000000000005
1080,-1,-1,-4,-5,2,-1,0,-2,5.4
1081,0,-3,-1,-1,-1,-3,-1,-2,5.405
1082,-1,-2,-2,-7,-3,-1,-1,0,5.41
1083,0,0,-1,-1,3,-1,1,1,5.415
1084,-1,-1,-7,-2,-1,-1,0,0,5.42
1085,-1,-1,-2,3,-1,0,-1,0,5.425
1086,1,0,-1,-19,0,0,0,0,5.43
1087,-1,0,2,5,-2,0,-1,1,5.4350000000000005
1088,1,1,3,0,-1,-1,-2,1,5.44
1089,-1,-1,0,1,-1,-2,-2,0,5.445
1090,-1,-2,-3,5,-1,0,0,-1,5.45
1091,-1,-2,0,-9,2,1,0,1,5.455
1092,0,-2,-2,12,-3,-2,0,0,5.46
1093,-3,-1,-2,-9,7,2,0,-2,5.465
1094,0,-2,-2,5,-3,-3,-2,-2,5.47
1095,-1,1,-2,-1,-4,-1,-1,-1,5.4750000000000005
1096,-1,-3,1,-3,-2,-2,0,-2,5.48
1097,-1,-1,1,5,-5,-2,-1,0,5.485
1098,0,2,0,-3,-3,-2,-2,1,5.49
1099,0,-4,0,15,0,-1,-3,-2,5.495
1100,-2,-2,-4,-4,4,0,0,-1,5.5
1101,0,0,-3,-19,-1,0,-1,0,5.505
1102,-2,-3,1,-8,0,-1,-3,0,5.51
1103,-1,1,-2,0,-5,-2,-2,-1,5.515
1104,1,-1,2,7,0,1,-1,0,5.5200000000000005
1105,-1,-1,0,3,0,-2,-1,-2,5.525
1106,-3,-1,-2,-2,-1,-1,0,-2,5.53
1107,0,-1,1,4,-2,-3,-2,-2,5.535
1108,-2,2,1,-8,0,-1,-1,-2,5.54
1109,-2,-4,-8,-3,-4,0,0,-2,5.545
1110,1,-1,2,4,-1,0,1,-1,5.55
1111,-2,-1,-2,3,-2,-1,0,-1,5.555
1112,-1,-1,-1,-12,-2,0,-1,1,5.5600000000000005
1113,-2,-2,2,6,2,-1,-1,-1,5.565
1114,0,-1,-4,1,-2,-1,-3,-1,5.57
1115,-1,1,-1,-1,-3,-1,-1,0,5.575
1116,0,0,-2,-7,-2,0,-1,0,5.58
1117,0,0,-1,3,-2,0,-1,-1,5.585
1118,-1,2,-1,-5,2,0,0,0,5.59
1119,1,-4,-1,-1,-2,-1,-1,-2,5.595
1120,0,-1,-2,-5,2,0,-1,0,5.6000000000000005
1121,0,-3,0,9,-5,-1,-1,-1,5.605
1122,-1,2,0,-6,2,2,-1,0,5.61
1123,0,-1,1,14,-3,-2,-2,-1,5.615
1124,-2,-3,-5,-20,-1,0,-1,1,5.62
1125,2,1,2,7,5,0,2,2,5.625
1126,0,0,-1,-2,-2,-1,-1,1,5.63
1127,-2,-1,1,-5,-3,1,0,0,5.635
1128,0,-2,-1,9,-2,0,-2,-1,5.64
1129,0,3,1,-5,-5,-1,-1,-1,5.6450000000000005
1130,-2,-4,-1,3,-1,0,-1,0,5.65
1131,1,-3,-2,-14,2,0,0,2,5.655
1132,-1,2,2,15,-1,0,-1,-1,5.66
1133,-2,-5,-6,-14,-2,0,-2,0,5.665
1134,-1,0,-2,-1,-1,-2,1,-3,5.67
1135,1,-1,-2,-2,1,0,-1,-1,5.675
1136,-1,1,1,9,1,-1,0,-2,5.68
1137,-1,0,1,5,-1,-1,-1,-2,5.6850000000000005
1138,1,-2,-3,-2,2,-1,1,-1,5.69
1139,-1,2,-1,0,-2,0,-1,-2,5.695
1140,-1,-1,-1,-15,-3,-2,-1,-2,5.7
1141,-1,1,0,9,3,0,1,0,5.705
1142,0,-1,1,3,-1,-2,-1,-1,5.71
1143,-2,-3,-5,-4,5,0,2,-1,5.715
1144,-1,-3,-1,6,-2,0,0,-1,5.72
1145,0,1,-1,-15,-3,-2,-1,-1,5.7250000000000005
1146,-1,-2,-1,11,-2,0,0,0,5.73
1147,0,-1,0,-18,-1,0,-1,-3,5.735
1148,0,3,2,2,0,0,0,-1,5.74
1149,0,-4,-4,11,-3,-1,-1,0,5.745
1150,-1,1,-1,-15,0,-1,-2,-1,5.75
1151,-1,0,2,11,-1,0,-1,0,5.755
1152,0,-1,1,7,6,0,-2,-1,5.76
1153,1,1,-1,-8,0,-2,-1,0,5.765
1154,-1,-2,-1,9,1,-1,0,-1,5.7700000000000005
1155,-2,1,-3,-17,-2,-3,0,0,5.775
1156,0,-5,-2,1,-3,-2,-1,-1,5.78
1157,1,1,2,2,0,1,0,0,5.785
1158,-3,-4,0,0,1,0,-2,-1,5.79
1159,-1,1,2,5,-1,-1,-2,-1,5.795
1160,0,1,0,-10,-5,-3,0,-2,5.8
1161,-1,-4,-3,5,3,0,-1,0,5.805
1162,-1,0,-1,-8,-2,0,-1,0,5.8100000000000005
1163,-1,-1,1,3,-1,0,-1,0,5.815
1164,-1,0,-1,14,-3,-2,-2,0,5.82
1165,-2,-1,-1,-19,-2,0,-1,-2,5.825
1166,0,-1,-6,-1,0,1,-1,-1,5.83
1167,-2,1,0,5,-1,-2,-1,-2,5.835
1168,-1,-1,0,2,-1,1,-1,-1,5.84
1169,-1,0,1,-2,-1,-1,1,-2,5.845
1170,-2,-1,-1,0,-2,-2,-1,-1,5.8500000000000005
1171,-2,-4,-2,2,-2,-1,0,0,5.855
1172,-1,-3,-3,-5,0,0,-2,0,5.86
1173,-2,-1,0,0,-3,1,-1,-1,5.865
1174,0,-1,1,-2,-3,1,0,-1,5.87
1175,0,-1,-4,6,2,0,0,-2,5.875
1176,-2,-1,0,3,-2,-1,0,-3,5.88
1177,-3,-4,-5,-14,0,0,0,-1,5.885
1178,0,0,1,4,-1,0,2,0,5.89
1179,-1,0,-2,-4,2,-1,-1,-1,5.8950000000000005
1180,-2,0,2,7,0,-2,0,-1,5.9
1181,0,-1,1,1,-4,-2,-1,-1,5.905
1182,-1,0,1,0,0,-1,-1,-2,5.91
1183,0,-3,-2,-17,-2,0,-1,-2,5.915
1184,-2,2,-3,-3,0,-1,0,0,5.92
1185,0,-2,-1,-1,-4,0,1,0,5.925
1186,0,1,1,9,2,-2,-1,1,5.93
1187,-1,0,-1,-3,-4,0,-1,-1,5.9350000000000005
1188,-1,-1,1,-5,-1,-1,-2,0,5.94
1189,-2,-1,-4,4,1,0,0,0,5.945
1190,0,0,6,-6,-2,-1,-1,-1,5.95
1191,0,2,-1,1,-1,-2,-2,0,5.955
1192,0,-1,0,0,1,-1,-1,0,5.96
1193,-1,2,7,6,0,-1,-1,-2,5.965
1194,-1,-4,2,-3,-3,-1,-2,-1,5.97
1195,-1,1,2,-1,-3,-1,-2,0,5.9750000000000005
1196,0,-2,-3,-6,-2,-1,2,0,5.98
1197,-1,-3,4,4,2,-1,-2,0,5.985
1198,-2,-1,-14,1,-5,-2,-2,-2,5.99
1199,0,-1,4,15,-1,0,0,-2,5.995
1200,-2,0,2,-34,8,2,-2,-2,6.0
1201,-1,0,8,20,-1,-2,-1,-1,6.005
1202,-1,-3,-9,-16,0,1,0,-1,6.01
1203,-1,0,-2,-11,-2,0,-1,0,6.015000000000001
1204,0,-3,0,13,-5,0,-1,-3,6.0200000000000005
1205,-1,2,6,-2,-4,-3,-2,-1,6.025
1206,-1,-3,-19,2,2,-2,0,-2,6.03
1207,0,-2,-2,-2,-2,0,0,-1,6.035
1208,-1,1,11,2,0,0,0,0,6.04
1209,0,3,-2,-5,0,1,-2,0,6.045
1210,-1,4,11,12,-1,-2,-1,-1,6.05
1211,0,0,-3,0,3,0,1,1,6.055
1212,-2,-1,-3,5,-3,-3,0,-1,6.0600000000000005
1213,-1,0,-14,1,0,0,-1,0,6.065
1214,0,-3,3,-13,-2,0,0,0,6.07
1215,2,2,21,10,2,-1,0,0,6.075
1216,0,-2,-25,-5,-2,-1,0,-1,6.08
1217,0,0,32,8,0,-1,-2,-2,6.085
1218,-3,-8,-36,-16,-4,-1,-1,-1,6.09
1219,-2,0,13,-9,-1,0,0,-1,6.095
1220,0,2,3,7,1,2,1,2,6.1000000000000005
1221,-3,-4,-7,-19,-2,-2,-1,-2,6.105
1222,-1,7,24,24,1,-1,-2,0,6.11
1223,-1,-6,2,14,-3,-2,1,-2,6.115
1224,0,1,-11,-13,1,2,0,1,6.12
1225,1,0,-4,0,0,1,2,-1,6.125
1226,1,5,30,28,3,2,-1,1,6.13
1227,-1,-1,-34,-22,3,1,-2,0,6.135
1228,-2,-6,-22,-20,-3,0,0,0,6.140000000000001
1229,-1,-5,9,7,-4,-2,-1,-1,6.1450000000000005
1230,-2,2,4,-11,-3,-2,-2,0,6.15
1231,-2,1,6,12,4,-2,0,-1,6.155
1232,1,-2,7,9,-3,0,-2,-3,6.16
1233,-1,-2,-22,-19,1,0,-1,-2,6.165
1234,1,-2,2,4,-3,-1,0,0,6.17
1235,0,0,-3,-1,-4,-2,1,0,6.175
1236,-2,0,5,2,-3,-3,-1,-1,6.18
1237,-2,-2,-10,-5,-3,-1,-1,-2,6.1850000000000005
1238,-1,-1,0,-11,2,-1,-2,0,6.19
1239,0,0,3,18,-1,-1,-2,-1,6.195
1240,-2,-6,-29,-25,-4,-3,-4,-4,6.2
1241,0,4,11,22,3,2,-1,0,6.205
1242,1,1,5,-11,-1,-2,1,0,6.21
1243,-2,-4,-20,-3,-4,-1,-1,1,6.215
1244,1,2,26,6,2,-1,1,1,6.22
1245,-2,-5,-32,-17,-2,-1,-3,-1,6.2250000000000005
1246,-1,-1,21,7,-4,-4,-1,-3,6.23
1247,1,-3,4,-2,-3,-1,0,-2,6.235
1248,-2,3,5,6,-1,-3,-1,-1,6.24
1249,-1,-1,-16,-2,-1,-1,2,1,6.245
1250,-2,-3,-11,-2,-2,-2,-1,-1,6.25
1251,1,0,2,-9,-1,0,-2,-1,6.255
1252,0,-4,4,10,3,-1,-1,-1,6.26
1253,0,-2,1,1,0,-2,-2,-1,6.265000000000001
1254,0,3,5,22,-2,-2,0,-1,6.2700000000000005
1255,-3,-3,1,-13,0,1,-2,-1,6.275
1256,-1,-3,-5,-27,-1,-1,-2,-1,6.28
1257,2,2,12,-5,0,-1,0,0,6.285
1258,0,3,-7,5,3,-1,0,-1,6.29
1259,0,2,11,5,-1,0,0,1,6.295
1260,-2,1,5,10,-1,-1,-2,-1,6.3
1261,0,-4,-6,1,-3,-2,0,-1,6.305
1262,0,0,-11,-13,-3,0,0,0,6.3100000000000005
1263,1,-1,-7,4,2,-1,-1,0,6.315
1264,1,1,5,3,-3,1,0,-1,6.32
1265,-2,-1,2,-6,-2,-3,-1,-2,6.325
1266,0,-2,2,-10,0,0,-1,1,6.33
1267,0,2,-13,1,-2,-1,-1,-1,6.335
1268,-2,-7,-20,-6,-4,-1,-2,-1,6.34
1269,3,3,7,5,0,0,-1,1,6.345
1270,-1,-1,-8,-15,-4,0,-1,0,6.3500000000000005
1271,-2,-1,5,11,6,0,-1,0,6.355
1272,0,3,4,22,-2,-1,-1,0,6.36
1273,-1,-2,2,-13,-1,0,0,-1,6.365
1274,-1,-1,-9,7,-1,0,-1,-1,6.37
1275,-1,-3,-8,-15,-1,-1,-2,-1,6.375
1276,-1,-1,-3,7,-4,-2,-1,-1,6.38
1277,-3,-3,2,-8,-1,-1,-3,-2,6.385
1278,-1,0,2,3,-1,0,-1,-1,6.390000000000001
1279,-3,-3,3,-8,-4,-2,0,-1,6.3950000000000005
1280,0,2,1,4,1,0,1,-1,6.4
1281,-1,1,4,18,-2,-1,-2,0,6.405
1282,1,-3,-10,-24,-1,0,0,0,6.41
1283,1,0,-5,3,-1,-2,-1,0,6.415
1284,-1,-1,2,-6,-2,0,0,0,6.42
1285,-2,0,5,0,1,0,0,0,6.425
1286,-1,-2,-8,15,3,0,-1,-2,6.43
1287,-1,-3,-15,-9,-2,0,1,1,6.4350000000000005
1288,-1,-2,3,-4,-1,-1,1,0,6.44
1289,0,2,5,4,-4,0,0,-1,6.445
1290,0,-1,-3,-12,1,0,0,0,6.45
1291,0,-2,1,-3,-4,0,-2,-2,6.455
1292,-1,1,14,5,2,0,0,-1,6.46
1293,1,-2,-10,7,-4,-1,-1,0,6.465
1294,-1,-1,-1,-16,2,2,-2,-1,6.47
1295,-1,3,6,16,0,-2,-1,-3,6.4750000000000005
1296,0,2,9,-14,-2,-1,0,-1,6.48
1297,-1,-4,-23,-3,1,-2,2,-2,6.485
1298,-3,-4,-2,4,-5,-1,0,-1,6.49
1299,-1,2,7,-7,3,-1,0,-1,6.495
1300,0,-2,-8,4,4,-1,-1,0,6.5
1301,-1,0,2,5,-1,-2,-1,-1,6.505
1302,-1,-1,2,-7,-4,-3,-1,0,6.51
1303,-2,-2,-3,-2,1,3,0,0,6.515000000000001
1304,-1,2,5,3,-1,1,0,0,6.5200000000000005
1305,-1,-2,0,-6,-2,-1,0,0,6.525
1306,-1,0,2,7,2,-3,-2,-1,6.53
1307,1,5,11,20,-2,0,-1,1,6.535
1308,-1,-8,1,-24,0,-3,-2,-3,6.54
1309,-1,-2,-13,-9,-1,-1,-1,-2,6.545
1310,-1,1,1,-4,-3,0,0,-1,6.55
1311,-1,0,2,-4,1,-1,-1,-2,6.555
1312,0,0,-3,12,-2,-1,0,1,6.5600000000000005
1313,-2,0,-9,-1,3,0,-1,0,6.565
1314,-1,-2,6,3,-2,-2,0,-2,6.57
1315,0,-1,1,5,1,0,-1,-1,6.575
1316,-1,0,-1,3,3,-1,-1,0,6.58
1317,2,1,5,-9,1,1,-1,1,6.585
1318,1,-1,-3,-1,0,0,-1,-1,6.59
1319,0,0,-4,2,-3,-3,0,1,6.595
1320,-2,-5,3,-2,-8,-2,-3,-4,6.6000000000000005
1321,1,-1,11,2,-3,0,0,0,6.605
1322,-2,-3,-15,-8,5,-1,-1,0,6.61
1323,-1,-2,-1,-6,-4,-1,-1,0,6.615
1324,-1,-1,-11,-1,0,2,-1,-1,6.62
1325,-2,-1,9,-5,-1,-1,0,-1,6.625
1326,-1,0,12,3,-2,1,-1,-1,6.63
1327,-1,-2,-28,-6,-3,-1,-2,-2,6.635
1328,-1,0,-15,0,1,-1,-1,0,6.640000000000001
1329,-1,-2,1,-4,-6,-3,-1,-1,6.6450000000000005
1330,0,-2,2,9,6,-1,0,1,6.65
1331,-2,-4,5,-8,-1,-2,-1,0,6.655
1332,1,2,6,10,0,0,0,1,6.66
1333,-1,0,-1,5,-1,-1,-2,-1,6.665
1334,-2,0,-1,-14,-7,0,-1,-1,6.67
1335,-2,0,12,8,2,-1,-1,0,6.675
1336,-1,1,-8,-6,-1,0,0,0,6.68
1337,0,0,7,29,-1,1,-1,0,6.6850000000000005
1338,1,-1,0,-22,0,-1,0,-1,6.69
1339,-1,-2,-4,-4,1,0,-1,-1,6.695
1340,-1,1,5,15,-2,-2,0,0,6.7
1341,0,-5,-9,-11,2,0,-2,-1,6.705
1342,-1,-1,2,-8,-1,1,0,0,6.71
1343,-1,-4,-17,4,-1,-2,1,-2,6.715
1344,-2,-3,8,4,-2,-2,0,0,6.72
1345,2,1,7,4,5,0,-1,0,6.7250000000000005
1346,0,3,-3,9,-5,-2,-1,-1,6.73
1347,1,3,9,-10,-2,0,0,-1,6.735
1348,0,-2,1,-7,0,0,-1,0,6.74
1349,-1,-5,-15,-13,-1,-1,1,-1,6.745
1350,-2,0,1,7,-4,-2,-2,0,6.75
1351,-2,-3,-1,7,-2,0,-1,-1,6.755
1352,0,3,3,6,-4,0,-1,-1,6.76
1353,0,3,2,8,4,0,-2,-1,6.765000000000001
1354,-1,-1,-5,-4,-1,0,0,-1,6.7700000000000005
1355,-1,-3,-6,-16,2,-1,0,-3,6.775
1356,0,-2,4,-3,-1,0,-1,0,6.78
1357,0,0,0,-13,-3,0,-1,-1,6.785
1358,-2,-4,-16,13,2,0,-2,-1,6.79
1359,-1,1,12,4,-3,-1,-2,-1,6.795
1360,-2,-3,-1,-7,1,-1,1,-2,6.8
1361,-1,1,-3,1,-2,-2,-1,-1,6.805
1362,1,-2,6,8,-2,0,0,-1,6.8100000000000005
1363,0,0,-3,-4,-4,-1,-2,1,6.815
1364,1,-5,-9,-13,6,0,0,-1,6.82
1365,0,-1,5,1,0,0,1,1,6.825
1366,-3,-1,-2,0,-1,0,0,-1,6.83
1367,0,1,2,3,0,0,-1,-1,6.835
1368,1,-1,2,8,-1,-1,-1,-1,6.84
1369,-1,-1,-5,5,-4,-2,-1,1,6.845
1370,1,3,1,-3,-6,-1,-2,-2,6.8500000000000005
1371,-1,3,1,-18,4,-1,-1,0,6.855
1372,-1,-3,-2,-13,1,-2,0,0,6.86
1373,0,2,-2,-6,1,0,-1,-3,6.865
1374,-1,-5,-2,4,-2,-1,0,-1,6.87
1375,1,0,3,14,-5,-3,0,2,6.875
1376,-3,-4,-6,8,1,-1,1,-2,6.88
1377,1,3,2,-7,1,2,-1,-1,6.885
1378,-2,-5,-2,-12,4,-1,-3,0,6.890000000000001
1379,-4,-3,-2,1,-1,-2,-2,-3,6.8950000000000005
1380,0,1,0,6,-1,-1,-3,1,6.9
1381,-3,-1,1,0,-6,-3,-1,1,6.905
1382,-2,2,-1,14,2,1,2,1,6.91
1383,2,-4,-4,-17,-3,0,3,4,6.915
1384,0,5,4,13,-1,0,0,-4,6.92
1385,0,-2,-7,-24,0,2,3,2,6.925
1386,1,-1,0,70,3,1,2,1,6.93
1387,-3,3,3,-66,10,-3,-8,-10,6.9350000000000005
1388,-3,-7,-3,-16,-28,-8,-2,-9,6.94
1389,-10,-4,-4,-22,25,3,0,10,6.945
1390,8,-4,-1,-51,0,0,-1,-18,6.95
1391,-1,-6,4,76,-9,-5,-4,7,6.955
1392,-1,5,4,-71,2,1,-3,-10,6.96
1393,2,-6,-19,-16,-11,-1,1,0,6.965
1394,-8,-1,6,6,-11,-5,-6,7,6.97
1395,14,-8,-10,45,-7,-1,3,1,6.9750000000000005
1396,12,17,1,38,-13,2,-1,1,6.98
1397,14,-3,0,-25,24,3,7,1,6.985
1398,9,7,-8,3,28,9,14,29,6.99
1399,-21,2,8,12,-22,-10,-16,-19,6.995
1400,-11,18,8,44,2,-3,-1,-1,7.0
1401,1,-38,-43,52,-15,0,6,8,7.005
1402,39,-21,-5,-75,28,12,14,25,7.01
1403,-35,-2,8,-24,-14,-7,-10,-20,7.015000000000001
1404,-7,-80,16,-1,13,-7,-14,-14,7.0200000000000005
1405,-46,18,23,9,-12,-2,-12,-33,7.025
1406,11,35,13,100,-51,-7,5,13,7.03
1407,37,-37,-72,-99,14,11,21,36,7.035
1408,-19,-16,-33,-36,21,-12,-27,-40,7.04
1409,0,-13,30,43,-13,-3,-3,13,7.045
1410,9,24,39,19,-10,-5,-1,-12,7.05
1411,-9,10,2,64,-31,3,15,38,7.055
1412,-18,28,-98,37,29,11,15,3,7.0600000000000005
1413,-14,-10,-128,-102,73,10,-7,-24,7.065
1414,6,29,-99,63,-4,-14,-19,-21,7.07
1415,4,-20,-120,-49,-5,-5,-11,-34,7.075
1416,19,59,-64,96,-70,-7,8,39,7.08
1417,5,12,-103,-50,-21,4,12,26,7.085
1418,-35,-26,-62,-117,86,15,4,-10,7.09
1419,14,25,-41,86,-45,-10,-11,-22,7.095
1420,24,-74,-32,-93,50,5,6,24,7.1000000000000005
1421,-29,-4,69,119,-53,-23,-11,-5,7.105
1422,-2,-86,65,-93,-42,-16,-18,-1,7.11
1423,-30,28,83,-97,24,4,-2,-28,7.115
1424,-42,-43,102,68,-40,-17,-25,-20,7.12
1425,59,4,85,-53,8,-1,6,-13,7.125
1426,61,39,42,25,4,1,-8,6,7.13
1427,-35,-3,72,127,-37,-7,-5,28,7.135
1428,-9,9,44,-86,-7,8,19,2,7.140000000000001
1429,55,18,41,-64,46,14,30,68,7.1450000000000005
1430,-83,-35,20,11,30,7,-8,-61,7.15
1431,36,24,30,14,-9,-12,-37,-52,7.155
1432,-17,-6,19,27,25,6,4,-23,7.16
1433,30,33,13,118,-93,2,29,70,7.165
1434,-4,14,19,-90,72,23,32,29,7.17
1435,15,23,2,41,-2,-2,-5,4,7.175
1436,-38,-30,19,22,-64,-16,-24,-22,7.18
1437,8,20,121,92,28,13,2,-8,7.1850000000000005
1438,-7,-34,5,34,-65,-20,-18,-28,7.19
1439,-16,12,-45,-35,4,3,16,23,7.195
1440,16,-16,-9,-13,2,-1,5,15,7.2
1441,8,39,-69,1,-49,-5,-2,5,7.205
1442,0,23,-18,-85,74,15,6,5,7.21
1443,-2,19,17,51,-15,6,20,26,7.215
1444,8,-9,-34,-83,48,6,-11,-10,7.22
1445,-35,-25,8,-67,60,-8,-47,-115,7.2250000000000005
1446,-29,-25,-16,74,-75,-22,-19,10,7.23
1447,31,0,42,-126,73,22,19,-3,7.235
1448,12,-3,-2,-33,1,6,18,29,7.24
1449,-22,-39,0,94,-25,-8,-3,5,7.245
1450,27,65,-8,-50,62,22,12,47,7.25
1451,-37,-9,-13,100,-38,-5,18,12,7.255
1452,29,110,8,80,-90,-21,-15,0,7.26
1453,-27,-55,-17,-50,58,2,-14,-42,7.265000000000001
1454,20,6,-14,111,-93,-24,-30,-28,7.2700000000000005
1455,13,22,17,-59,30,16,15,8,7.275
1456,-57,-25,15,-34,-21,-8,-6,-33,7.28
1457,-27,36,-16,90,-101,-12,4,24,7.285
1458,16,-63,15,-60,55,15,10,-3,7.29
1459,25,8,11,38,1,-1,3,26,7.295
1460,34,49,2,-24,-35,4,9,6,7.3
1461,-10,6,5,2,15,-15,-20,-18,7.305
1462,-13,-2,4,-9,-22,2,20,25,7.3100000000000005
1463,13,9,-3,-128,83,14,13,32,7.315
1464,12,-10,-2,52,3,-1,-9,-40,7.32
1465,-14,38,2,21,-74,-22,-30,-34,7.325
1466,-11,-24,2,61,32,-1,-10,-51,7.33
1467,19,5,-6,30,37,9,-3,28,7.335
1468,-27,-19,9,-51,48,16,20,29,7.34
1469,16,-35,2,-128,15,4,11,11,7.345
1470,2,14,-3,53,-24,-2,14,14,7.3500000000000005
1471,-9,11,3,63,-60,-14,-15,-38,7.355
1472,21,17,4,-20,47,11,16,60,7.36
1473,32,13,-5,-11,47,10,3,6,7.365
1474,-13,27,-5,5,-64,-5,12,25,7.37
1475,-33,-37,2,-21,-27,-3,-13,-65,7.375
1476,-12,42,2,87,-63,-22,-32,-16,7.38
1477,27,14,-5,-77,65,28,24,22,7.385
1478,-49,-52,3,54,-35,-10,-13,-31,7.390000000000001
1479,-8,-17,2,30,-16,-19,-19,-14,7.3950000000000005
1480,35,11,-1,95,-39,0,8,5,7.4
1481,12,2,0,-16,9,10,12,20,7.405
1482,3,50,1,-25,-2,-3,-4,9,7.41
1483,-4,-26,-2,16,-2,1,-9,-19,7.415
1484,6,14,-2,-86,-21,-8,-7,7,7.42
1485,9,16,0,-70,43,8,25,33,7.425
1486,15,13,0,58,51,0,-20,-18,7.43
1487,-3,-6,-2,79,-112,-22,-11,-18,7.4350000000000005
1488,10,-21,1,-86,116,27,14,-10,7.44
1489,-30,-7,-1,127,-96,0,9,16,7.445
1490,8,-41,-1,-128,24,-2,8,29,7.45
1491,6,27,0,99,-32,-9,-1,-14,7.455
1492,31,38,0,-27,42,8,-6,-7,7.46
1493,-24,4,-2,122,-33,-8,-13,-21,7.465
1494,-1,50,-1,-76,55,14,4,-19,7.47
1495,-10,-4,0,-42,-3,-9,-4,17,7.4750000000000005
1496,-10,-17,0,29,-2,10,22,1,7.48
1497,-1,10,-1,3,-22,-14,-25,-26,7.485
1498,7,6,0,33,-48,-4,13,60,7.49
1499,5,-10,0,-83,28,12,17,2,7.495
1500,-9,3,0,77,8,-14,-25,-28,7.5
1501,3,-42,-1,-57,-20,-11,-15,-16,7.505
1502,-5,1,-1,60,-25,10,21,18,7.51
1503,-22,-65,-1,38,31,-1,-10,-1,7.515000000000001
1504,12,1,3,-74,-3,2,6,-16,7.5200000000000005
1505,0,-18,-1,69,-71,-23,-20,21,7.525
1506,3,19,-1,-53,-35,-4,-1,-9,7.53
1507,6,3,-2,29,-20,2,4,15,7.535
1508,-9,-33,0,25,26,7,6,-6,7.54
1509,14,9,0,-40,15,-2,3,3,7.545
1510,8,-8,-1,88,-25,2,15,10,7.55
1511,1,20,0,27,-1,2,-7,0,7.555
1512,-1,7,-1,90,-13,1,1,14,7.5600000000000005
1513,-12,-27,0,39,-2,-11,-27,-56,7.565
1514,-8,-27,-1,-48,-1,-4,-6,-22,7.57
1515,-2,-18,0,-128,54,2,4,14,7.575
1516,11,42,-1,84,-63,-12,13,64,7.58
1517,-21,-9,-1,-63,40,5,-29,-66,7.585
1518,8,6,0,103,-100,-21,-20,-20,7.59
1519,12,1,-1,-70,53,22,16,28,7.595
1520,-6,-45,4,6,-22,1,3,1,7.6000000000000005
1521,6,-5,8,-1,40,11,35,46,7.605
1522,-4,13,11,-62,3,0,-2,-7,7.61
1523,-2,-7,7,37,-66,-14,-14,-23,7.615
1524,3,29,5,-112,53,14,4,-5,7.62
1525,25,-13,4,-49,47,25,44,54,7.625
1526,17,-18,5,20,-15,-17,-9,10,7.63
1527,-14,25,2,71,-25,-5,-15,-18,7.635
1528,-11,-63,0,14,3,-12,-15,-43,7.640000000000001
1529,-32,-38,1,3,-20,-18,-31,-5,7.6450000000000005
1530,-5,5,1,6,11,-1,-8,-32,7.65
1531,20,-15,-3,-104,32,10,24,48,7.655
1532,-6,26,-1,28,-21,-12,-27,-40,7.66
1533,-21,18,4,-43,-41,-10,-13,-35,7.665
1534,4,-23,2,127,37,2,9,26,7.67
1535,1,8,-3,66,-46,-12,-9,-13,7.675
1536,8,-36,0,23,-3,8,14,27,7.68
1537,15,50,-5,-62,94,16,13,19,7.6850000000000005
1538,-9,10,2,-61,-40,-3,0,-14,7.69
1539,-9,-23,-5,31,47,5,-1,-24,7.695
1540,1,4,-4,60,-43,-6,4,31,7.7
1541,-2,21,-2,127,-75,-4,14,9,7.705
1542,-7,-21,-4,-106,106,14,5,19,7.71
1543,-17,32,-1,62,4,-14,-35,-58,7.715
1544,-55,-44,1,8,-49,-23,-23,-48,7.72
1545,38,50,3,37,-2,10,26,28,7.7250000000000005
1546,25,19,-4,38,-19,-5,1,30,7.73
1547,-3,3,-1,-43,-5,-4,-19,-25,7.735
1548,-13,7,-2,-82,37,2,-2,-18,7.74
1549,-3,16,0,15,-38,-15,-18,-12,7.745
1550,-7,-22,1,77,-40,-11,-26,-35,7.75
1551,3,-5,-6,-128,71,20,19,23,7.755
1552,12,23,4,41,32,6,8,11,7.76
1553,-12,-67,-3,-65,28,8,10,11,7.765000000000001
1554,4,25,0,-99,3,3,7,13,7.7700000000000005
1555,-3,1,-1,7,-23,-6,-1,0,7.775
1556,7,8,0,87,-36,-2,9,18,7.78
1557,-1,-35,-5,-111,53,12,4,9,7.785
1558,-10,-17,-2,63,6,0,-11,-31,7.79
1559,19,12,-5,72,-52,-3,9,14,7.795
1560,19,5,-5,-128,78,22,25,29,7.8
1561,-15,-1,-1,68,-47,-20,-13,0,7.805000000000001
1562,-26,-24,0,32,-25,-15,-35,-47,7.8100000000000005
1563,0,40,4,-19,19,3,1,1,7.815
1564,22,11,5,11,-25,2,6,21,7.82
1565,3,16,-4,20,-2,1,-2,-19,7.825
1566,-3,10,-1,-17,13,8,28,21,7.83
1567,4,-23,-3,-4,-10,-1,-9,10,7.835
1568,-8,-8,1,1,-7,-8,-12,-29,7.84
1569,-2,14,-3,3,0,-4,-7,13,7.845
1570,-2,10,3,6,-3,7,4,-2,7.8500000000000005
1571,3,-15,1,12,-6,-1,8,14,7.855
1572,-1,-3,-1,4,-7,-2,-1,2,7.86
1573,-8,-9,-2,22,13,1,-1,-17,7.865
1574,6,7,-1,-2,-10,-1,-10,0,7.87
1575,-4,-2,1,-20,-5,-3,11,7,7.875
1576,-4,-5,102,7,3,-4,-6,-3,7.88
1577,1,-14,116,-12,-5,-1,-1,-6,7.885
1578,-1,25,127,20,-7,-1,-5,5,7.890000000000001
1579,-4,-5,127,-48,5,2,0,-6,7.8950000000000005
1580,-4,-5,115,22,-3,-4,-4,5,7.9
1581,2,5,127,16,-5,-2,-6,-5,7.905
1582,-1,1,70,-3,3,1,1,-3,7.91
1583,-4,-18,-73,3,3,1,1,2,7.915
1584,2,-3,-120,-8,-4,2,-2,3,7.92
1585,0,3,-58,12,0,-1,-5,0,7.925
1586,-4,21,-108,-7,0,0,2,-3,7.930000000000001
1587,0,-10,-74,11,-3,-1,2,5,7.9350000000000005
1588,-2,0,-128,-9,-4,-3,-5,3,7.94
1589,-1,0,-123,6,-3,0,-2,-8,7.945
1590,0,-6,-3,-4,-4,-1,-1,0,7.95
1591,0,-4,-18,4,2,0,-1,1,7.955
1592,-1,9,-73,-11,-3,-2,0,0,7.96
1593,-6,-40,-53,16,-5,-2,1,-5,7.965
1594,-2,-4,-2,-13,0,-2,2,0,7.97
1595,-2,-5,57,-8,0,-4,-3,0,7.9750000000000005
1596,-1,-1,79,0,-2,0,-2,-1,7.98
1597,3,-1,106,7,-4,0,0,-2,7.985
1598,5,15,109,-3,5,0,0,2,7.99
1599,-6,4,71,13,2,-1,0,-2,7.995
1600,-2,-6,3,-5,-12,-4,-2,0,8.0
1601,1,12,-78,3,7,2,-1,0,8.005
1602,-3,-9,-124,2,-1,1,1,-1,8.01
1603,-1,-8,-80,-4,-5,-1,-2,-2,8.015
1604,1,2,-69,-8,0,1,0,1,8.02
1605,0,3,-71,-2,0,0,-1,-2,8.025
1606,-1,-2,-65,-5,-2,-1,0,0,8.03
1607,3,-2,-54,11,1,0,2,3,8.035
1608,-1,-1,-17,0,-7,-4,-2,-1,8.040000000000001
1609,0,1,-27,-1,-3,-4,0,-2,8.045
1610,1,-3,-36,2,0,0,1,2,8.05
1611,1,-2,-22,13,-1,-1,0,0,8.055
1612,-5,-8,-5,-24,-3,-2,0,-4,8.06
1613,0,3,-4,-1,-1,0,2,0,8.065
1614,5,-3,-24,4,-2,-1,1,-1,8.07
1615,-1,-5,-10,7,3,2,2,1,8.075
1616,-4,5,10,-13,3,0,0,-1,8.08
1617,1,5,-5,-5,-5,0,1,0,8.085
1618,-9,-21,-10,-12,-9,-6,-4,-6,8.09
1619,-3,4,-3,2,5,-1,0,0,8.095
1620,-1,-7,6,17,-1,-1,-2,-1,8.1
1621,1,2,-3,0,-5,-2,0,-1,8.105
1622,-2,5,-10,9,-4,1,1,-2,8.11
1623,1,3,0,-12,5,1,0,1,8.115
1624,0,-3,1,12,-6,-2,-2,-1,8.120000000000001
1625,0,8,-2,-33,8,2,0,2,8.125
1626,-3,-9,-3,0,0,-4,-2,-2,8.13
1627,-2,-4,-3,-5,-2,-2,-1,-3,8.135
1628,4,4,3,13,1,1,0,1,8.14
1629,-3,-7,-1,10,-6,-4,-2,-3,8.145
1630,2,5,-4,-9,3,3,3,3,8.15
1631,-5,-7,-2,-14,-6,-6,-4,-5,8.155
1632,0,-1,1,13,-3,0,1,-1,8.16
1633,1,-2,0,-34,5,1,-2,-2,8.165000000000001
1634,-3,-12,-5,6,1,-2,0,-1,8.17
1635,-4,-12,-2,8,1,1,0,0,8.175
1636,-4,-8,2,-12,-5,-1,-3,-2,8.18
1637,1,2,-1,24,-3,-1,-1,0,8.185
1638,3,-11,-3,-21,-1,-1,-1,0,8.19
1639,1,8,-2,9,4,1,-2,1,8.195
1640,-1,4,1,-1,2,-1,-1,0,8.2
1641,-3,1,-1,23,-2,-2,1,-1,8.205
1642,-2,-1,-3,-32,0,-1,0,-1,8.21
1643,-3,8,0,11,-3,1,-1,1,8.215
1644,0,3,-6,20,-1,0,1,0,8.22
1645,-4,-6,-69,18,-6,-3,-3,-2,8.225
1646,0,9,-57,-20,13,4,0,0,8.23
1647,1,-5,-27,-20,-9,-4,-2,-2,8.235
1648,3,2,-56,-2,13,0,0,-1,8.24
1649,-9,-31,-41,-2,-8,-1,-1,-2,8.245000000000001
1650,6,14,-40,17,-4,-4,-1,-3,8.25
1651,1,6,-22,10,-4,-1,0,0,8.255
1652,0,1,0,-19,0,0,-1,0,8.26
1653,2,13,19,-1,-8,-2,-1,-1,8.265
1654,-5,-10,-20,5,2,0,-1,0,8.27
1655,3,3,10,-1,-1,1,0,1,8.275
1656,-4,-13,2,32,-5,-3,-1,-2,8.28
1657,3,1,11,-21,7,1,0,-1,8.285
1658,-2,8,11,2,-3,-2,-2,-1,8.290000000000001
1659,-2,-10,4,-8,4,0,0,-1,8.295
1660,0,4,13,-8,0,0,1,1,8.3
1661,0,3,8,-6,-3,-2,-4,-1,8.305
1662,-6,-1,21,11,-7,-5,-3,-4,8.31
1663,9,3,3,2,1,-2,-2,-1,8.315
1664,-3,-2,3,-14,-2,0,-1,-1,8.32
1665,0,5,26,-4,4,1,0,-2,8.325
1666,-2,-4,-10,-3,-1,0,-1,1,8.33
1667,0,-8,7,30,-6,-4,-3,-1,8.335
1668,0,-4,-12,-39,7,1,-1,1,8.34
1669,2,7,11,27,-9,0,-1,0,8.345
1670,-1,-2,-5,-19,8,1,-1,-1,8.35
1671,-2,-2,22,-21,9,0,1,-1,8.355
1672,-4,-7,-14,19,-9,-4,-2,-2,8.36
1673,-2,1,1,-13,4,-2,-1,1,8.365
1674,0,-8,20,0,-10,-2,0,1,8.370000000000001
1675,0,14,22,35,-5,1,-1,-1,8.375
1676,-3,-5,-8,-37,0,1,-3,-2,8.38
1677,-2,-8,3,10,4,0,-1,-1,8.385
1678,4,-2,16,-1,-2,-2,1,-1,8.39
1679,-3,5,17,2,1,0,0,-1,8.395
1680,0,1,4,11,-3,-1,-2,0,8.4
1681,-1,3,11,-30,-1,0,-3,-1,8.405
1682,-1,6,2,17,-1,0,0,-2,8.41
1683,-2,-6,-2,-19,-2,-1,-1,-2,8.415000000000001
1684,1,7,21,3,2,1,-1,1,8.42
1685,-1,-5,-2,8,-4,-2,-2,-1,8.425
1686,-1,1,10,3,4,3,0,0,8.43
1687,0,-3,-16,-24,-7,-2,-3,-2,8.435
1688,-1,-6,13,25,2,-1,-1,0,8.44
1689,0,7,3,-7,1,-1,0,-2,8.445
1690,-2,-3,-21,9,-2,-1,-1,0,8.45
1691,-1,-1,0,-9,-3,0,0,1,8.455
1692,0,-2,-2,-14,2,-2,-1,0,8.46
1693,-1,0,5,19,1,-1,-1,-2,8.465
1694,-2,0,0,1,6,0,-1,0,8.47
1695,-1,3,-13,-18,-2,-1,0,0,8.475
1696,0,-3,13,5,-4,0,-2,-1,8.48
1697,-1,-2,-8,8,-3,-1,-2,-1,8.485
1698,-3,-5,-6,-9,-6,-2,-2,-2,8.49
1699,0,-3,-2,2,0,1,-1,-1,8.495000000000001
1700,1,3,17,13,-1,0,1,-1,8.5
1701,-2,1,7,-32,4,0,-2,0,8.505
1702,1,1,18,-4,-2,-3,0,0,8.51
1703,-2,3,16,7,0,-2,-1,0,8.515
1704,-2,-1,-33,-3,-4,-2,-1,-1,8.52
1705,-1,-3,24,6,0,-2,-1,-1,8.525
1706,-1,-2,8,24,-5,0,-1,-2,8.53
1707,-2,-4,2,-29,5,-1,-1,-1,8.535
1708,-1,4,17,-29,-5,-1,-3,-2,8.540000000000001
1709,0,0,-1,17,-2,-1,1,0,8.545
1710,-3,9,21,5,-1,-2,-1,0,8.55
1711,-1,-4,-1,22,0,-1,0,0,8.555
1712,0,2,9,-2,-1,0,1,0,8.56
1713,-2,-4,-13,-8,-2,-2,-2,-2,8.565
1714,0,-4,11,-2,-2,3,0,1,8.57
1715,-2,0,-2,2,3,0,1,-1,8.575000000000001
1716,-1,0,-12,-2,-2,-1,0,0,8.58
1717,1,1,-3,0,-2,0,1,-1,8.585
1718,-1,-4,-3,-16,0,-1,-1,-3,8.59
1719,0,1,-13,6,-4,0,-1,-1,8.595
1720,-1,1,12,8,1,0,-1,-1,8.6
1721,0,1,-19,18,-1,-2,0,-1,8.605
1722,1,1,-2,-13,-7,-1,-1,-2,8.61
1723,-1,-2,0,17,-5,-1,-1,-1,8.615
1724,-1,-1,-2,-22,11,0,1,0,8.620000000000001
1725,-3,-10,-51,4,-1,1,0,1,8.625
1726,0,3,5,-8,-3,1,0,1,8.63
1727,-1,-2,-1,15,3,0,-3,0,8.635
1728,0,7,10,19,-6,-1,0,-1,8.64
1729,-1,-6,4,-15,0,0,-1,-2,8.645
1730,0,-1,1,21,-1,0,1,0,8.65
1731,0,1,-17,-15,3,-1,0,-1,8.655
1732,-1,-1,-8,-2,-3,-1,-2,-1,8.66
1733,0,3,18,0,3,1,-1,-1,8.665000000000001
1734,0,0,0,6,-4,-2,0,0,8.67
1735,0,1,-14,-11,0,0,2,0,8.675
1736,-1,-7,-4,-4,-1,2,-1,-1,8.68
1737,-1,3,7,14,-1,-4,0,0,8.685
1738,-1,0,-2,-10,-1,-2,-1,1,8.69
1739,0,-1,-11,-3,-1,-1,-3,-1,8.695
1740,2,2,5,6,-3,0,0,-2,8.700000000000001
1741,-4,-3,-17,4,-2,1,-1,1,8.705
1742,0,-2,7,-3,4,-1,-3,-2,8.71
1743,-1,-4,-7,-13,0,-2,0,0,8.715
1744,0,-1,-12,4,-2,-2,-2,0,8.72
1745,-3,-2,12,-23,-2,0,0,-1,8.725
1746,-1,1,2,3,0,-3,1,-1,8.73
1747,-2,2,11,17,0,1,0,-1,8.735
1748,-2,-2,-4,-8,-2,0,1,0,8.74
1749,-1,0,6,-5,1,0,1,-1,8.745000000000001
1750,-1,-3,-5,3,1,-1,-2,-1,8.75
1751,0,-1,9,-8,-5,-1,-1,-1,8.755
1752,1,2,5,8,6,-1,1,1,8.76
1753,-1,-1,6,3,-3,-1,0,0,8.765
1754,0,0,-7,-5,-3,-2,0,0,8.77
1755,0,-3,-6,-15,-4,-2,-1,-1,8.775
1756,-1,1,4,1,4,-1,0,1,8.78
1757,0,-1,5,-1,-4,0,-2,-3,8.785
1758,-2,-4,-16,-2,-2,-1,-2,-1,8.790000000000001
1759,-1,-7,-15,-1,-1,-2,-2,0,8.795
1760,0,-2,2,-3,1,0,1,-2,8.8
1761,0,3,10,-4,1,0,-1,1,8.805
1762,0,2,13,10,3,-1,0,-2,8.81
1763,1,1,-1,16,-5,-3,-1,-2,8.815
1764,-2,-1,1,-29,-4,-1,-2,-1,8.82
1765,0,-4,1,12,3,-1,-1,-2,8.825000000000001
1766,0,-2,-12,14,-3,-1,0,0,8.83
1767,-4,-5,4,-22,6,1,-2,-2,8.835
1768,0,-4,-12,8,-4,-2,-1,-3,8.84
1769,0,1,-3,-2,-1,-1,-1,-1,8.845
1770,0,0,2,-1,1,-1,0,0,8.85
1771,2,2,13,3,0,1,1,0,8.855
1772,-3,-4,-10,5,-3,-1,0,-1,8.86
1773,1,4,2,-2,-2,-2,-2,-1,8.865
1774,0,-6,-10,-5,-2,-3,-2,-2,8.870000000000001
1775,-3,-6,6,6,1,2,0,1,8.875
1776,-1,1,2,-18,1,-2,-1,-2,8.88
1777,-2,-9,-26,-24,-6,-3,-1,-1,8.885
1778,-1,3,7,-13,0,-1,-1,-2,8.89
1779,1,2,1,13,-2,-1,-2,0,8.895
1780,-3,-1,6,1,3,1,-1,0,8.9
1781,0,4,7,7,-3,-2,0,1,8.905
1782,-1,-1,0,3,2,0,-1,-1,8.91
1783,-2,-1,-6,-8,-2,0,0,0,8.915000000000001
1784,0,-2,3,13,-3,-1,0,-1,8.92
1785,0,-2,2,1,0,-1,0,0,8.925
1786,-2,-1,-2,-4,1,1,-1,-1,8.93
1787,1,7,3,2,0,-2,-1,-2,8.935
1788,-2,-6,-1,-1,-3,2,1,1,8.94
1789,-1,-4,6,5,3,0,0,-2,8.945
1790,1,-2,-15,8,-2,0,0,0,8.950000000000001
1791,0,1,-3,-27,3,-2,-1,-1,8.955
1792,0,-2,-15,0,0,-3,-3,-2,8.96
1793,0,2,2,-3,-4,-1,-2,-1,8.965
1794,0,1,10,4,0,0,2,-1,8.97
1795,-1,2,11,7,-4,-2,1,-1,8.975
1796,0,0,2,5,-1,-1,-2,-3,8.98
1797,-3,-2,-4,0,0,0,-1,-1,8.985
1798,0,4,5,-2,-6,0,-2,1,8.99
1799,-2,-11,-14,22,1,0,-1,0,8.995000000000001
1800,0,-2,0,-6,5,0,-1,0,9.0
1801,1,-3,-2,-17,2,-1,-1,1,9.005
1802,-2,1,-5,-16,-5,-3,-3,0,9.01
1803,1,1,3,5,-2,-2,-1,-1,9.015
1804,-1,1,-3,11,-3,-3,1,-2,9.02
1805,1,0,11,25,-1,0,0,0,9.025
1806,-1,-1,5,-31,2,-2,-1,-2,9.03
1807,0,0,-13,-5,-2,-1,-1,-1,9.035
1808,-1,-3,20,15,1,1,-3,0,9.040000000000001
1809,-2,1,-16,-17,-1,-2,0,0,9.045
1810,0,0,3,11,3,-1,0,0,9.05
1811,1,2,10,5,-1,-1,-1,0,9.055
1812,-1,1,-18,-8,1,-1,-2,0,9.06
1813,0,1,2,3,-2,-1,0,-1,9.065
1814,-1,-5,-1,-2,-1,-1,-3,-2,9.07
1815,-2,-1,-2,5,0,1,-1,-2,9.075000000000001
1816,0,1,1,-11,-4,-2,-1,-1,9.08
1817,-2,0,-2,-7,-3,-2,-1,-1,9.085
1818,-1,-3,-8,-10,2,-2,-2,-1,9.09
1819,0,1,4,-3,-4,-1,-1,-1,9.095
1820,-1,-4,-9,-4,-4,-2,0,0,9.1
1821,1,-3,1,9,-2,0,-1,-2,9.105
1822,-1,2,-1,5,-2,-1,-1,1,9.11
1823,-1,-3,1,-3,-2,0,0,-1,9.115
1824,0,3,9,-3,0,0,0,0,9.120000000000001
1825,-4,-4,-17,-6,-2,0,-1,-2,9.125
1826,0,-2,-2,5,-1,0,1,0,9.13
1827,1,-1,-3,-13,-1,-1,0,0,9.135
1828,2,2,4,1,-1,-1,0,0,9.14
1829,-1,0,3,6,2,-1,1,0,9.145
1830,0,1,0,0,-1,-2,-1,-1,9.15
1831,-2,-5,3,-7,-2,-3,0,-1,9.155
1832,-1,-4,-8,-10,-1,0,1,-2,9.16
1833,-2,0,5,1,0,-2,-2,-1,9.165000000000001
1834,-1,-3,0,-6,-4,-1,-2,-3,9.17
1835,1,0,0,10,1,0,-1,-1,9.175
1836,1,-1,7,12,-1,0,-1,-1,9.18
1837,-1,1,2,-6,1,0,1,0,9.185
1838,-3,-2,0,-2,-1,1,0,0,9.19
1839,-1,2,-3,-6,-1,0,-1,1,9.195
1840,-3,-5,-19,-7,-1,1,-2,0,9.200000000000001
1841,0,3,6,10,-4,-2,-1,-1,9.205
1842,-4,-6,-5,-1,0,1,-1,0,9.21
1843,-1,-3,5,-10,1,-1,1,-1,9.215
1844,-1,0,-10,9,-5,-1,-1,-1,9.22
1845,-1,-2,3,7,1,1,-1,0,9.225
1846,-1,-2,-5,-10,0,0,-1,-1,9.23
1847,-1,3,-3,-1,2,-2,-2,0,9.235
1848,-2,0,8,6,-2,-1,-1,0,9.24
1849,0,-2,-5,-3,-1,1,0,-1,9.245000000000001
1850,-1,2,2,4,1,-1,-1,-1,9.25
1851,-1,1,-3,5,-2,-1,0,0,9.255
1852,-1,-3,4,-2,-1,-1,0,-2,9.26
1853,-1,-3,-3,13,-2,0,-2,-1,9.265
1854,-3,0,2,-21,-4,-2,-3,-2,9.27
1855,-1,-2,0,20,6,0,0,-1,9.275
1856,-1,-2,-12,-24,-5,-2,-1,-1,9.28
1857,0,-1,0,7,-3,-1,0,-3,9.285
1858,-1,-2,-8,-10,3,-1,-1,0,9.290000000000001
1859,-1,0,-2,4,-6,0,-2,-1,9.295
1860,1,1,16,-5,1,-1,0,0,9.3
1861,-1,0,-2,-1,0,-1,-1,-1,9.305
1862,3,1,6,11,-3,1,2,-1,9.31
1863,-3,0,-3,-6,-2,-2,-1,-1,9.315
1864,0,1,2,9,0,0,-1,0,9.32
1865,0,4,-1,-14,-1,-1,-1,-2,9.325000000000001
1866,-3,-3,-1,12,1,0,0,-1,9.33
1867,-1,-4,-6,11,1,0,0,0,9.335
1868,-1,-3,-2,-11,-4,-1,-2,-1,9.34
1869,1,1,-3,-7,5,-1,0,-1,9.345
1870,1,3,1,-8,-4,-1,-1,0,9.35
1871,0,-2,-14,0,2,-1,-2,-2,9.355
1872,-1,-2,-6,4,-1,-2,0,-1,9.36
1873,0,-2,2,0,-3,0,-1,-3,9.365
1874,0,-2,2,11,1,-1,0,-1,9.370000000000001
1875,-1,-2,3,-12,-1,-1,0,-2,9.375
1876,-1,1,3,7,1,-1,-1,-2,9.38
1877,-3,-1,-5,-7,-2,-1,0,0,9.385
1878,-1,-3,0,4,-1,-1,-1,-2,9.39
1879,1,2,1,-9,-6,0,-1,0,9.395
1880,-1,0,-2,3,6,1,1,-2,9.4
1881,-3,-2,0,15,-3,-2,-2,-2,9.405
1882,0,2,7,-14,9,2,0,-1,9.41
1883,-2,-1,-5,-16,-7,-1,-2,-2,9.415000000000001
1884,0,1,3,5,-3,0,0,-1,9.42
1885,-2,-3,-3,-10,1,0,0,0,9.425
1886,0,0,0,18,-4,-3,-1,1,9.43
1887,1,1,6,17,-4,-2,0,-1,9.435
1888,-1,-2,-9,-22,6,1,0,1,9.44
1889,-2,-2,-2,-4,-3,0,-1,0,9.445
1890,-1,-2,0,30,-1,-1,0,-1,9.450000000000001
1891,-2,-7,-12,-27,1,-1,0,-2,9.455
1892,-1,-1,6,1,-7,-2,-3,0,9.46
1893,0,0,2,-5,2,0,-1,0,9.465
1894,-1,-1,-3,4,-4,-2,0,-2,9.47
1895,1,3,7,4,0,0,-1,1,9.475
1896,-1,0,3,10,0,0,-1,-1,9.48
1897,0,-2,0,-1,-1,-1,-1,-2,9.485
1898,1,1,-4,-22,-2,-1,0,-2,9.49
1899,-4,-5,-5,-2,2,-1,0,-1,9.495000000000001
1900,-3,-1,1,3,-5,-3,-2,-2,9.5
1901,-1,-1,-2,-2,3,-1,-1,-1,9.505
1902,-1,1,-2,4,-2,0,-1,-1,9.51
1903,0,-1,-1,-3,1,0,-1,1,9.515
1904,0,-1,-1,1,-5,-1,0,-1,9.52
1905,0,3,4,2,-1,-1,1,0,9.525
1906,-1,-3,-4,2,-1,-4,-1,-1,9.53
1907,0,-1,8,-6,3,1,0,0,9.535
1908,-4,-7,-26,-7,-2,-2,-1,-2,9.540000000000001
1909,1,2,1,-12,-3,-2,0,-1,9.545
1910,0,-4,-3,-8,0,-2,0,0,9.55
1911,-1,3,11,8,-2,0,0,1,9.555
1912,1,1,9,8,0,1,-1,0,9.56
1913,-1,-1,-4,-3,1,0,-2,0,9.565
1914,-1,-2,-3,1,-2,1,-1,0,9.57
1915,-1,-1,-5,0,-2,-2,-1,-1,9.575000000000001
1916,0,-1,4,2,1,-1,1,-1,9.58
1917,-1,3,-3,8,-7,-3,0,-1,9.585
1918,-1,-2,1,-17,2,0,1,0,9.59
1919,0,2,-2,8,2,0,0,-2,9.595
1920,0,-3,-6,-13,-1,-3,0,-1,9.6
1921,0,0,6,-2,0,-1,-2,-1,9.605
1922,-2,-1,-6,5,-5,-2,-2,-2,9.61
1923,-1,-1,-14,-6,-4,-1,-1,-2,9.615
1924,0,0,8,5,0,-2,0,0,9.620000000000001
1925,-1,-3,-1,6,-2,0,-1,-2,9.625
1926,-1,1,3,0,-1,0,-2,-1,9.63
1927,-1,-3,-1,0,-1,-1,-2,-2,9.635
1928,0,3,2,3,-1,0,0,0,9.64
1929,0,-2,-6,-5,0,-1,0,0,9.645
1930,-1,3,-1,0,1,0,0,-1,9.65
1931,-1,0,0,-3,-1,-2,-1,-1,9.655
1932,-1,-2,2,7,0,1,0,0,9.66
1933,-3,-1,-3,-12,-1,-2,-1,-1,9.665000000000001
1934,0,-1,3,7,4,0,-1,0,9.67
1935,-1,2,-13,0,-4,-3,-3,-1,9.675
1936,0,0,0,-1,-2,0,0,-1,9.68
1937,-2,-4,0,-3,2,1,1,0,9.685
1938,1,2,3,3,-2,-1,-1,0,9.69
1939,-1,-2,8,15,0,0,-1,1,9.695
1940,0,2,1,-15,1,-1,-2,-1,9.700000000000001
1941,-1,-3,-6,-3,-2,0,-1,-1,9.705
1942,-1,-1,-1,-6,-5,-3,1,1,9.71
1943,-1,-1,3,0,10,2,1,-2,9.715
1944,-2,-2,-2,-8,-3,-1,1,-1,9.72
1945,-1,3,1,6,2,1,-1,-3,9.725
1946,-1,0,-1,-1,-2,-1,-2,-2,9.73
1947,1,-1,0,-10,-4,-1,-1,1,9.735
1948,0,4,0,12,-2,-1,-3,-1,9.74
1949,1,-3,-1,-2,-1,-2,0,0,9.745000000000001
1950,-1,-3,-3,-3,1,-1,-1,-1,9.75
1951,-1,-1,0,3,-2,0,-1,-2,9.755
1952,0,2,5,1,0,0,-2,0,9.76
1953,-1,-4,3,1,-2,-1,-1,0,9.765
1954,-1,-6,-10,18,6,0,-2,-1,9.77
1955,0,0,-2,-29,-5,-2,-2,0,9.775
1956,-1,-2,1,-5,2,1,-1,-1,9.78
1957,0,0,2,-8,-1,-1,-2,0,9.785
1958,0,2,5,1,-3,-1,-1,-1,9.790000000000001
1959,-2,-1,0,3,-1,-2,1,-1,9.795
1960,-1,-3,-6,4,-3,0,-1,-1,9.8
1961,0,1,0,0,0,0,-1,-1,9.805
1962,-1,-2,-1,-3,-1,1,-1,-1,9.81
1963,0,-1,-2,6,-1,-3,0,0,9.815
1964,-2,0,1,-2,-1,0,0,0,9.82
1965,0,-1,-6,2,-1,-2,-1,1,9.825000000000001
1966,-1,-3,2,-4,-1,0,-1,-1,9.83
1967,0,-1,0,-5,-4,2,0,-1,9.835
1968,-1,0,-2,22,3,-2,0,-2,9.84
1969,0,0,-2,-27,1,-2,0,-1,9.845
1970,-2,1,1,-11,-2,-2,-1,1,9.85
1971,0,-3,-2,14,1,0,-2,0,9.855
1972,1,0,2,-1,-4,-2,-1,-2,9.86
1973,-1,-1,-2,14,-1,1,0,0,9.865
1974,-1,-1,0,-9,-6,-3,0,-2,9.870000000000001
1975,-2,0,2,-5,-2,-1,-1,-1,9.875
1976,1,4,1,3,0,-1,0,1,9.88
1977,-1,-6,-4,16,-4,1,1,-1,9.885
1978,-2,-6,-5,-2,1,-2,-1,-2,9.89
1979,1,-2,-1,-11,4,0,0,-1,9.895
1980,1,-1,2,-5,3,1,1,0,9.9
1981,0,3,6,0,-7,-1,-1,-1,9.905
1982,-1,1,-11,10,5,1,0,0,9.91
1983,-2,0,2,10,-1,-2,-2,-1,9.915000000000001
1984,-2,-3,-1,-15,-2,0,-1,0,9.92
1985,-2,-1,3,5,-2,0,-2,-1,9.925
1986,-1,0,3,1,-3,-1,-1,-1,9.93
1987,-1,1,2,-5,-1,-1,-1,-1,9.935
1988,-1,-2,-2,1,-1,-1,-2,-1,9.94
1989,0,0,0,-1,1,-1,-2,-1,9.945
1990,0,0,-1,-2,-3,1,1,-1,9.950000000000001
1991,0,3,0,-1,0,0,2,-1,9.955
1992,-2,-9,-4,-1,-5,-1,-1,-1,9.96
1993,-1,-1,-4,2,2,0,0,0,9.965
1994,-1,-1,1,17,-4,0,0,-1,9.97
1995,1,2,-2,-23,-1,0,-1,-2,9.975
1996,1,2,-1,-10,2,0,0,-2,9.98
1997,-1,-2,2,-4,0,-1,0,-2,9.985
1998,0,-2,-8,0,-2,-3,-2,0,9.99
1999,0,-3,1,13,-3,0,-1,-1,9.995000000000001
2000,-2,-2,0,2,-2,-1,-3,-2,10.0
2001,0,-2,3,-2,0,0,-1,0,10.005
2002,0,2,7,-1,0,0,-1,-1,10.01
2003,-2,-3,-3,2,0,-1,-1,0,10.015
2004,0,1,-1,-7,0,-1,-2,-1,10.02
2005,-1,-9,-7,1,-3,-1,1,-2,10.025
2006,-1,0,1,0,-6,-2,-1,-1,10.03
2007,-1,-2,-5,-4,13,0,0,-1,10.035
2008,-1,0,-1,10,-4,0,2,-1,10.040000000000001
2009,0,5,2,-15,3,0,0,0,10.045
2010,0,-1,0,-11,-3,-2,-1,-1,10.05
2011,-1,-1,1,4,-3,-1,-1,-1,10.055
2012,-1,-1,1,3,-1,-1,-1,-1,10.06
2013,-1,3,-1,2,1,1,0,0,10.065
2014,-2,0,-1,-8,-1,0,-1,0,10.07
2015,-2,-2,0,8,-4,-2,-1,0,10.075000000000001
2016,0,0,-3,-6,1,1,-1,0,10.08
2017,-1,-2,-3,2,-1,-1,0,-1,10.085
2018,0,0,2,3,2,0,0,0,10.09
2019,-2,-1,-4,-4,-2,-1,-1,-2,10.095
2020,0,0,-1,-2,-2,-1,0,-2,10.1
2021,0,-1,-1,-3,-3,0,-1,2,10.105
2022,0,1,0,2,0,-2,0,0,10.11
2023,1,-1,2,3,2,-1,0,-1,10.115
2024,-2,-1,-1,-2,-4,-1,1,-2,10.120000000000001
2025,-1,-1,-1,19,1,-2,0,0,10.125
2026,1,-1,3,-17,-2,0,0,-1,10.13
2027,1,2,1,-11,0,2,-1,1,10.135
2028,-1,-2,-3,-16,-2,-1,-1,0,10.14
2029,0,-2,1,7,-6,-3,-2,-2,10.145
2030,-1,2,-4,-8,8,0,-1,0,10.15
2031,-2,-8,-5,8,-3,0,-1,-2,10.155
2032,-1,2,2,25,-3,-1,-2,-1,10.16
2033,-2,-2,-4,-26,0,0,-1,-1,10.165000000000001
2034,0,0,2,6,-2,-1,-1,-1,10.17
2035,-1,3,4,-2,-3,-2,0,0,10.175
2036,0,-2,0,6,2,-1,-1,-1,10.18
2037,0,0,4,1,-1,0,-2,-1,10.185
2038,1,1,-1,2,0,-2,0,0,10.19
2039,-2,-2,-5,2,-3,-1,-1,-2,10.195
2040,-1,1,-1,-1,1,0,-1,0,10.200000000000001
2041,-2,-2,-4,0,2,-2,-2,-1,10.205
2042,-2,-3,0,-18,-1,1,1,0,10.21
2043,-1,-1,-2,-2,4,1,1,1,10.215
2044,-1,-2,-3,0,0,0,0,-1,10.22
2045,-2,0,2,-1,-1,-1,-2,-1,10.225
2046,0,-1,-6,10,-6,-2,-1,0,10.23
2047,0,0,-1,-2,-5,-1,-1,-1,10.235
2048,0,-2,-2,-8,-1,0,-1,0,10.24
2049,0,-1,-2,2,-2,-2,1,-2,10.245000000000001
2050,-2,-2,0,0,0,-1,-2,-2,10.25
2051,-1,1,0,2,-1,-2,-3,-2,10.255
2052,-1,-3,0,-3,1,-1,0,-1,10.26
2053,0,1,0,0,-1,-1,-1,0,10.265
2054,-2,-8,-2,4,0,0,-1,-2,10.27
2055,-2,-1,-1,-5,-6,-1,0,-2,10.275
2056,-2,0,-4,-9,5,0,0,-1,10.28
2057,0,0,-3,-4,1,2,0,0,10.285
2058,0,0,2,0,1,0,-1,0,10.290000000000001
2059,-2,0,0,6,-3,-1,-2,0,10.295
2060,0,-2,1,4,-5,-1,0,-1,10.3
2061,-2,-1,-2,-4,-1,-2,0,-1,10.305
2062,-2,4,-1,3,0,0,0,1,10.31
2063,1,0,2,2,-3,0,1,-1,10.315
2064,-1,-2,-2,0,-1,-2,-1,-1,10.32
2065,-1,-3,-5,-6,0,-1,0,1,10.325000000000001
2066,1,2,3,6,-3,-2,0,-1,10.33
2067,0,-1,0,-10,8,0,-1,-1,10.335
2068,0,-1,-4,0,-2,0,1,0,10.34
2069,0,-1,2,3,-1,-1,0,-2,10.345
2070,-1,-1,-1,-4,-3,-1,0,-2,10.35
2071,0,-1,-1,-1,-7,-1,-3,-1,10.355
2072,-1,-1,-1,9,0,0,-1,-2,10.36
2073,-3,0,-2,-2,1,-1,0,-2,10.365
2074,-3,-1,-5,-17,2,1,0,0,10.370000000000001
2075,-1,-3,-2,1,-4,-2,-3,-2,10.375
2076,-1,-3,0,-2,-2,-1,-2,-1,10.38
2077,-1,3,2,4,-5,1,0,0,10.385
2078,-1,0,0,-1,0,-1,-1,-1,10.39
2079,-1,0,-3,-1,-1,-1,1,-2,10.395
2080,-1,-3,-2,-8,-2,-2,-1,0,10.4
2081,0,-5,-3,-1,-2,0,-2,0,10.405
2082,1,-1,-2,6,4,1,0,1,10.41
2083,-2,-4,0,-1,0,-2,0,-2,10.415000000000001
2084,-1,-2,2,2,-2,0,-2,-2,10.42
2085,0,0,-4,-9,-4,-1,-2,-1,10.425
2086,0,-2,0,2,2,-1,-2,-2,10.43
2087,-2,-6,-4,4,2,0,0,-2,10.435
2088,0,-1,-4,0,-4,-2,0,-2,10.44
2089,-2,-2,1,9,4,0,-1,0,10.445
2090,1,-1,0,-17,-8,-1,-3,-2,10.450000000000001
2091,-1,-2,1,18,0,1,0,1,10.455
2092,0,-1,-3,-28,2,0,0,0,10.46
2093,0,0,3,1,-5,0,-1,-1,10.465
2094,-1,3,-3,0,-1,-1,0,0,10.47
2095,0,-2,0,4,-1,-2,-1,0,10.475
2096,-3,1,4,8,0,-1,-1,0,10.48
2097,0,-1,0,-2,-2,1,-1,1,10.485
2098,-1,0,3,8,0,-1,-1,-2,10.49
2099,0,-1,-3,-13,1,-1,-2,0,10.495000000000001
2100,-1,1,-1,3,-1,-1,-1,0,10.5
2101,-1,3,3,-4,-1,-1,0,-2,10.505
2102,-1,-4,-4,11,-2,1,-2,-1,10.51
2103,1,2,3,-9,2,1,1,1,10.515
2104,0,-3,-5,-4,-3,0,0,0,10.52
2105,0,0,-2,5,3,0,0,-1,10.525
2106,0,-5,-2,2,-2,-2,1,0,10.53
2107,-2,3,4,-13,-6,-2,0,-1,10.535
2108,-2,0,3,-4,5,-1,-1,-1,10.540000000000001
2109,-1,0,-2,7,-1,-2,0,-1,10.545
2110,-1,0,-1,-6,-7,-2,-1,0,10.55
2111,-1,0,0,4,5,2,-1,0,10.555
2112,0,-3,-3,-6,-3,0,-1,0,10.56
2113,-1,0,-2,-10,1,0,-1,-1,10.565
2114,-2,-2,1,7,1,-2,-3,-1,10.57
2115,-3,-1,-3,-2,-4,-1,0,0,10.575000000000001
2116,0,1,-2,7,-1,1,1,-1,10.58
2117,-1,-1,-3,-2,-4,-1,0,-2,10.585
2118,-3,-4,1,-5,3,0,0,-1,10.59
2119,0,-2,-3,1,-1,-2,-1,0,10.595
2120,0,0,2,2,0,-1,-2,-1,10.6
2121,-2,-1,2,-6,-3,-2,-1,-1,10.605
2122,-2,1,0,5,1,-1,-1,0,10.61
2123,-2,1,-1,-2,-3,-1,0,-2,10.615
2124,-2,-1,2,2,-2,-1,-2,0,10.620000000000001
2125,1,-7,-2,1,0,-2,0,-1,10.625
2126,1,1,-5,-2,-1,1,1,-1,10.63
2127,1,1,-1,-10,-4,-2,0,-1,10.635
2128,0,1,2,9,6,-1,1,-1,10.64
2129,-2,-2,-1,-7,0,1,-1,-1,10.645
2130,-1,-1,-1,-12,-3,-2,-2,1,10.65
2131,-1,-1,1,16,0,-2,-1,-1,10.655
2132,1,-2,-3,2,-5,1,1,0,10.66
2133,3,0,-1,1,3,0,-2,1,10.665000000000001
2134,-1,-1,-2,-2,1,-1,-1,-2,10.67
2135,0,-1,-1,-12,-2,-2,0,-1,10.675
2136,-2,-3,2,-4,-4,-1,-2,-1,10.68
2137,-1,0,1,8,-2,-3,-2,-2,10.685
2138,0,-1,1,-3,-3,1,0,-1,10.69
2139,-2,1,0,1,0,0,-2,-1,10.695
2140,-1,-3,-3,0,1,-1,1,0,10.700000000000001
2141,1,0,-1,-5,-2,-1,1,-1,10.705
2142,-1,0,0,1,1,-2,0,-2,10.71
2143,-1,1,3,2,-2,0,0,-1,10.715
2144,0,-2,-9,-7,-1,-3,-3,-1,10.72
2145,0,2,2,0,-2,-1,2,1,10.725
2146,-1,-1,1,0,0,0,0,0,10.73
2147,-1,-1,-3,4,-3,-2,0,-1,10.735
2148,-2,-1,0,-3,-1,0,0,0,10.74
2149,-1,-1,-1,6,-2,0,-1,0,10.745000000000001
2150,-2,0,-2,-10,4,0,-1,-1,10.75
2151,-1,-5,-3,-4,-1,0,0,-2,10.755
2152,-1,0,0,-2,0,-1,-1,-2,10.76
2153,-1,-4,-2,-4,1,-1,-1,-1,10.765
2154,0,-1,0,4,-3,0,0,-2,10.77
2155,-1,-3,-3,4,-1,0,0,-1,10.775
2156,1,1,2,2,-2,0,-2,-1,10.78
2157,-1,-2,-2,1,-2,-2,-2,-3,10.785
2158,-2,-1,0,-2,-2,-3,0,0,10.790000000000001
2159,-2,-2,-5,-5,2,1,0,1,10.795
2160,1,2,1,1,-1,-1,1,0,10.8
2161,-1,-1,-1,-1,-1,-1,-1,-1,10.805
2162,1,-1,1,3,-2,-1,-2,-2,10.81
2163,0,-1,0,1,-2,-1,0,-2,10.815
2164,-2,0,0,2,-1,-1,-1,0,10.82
2165,0,1,-2,-5,-2,1,-1,0,10.825000000000001
2166,-2,0,0,0,-3,-2,-1,-2,10.83
2167,1,-3,0,3,0,0,-1,-1,10.835
2168,-2,-2,-1,-3,-4,-1,-1,-1,10.84
2169,1,1,-3,-17,2,-2,0,0,10.845
2170,-2,1,-4,16,1,0,1,1,10.85
2171,0,-1,3,-3,-4,-2,-2,-1,10.855
2172,-1,-2,-4,-5,-2,-1,0,0,10.86
2173,-1,-2,0,4,-1,0,0,-2,10.865
2174,0,-2,-2,-13,2,-1,0,-1,10.870000000000001
2175,-1,3,0,6,2,1,-2,0,10.875
2176,0,-2,1,-5,-2,0,-2,-1,10.88
2177,-2,0,1,9,-2,0,-1,-1,10.885
2178,1,-1,-2,-4,-1,0,-3,-1,10.89
2179,-2,-1,-2,-2,2,-1,-1,0,10.895
2180,0,-2,0,3,-2,-1,-1,-2,10.9
2181,-1,0,0,-1,1,-1,-2,0,10.905
2182,0,2,3,2,-1,1,0,-1,10.91
2183,-1,-1,-2,-4,0,-3,0,-1,10.915000000000001
2184,1,1,1,0,0,0,0,1,10.92
2185,-2,0,-2,1,0,-1,-3,1,10.925
2186,-1,-2,-1,13,-8,-3,1,-1,10.93
2187,-1,-1,-9,-35,5,0,-1,1,10.935
2188,-3,-3,-2,15,4,-3,-1,-1,10.94
2189,0,2,2,-2,-1,-1,0,-3,10.945
2190,-1,-4,0,3,-1,-1,-1,0,10.950000000000001
2191,1,1,5,7,-3,0,0,0,10.955
2192,-2,-1,-3,-5,-2,-1,0,0,10.96
2193,-1,-1,0,1,-4,-1,-1,0,10.965
2194,0,1,-6,-6,-2,1,-2,-1,10.97
2195,0,-3,-4,10,3,-2,-1,-1,10.975
2196,0,-2,-3,-8,-2,0,1,0,10.98
2197,-2,-5,-2,-10,1,0,-2,-2,10.985
2198,-1,-1,-2,-3,-2,0,-1,0,10.99
2199,-1,2,3,-2,-2,0,0,-2,10.995000000000001
2200,-1,2,-1,4,1,1,1,0,11.0
2201,1,-2,-1,3,-3,0,0,0,11.005
2202,0,-1,-1,-5,2,-2,-1,-1,11.01
2203,-2,3,0,6,-8,-1,-2,-2,11.015
2204,-1,-4,-1,1,6,0,-2,-1,11.02
2205,-1,0,-2,-15,-2,-1,0,0,11.025
2206,-1,-2,-1,-8,5,-2,-2,-1,11.03
2207,-2,0,0,19,-5,-1,0,-2,11.035
2208,0,2,1,-13,-3,-2,-1,-1,11.040000000000001
2209,0,-3,-3,22,4,-1,1,0,11.045
2210,-2,1,-1,-18,-6,-2,-1,-1,11.05
2211,0,0,0,-7,0,1,-1,0,11.055
2212,3,-2,-3,12,-2,0,-3,-1,11.06
2213,-5,3,0,-4,0,-1,-1,0,11.065
2214,-2,-1,1,-4,-4,-3,-2,-2,11.07
2215,1,1,1,8,0,-2,0,-3,11.075000000000001
2216,0,-11,-5,-3,1,1,0,-1,11.08
2217,-1,-2,-2,39,-6,1,1,1,11.085
2218,-5,-17,5,-22,8,0,-1,-1,11.09
2219,-2,-7,-3,-28,-5,-3,-1,3,11.095
2220,-1,5,0,10,-12,-3,2,2,11.1
2221,-4,-4,-2,-31,1,-2,-3,-8,11.105
2222,-7,2,-1,5,-6,-2,-4,-4,11.11
2223,22,-8,-8,-33,-7,-4,-3,4,11.115
2224,2,8,-2,-11,16,7,6,-3,11.120000000000001
2225,-8,-17,-3,5,-14,-4,0,1,11.125
2226,0,5,1,13,1,-3,-4,-5,11.13
2227,6,7,-3,1,5,0,-1,2,11.135
2228,10,43,-5,23,-16,-4,-1,1,11.14
2229,-6,-4,-9,-51,5,0,-6,-9,11.145
2230,-31,30,5,36,-2,-2,1,3,11.15
2231,-5,32,5,17,-6,1,-1,-6,11.155
2232,-4,-12,16,38,-8,-2,-2,2,11.16
2233,13,-1,1,63,17,4,3,2,11.165000000000001
2234,13,-7,2,-115,-6,-1,1,15,11.17
2235,-1,-15,-4,7,22,7,13,1,11.175
2236,-16,-5,10,25,-24,-7,-15,-15,11.18
2237,7,26,2,-54,6,-1,-3,-10,11.185
2238,13,-48,-3,63,3,2,-3,-1,11.19
2239,-2,-29,-22,-63,10,-1,-1,-5,11.195
2240,2,-41,-6,18,5,-3,0,0,11.200000000000001
2241,-18,12,-2,72,-20,-4,-3,-12,11.205
2242,-2,11,-61,-72,14,6,10,6,11.21
2243,10,13,-22,84,-41,-11,1,47,11.215
2244,-36,-39,-97,-62,45,14,5,-22,11.22
2245,4,-6,-16,-3,-17,-9,-10,-31,11.225
2246,-14,-29,-6,26,-9,-10,-24,-22,11.23
2247,6,-30,-30,-71,19,4,-1,-12,11.235
2248,18,48,-41,40,5,4,20,46,11.24
2249,-22,6,-46,-22,-12,-5,-6,-1,11.245000000000001
2250,18,47,-93,-12,33,11,12,7,11.25
2251,-10,11,-82,51,-9,3,-3,-8,11.255
2252,30,2,-29,29,-34,-12,-5,-15,11.26
2253,24,19,-53,-25,14,4,-1,30,11.265
2254,-29,-3,-28,31,-86,-16,-17,-37,11.27
2255,2,-29,-5,-53,102,22,13,21,11.275
2256,-9,23,46,-11,-16,-6,-7,-28,11.28
2257,13,17,92,112,-18,-6,-1,-8,11.285
2258,44,21,41,-71,52,26,41,66,11.290000000000001
2259,-4,-46,45,-2,-31,-9,-16,-35,11.295
2260,-15,45,43,-52,41,-7,-26,-13,11.3
2261,22,8,36,33,-46,0,5,17,11.305
2262,-29,-44,61,-49,32,9,12,15,11.31
2263,8,26,56,82,-67,-5,17,7,11.315
2264,-30,-60,31,-90,66,8,-15,-24,11.32
2265,14,10,18,40,-52,-18,-10,22,11.325000000000001
2266,3,20,28,-46,-8,0,11,10,11.33
2267,-23,-31,20,78,-6,1,-1,-42,11.335
2268,6,-69,53,87,-3,-6,-18,4,11.34
2269,-24,-6,-10,-76,49,1,-12,-21,11.345
2270,13,-8,41,117,-3,-8,-9,-1,11.35
2271,-11,65,61,23,-33,-15,-7,15,11.355
2272,-8,-19,74,-108,0,7,10,-16,11.36
2273,31,44,12,4,-13,14,37,47,11.365
2274,-14,8,-18,127,15,-9,-26,-56,11.370000000000001
2275,3,5,-14,-82,24,5,-9,5,11.375
2276,9,45,-42,104,-70,0,25,41,11.38
2277,-4,-47,6,-101,35,7,-2,-25,11.385
2278,-18,51,-60,105,-95,-16,-1,-10,11.39
2279,25,43,17,6,92,10,11,72,11.395
2280,-30,-25,1,-23,0,-13,-32,-83,11.4
2281,-11,5,-17,88,-26,-3,-15,-29,11.405
2282,9,-6,-21,-81,44,8,9,10,11.41
2283,-15,12,-28,-93,-8,8,17,20,11.415000000000001
2284,33,24,-23,48,-34,-3,6,52,11.42
2285,1,6,-11,-102,22,-1,1,10,11.425
2286,-6,-50,37,25,10,-2,-16,-23,11.43
2287,-13,-15,-15,-21,-40,-2,11,17,11.435
2288,-1,-15,-10,-78,34,8,9,12,11.44
2289,-29,-19,1,71,-9,-1,1,-19,11.445
2290,25,29,12,-83,-45,-9,-1,15,11.450000000000001
2291,-25,-75,66,-128,33,-13,-53,-57,11.455
2292,19,31,19,104,-35,-2,6,-22,11.46
2293,-7,-19,-34,-20,10,2,2,11,11.465
2294,49,-15,36,11,0,19,38,60,11.47
2295,-37,-41,-23,106,-49,-19,-34,-96,11.475
2296,-25,22,9,-10,28,1,-8,2,11.48
2297,27,66,-12,-43,4,2,17,21,11.485
2298,3,-12,13,12,4,4,4,14,11.49
2299,11,27,-32,87,-90,-15,11,37,11.495000000000001
2300,35,-13,20,-16,73,8,7,23,11.5
2301,-33,-34,5,28,3,-4,-17,-49,11.505
2302,-15,21,-27,58,-23,-17,-31,-35,11.51
2303,8,10,6,-15,18,4,8,11,11.515
2304,-7,22,-64,34,-111,-22,-11,-6,11.52
2305,3,-11,42,51,57,8,3,22,11.525
2306,2,-5,-15,102,-41,0,-1,-14,11.53
2307,14,44,-9,-89,27,18,30,33,11.535
2308,1,-56,-6,-73,32,6,21,40,11.540000000000001
2309,-29,-12,13,8,-17,-19,-38,-55,11.545
2310,-20,-10,3,45,-19,-10,-22,-34,11.55
2311,-13,8,6,58,-6,5,5,-10,11.555
2312,10,3,-5,73,6,-6,-7,-33,11.56
2313,4,-33,1,-104,-29,-2,-3,25,11.565
2314,-3,-6,-8,-33,45,1,2,11,11.57
2315,-4,-12,-47,14,-27,5,16,19,11.575000000000001
2316,7,-2,22,32,-37,1,13,15,11.58
2317,-26,20,0,5,20,4,-16,-43,11.585
2318,-10,28,-17,-11,-25,-3,6,9,11.59
2319,46,6,-8,-124,67,15,12,25,11.595
2320,-21,10,26,-59,-23,-10,-11,5,11.6
2321,-1,11,-16,11,-57,-7,10,5,11.605
2322,31,-1,19,-5,57,16,34,60,11.61
2323,-17,-17,9,127,-71,-13,2,-8,11.615
2324,-1,-23,46,-44,16,-4,-40,-30,11.620000000000001
2325,-8,1,27,56,-22,-11,-28,-57,11.625
2326,-16,-24,-27,-70,20,-15,-32,-33,11.63
2327,-20,-16,12,66,18,-6,-8,-15,11.635
2328,38,-13,-1,27,-26,6,36,59,11.64
2329,-12,-8,-7,-53,24,20,28,25,11.645
2330,-7,-1,21,40,6,-6,-18,-17,11.65
2331,10,8,7,26,-9,2,-7,-9,11.655
2332,2,1,6,6,-50,-12,-5,-4,11.66
2333,3,17,-8,-128,102,11,-15,-7,11.665000000000001
2334,40,-1,5,24,23,13,27,52,11.67
2335,-18,19,2,-42,-21,-14,-15,-31,11.675
2336,-27,41,11,-119,100,19,3,-34,11.68
2337,14,-17,6,108,-50,-4,14,22,11.685
2338,-22,-64,-19,-29,-58,-12,-5,-16,11.69
2339,-4,-46,22,-45,106,17,-4,-19,11.695
2340,2,41,-30,45,-45,0,2,21,11.700000000000001
2341,7,8,-25,52,-20,-17,-1,29,11.705
2342,14,5,19,-72,58,10,-9,-2,11.71
2343,-5,42,-22,91,-62,-9,-3,-38,11.715
2344,-32,-61,4,1,27,1,-12,-31,11.72
2345,15,-10,-5,-7,-2,3,27,55,11.725
2346,-31,-24,15,-4,-60,-9,4,-20,11.73
2347,13,11,21,72,-26,-15,-40,-8,11.735
2348,-4,59,-24,26,1,-4,-8,-28,11.74
2349,17,14,29,46,6,11,27,73,11.745000000000001
2350,-9,-51,1,-97,-15,-9,-4,-16,11.75
2351,-6,9,19,-109,15,1,-1,-23,11.755
2352,-4,-28,-35,-3,-35,-6,3,18,11.76
2353,-23,-25,-18,42,3,1,14,7,11.765
2354,15,22,-18,-49,25,9,14,12,11.77
2355,-29,-25,12,-63,13,-14,-46,-71,11.775
2356,16,18,5,-45,29,5,5,31,11.78
2357,0,-31,-18,55,-23,0,8,-3,11.785
2358,-14,9,11,-19,10,6,-7,-21,11.790000000000001
2359,-5,18,-17,84,-46,-11,-6,17,11.795
2360,14,-22,16,-56,33,16,20,33,11.8
2361,-1,-9,19,-3,3,-1,2,-22,11.805
2362,5,50,5,16,30,2,-6,7,11.81
2363,23,1,9,88,-65,-14,-3,5,11.815
2364,-25,22,33,-4,58,-4,-6,-27,11.82
2365,6,-21,5,-13,-16,8,3,27,11.825000000000001
2366,6,12,-22,118,-43,-6,-6,-20,11.83
2367,12,-14,25,-11,92,20,30,36,11.835
2368,3,-22,-28,-48,-39,-12,-15,25,11.84
2369,-19,59,-19,-16,6,1,-3,-22,11.845
2370,-4,8,9,51,-13,-4,-5,-6,11.85
2371,-16,4,1,-108,-12,7,3,-20,11.855
2372,19,-19,8,5,23,10,20,34,11.86
2373,15,-3,14,4,0,-1,-9,-10,11.865
2374,-28,-7,-5,-6,21,-2,5,-8,11.870000000000001
2375,25,-3,-16,-80,11,7,18,54,11.875
2376,-28,-27,6,29,-54,-13,-7,-45,11.88
2377,1,10,3,41,-12,-6,-26,-14,11.885
2378,45,65,-11,-10,54,19,23,28,11.89
2379,-11,21,-3,29,31,3,-3,-6,11.895
2380,14,-17,-25,33,-36,-16,-26,-30,11.9
2381,13,8,-9,27,-10,10,16,15,11.905
2382,-8,-5,-8,-80,22,4,3,-3,11.91
2383,9,-39,-1,2,-6,-8,3,-14,11.915000000000001
2384,0,45,2,-23,-8,1,-8,2,11.92
2385,-8,16,-10,-20,-8,-1,-2,5,11.925
2386,-11,-42,14,22,-32,-19,-14,-5,11.93
2387,-10,30,-1,-53,49,15,-4,-15,11.935
2388,-6,-11,13,44,-43,-16,-4,-10,11.94
2389,-4,-48,-4,67,-69,-15,-13,-13,11.945
2390,3,29,2,33,-29,-3,16,71,11.950000000000001
2391,2,-19,-8,25,18,2,-6,-20,11.955
2392,-13,24,-2,109,-25,-10,-26,-41,11.96
2393,10,-5,-2,-63,33,6,8,-1,11.965
2394,10,-15,9,127,-59,-11,1,11,11.97
2395,4,12,-3,30,-13,4,1,17,11.975
2396,-9,-31,12,36,34,9,2,-2,11.98
2397,16,7,12,-82,16,-4,4,35,11.985
2398,-14,-11,3,-58,0,9,6,-38,11.99
2399,-18,15,9,36,-26,-11,-13,-4,11.995000000000001
2400,-4,11,-12,-26,0,0,4,13,12.0
2401,-1,10,16,-48,18,0,-4,-11,12.005
2402,8,10,-3,58,-61,-9,-6,2,12.01
2403,15,-11,4,-128,89,29,48,40,12.015
2404,-11,-13,16,39,-74,-20,-41,-53,12.02
2405,-18,3,-24,63,-42,-12,-18,-35,12.025
2406,3,-6,3,-73,-50,-10,-16,6,12.030000000000001
2407,19,4,-32,52,25,10,25,36,12.035
2408,-12,-7,9,-7,18,5,24,7,12.040000000000001
2409,9,-9,1,18,8,13,17,8,12.045
2410,-3,-2,11,-98,46,-1,-14,-38,12.05
2411,-6,-26,2,54,-86,-20,-2,44,12.055
2412,12,7,7,-96,44,23,22,6,12.06
2413,-33,-12,-10,79,-19,-21,-41,-37,12.065
2414,-13,-14,-11,-49,42,2,-7,-18,12.07
2415,-3,-3,3,4,-19,-8,-20,-54,12.075000000000001
2416,-17,-61,16,-18,14,3,4,-3,12.08
2417,4,11,14,27,-20,-10,3,9,12.085
2418,1,-10,2,-17,12,7,-12,-1,12.09
2419,3,39,-13,73,-87,-9,22,50,12.095
2420,8,13,25,-110,83,26,9,27,12.1
2421,7,-3,-5,-44,-26,3,4,-13,12.105
2422,-6,23,-11,89,24,-3,-4,-3,12.11
2423,3,-5,14,49,-26,-7,-6,-12,12.115
2424,10,11,-29,56,-58,-11,-3,0,12.120000000000001
2425,12,4,14,54,36,5,5,-3,12.125
2426,-5,12,-14,-42,-39,1,4,20,12.13
2427,19,-32,32,-18,68,8,8,13,12.135
2428,-4,68,-3,-27,13,-6,-17,-49,12.14
2429,4,11,-21,-30,18,4,2,-8,12.145
2430,-30,-37,-5,52,-32,-18,-37,-28,12.15
2431,-1,-7,-10,-2,-28,-12,-5,3,12.155000000000001
2432,33,30,-6,39,-1,7,31,67,12.16
2433,2,-26,15,-96,15,6,0,-8,12.165000000000001
2434,-2,22,-19,72,-37,-2,11,-1,12.17
2435,0,-14,-1,-21,43,6,-8,-11,12.175
2436,-1,8,6,56,-6,-11,-15,-11,12.18
2437,-14,-35,-8,21,-18,-8,-2,-21,12.185
2438,5,-6,6,-21,-30,2,7,18,12.19
2439,-3,13,-1,-10,3,-4,-13,-8,12.195
2440,6,-9,2,14,9,7,12,12,12.200000000000001
2441,0,-9,9,20,-8,-6,-9,-7,12.205
2442,-13,-24,-6,-88,12,5,13,7,12.21
2443,-3,4,2,-25,3,-5,-9,-6,12.215
2444,-4,8,0,-10,-14,-4,0,-1,12.22
2445,10,8,8,-6,13,4,13,23,12.225
2446,9,14,-8,-49,25,7,2,-24,12.23
2447,-5,11,-8,89,-52,-5,-3,18,12.235
2448,-13,-12,-6,-14,41,10,10,0,12.24
2449,-4,13,-6,-38,9,-6,-30,-17,12.245000000000001
2450,-3,33,-23,45,1,4,2,-11,12.25
2451,-7,-24,-12,15,-13,0,-3,5,12.255
2452,6,8,-11,-7,-11,3,14,15,12.26
2453,2,1,-8,15,-7,2,15,15,12.265
2454,-1,-9,9,-49,15,-5,-11,-1,12.27
2455,8,6,-8,-8,8,6,12,15,12.275
2456,-8,3,-3,6,-16,-7,-12,-17,12.280000000000001
2457,3,27,-10,-28,-8,-1,-4,-6,12.285
2458,6,-2,16,13,8,0,4,9,12.290000000000001
2459,-8,-2,-7,-42,19,2,-1,-10,12.295
2460,-2,-21,28,28,-29,-8,-11,-5,12.3
2461,0,-7,11,11,15,2,2,5,12.305
2462,6,3,11,11,1,3,2,-7,12.31
2463,-2,13,1,-5,-13,-4,-5,-7,12.315
2464,3,0,-10,6,-2,2,5,7,12.32
2465,-1,8,-8,-13,1,0,-1,4,12.325000000000001
2466,-6,-13,2,23,9,4,5,-4,12.33
2467,-1,-4,3,-7,-15,-3,-6,12,12.335
2468,-3,-3,22,1,-1,0,0,-12,12.34
2469,-1,-22,35,-18,8,-3,-8,4,12.345
2470,2,28,65,15,2,-6,-9,-4,12.35
2471,-4,-10,43,5,-9,-3,-6,-33,12.355
2472,4,42,27,-2,-7,2,13,46,12.36
2473,5,29,24,-11,7,3,4,7,12.365
2474,0,-9,48,-9,9,0,-1,-9,12.370000000000001
2475,2,-7,47,0,-7,-2,0,0,12.375
2476,4,-10,8,5,-2,1,3,4,12.38
2477,-2,-29,9,-19,0,-2,-2,-15,12.385
2478,-1,-12,36,46,-17,-4,-1,7,12.39
2479,-6,3,-24,-18,7,1,-3,-3,12.395
2480,-3,-23,-48,4,1,0,0,-7,12.4
2481,-2,6,-54,-48,-9,-2,2,6,12.405000000000001
2482,0,-14,-86,-7,16,2,-1,-5,12.41
2483,-3,5,-30,6,-8,-7,-6,-8,12.415000000000001
2484,6,-19,-12,-17,1,-2,-2,-2,12.42
2485,-3,-12,-15,15,-5,0,2,2,12.425
2486,-2,-2,-10,-6,-1,-3,-2,0,12.43
2487,0,24,-37,-18,6,0,0,-4,12.435
2488,6,14,-56,23,-3,-1,-1,3,12.44
2489,-11,-4,-15,1,0,0,2,-2,12.445
2490,2,-1,-4,3,3,0,-3,-4,12.450000000000001
2491,0,-20,18,8,-4,0,-2,-2,12.455
2492,-2,1,6,-5,-3,0,-2,-2,12.46
2493,2,2,33,4,2,3,2,2,12.465
2494,-2,-1,4,0,2,-1,0,0,12.47
2495,-3,-6,26,2,-1,-1,0,-3,12.475
2496,-2,-8,86,-3,-5,-1,-3,0,12.48
2497,-2,-2,76,-8,2,-1,1,1,12.485
2498,2,0,54,12,1,-2,-2,2,12.49
2499,2,7,83,-8,-2,-1,0,-3,12.495000000000001
2500,-2,-1,38,-2,-4,-3,-1,-3,12.5
2501,2,-6,26,12,3,-1,-1,1,12.505
2502,-1,7,24,2,2,0,0,-1,12.51
2503,0,3,-15,-15,-11,-2,-1,-3,12.515
2504,0,-10,-23,19,5,0,1,-2,12.52
2505,-1,1,-56,3,1,-1,-2,-2,12.525
2506,-1,3,-83,-21,-1,0,0,0,12.530000000000001
2507,1,-3,-66,11,-7,-2,-1,-1,12.535
2508,2,-1,-62,-9,11,2,0,0,12.540000000000001
2509,-1,-3,-34,8,-3,0,-1,-1,12.545
2510,0,-6,-44,2,-2,0,2,1,12.55
2511,-2,0,-61,0,-2,-2,0,-1,12.555
2512,1,4,-45,3,-6,-3,-1,0,12.56
2513,-7,-1,-42,-4,1,1,2,1,12.565
2514,-5,-1,-27,0,1,-1,0,0,12.57
2515,-2,1,-18,0,3,-1,-2,0,12.575000000000001
2516,2,-2,-17,-3,-6,-2,0,0,12.58
2517,0,-1,22,-6,1,-2,0,1,12.585
2518,-5,31,45,5,-4,-1,0,0,12.59
2519,-2,4,54,0,2,1,-1,-2,12.595
2520,-3,-5,38,-7,-1,-2,1,-3,12.6
2521,4,53,22,4,-1,1,-1,-1,12.605
2522,13,6,3,2,-1,-1,-1,-3,12.61
2523,-2,0,6,-7,-1,-2,-1,0,12.615
2524,-3,16,6,5,-5,-1,-1,0,12.620000000000001
2525,-2,3,-27,-17,-1,-1,0,0,12.625
2526,-2,-9,2,7,-4,1,-1,-1,12.63
2527,1,-3,7,-21,9,2,-1,0,12.635
2528,-3,-14,7,22,-4,-1,-2,-3,12.64
2529,0,-15,-34,-7,0,-1,1,-2,12.645
2530,-4,-16,-25,4,-5,-3,-2,-3,12.65
2531,-3,-8,-84,-16,-7,-3,-1,-3,12.655000000000001
2532,-4,-1,-37,-3,-2,-2,0,0,12.66
2533,2,-8,-30,15,3,1,-1,-1,12.665000000000001
2534,-7,24,-30,-4,-1,2,1,0,12.67
2535,2,3,-14,11,-1,1,0,-1,12.675
2536,-1,4,-19,-5,0,1,0,-1,12.68
2537,-4,-9,-20,-2,-4,-3,-1,0,12.685
2538,2,-12,-3,-6,2,-3,-1,0,12.69
2539,-1,-2,18,3,0,0,-1,-2,12.695
2540,0,5,41,-1,-1,1,-1,0,12.700000000000001
2541,2,-5,58,8,0,1,1,1,12.705
2542,-7,-18,22,-10,-2,-1,-3,-3,12.71
2543,0,-1,35,4,-2,1,-2,-2,12.715
2544,-3,70,22,-2,-1,2,0,2,12.72
2545,-2,-9,9,2,0,0,-1,-1,12.725
2546,4,-19,17,6,0,-1,-1,-2,12.73
2547,-1,10,0,0,5,0,1,1,12.735
2548,-4,-27,-33,-13,-3,-1,-1,-3,12.74
2549,-1,-4,14,2,-3,-2,-1,-3,12.745000000000001
2550,1,2,4,8,4,1,0,0,12.75
2551,-1,-3,27,2,-3,-2,-1,0,12.755
2552,-1,-13,-12,-11,-2,-3,1,-1,12.76
2553,-2,-3,14,6,-6,-2,-3,-2,12.765
2554,2,-20,15,-13,5,-2,0,1,12.77
2555,4,2,14,-1,4,-1,-1,0,12.775
2556,-2,-3,8,21,3,0,-1,0,12.780000000000001
2557,0,1,-51,-2,-3,-1,0,0,12.785
2558,-2,1,-24,0,0,0,-1,-1,12.790000000000001
2559,1,-5,-32,-7,-4,-2,-2,-1,12.795
2560,-1,-7,-49,-12,-1,-1,-2,-1,12.8
2561,0,-5,-18,-8,1,0,-1,-2,12.805
2562,0,4,-6,10,-1,1,-1,-1,12.81
2563,-3,-1,-14,9,1,-1,2,-1,12.815
2564,0,-10,-21,-11,-2,0,-2,-1,12.82
2565,0,0,15,3,1,1,0,-1,12.825000000000001
2566,-2,7,-7,-1,-1,-1,0,2,12.83
2567,-2,-2,-23,-4,-3,-1,-1,-3,12.835
2568,-2,-10,5,4,0,0,0,-2,12.84
2569,0,0,5,3,3,0,0,-1,12.845
2570,0,3,-8,-5,-1,0,0,-3,12.85
2571,-1,-18,-3,3,-4,-1,-1,0,12.855
2572,-9,0,17,-1,-5,-1,1,0,12.86
2573,-8,-13,-2,-6,7,0,0,-1,12.865
2574,-5,-11,-23,2,-4,-3,-2,-1,12.870000000000001
2575,-5,3,19,3,0,0,0,0,12.875
2576,0,-11,-32,-17,-2,-2,-2,-1,12.88
2577,0,1,4,1,-3,-3,-1,-1,12.885
2578,1,5,15,2,3,0,0,1,12.89
2579,1,4,9,12,2,-1,0,-1,12.895
2580,-7,7,12,-7,-3,-2,-2,-1,12.9
2581,2,6,8,6,0,2,0,1,12.905000000000001
2582,-10,2,-56,-17,-3,-3,-1,-4,12.91
2583,0,2,-8,-6,-3,0,-2,-1,12.915000000000001
2584,4,-2,18,-10,-2,-1,0,-1,12.92
2585,0,-12,-5,21,1,-2,-1,-1,12.925
2586,0,-18,32,-6,1,0,2,-1,12.93
2587,0,-3,-36,-9,0,-1,-1,-2,12.935
2588,1,3,0,6,-6,-1,0,-1,12.94
2589,-1,4,6,-10,-1,0,-1,-2,12.945
2590,3,-6,10,9,-1,0,-1,0,12.950000000000001
2591,-4,22,10,-6,-4,-3,-2,1,12.955
2592,4,-3,12,2,4,0,0,0,12.96
2593,3,14,4,-2,-2,-2,-1,0,12.965
2594,-4,3,0,-9,-1,-1,-3,0,12.97
2595,5,1,31,-7,1,2,2,1,12.975
2596,1,3,0,11,-1,-1,-3,0,12.98
2597,2,-17,0,-7,-3,-2,-1,-1,12.985
2598,-4,0,1,1,-4,-2,-2,0,12.99
2599,-1,2,15,7,0,-1,-2,-1,12.995000000000001
2600,3,-10,-11,-1,2,1,-2,-1,13.0
2601,-1,3,-1,-11,-1,-1,1,0,13.005
2602,2,1,4,1,0,1,-3,-1,13.01
2603,-1,-4,4,3,-1,-3,0,-2,13.015
2604,-1,1,25,5,-1,2,1,0,13.02
2605,-6,1,-25,-1,-2,-2,-1,-4,13.025
2606,1,10,25,2,-1,-1,0,0,13.030000000000001
2607,-2,-4,-22,-10,-1,-1,-2,-3,13.035
2608,-1,1,-5,7,-2,-1,0,-1,13.040000000000001
2609,-3,-1,-8,-11,-2,-3,-3,-3,13.045
2610,4,-1,8,6,-1,-1,1,-1,13.05
2611,1,2,4,-4,-1,-1,0,-1,13.055
2612,1,-2,3,0,3,-1,-3,-2,13.06
2613,-7,-11,-16,-12,-4,-1,-2,-1,13.065
2614,1,4,-7,-2,2,0,0,0,13.07
2615,-2,-8,18,12,0,0,-2,0,13.075000000000001
2616,0,11,-2,-5,-3,-3,0,-1,13.08
2617,1,3,23,24,4,2,1,1,13.085
2618,-5,-11,-42,-33,-7,-3,-5,-3,13.09
2619,1,3,4,-3,2,2,1,1,13.095
2620,-3,-8,5,-2,-5,-5,-3,-2,13.1
2621,4,-1,6,-1,-2,0,-1,2,13.105
2622,-12,7,-29,2,-3,0,1,1,13.11
2623,2,2,9,14,-1,-1,0,1,13.115
2624,-3,-7,-15,-12,2,0,1,-2,13.120000000000001
2625,0,-5,9,-2,0,-1,-2,-1,13.125
2626,1,17,17,9,0,-2,0,0,13.13
2627,0,0,-6,9,0,0,-1,0,13.135
2628,-3,3,6,-11,-2,-2,-1,-1,13.14
2629,-1,-1,-2,1,-2,0,0,-1,13.145
2630,6,-7,-4,-9,1,2,-2,0,13.15
2631,-2,27,6,7,-5,-3,-1,-1,13.155000000000001
2632,-1,1,2,9,-10,-3,-3,-2,13.16
2633,2,2,-10,-5,2,0,-1,0,13.165000000000001
2634,5,-11,24,-7,3,0,-2,-1,13.17
2635,-1,-14,9,-4,1,3,0,1,13.175
2636,1,-9,-28,-3,2,1,0,-1,13.18
2637,-2,6,9,1,-5,-4,-1,-2,13.185
2638,0,-7,18,21,-4,-2,0,0,13.19
2639,-1,-6,-18,-9,2,-2,-1,-1,13.195
2640,1,8,20,4,-3,-2,-2,0,13.200000000000001
2641,-2,-4,-15,-6,0,1,-1,-1,13.205
2642,-1,-5,0,2,3,0,1,1,13.21
2643,-5,-7,-6,-13,-4,-2,-2,-2,13.215
2644,10,-9,15,8,-3,-2,0,0,13.22
2645,-4,-10,-5,-10,-2,-1,-3,-1,13.225
2646,-11,-29,-3,8,1,0,0,-1,13.23
2647,6,-2,-7,-11,-2,-2,-2,-2,13.235
2648,-4,-3,2,18,-1,-1,0,0,13.24
2649,-1,-7,2,-9,8,0,0,0,13.245000000000001
2650,-6,1,9,1,-3,0,-2,-1,13.25
2651,0,-14,-8,1,0,0,0,-3,13.255
2652,-4,-1,-7,-5,0,1,0,-1,13.26
2653,0,9,-3,-1,-4,0,0,0,13.265
2654,1,0,3,0,-4,-2,-1,0,13.27
2655,0,0,0,1,0,0,-1,0,13.275
2656,-4,3,3,3,10,-2,-2,0,13.280000000000001
2657,-1,2,-2,-5,-4,0,0,-2,13.285
2658,5,10,2,-1,-3,-1,-1,0,13.290000000000001
2659,-5,0,5,2,2,0,0,-1,13.295
2660,-3,-1,-4,-6,-1,1,-1,-1,13.3
2661,-3,-8,0,1,-4,-2,-2,-1,13.305
2662,14,-21,-6,-11,-4,-4,-3,-3,13.31
2663,2,-3,-1,3,-2,-1,-1,-1,13.315
2664,-9,-1,6,-7,1,2,0,0,13.32
2665,-3,1,-5,-1,-4,-1,0,-1,13.325000000000001
2666,2,19,5,13,6,1,-1,-1,13.33
2667,-1,-5,-15,-3,-3,-2,-2,0,13.335
2668,3,-2,0,-8,1,-1,-2,0,13.34
2669,0,-8,7,4,-3,-2,0,0,13.345
2670,-3,1,4,1,3,0,0,0,13.35
2671,-2,0,5,-2,-1,-3,0,0,13.355
2672,-1,3,-13,-15,-4,-2,-1,0,13.36
2673,0,9,-4,-5,-1,0,-2,0,13.365
2674,-6,-1,-20,-2,-1,0,-1,-1,13.370000000000001
2675,-4,4,5,6,-2,0,-2,1,13.375
2676,4,0,5,-3,0,-1,1,-1,13.38
2677,2,8,4,4,0,-1,0,-1,13.385
2678,-1,5,-1,-15,-4,-1,0,-1,13.39
2679,-2,-6,-9,5,1,-1,-1,-1,13.395
2680,0,1,6,4,0,1,1,1,13.4
2681,0,-1,2,1,2,1,0,0,13.405000000000001
2682,5,3,-1,8,-2,-3,0,-1,13.41
2683,-4,0,-9,-10,-4,-3,-2,-2,13.415000000000001
2684,0,-4,-1,-7,-2,-2,0,0,13.42
2685,-2,2,3,0,4,0,0,0,13.425
2686,1,-5,14,13,-3,-2,0,0,13.43
2687,-4,-1,-2,-22,1,-2,-1,-1,13.435
2688,-4,-14,2,7,-1,0,-2,-2,13.44
2689,2,-1,3,1,-2,-1,-1,-1,13.445
2690,-5,-2,-6,0,1,0,1,0,13.450000000000001
2691,-2,-4,-12,-13,-7,-3,-3,-3,13.455
2692,1,6,1,-1,-1,0,1,-1,13.46
2693,-2,5,7,3,-1,0,-1,0,13.465
2694,3,34,-5,1,2,1,-1,-1,13.47
2695,0,-2,5,5,3,1,1,-1,13.475
2696,-1,2,-7,1,-1,-1,-2,0,13.48
2697,-1,2,1,1,-1,-2,0,-2,13.485
2698,-3,-9,-3,-4,-1,-1,-2,-1,13.49
2699,1,-2,0,2,-3,0,-1,1,13.495000000000001
2700,2,4,-1,-4,-4,-2,-2,-2,13.5
2701,2,0,-2,-1,1,0,-1,1,13.505
2702,-4,-5,2,3,-3,0,-2,-1,13.51
2703,-4,0,-1,-13,4,1,0,-1,13.515
2704,1,-5,2,5,-3,1,1,0,13.52
2705,-2,-4,-6,-16,-3,-1,-1,-1,13.525
2706,-2,-2,1,2,-4,-3,-1,-1,13.530000000000001
2707,3,4,5,8,-1,0,0,0,13.535
2708,4,-6,11,6,3,0,-1,-1,13.540000000000001
2709,-3,-7,-18,3,-3,-2,0,-2,13.545
2710,-1,-7,-4,-11,3,2,0,1,13.55
2711,4,19,6,2,-2,0,-1,-1,13.555
2712,-3,0,-1,-2,1,1,0,0,13.56
2713,-2,-1,5,4,1,0,-1,0,13.565
2714,-3,2,10,-1,-1,-1,1,0,13.57
2715,-4,-11,-11,-1,-2,-1,-1,-1,13.575000000000001
2716,-2,-1,-4,-2,0,-3,-2,-2,13.58
2717,1,0,-10,-2,-2,-1,-1,0,13.585
2718,2,4,3,-4,2,2,-1,0,13.59
2719,-8,0,10,8,2,0,0,0,13.595
2720,-1,-8,-4,-4,-2,0,1,-2,13.6
2721,0,-7,-1,2,0,-1,-1,0,13.605
2722,-2,-6,-2,-1,0,-2,0,-1,13.61
2723,2,-3,0,6,0,-2,0,-2,13.615
2724,-1,-4,-4,-7,-1,-2,-1,0,13.620000000000001
2725,-4,-1,6,4,-2,0,0,-1,13.625
2726,-1,0,-11,0,-2,1,-2,1,13.63
2727,3,2,11,0,-1,0,-1,0,13.635
2728,-4,0,-19,-9,-1,0,1,-1,13.64
2729,2,-2,-3,-1,-3,0,-1,-2,13.645
2730,-4,2,1,-5,-6,-3,-1,-2,13.65
2731,0,5,-1,10,5,-1,1,0,13.655000000000001
2732,-3,-25,3,-2,-2,-1,-1,-2,13.66
2733,0,5,2,-11,3,-2,0,0,13.665000000000001
2734,-3,-5,1,0,-3,-3,0,-2,13.67
2735,0,-5,-7,-11,-3,-2,-2,0,13.675
2736,1,8,4,5,0,-1,1,0,13.68
2737,1,-4,-5,1,-1,-1,0,1,13.685
2738,-1,6,14,2,0,0,0,0,13.69
2739,-2,-2,-12,-4,-2,-2,-2,-2,13.695
2740,0,7,5,1,-3,-2,-3,-1,13.700000000000001
2741,0,-1,9,0,2,1,-1,0,13.705
2742,2,7,1,-2,8,2,1,1,13.71
2743,1,-4,-2,0,-2,-1,-1,-3,13.715
2744,-1,6,13,5,-3,-1,-1,-1,13.72
2745,-2,-2,-22,0,-3,-1,-1,-1,13.725
2746,-1,-8,-3,-10,-3,-1,-1,-3,13.73
2747,-1,-2,2,-3,-1,0,0,0,13.735
2748,-1,5,-7,-1,1,-2,-1,1,13.74
2749,-3,3,17,7,-4,-1,-2,-2,13.745000000000001
2750,-1,-5,-6,7,1,-1,-2,1,13.75
2751,-1,-12,-12,-12,-6,-2,0,-2,13.755
2752,-2,11,7,8,0,1,-1,0,13.76
2753,-9,2,4,-20,1,0,1,-1,13.765
2754,-1,-2,-2,15,1,1,-1,0,13.77
2755,-3,-14,8,-3,-3,1,-1,-1,13.775
2756,3,15,-10,-6,-1,0,0,0,13.780000000000001
2757,2,2,5,4,0,0,-1,-1,13.785
2758,1,-9,-19,1,-3,-3,-3,0,13.790000000000001
2759,-2,-2,2,2,-1,-1,-2,-1,13.795
2760,-2,-8,-10,-20,1,-1,-3,-1,13.8
2761,0,-6,-12,-8,-6,0,-1,0,13.805
2762,2,9,12,-3,3,1,1,1,13.81
2763,4,8,3,19,3,0,1,0,13.815
2764,-2,-4,-4,26,-8,-2,-2,-1,13.82
2765,0,-1,3,-29,8,2,0,-2,13.825000000000001
2766,-4,-8,-10,-4,-4,-2,0,-3,13.83
2767,0,4,3,17,-2,-1,0,1,13.835
2768,4,-3,-6,-24,6,0,0,-2,13.84
2769,0,-3,1,22,-5,-3,-1,0,13.845
2770,-1,-4,-13,-6,-3,0,-1,-3,13.85
2771,3,11,0,-4,-5,-1,-2,-2,13.855
2772,-1,1,4,2,-4,-1,-1,0,13.86
2773,-3,-7,-11,-1,-3,-2,-1,-1,13.865
2774,0,7,10,-2,-1,-1,-1,1,13.870000000000001
2775,1,2,2,8,0,-2,0,1,13.875
2776,-3,-8,-2,-9,0,-1,-1,0,13.88
2777,1,7,4,16,3,0,0,1,13.885
2778,-3,-8,-20,-23,-7,-5,-2,-2,13.89
2779,-2,-6,0,-9,-3,-3,-1,-1,13.895
2780,3,34,-2,17,3,-1,2,0,13.9
2781,-2,6,17,-26,-2,0,1,1,13.905000000000001
2782,0,1,9,28,3,-1,1,1,13.91
2783,-2,1,1,-26,1,1,-1,0,13.915000000000001
2784,-3,-18,-14,-11,-3,-2,-1,-1,13.92
2785,-1,3,8,26,-4,0,-2,-2,13.925
2786,4,0,10,-10,-4,-2,-2,1,13.93
2787,5,-6,-6,7,2,1,-1,0,13.935
2788,-3,-10,-6,0,5,-1,0,-1,13.94
2789,-2,-4,-10,1,-2,-1,-2,-1,13.945
2790,-2,-3,-8,14,-3,-2,0,0,13.950000000000001
2791,-1,-3,-15,-49,6,0,1,0,13.955
2792,-4,-9,8,14,-9,-2,0,-2,13.96
2793,6,-9,11,-6,-5,-4,-1,-2,13.965
2794,-3,1,-1,12,-5,0,-2,-2,13.97
2795,0,3,6,11,5,2,2,-1,13.975
2796,0,8,4,7,0,0,-1,-2,13.98
2797,-2,-8,8,2,0,-2,-1,0,13.985
2798,0,-2,-29,-14,-3,-1,-1,-1,13.99
2799,-5,-57,-4,-7,-5,-1,-2,-4,13.995000000000001
2800,-6,3,1,-14,-1,-1,1,0,14.0
2801,-10,4,1,20,2,2,0,0,14.005
2802,-2,-7,22,15,3,0,0,-1,14.01
2803,-5,4,2,-20,-2,-1,0,-1,14.015
2804,0,-10,-2,-2,3,1,-2,-2,14.02
2805,11,5,5,13,9,0,-1,0,14.025
2806,-5,24,-15,-7,-2,1,2,0,14.030000000000001
2807,-6,9,16,10,-8,-4,-4,-3,14.035
2808,3,1,18,-21,5,2,2,1,14.040000000000001
2809,-3,0,-25,-8,-6,-5,-2,-1,14.045
2810,6,-12,10,-2,2,1,1,1,14.05
2811,20,44,19,21,5,2,2,3,14.055
2812,4,-6,-36,4,-7,-5,-3,-1,14.06
2813,-5,-2,-10,-2,1,-2,-1,-1,14.065
2814,-2,4,9,-20,-2,-2,0,0,14.07
2815,3,-7,-26,-4,-2,-3,-1,-1,14.075000000000001
2816,-3,51,14,12,1,1,-1,2,14.08
2817,-2,6,-8,1,-3,-1,-1,-3,14.085
2818,-3,-5,6,20,-8,-3,-3,-3,14.09
2819,-3,11,-11,-29,11,-1,1,2,14.095
2820,0,-10,24,15,3,0,-1,-1,14.1
2821,-3,-5,-11,-22,-3,-2,-2,-2,14.105
2822,-5,5,4,8,-5,0,-1,-3,14.11
2823,-7,-28,-25,9,-10,-5,-4,-4,14.115
2824,-2,-13,-8,-2,-4,-1,0,0,14.120000000000001
2825,10,-28,-11,-15,-1,-4,-4,-3,14.125
2826,-6,-36,5,-2,13,3,0,-3,14.13
2827,-8,9,3,-26,-3,1,-1,-1,14.135
2828,3,-10,-2,-7,-3,-1,-2,-2,14.14
2829,3,12,-2,10,-1,1,1,0,14.145
2830,-1,-2,8,1,0,-2,0,0,14.15
2831,-5,-3,-12,12,-5,-3,-1,-2,14.155000000000001
2832,7,8,-5,27,-5,0,-2,-2,14.16
2833,-4,-1,10,-20,0,-1,-2,2,14.165000000000001
2834,9,-36,14,-19,0,-2,-3,-2,14.17
2835,-6,-4,9,14,5,3,1,-1,14.175
2836,2,-38,0,-13,0,0,-2,0,14.18
2837,-10,6,-4,-5,-2,0,1,-3,14.185
2838,3,19,6,-2,-1,0,0,1,14.19
2839,2,5,20,21,-4,-1,-3,0,14.195
2840,-3,-5,0,9,1,0,0,-1,14.200000000000001
2841,0,-6,-4,-2,4,2,0,0,14.205
2842,-5,8,5,-1,-6,-2,-1,0,14.21
2843,1,-7,-14,4,-2,2,0,1,14.215
2844,-6,8,3,-20,0,-2,0,1,14.22
2845,-1,-26,-24,13,-3,-1,-2,-1,14.225
2846,-5,21,9,3,5,-1,-1,1,14.23
2847,3,7,-3,1,-2,0,-1,-2,14.235
2848,0,1,7,2,-1,-1,-1,-1,14.24
2849,0,-1,-8,-5,-5,-4,-1,-1,14.245000000000001
2850,6,21,-13,-9,-4,0,0,0,14.25
2851,-10,4,-9,-3,6,2,1,1,14.255
2852,-9,-8,-1,-18,-5,-2,-1,-1,14.26
2853,0,-20,24,11,-4,-4,-2,-4,14.265
2854,-3,-16,-32,-5,3,0,-1,-2,14.27
2855,1,6,19,19,-5,-2,-3,-1,14.275
2856,6,19,-5,-17,2,1,0,0,14.280000000000001
2857,1,10,13,15,3,1,1,1,14.285
2858,-1,-1,5,-15,0,-3,-2,-2,14.290000000000001
2859,0,-3,-9,-5,-1,-1,0,0,14.295
2860,2,-8,8,19,3,-1,-2,0,14.3
2861,-10,4,-10,-25,-3,3,1,0,14.305
2862,0,9,14,12,-2,-1,0,-1,14.31
2863,-5,-19,-39,-12,-2,-1,-3,-4,14.315
2864,-4,3,-9,10,-1,0,1,-1,14.32
2865,0,14,6,-18,2,0,1,-1,14.325000000000001
2866,-2,3,-8,9,0,-1,-1,1,14.33
2867,-1,5,-23,-1,3,-1,-1,1,14.335
2868,-4,10,10,-15,-6,-4,-2,-4,14.34
2869,1,4,8,26,-3,1,-1,0,14.345
2870,-2,0,2,-25,6,1,0,-1,14.35
2871,4,-3,7,2,-2,-1,0,0,14.355
2872,2,-46,-30,-11,-3,-2,-3,-2,14.36
2873,0,7,4,17,-3,-2,0,-1,14.365
2874,3,2,10,-6,-2,0,-1,0,14.370000000000001
2875,1,-16,-19,0,-4,-2,-1,-2,14.375
2876,-1,13,5,-4,0,0,-1,-2,14.38
2877,0,-3,-6,0,-5,-3,-1,-1,14.385
2878,0,-4,9,18,5,0,0,0,14.39
2879,0,3,15,-23,-1,-1,0,-2,14.395
2880,-4,-11,-17,2,-3,-2,0,1,14.4
2881,-1,-4,-1,-12,3,1,-1,0,14.405000000000001
2882,-1,9,8,14,-4,-1,0,0,14.41
2883,5,5,6,21,-1,1,0,-1,14.415000000000001
2884,-4,-9,-21,-26,-1,-1,-1,-1,14.42
2885,0,5,8,13,-1,0,0,-1,14.425
2886,-5,-10,-26,-22,-5,-1,-1,-2,14.43
2887,-1,8,25,6,7,-2,2,0,14.435
2888,-4,-7,3,-3,-2,-1,-1,-2,14.44
2889,1,9,-7,-6,-3,-3,-2,0,14.445
2890,0,-9,-5,-18,4,3,1,-2,14.450000000000001
2891,1,9,15,-5,-5,0,0,-2,14.455
2892,-1,9,25,24,2,-1,1,-2,14.46
2893,-1,-11,-12,-11,0,-2,-4,-2,14.465
2894,4,-16,-1,-3,-4,-2,-1,-1,14.47
2895,2,22,10,5,-3,-1,0,0,14.475
2896,-3,14,-16,7,3,2,2,0,14.48
2897,-4,20,10,-6,0,-1,1,1,14.485
2898,1,-1,5,11,-1,0,-1,0,14.49
2899,-5,-23,-16,-3,-4,-4,-3,-2,14.495000000000001
2900,4,12,4,-6,-3,-1,-1,2,14.5
2901,-2,-17,-24,-1,0,-2,-2,-4,14.505
2902,-2,-8,-10,-6,-4,-3,-2,-2,14.51
2903,-2,1,19,1,2,0,0,1,14.515
2904,-1,-2,2,9,-4,-3,-1,-2,14.52
2905,0,-3,-13,12,3,1,0,0,14.525
2906,-1,5,7,-16,0,-1,-2,0,14.530000000000001
2907,-2,-5,-15,-7,-3,-1,1,-1,14.535
2908,4,4,15,5,2,0,0,1,14.540000000000001
2909,0,-7,-22,-10,2,-1,1,2,14.545
2910,-11,-4,11,5,-6,-5,-3,-2,14.55
2911,6,-28,19,-5,-2,0,1,-1,14.555
2912,-1,-8,-9,6,1,0,-1,1,14.56
2913,-3,9,17,-10,3,1,0,1,14.565
2914,2,9,-17,9,-2,0,0,-1,14.57
2915,-1,0,12,14,-3,-3,-2,-1,14.575000000000001
2916,-2,4,8,-2,1,0,-1,-2,14.58
2917,4,0,9,-4,2,0,0,-2,14.585
2918,-11,7,2,-9,-4,-2,1,0,14.59
2919,-8,7,-5,1,0,2,0,0,14.595
2920,1,-2,-8,-1,-4,-1,-4,-1,14.6
2921,-4,-24,4,7,-1,0,-1,-1,14.605
2922,-1,14,4,-6,-3,-1,-1,0,14.61
2923,1,0,2,3,2,-1,-2,-2,14.615
2924,0,8,8,3,1,0,0,-1,14.620000000000001
2925,2,-3,-5,6,1,-2,0,-1,14.625
2926,8,-15,2,-10,2,0,-2,1,14.63
2927,-4,2,-5,2,-4,-1,-2,-1,14.635
2928,3,-5,18,-3,0,1,0,-1,14.64
2929,-3,8,11,2,0,0,-1,-1,14.645
2930,-4,-15,-57,4,-4,-1,-3,-3,14.65
2931,-1,25,-11,-7,-2,-1,-3,0,14.655000000000001
2932,0,1,-1,-6,0,-2,-2,-1,14.66
2933,5,5,11,19,0,0,0,1,14.665000000000001
2934,-2,5,-4,-13,-2,-1,1,-1,14.67
2935,-1,-12,-9,6,0,-1,-1,0,14.675
2936,-3,1,-16,-2,-6,-1,0,1,14.68
2937,1,-2,-1,-28,5,1,-2,-1,14.685
2938,4,-10,17,25,2,0,-1,0,14.69
2939,-6,3,-1,-13,3,0,0,2,14.695
2940,-3,33,-2,4,-3,-3,1,2,14.700000000000001
2941,0,1,10,9,-3,-1,0,2,14.705
2942,-4,-7,-49,-16,-6,-2,-2,-3,14.71
2943,0,-5,10,-10,-2,-1,-2,-2,14.715
2944,2,4,11,2,0,0,0,-1,14.72
2945,1,-27,-3,1,-1,0,-1,-1,14.725
2946,-2,4,-16,-1,1,0,0,-1,14.73
2947,-4,2,4,22,2,-1,-1,-3,14.735
2948,-1,-16,-15,-32,0,-3,-1,-1,14.74
2949,0,1,9,4,-4,-2,-1,-2,14.745000000000001
2950,1,-11,18,12,2,-1,-1,-1,14.75
2951,0,-6,-8,-12,-3,-1,1,-2,14.755
2952,-3,-10,8,6,0,-1,-1,-1,14.76
2953,2,8,-2,2,-1,-1,0,0,14.765
2954,-3,-1,15,1,-3,-1,-1,-2,14.77
2955,0,5,4,-5,-5,0,0,0,14.775
2956,-2,22,7,-7,6,1,-1,-3,14.780000000000001
2957,-2,9,-3,-5,-5,-1,-1,0,14.785
2958,2,11,20,19,1,0,-1,0,14.790000000000001
2959,1,2,5,-10,2,1,-2,1,14.795
2960,-4,-31,-13,9,-2,-2,-1,-2,14.8
2961,-3,-6,-22,-14,-4,-1,-1,1,14.805
2962,2,5,24,0,3,0,1,0,14.81
2963,1,-6,-1,12,-2,-2,-1,0,14.815
2964,10,-29,2,-21,-2,0,-1,0,14.82
2965,-4,5,-17,8,0,0,0,0,14.825000000000001
2966,0,1,11,2,-5,0,0,0,14.83
2967,0,6,-5,-14,3,-2,0,-1,14.835
2968,1,-40,9,7,-2,-1,-2,0,14.84
2969,12,-4,0,3,-1,-1,-1,-1,14.845
2970,-3,4,-9,-7,-3,1,0,-1,14.85
2971,2,-5,-8,-7,-4,-2,-2,-2,14.855
2972,-5,7,-7,3,-1,-1,-2,-1,14.86
2973,0,-6,10,16,-5,0,-1,-2,14.865
2974,-2,-9,-47,-47,4,1,-1,-1,14.870000000000001
2975,1,1,14,6,-1,0,1,1,14.875
2976,-3,10,1,9,-1,-1,0,0,14.88
2977,-3,2,6,-1,-6,-2,-1,-2,14.885
2978,-2,-4,1,18,3,-2,-1,0,14.89
2979,2,14,-7,-8,-4,0,1,0,14.895
2980,-1,13,-1,-3,0,1,1,0,14.9
2981,-4,2,8,1,-1,0,0,0,14.905000000000001
2982,2,17,1,-3,-3,-2,-2,-1,14.91
2983,-2,-14,-26,-20,0,-1,0,0,14.915000000000001
2984,-3,7,21,23,0,-1,-2,0,14.92
2985,0,33,-4,-17,5,2,-1,-1,14.925
2986,-3,-3,22,11,-2,-1,0,-2,14.93
2987,-3,10,7,14,0,1,-1,-3,14.935
2988,0,8,-25,-20,-6,-2,-1,-1,14.94
2989,-4,-18,-5,4,0,0,-2,-1,14.945
2990,1,2,8,6,-1,0,-1,2,14.950000000000001
2991,-5,-4,0,-2,-2,0,0,-2,14.955
2992,0,-8,13,9,3,0,0,-1,14.96
2993,-2,-6,-8,-6,1,0,-1,-1,14.965
2994,5,-9,0,22,-9,-4,-2,-2,14.97
2995,0,-4,2,-14,10,3,1,3,14.975
2996,-1,-1,1,4,2,0,0,1,14.98
2997,0,-4,-7,-19,-4,-3,-1,-1,14.985
2998,-3,-33,1,9,0,0,1,-1,14.99
2999,-9,22,9,5,-2,1,0,0,14.995000000000001
3000,-5,-3,-4,-16,-3,1,-1,-1,15.0
3001,0,1,2,3,-1,-1,-2,-1,15.005
3002,-2,-3,6,11,-1,-2,0,0,15.01
3003,3,-11,-9,-1,1,-1,-1,-2,15.015
3004,-2,2,-7,-1,3,0,2,-2,15.02
3005,-6,10,1,-13,-1,-3,-1,-1,15.025
3006,-1,9,4,15,0,0,-2,-2,15.030000000000001
3007,0,-8,-9,-7,-2,-1,-1,0,15.035
3008,0,9,-1,1,-2,0,1,-1,15.040000000000001
3009,1,-9,-4,6,-1,-2,0,-1,15.045
3010,5,1,2,-27,0,1,-2,0,15.05
3011,-1,-5,3,-3,-2,-1,-2,-1,15.055
3012,-5,10,-9,14,-4,-2,0,-1,15.06
3013,-7,11,13,-13,3,1,1,0,15.065
3014,-1,2,-5,1,-2,-1,-1,-2,15.07
3015,2,-9,-2,6,-3,-3,0,-1,15.075000000000001
3016,0,2,4,0,0,1,0,0,15.08
3017,0,7,14,12,-1,0,-1,1,15.085
3018,-5,30,-19,4,2,0,1,1,15.09
3019,1,-3,-9,-14,-2,-3,-2,-1,15.095
3020,0,0,10,3,0,0,-1,-1,15.1
3021,1,-14,0,4,0,-1,0,-1,15.105
3022,1,-7,14,-9,-1,0,-1,0,15.11
3023,-1,-3,2,6,-5,-2,-2,-2,15.115
3024,3,-3,-12,8,6,-1,-2,-1,15.120000000000001
3025,0,-4,5,1,1,3,1,0,15.125
3026,-1,-6,-11,-24,0,-2,0,-1,15.13
3027,0,3,5,16,-2,0,-1,-1,15.135
3028,8,-11,0,0,0,-3,-1,-1,15.14
3029,-3,-16,-2,-15,1,-1,-1,-3,15.145
3030,-4,4,-15,3,-2,-1,-3,-1,15.15
3031,-8,9,6,3,0,0,-1,0,15.155000000000001
3032,3,-5,-18,-18,-2,-1,-3,-3,15.16
3033,2,-5,-4,0,-4,-2,0,0,15.165000000000001
3034,2,-6,9,-4,0,1,1,-1,15.17
3035,1,-3,-4,8,-2,-4,-2,0,15.175
3036,0,13,1,4,1,0,0,1,15.18
3037,-1,0,-7,0,-2,-1,-2,0,15.185
3038,1,4,9,-2,1,-1,0,1,15.19
3039,4,12,-6,10,-1,-2,0,0,15.195
3040,-4,-6,-11,-18,-2,-2,-1,-1,15.200000000000001
3041,6,-5,-8,0,-2,-2,-1,-1,15.205
3042,0,8,-9,-3,-1,-2,-1,-1,15.21
3043,4,-9,5,6,-1,0,-2,-1,15.215
3044,0,37,6,-7,-5,-2,0,-1,15.22
3045,-4,11,1,0,-5,-1,-1,-1,15.225
3046,-1,6,13,32,6,2,0,0,15.23
3047,-2,1,-22,-33,0,0,-1,-2,15.235
3048,-3,-19,3,8,0,-1,-1,-1,15.24
3049,6,-14,-7,-9,0,-1,-1,-1,15.245000000000001
3050,-2,1,-13,3,3,-1,-1,0,15.25
3051,-4,-34,10,-2,-1,0,1,-1,15.255
3052,2,-3,1,-10,-4,0,-2,-1,15.26
3053,-4,-4,8,5,1,-2,0,-1,15.265
3054,-2,-10,-2,-6,-2,-2,-1,-1,15.27
3055,-1,-2,4,5,-2,-2,0,-2,15.275
3056,-1,-17,-2,2,-2,-2,0,-2,15.280000000000001
3057,-12,61,12,2,-2,0,2,2,15.285
3058,3,16,-2,-14,-3,-1,0,-1,15.290000000000001
3059,0,1,-6,8,2,0,0,1,15.295
3060,-1,-14,-1,0,-5,-1,-1,1,15.3
3061,0,-14,-6,-5,-1,-2,-2,-1,15.305
3062,-1,-8,4,-6,-1,0,-2,-1,15.31
3063,4,11,14,10,2,0,-1,0,15.315
3064,2,12,2,1,-2,0,-1,-1,15.32
3065,-1,-12,-6,-2,-1,-1,-3,-1,15.325000000000001
3066,1,-11,5,-5,-2,0,-2,-1,15.33
3067,-15,28,12,3,4,1,0,0,15.335
3068,-9,6,9,6,-1,1,0,0,15.34
3069,-1,-7,-10,18,1,0,0,-2,15.345
3070,-4,-44,-10,-22,-2,0,-1,-2,15.35
3071,-2,-15,-36,-12,-6,-2,-3,0,15.355
3072,-1,0,5,10,1,0,-3,0,15.36
3073,4,-1,7,-11,0,-1,1,-1,15.365
3074,-4,0,-40,7,-4,-5,-6,-5,15.370000000000001
3075,7,10,5,7,1,1,0,-1,15.375
3076,2,-12,-4,-9,-4,-5,-3,-1,15.38
3077,2,-8,-10,17,5,1,0,1,15.385
3078,3,10,25,6,3,2,3,2,15.39
3079,0,-5,-5,-16,-4,0,-1,-2,15.395
3080,3,16,-8,-1,-2,-1,-2,-1,15.4
3081,8,-8,-6,4,0,-3,-2,-1,15.405000000000001
3082,-3,4,13,-11,-1,-1,1,0,15.41
3083,5,-27,-11,13,2,-2,-1,-1,15.415000000000001
3084,1,-10,11,3,0,-1,2,0,15.42
3085,6,-15,1,-3,0,-1,-1,-1,15.425
3086,-2,11,-28,-7,-1,-1,1,-1,15.43
3087,-2,-15,-5,-6,-7,-5,-5,-2,15.435
3088,-3,-7,6,-6,2,0,0,-1,15.44
3089,-1,-7,3,5,-1,0,0,-1,15.445
3090,-1,-8,-11,1,-2,-2,-1,0,15.450000000000001
3091,-2,3,-18,6,2,1,2,-1,15.455
3092,-4,-2,-24,-11,1,0,0,-2,15.46
3093,-14,-32,-19,-1,-10,-5,-5,-5,15.465
3094,-4,11,20,-1,-1,0,1,-1,15.47
3095,9,10,14,-9,-5,-3,0,0,15.475
3096,-5,22,9,11,7,3,1,1,15.48
3097,0,0,-7,-5,-3,0,-2,-1,15.485000000000001
3098,3,9,21,4,2,0,-2,1,15.49
3099,-2,-9,3,9,-4,-2,-2,-3,15.495000000000001
3100,-1,-3,10,-12,3,0,1,0,15.5
3101,-7,1,2,-1,2,-1,-2,-1,15.505
3102,-4,-5,-14,-3,-4,-1,-2,-1,15.51
3103,-1,14,15,1,1,2,0,-2,15.515
3104,1,-8,-4,16,-6,-1,-3,-2,15.52
3105,-1,20,13,-18,6,2,3,2,15.525
3106,-17,13,-14,4,-4,1,-2,-2,15.530000000000001
3107,0,5,-11,-9,2,-1,1,0,15.535
3108,2,1,7,2,-1,-1,-1,-1,15.540000000000001
3109,-4,-7,7,22,-2,-3,-1,-3,15.545
3110,13,-35,8,-2,-2,-4,-1,-1,15.55
3111,0,28,0,-17,0,0,0,1,15.555
3112,-5,-9,-7,9,-3,-2,-2,-1,15.56
3113,3,15,5,-6,5,2,1,1,15.565
3114,4,-6,30,14,-1,-2,-2,0,15.57
3115,-7,-36,-29,-9,-1,-1,1,-2,15.575000000000001
3116,-4,-12,-4,-24,-6,-3,-1,-2,15.58
3117,-6,18,-1,7,-3,-1,0,-1,15.585
3118,1,9,14,5,2,0,0,-1,15.59
3119,0,-10,9,25,-7,-3,-3,-2,15.595
3120,-6,11,-4,-22,6,1,-1,-1,15.6
3121,-4,-28,-7,-24,-3,-2,-1,-2,15.605
3122,2,-7,-4,18,-4,-2,0,-1,15.610000000000001
3123,-4,-3,18,-5,6,-2,-3,0,15.615
3124,1,8,1,41,-26,-4,0,1,15.620000000000001
3125,-2,9,-11,-52,33,11,6,3,15.625
3126,5,-10,-2,6,1,-4,-4,0,15.63
3127,-7,-10,2,6,-8,-5,-5,-2,15.635
3128,-1,-39,-3,29,-2,-2,-5,-9,15.64
3129,-7,-6,3,25,-9,-1,-3,0,15.645
3130,5,22,-4,-27,0,4,2,3,15.65
3131,3,25,5,27,-6,4,2,6,15.655000000000001
3132,2,7,-6,-20,12,3,1,1,15.66
3133,3,63,-3,2,-9,-4,-4,-5,15.665000000000001
3134,3,9,-5,-13,4,-3,-4,0,15.67
3135,-9,38,9,-42,0,2,2,1,15.675
3136,4,42,20,44,-23,-7,-1,4,15.68
3137,-8,-65,-20,-37,28,10,8,-2,15.685
3138,-25,12,-28,11,-19,-7,-10,-22,15.69
3139,17,-26,-9,31,2,-1,-1,14,15.695
3140,30,-14,-8,-50,-2,-2,4,7,15.700000000000001
3141,-2,-14,8,61,-6,-6,-6,4,15.705
3142,1,15,-10,50,-5,2,5,-1,15.71
3143,-18,-25,3,-79,24,3,-4,-7,15.715
3144,-3,1,0,54,-15,-7,-6,-4,15.72
3145,-6,-4,-32,-96,-3,1,8,8,15.725
3146,-1,-21,-42,45,-8,2,12,36,15.73
3147,20,43,-10,61,-20,-2,-2,-24,15.735000000000001
3148,9,-1,-42,-111,59,14,7,14,15.74
3149,-23,-45,-49,-10,-2,-12,-32,-44,15.745000000000001
3150,-11,-30,-84,87,-30,-6,-10,-15,15.75
3151,24,35,-99,-101,17,7,10,15,15.755
3152,20,-5,-54,23,-2,1,14,23,15.76
3153,-2,48,-55,-12,3,6,11,-17,15.765
3154,-49,15,-10,-50,-8,-18,-27,-28,15.77
3155,-5,-18,43,93,-12,-3,-6,0,15.775
3156,3,28,26,-50,-12,0,2,-2,15.780000000000001
3157,27,30,55,-8,-15,-1,9,51,15.785
3158,35,-1,40,-64,23,8,12,6,15.790000000000001
3159,0,18,-4,49,4,-2,-7,-28,15.795
3160,-38,-24,19,2,-8,-3,-5,9,15.8
3161,-5,-11,25,127,-17,1,5,-6,15.805
3162,20,-45,9,-124,36,3,4,18,15.81
3163,8,21,36,38,4,7,8,7,15.815
3164,-2,15,-5,76,-38,-9,-13,-20,15.82
3165,-9,14,27,-4,48,8,5,0,15.825000000000001
3166,-36,-8,53,-79,-9,-5,-5,4,15.83
3167,-3,8,22,-92,-37,-9,-6,-8,15.835
3168,21,9,67,49,20,3,7,11,15.84
3169,34,61,39,-24,-2,3,10,9,15.845
3170,14,-2,35,4,-1,2,-5,-39,15.85
3171,-34,-50,6,51,26,-12,-22,-8,15.855
3172,-2,23,52,-3,-11,-7,1,5,15.860000000000001
3173,7,-25,40,-110,30,12,20,33,15.865
3174,14,29,13,84,-41,-5,-4,-5,15.870000000000001
3175,19,5,70,-104,14,-1,-8,-12,15.875
3176,-2,59,-53,-71,29,8,-5,17,15.88
3177,-12,24,-30,46,-46,-5,-1,-48,15.885
3178,-15,-19,-63,47,6,3,11,30,15.89
3179,-25,4,-25,-31,4,0,11,-8,15.895
3180,-33,-58,-20,25,-9,-7,-16,-19,15.9
3181,37,13,-60,43,-56,-15,-3,21,15.905000000000001
3182,-34,-9,11,127,18,9,9,2,15.91
3183,-5,-76,35,-52,20,0,-7,10,15.915000000000001
3184,-20,15,-25,-40,-12,-6,-12,-47,15.92
3185,-21,-19,-5,127,-37,-4,10,34,15.925
3186,37,-2,28,-106,29,8,2,21,15.93
3187,-2,32,-27,122,-8,1,6,-1,15.935
3188,-5,14,15,68,-45,6,-3,-33,15.94
3189,15,45,4,-106,77,13,2,5,15.945
3190,-10,66,24,-48,-12,-20,-31,-59,15.950000000000001
3191,-25,-32,11,41,-15,9,24,28,15.955
3192,-9,4,-6,-12,-18,-6,-15,-20,15.96
3193,-3,-11,12,80,-101,-27,-19,5,15.965
3194,25,-34,10,-46,114,38,50,62,15.97
3195,53,25,-4,-44,-21,3,12,47,15.975
3196,-15,-62,-9,15,-21,-13,-20,-65,15.98
3197,-14,-81,14,-88,1,-16,-37,-70,15.985000000000001
3198,17,59,9,40,-36,-3,-8,27,15.99
3199,10,0,-16,32,-13,-10,6,-4,15.995000000000001
3200,-17,5,4,-36,21,6,23,13,16.0
3201,-5,-25,13,55,-2,-1,-10,21,16.005
3202,9,-15,-5,-48,-17,9,25,11,16.01
3203,-41,-8,-7,-56,6,4,-5,1,16.015
3204,40,-30,1,43,33,2,7,33,16.02
3205,-11,-1,5,8,-25,-20,-39,-52,16.025
3206,0,7,-4,41,-19,2,4,12,16.03
3207,-12,27,-2,50,-28,-4,-4,-22,16.035
3208,23,-16,2,-68,-1,12,26,61,16.04
3209,-13,-36,-2,-128,112,15,-11,-8,16.045
3210,7,8,3,111,-49,-4,8,-9,16.05
3211,34,-59,0,-122,48,14,18,34,16.055
3212,-27,9,-4,113,-19,-15,-25,-76,16.06
3213,9,49,1,127,-59,-10,-2,28,16.065
3214,5,-48,1,-128,54,2,-5,-19,16.07
3215,-29,-15,-2,127,-28,-12,-23,-12,16.075
3216,-9,33,-3,-61,16,16,22,22,16.080000000000002
3217,14,62,2,-80,120,38,29,13,16.085
3218,-8,-9,2,56,-92,-33,-41,-47,16.09
3219,7,-12,-4,21,-5,2,19,24,16.095
3220,18,-40,1,-42,-2,-3,-14,30,16.1
3221,28,17,2,98,-46,2,30,4,16.105
3222,-58,3,-2,-34,-35,-13,-21,-28,16.11
3223,6,-5,-2,-18,16,-3,-10,-10,16.115000000000002
3224,2,23,-1,91,-33,-8,1,12,16.12
3225,7,33,1,-72,42,14,16,18,16.125
3226,6,21,0,25,15,6,9,2,16.13
3227,-4,12,-2,42,-46,-11,-19,-23,16.135
3228,11,7,0,-128,88,12,10,38,16.14
3229,-13,-15,-1,127,-87,-22,-25,-28,16.145
3230,4,36,0,-31,118,20,-2,-11,16.15
3231,-21,38,-2,-23,16,-2,-7,-32,16.155
3232,7,21,-1,6,-97,-22,3,32,16.16
3233,8,-23,0,85,13,3,19,23,16.165
3234,15,-41,1,-93,22,8,5,14,16.17
3235,-10,29,-2,108,-28,-11,-21,-25,16.175
3236,-20,-7,-2,97,-43,-18,-32,-76,16.18
3237,2,-41,0,54,-29,9,30,60,16.185
3238,4,-7,0,67,1,-1,-7,-4,16.19
3239,4,-49,-2,-81,10,7,13,23,16.195
3240,1,-25,0,-118,30,17,18,0,16.2
3241,-30,1,0,-18,-9,-23,-45,-65,16.205000000000002
3242,-7,3,-2,8,-41,-12,-1,0,16.21
3243,15,49,0,-26,-9,8,14,32,16.215
3244,6,-49,-1,39,46,5,6,17,16.22
3245,-30,0,0,-44,3,8,3,-20,16.225
3246,22,42,0,20,-1,6,22,48,16.23
3247,18,56,-1,90,-93,-24,-27,-46,16.235
3248,-6,-8,9,-76,88,14,-7,-19,16.240000000000002
3249,22,-4,9,-35,-39,-7,-8,-16,16.245
3250,-5,-53,11,88,-16,-11,0,16,16.25
3251,-30,28,5,62,18,7,9,17,16.255
3252,-12,-2,7,101,-98,-19,-11,-7,16.26
3253,18,21,8,-128,99,24,18,30,16.265
3254,-21,42,5,25,-72,-21,-22,-51,16.27
3255,12,-37,-1,-101,72,12,15,13,16.275
3256,4,39,0,127,-57,-18,-25,-23,16.28
3257,-47,-53,1,-30,-2,-14,-34,-53,16.285
3258,1,-1,7,17,-36,-3,-2,-7,16.29
3259,13,25,2,-59,16,1,12,44,16.295
3260,-7,33,1,-27,55,10,2,4,16.3
3261,-2,1,-1,13,-45,-14,-10,-17,16.305
3262,4,-66,-3,-60,25,-8,-16,3,16.31
3263,7,13,1,2,-4,2,-4,-11,16.315
3264,-2,22,0,43,7,9,10,9,16.32
3265,1,20,-1,-34,-16,-6,2,18,16.325
3266,4,-19,-4,-111,43,7,-2,-8,16.330000000000002
3267,-8,-33,-1,36,-6,-1,10,23,16.335
3268,-6,-29,3,-44,-9,0,-2,-27,16.34
3269,-1,-50,0,82,-63,-6,18,7,16.345
3270,11,29,0,-94,88,27,19,17,16.35
3271,-2,-29,-4,30,-22,-14,-37,-29,16.355
3272,-10,6,0,85,-99,-23,-11,8,16.36
3273,33,-27,-1,-78,81,46,42,26,16.365000000000002
3274,-14,2,-1,78,-57,-13,-9,-26,16.37
3275,-25,-27,-2,27,-24,-6,2,-4,16.375
3276,36,60,-2,-16,27,17,16,14,16.38
3277,-14,27,1,-2,-26,-26,-32,-31,16.385
3278,-20,25,-2,13,-11,3,10,15,16.39
3279,-17,-16,-2,-57,39,15,6,1,16.395
3280,-12,-6,0,-1,-1,-14,-21,-11,16.4
3281,44,24,-3,38,-28,-2,14,47,16.405
3282,11,17,-1,-91,78,21,11,4,16.41
3283,-4,-11,-2,31,-16,-16,-17,-41,16.415
3284,-21,-18,1,64,-4,2,6,7,16.42
3285,6,-19,-2,-81,45,15,10,1,16.425
3286,13,33,-1,127,-89,-24,-19,7,16.43
3287,1,-3,-2,-34,61,15,27,22,16.435
3288,1,-21,-3,41,-25,-1,9,11,16.44
3289,-31,0,0,-81,47,4,-10,-26,16.445
3290,-18,-39,2,85,-42,-19,-30,-30,16.45
3291,2,57,2,12,-3,18,27,20,16.455000000000002
3292,15,26,0,12,9,0,7,1,16.46
3293,-27,41,2,-30,16,-5,-19,12,16.465
3294,12,-3,-4,-2,-21,4,16,-1,16.47
3295,12,22,0,-99,54,6,-7,-30,16.475
3296,32,-25,-2,-30,7,8,17,28,16.48
3297,-1,-10,1,7,-24,-16,-14,-24,16.485
3298,6,-18,3,-78,-19,-2,-3,16,16.490000000000002
3299,-14,-41,0,49,3,-10,-14,-16,16.495
3300,-7,-5,-1,-40,-23,8,18,10,16.5
3301,16,6,0,41,3,1,-2,21,16.505
3302,-15,28,0,-48,34,0,2,-26,16.51
3303,14,-5,2,99,-76,-6,-1,-10,16.515
3304,5,-36,0,-128,112,18,4,24,16.52
3305,-17,3,-1,127,-41,-14,-10,-23,16.525
3306,-12,-31,0,52,-22,-2,6,21,16.53
3307,-4,-67,-3,-37,1,-3,-10,-8,16.535
3308,5,41,1,-47,35,-2,1,3,16.54
3309,3,0,-3,-7,-12,-1,5,-15,16.545
3310,35,54,-5,78,8,4,11,36,16.55
3311,-14,-20,-2,-60,7,-4,-18,-28,16.555
3312,-20,-19,-1,-14,-10,-6,-13,-24,16.56
3313,5,-1,1,-28,2,-1,0,7,16.565
3314,-1,6,0,46,-9,-3,-3,-44,16.57
3315,18,4,-4,-58,-4,4,6,60,16.575
3316,-18,17,1,-10,-12,-4,-8,-11,16.580000000000002
3317,-3,5,-1,15,18,6,3,0,16.585
3318,-9,-11,2,10,-4,-5,-5,-8,16.59
3319,-3,12,-2,-10,-2,-6,-3,-9,16.595
3320,-2,-16,0,64,-7,-1,-5,-2,16.6
3321,-1,-13,-3,8,-22,-1,4,10,16.605
3322,6,-4,-4,34,-21,1,7,11,16.61
3323,0,-4,-4,-110,59,10,7,-1,16.615000000000002
3324,5,1,-1,10,2,0,1,9,16.62
3325,1,-2,-5,65,-29,-12,-16,-16,16.625
3326,-22,-21,2,-3,15,-1,-11,-8,16.63
3327,7,24,3,51,-31,-3,7,-11,16.635
3328,-11,-8,1,4,4,-4,-1,-1,16.64
3329,5,10,4,-31,12,5,4,7,16.645
3330,1,-5,-2,-60,12,1,-3,-3,16.65
3331,-4,0,7,25,-12,-5,-4,2,16.655
3332,0,-7,8,-6,-2,-2,-1,-6,16.66
3333,0,-5,7,4,-8,-4,0,6,16.665
3334,1,-5,5,-10,5,1,1,11,16.67
3335,1,8,8,55,-15,-4,-3,-4,16.675
3336,-4,-17,1,-44,1,-1,-5,-6,16.68
3337,-9,-1,15,6,-5,0,4,5,16.685
3338,-5,-4,18,-15,5,1,1,1,16.69
3339,8,6,115,7,-9,-2,-6,-3,16.695
3340,-1,-2,122,-37,4,0,-3,-1,16.7
3341,-3,-4,127,11,0,1,0,2,16.705000000000002
3342,0,-3,127,-13,3,0,-2,-3,16.71
3343,-2,0,5,-18,-8,-3,-9,-3,16.715
3344,-1,-2,-95,24,0,-1,-6,-1,16.72
3345,-4,-7,-128,3,4,-2,0,-1,16.725
3346,-1,-4,-128,10,-1,-2,-4,0,16.73
3347,0,3,-119,14,-3,-4,-1,-1,16.735
3348,-2,-6,-99,-6,-5,-1,1,-2,16.740000000000002
3349,-1,0,-121,-4,4,-2,1,-1,16.745
3350,0,-3,-111,2,-1,-1,3,1,16.75
3351,1,-2,-81,-7,-1,0,2,0,16.755
3352,-2,2,-75,-6,-1,-3,0,-4,16.76
3353,1,-5,-45,3,-4,0,0,0,16.765
3354,-2,-8,-43,-13,5,2,1,2,16.77
3355,1,6,-45,1,-2,-1,0,-1,16.775
3356,-3,7,-25,9,-2,-1,-2,-2,16.78
3357,-2,-2,-16,5,-6,-3,0,1,16.785
3358,-4,-6,-13,-13,3,3,-1,1,16.79
3359,-2,-5,-20,6,0,-3,-2,-4,16.795
3360,0,1,-1,10,-4,-2,-3,-2,16.8
3361,-1,0,-4,-9,-1,1,1,2,16.805
3362,-2,-6,-9,-22,0,-1,0,-3,16.81
3363,-1,1,-3,9,-5,-2,0,0,16.815
3364,0,-4,-2,-6,-6,-2,-1,-1,16.82
3365,0,2,-3,1,-3,2,0,2,16.825
3366,0,1,-1,1,19,2,3,0,16.830000000000002
3367,0,0,-3,23,-12,-1,3,1,16.835
3368,-6,-15,-1,-52,0,-2,0,-3,16.84
3369,-2,-1,-3,13,-4,0,0,0,16.845
3370,2,3,2,-5,-6,0,1,0,16.85
3371,1,2,-3,12,0,2,1,0,16.855
3372,2,2,-3,28,-1,0,0,0,16.86
3373,-1,0,1,-18,0,-2,0,-3,16.865000000000002
3374,0,5,-1,12,0,-2,1,-1,16.87
3375,-4,-9,-3,-3,1,-2,-2,-2,16.875
3376,-1,2,0,8,-4,-2,-1,-1,16.88
3377,-1,-4,0,-8,-1,-2,0,-2,16.885
3378,1,3,0,-2,-1,-1,0,0,16.89
3379,-2,-5,-3,-15,0,-1,-2,-1,16.895
3380,-1,1,0,9,-2,-1,0,-1,16.9
3381,-7,-4,-1,2,-2,-3,-4,-3,16.905
3382,1,0,-2,-3,-3,0,-2,0,16.91
3383,3,1,0,3,3,1,0,-1,16.915
3384,-1,1,-1,7,-2,0,1,0,16.92
3385,2,1,-1,-3,2,2,0,2,16.925
3386,-3,1,0,5,-6,-3,-1,1,16.93
3387,-8,-5,-1,-18,-4,-4,-3,-4,16.935
3388,2,-4,-1,-7,5,1,0,0,16.94
3389,-1,-2,-1,4,1,-1,1,-1,16.945
3390,-2,-1,-1,-7,-1,0,2,2,16.95
3391,6,12,-1,20,4,2,0,2,16.955000000000002
3392,-4,-10,-1,-21,-8,-3,-2,-1,16.96
3393,-1,2,0,-6,-2,-3,-2,-2,16.965
3394,-3,-2,-1,0,-2,-2,0,-3,16.97
3395,-3,-9,-2,10,-3,-2,0,0,16.975
3396,-1,3,-1,16,1,0,-2,-1,16.98
3397,1,0,0,-24,4,3,-1,1,16.985
3398,-1,-10,-31,-5,-6,-1,-3,-4,16.990000000000002
3399,3,10,-28,4,4,1,0,1,16.995
3400,-3,-4,-83,-8,-2,-2,-2,-3,17.0
3401,0,0,-40,18,-2,-1,-1,-2,17.005
3402,-2,-10,-58,-15,-1,-1,-3,-1,17.01
3403,-3,4,-11,-13,-2,-2,-1,-3,17.015
3404,1,7,-7,10,1,1,1,1,17.02
3405,-3,-3,-15,0,-3,-2,0,-2,17.025
3406,1,-7,26,9,-1,-2,-2,-1,17.03
3407,2,2,-10,-20,-1,-1,-1,2,17.035
3408,1,7,26,-19,3,2,1,0,17.04
3409,-12,-28,-23,20,-8,-6,-4,-5,17.045
3410,-2,1,9,-53,1,2,0,-1,17.05
3411,-2,-14,-25,21,-9,-5,-3,-2,17.055
3412,8,20,26,27,7,3,2,2,17.06
3413,-1,-10,-34,-45,4,1,0,0,17.065
3414,-4,-9,-23,23,-12,-5,-4,-3,17.07
3415,0,-1,2,-2,6,0,0,0,17.075
3416,2,17,-9,24,-2,-2,-1,-1,17.080000000000002
3417,1,-2,-41,15,-8,1,0,1,17.085
3418,1,8,5,-35,17,2,0,0,17.09
3419,0,0,-20,-7,-2,-1,0,-1,17.095
