slno,emg1,emg2,emg3,emg4,emg5,emg6,emg7,emg8,Time
0,1,1,-1,0,-3,0,0,0,0.0
1,-1,-4,-1,1,-1,-1,-2,-1,0.005
2,0,2,-1,-1,1,0,0,0,0.01
3,-2,-4,-3,-3,-2,-2,-1,-1,0.015
4,-2,-2,-1,-3,-1,0,-1,0,0.02
5,-1,-1,1,-3,-3,1,-1,-1,0.025
6,-2,-6,-2,0,-3,-2,-3,-1,0.03
7,-1,-3,0,0,-2,0,-2,-2,0.035
8,-1,1,1,0,-2,0,0,-1,0.04
9,0,0,0,1,1,-2,-2,0,0.045
10,2,2,0,-2,-2,0,0,-1,0.05
11,-2,-2,0,2,-1,0,-1,-2,0.055
12,2,-2,-3,-3,-1,-1,-2,-1,0.06
13,-2,-2,-3,0,-1,0,1,0,0.065
14,0,1,0,-1,-1,0,-1,-1,0.07
15,2,7,0,-3,-1,-1,0,1,0.075
16,-4,-4,-3,2,1,1,-1,-3,0.08
17,-1,4,-4,-1,-2,0,-1,0,0.085
18,-2,-3,-4,-2,-3,-2,0,-2,0.09
19,-2,-2,-1,-2,-2,-1,-1,0,0.095
20,2,3,1,-1,-2,0,-1,0,0.1
21,-1,0,-2,-1,3,-2,0,0,0.105
22,-1,-2,-2,0,0,-1,-1,-1,0.11
23,0,0,2,-1,-1,0,0,-2,0.115
24,-2,-3,-3,0,0,-1,-1,-2,0.12
25,1,1,0,2,-1,-1,0,-2,0.125
26,0,1,0,1,1,-1,-1,0,0.13
27,0,2,-2,1,-2,-1,0,0,0.135
28,-1,-3,-2,-2,-1,-2,-2,-1,0.14
29,-3,-2,-1,-2,-1,-3,-2,-2,0.145
30,-2,-2,0,-2,-2,0,0,-1,0.15
31,-1,-1,-1,1,-1,-1,0,0,0.155
32,0,4,-1,-7,0,1,0,0,0.16
33,0,-2,0,3,1,0,0,-1,0.165
34,-2,-2,-1,-2,-2,-1,-1,-1,0.17
35,-2,-3,-1,1,-1,-2,-1,-1,0.17500000000000002
36,-3,-2,-1,0,-2,-2,-3,-1,0.18
37,-1,0,0,-2,-2,-1,-2,-1,0.185
38,1,2,-1,-4,-1,-1,-1,-1,0.19
39,-1,3,0,2,1,2,0,-1,0.195
40,-1,-6,-2,0,-2,-2,-1,-2,0.2
41,-1,-1,-1,-1,0,0,1,0,0.20500000000000002
42,-1,-1,0,1,0,-1,-2,-1,0.21
43,-2,-3,-5,-5,-1,-2,0,-3,0.215
44,2,3,0,1,-2,-2,-1,-1,0.22
45,-1,2,0,0,0,0,-1,1,0.225
46,-2,-1,-2,-3,-2,0,-1,-1,0.23
47,2,0,-2,-1,-2,-1,-2,0,0.23500000000000001
48,1,2,0,-1,-1,-1,0,-1,0.24
49,0,-2,-1,0,1,0,1,-1,0.245
50,0,0,1,-1,0,0,0,0,0.25
51,-2,0,0,-1,-1,0,1,0,0.255
52,-2,-1,0,2,4,-1,2,1,0.26
53,1,2,-2,-3,-2,-2,-1,0,0.265
54,-2,-2,-2,4,0,-1,-1,0,0.27
55,-1,-1,1,-4,-2,-3,-1,0,0.275
56,-1,-3,-2,0,-3,-1,-3,-2,0.28
57,-3,-5,-4,-2,0,0,-1,-1,0.28500000000000003
58,0,-2,-5,-4,0,2,-1,-2,0.29
59,-2,-5,0,1,0,-3,0,0,0.295
60,2,6,-1,0,1,0,0,0,0.3
61,-2,-6,0,-1,-1,0,-2,-2,0.305
62,1,4,0,0,0,-1,-1,0,0.31
63,1,-1,-2,0,0,0,0,0,0.315
64,-1,-4,-2,-4,0,-1,0,-2,0.32
65,0,-2,-2,-3,-2,-3,-1,0,0.325
66,0,-1,0,-2,-3,-1,-1,0,0.33
67,-1,1,1,0,4,2,-2,0,0.335
68,-1,-1,-1,1,-2,0,-1,0,0.34
69,0,-1,-1,-2,-3,-2,0,-1,0.34500000000000003
70,0,1,-1,0,-2,-1,1,0,0.35000000000000003
71,-1,2,-2,-4,-1,-2,0,0,0.355
72,-1,-2,-2,-1,-2,-1,-1,-1,0.36
73,0,4,0,-1,0,-2,-1,0,0.365
74,-1,-8,-2,0,-2,-1,0,-1,0.37
75,3,5,3,-1,-3,0,-1,-2,0.375
76,-1,-2,-1,0,0,2,-2,0,0.38
77,1,4,0,1,2,0,-1,-1,0.385
78,-2,-2,0,-1,-1,0,-3,-2,0.39
79,-1,-4,-3,-1,-4,-3,-1,0,0.395
80,-3,-3,-1,-4,-5,-5,0,-2,0.4
81,0,-3,-3,-1,1,1,-1,-2,0.405
82,-3,-6,-2,0,0,0,0,-2,0.41000000000000003
83,0,-1,0,0,3,1,0,0,0.41500000000000004
84,0,1,2,0,-2,0,2,-1,0.42
85,-1,0,1,0,-4,-1,-2,0,0.425
86,-2,-1,-3,-2,1,-2,7,1,0.43
87,0,-1,-1,1,-2,-4,-8,-3,0.435
88,-1,-2,1,-1,0,-1,0,-1,0.44
89,-1,0,0,2,0,-8,-8,-1,0.445
90,-1,0,0,-3,-3,5,2,-3,0.45
91,-3,-2,-1,0,-2,1,-4,0,0.455
92,-2,-3,-7,-4,3,4,0,-4,0.46
93,1,1,0,0,-5,-9,8,1,0.465
94,3,4,1,2,-1,-5,-1,2,0.47000000000000003
95,-1,-3,-2,-4,-6,-11,5,-2,0.47500000000000003
96,-1,2,2,3,3,12,-3,-2,0.48
97,0,0,-1,-1,4,3,3,-1,0.485
98,-1,3,-1,-2,-2,-1,-11,-1,0.49
99,0,-1,-1,-1,-5,3,1,1,0.495
100,1,2,1,1,8,-8,-2,0,0.5
101,-1,-1,1,-1,-4,0,-4,-1,0.505
102,-2,-4,-1,1,5,5,3,0,0.51
103,-1,-1,-3,-2,-2,5,-3,-1,0.515
104,-2,-3,-4,-2,-8,-8,0,-1,0.52
105,-2,-1,-1,-1,-3,-2,-2,-3,0.525
106,1,-2,1,-3,-11,-9,0,1,0.53
107,-2,-2,-1,-1,8,-2,-9,-3,0.535
108,-3,1,0,3,2,2,0,-2,0.54
109,-2,-4,-4,-3,-2,6,-1,1,0.545
110,2,5,2,-1,-7,0,17,0,0.55
111,-1,-5,-1,-1,2,0,1,-1,0.555
112,0,-4,1,1,1,3,3,2,0.56
113,-2,-3,-2,-3,-3,-4,-8,-2,0.5650000000000001
114,1,1,-1,-2,1,-2,-8,-1,0.5700000000000001
115,-2,-1,1,-1,0,-1,3,-1,0.5750000000000001
116,-2,0,-1,-2,-3,-2,-3,-3,0.58
117,-1,-2,0,1,1,1,0,0,0.585
118,-2,-4,1,1,-1,-3,-4,-2,0.59
119,0,1,-2,-2,-2,-3,-1,-3,0.595
120,1,3,-1,-3,-1,-1,-4,-1,0.6
121,2,1,0,1,2,3,4,1,0.605
122,0,-1,-4,-1,3,-2,-3,0,0.61
123,-1,-3,1,-1,-6,2,0,-2,0.615
124,0,1,2,-2,-1,-4,0,-1,0.62
125,-2,-2,-2,-4,-13,-1,0,0,0.625
126,-1,-3,2,0,11,1,-3,0,0.63
127,0,-1,-1,3,7,4,1,0,0.635
128,2,-1,0,-2,-7,0,1,0,0.64
129,-2,-1,0,1,7,0,0,-2,0.645
130,0,-1,-4,-1,-21,-9,-5,-3,0.65
131,2,2,-1,-2,-5,-2,-1,-1,0.655
132,-1,-1,0,-1,4,0,-1,1,0.66
133,0,-2,-2,-1,7,2,0,-2,0.665
134,-2,-4,0,0,9,2,-1,-1,0.67
135,-2,1,-1,-1,-3,-2,0,-2,0.675
136,0,-3,-3,0,0,2,-1,-1,0.68
137,0,0,-2,-1,-6,-3,0,0,0.685
138,-1,2,0,-1,-2,-1,-1,0,0.6900000000000001
139,-2,1,0,-3,0,-1,0,-2,0.6950000000000001
140,1,5,0,-2,-8,-4,-1,0,0.7000000000000001
141,-4,1,2,0,-5,-6,-3,-2,0.705
142,-4,-4,-1,1,3,-1,-2,-1,0.71
143,-1,1,1,3,11,8,2,2,0.715
144,4,-1,-2,-2,-11,2,1,2,0.72
145,-1,1,-2,3,17,3,0,-3,0.725
146,-1,-3,-1,3,8,7,-1,-1,0.73
147,-2,-2,-5,-4,-16,-15,-4,0,0.735
148,-1,-5,-3,-6,-13,-8,-2,-1,0.74
149,4,-1,0,-3,-13,-7,-3,0,0.745
150,-1,3,0,1,9,9,2,-1,0.75
151,-8,-4,0,1,11,8,1,-2,0.755
152,0,-1,1,2,2,1,1,-2,0.76
153,-2,-4,-2,-4,-2,-5,-2,-1,0.765
154,3,2,-1,-2,-9,-3,0,-3,0.77
155,7,5,1,2,2,-3,-1,0,0.775
156,-9,0,-2,-2,-9,-6,-4,1,0.78
157,-2,0,2,0,2,5,-2,-2,0.785
158,-3,-2,0,2,8,2,3,0,0.79
159,0,1,2,1,-2,2,0,-2,0.795
160,0,0,-1,3,3,3,2,-1,0.8
161,2,-4,-3,-5,-4,3,0,0,0.805
162,-2,1,0,0,-11,-9,-4,1,0.81
163,4,3,0,-3,0,-3,-1,0,0.8150000000000001
164,1,-4,-2,-1,-3,-11,-8,0,0.8200000000000001
165,-12,-5,0,1,5,8,3,-1,0.8250000000000001
166,-12,-7,-3,1,4,4,-1,-6,0.8300000000000001
167,0,-6,0,5,7,10,2,0,0.835
168,9,5,3,3,6,1,2,1,0.84
169,4,0,-2,-2,-9,-7,-4,0,0.845
170,0,2,-2,-5,-8,-6,-4,-2,0.85
171,0,-2,-4,-6,-2,-5,-3,-1,0.855
172,-10,-7,-2,-2,-2,-1,1,0,0.86
173,4,7,1,3,-9,-8,1,1,0.865
174,4,3,2,1,8,2,-1,-1,0.87
175,-3,0,-2,0,-2,3,1,0,0.875
176,1,-4,-2,-2,6,0,-3,-2,0.88
177,-2,-5,-1,-2,-4,0,3,0,0.885
178,2,-2,-1,-1,-3,-3,-5,-2,0.89
179,-3,-6,-3,-6,-11,-10,-7,-2,0.895
180,-3,-1,0,1,13,5,1,-2,0.9
181,-2,3,2,1,2,2,1,0,0.905
182,2,-1,-1,1,-2,-5,-6,1,0.91
183,-2,-8,-3,0,-2,4,5,0,0.915
184,-1,0,-2,-1,1,-5,-2,-2,0.92
185,-1,0,-2,-3,-6,-2,4,-1,0.925
186,0,3,1,-4,-7,-5,-4,0,0.93
187,0,2,-1,-5,0,-11,-6,0,0.935
188,-2,-1,0,0,-16,-7,-7,-1,0.9400000000000001
189,0,1,0,6,23,13,-1,-2,0.9450000000000001
190,3,0,0,3,7,11,14,0,0.9500000000000001
191,-5,1,0,2,1,8,2,-2,0.9550000000000001
192,3,7,-3,-5,-4,-2,-1,-2,0.96
193,-5,-4,-3,-6,-6,-8,-5,0,0.965
194,-1,-2,-4,-6,-18,-7,-9,-1,0.97
195,1,-4,0,1,2,-7,4,0,0.975
196,-4,1,1,3,7,6,-8,-1,0.98
197,5,4,0,1,-3,-4,-5,-1,0.985
198,-1,0,1,0,7,5,4,0,0.99
199,-3,2,-1,-3,-4,-5,-9,-1,0.995
200,0,-5,-2,-3,0,7,8,0,1.0
201,-8,-6,-2,-3,-15,-9,-3,-1,1.0050000000000001
202,-2,-3,2,0,-8,-7,5,0,1.01
203,0,-1,0,3,10,8,2,0,1.0150000000000001
204,3,1,1,2,5,7,2,-1,1.02
205,3,3,-1,0,8,-1,-7,0,1.025
206,6,2,-3,-5,-1,-2,-1,-2,1.03
207,-15,-9,0,-5,-20,-4,-2,-6,1.035
208,-5,-1,-5,-1,4,-4,1,-3,1.04
209,0,-2,2,2,11,10,2,0,1.045
210,10,9,5,5,3,-3,-3,1,1.05
211,0,-1,-3,0,-9,-6,-2,0,1.055
212,-1,-2,-2,-4,-5,3,2,-3,1.06
213,-2,0,-4,-5,-7,-5,0,-1,1.065
214,-4,-2,-6,-4,5,4,3,0,1.07
215,6,5,1,2,5,-3,-6,0,1.075
216,-2,-5,-1,1,-5,-5,-2,-1,1.08
217,1,1,1,1,-1,11,7,0,1.085
218,-4,-3,-1,2,-3,-3,-2,-1,1.09
219,-2,-2,-1,-1,0,4,4,-1,1.095
220,-4,1,0,-1,1,-13,-7,1,1.1
221,4,0,-1,-3,-4,1,-1,-1,1.105
222,-7,-10,-4,-1,9,4,-4,1,1.11
223,3,2,0,0,-15,-7,8,-1,1.115
224,3,1,1,3,0,-5,-11,-1,1.12
225,3,-2,-2,1,13,0,0,1,1.125
226,-9,1,-1,0,-4,-8,-10,-2,1.1300000000000001
227,1,3,1,-2,-3,2,3,1,1.135
228,2,-4,-3,0,8,11,0,-1,1.1400000000000001
229,-5,-1,0,1,-15,-5,1,-1,1.145
230,4,1,1,-1,-1,-4,-10,-2,1.1500000000000001
231,-1,-4,0,0,5,-3,3,0,1.155
232,-7,-5,-2,-5,-10,-1,6,-1,1.16
233,-9,-5,-3,-3,4,-2,-1,-4,1.165
234,-1,-5,-2,-1,0,-4,0,1,1.17
235,3,1,-3,0,1,1,-3,-2,1.175
236,8,5,1,2,-5,-3,-2,1,1.18
237,3,2,0,-4,2,1,-1,-1,1.185
238,-10,-7,-7,-9,-28,-9,-1,-3,1.19
239,-8,-7,-1,1,17,4,-3,-3,1.195
240,-1,0,1,6,9,1,3,0,1.2
241,2,1,1,5,0,3,1,-2,1.205
242,-1,-1,0,0,0,-2,4,-1,1.21
243,2,0,-3,-7,-3,1,-7,1,1.215
244,-3,-3,-3,-2,7,6,-1,-2,1.22
245,-2,2,2,1,-8,-12,-2,0,1.225
246,2,0,1,2,8,5,4,1,1.23
247,-1,-1,0,-1,-2,0,-1,0,1.235
248,-4,0,-2,-6,-16,-5,-2,-2,1.24
249,5,-3,0,-2,14,2,-3,-1,1.245
250,-5,-4,-2,3,-2,-1,2,2,1.25
251,-1,-6,-2,0,-3,1,-2,1,1.2550000000000001
252,-4,-3,3,3,6,2,4,-3,1.26
253,-4,-3,-5,-4,-15,-2,0,-1,1.2650000000000001
254,6,-1,-1,-6,7,4,0,-1,1.27
255,5,4,-1,0,-3,-4,2,0,1.2750000000000001
256,-4,-6,-4,-2,0,-4,-5,-3,1.28
257,1,1,-1,-1,-5,-8,-5,-1,1.285
258,-5,1,1,2,1,3,0,-1,1.29
259,3,1,2,0,0,0,-1,-3,1.295
260,1,1,-2,-4,11,-1,1,0,1.3
261,-7,-7,-3,-3,-16,-4,-1,0,1.305
262,4,2,1,0,-8,1,2,-1,1.31
263,-5,0,-1,4,21,8,1,-1,1.315
264,1,0,2,2,-11,-3,0,-1,1.32
265,2,-1,-2,-3,1,-7,-4,0,1.325
266,8,-1,0,-1,2,-2,-1,0,1.33
267,-14,-4,-3,0,-6,4,-2,-1,1.335
268,10,-3,-2,1,15,4,8,-2,1.34
269,-10,-8,-3,-2,2,5,-2,-1,1.345
270,-5,-5,-1,-3,-15,-11,-7,-1,1.35
271,4,-7,-3,-6,-8,-10,2,-3,1.355
272,7,3,0,-2,-5,-4,-6,1,1.36
273,-11,7,3,7,13,10,5,2,1.365
274,-1,-1,-2,3,12,7,1,-1,1.37
275,9,4,0,-2,3,2,-1,0,1.375
276,2,13,-1,-3,-14,2,11,1,1.3800000000000001
277,-18,7,-2,-3,1,-2,-11,-11,1.385
278,6,-2,-3,-1,0,-1,3,5,1.3900000000000001
279,-5,-2,-2,1,-1,-5,-11,0,1.395
280,1,1,-4,-7,-15,-18,-9,1,1.4000000000000001
281,13,6,-1,-2,8,10,0,1,1.405
282,-13,9,3,5,-2,-1,6,-1,1.41
283,4,9,3,5,5,4,5,-5,1.415
284,9,8,2,2,10,8,6,1,1.42
285,-13,-5,-7,-7,-17,-4,2,4,1.425
286,-11,-1,-5,-3,10,-2,-12,-4,1.43
287,-3,1,0,-2,-4,-8,-5,0,1.435
288,12,-2,4,1,-4,4,24,-4,1.44
289,-17,-3,-2,-3,-14,-13,-11,0,1.445
290,20,8,3,3,7,3,-28,11,1.45
291,-1,-2,-3,0,12,0,-6,-1,1.455
292,-10,-3,0,4,7,6,-6,-8,1.46
293,1,0,2,-15,-13,-2,21,-5,1.465
294,21,-5,3,12,10,6,15,9,1.47
295,-3,-17,-5,5,-4,-6,-16,4,1.475
296,8,-23,-21,-27,-21,-14,-10,9,1.48
297,4,-8,3,12,5,-2,-1,-6,1.485
298,-6,-1,-2,-5,-2,1,13,-4,1.49
299,10,7,-3,-7,-4,2,0,-2,1.495
300,-4,-8,2,1,0,-1,-13,-10,1.5
301,-32,-5,-6,-8,-2,-1,-7,-6,1.5050000000000001
302,13,-7,2,-1,-6,-3,5,-8,1.51
303,-12,1,7,6,-1,2,15,2,1.5150000000000001
304,-2,1,1,-3,-6,-4,-7,1,1.52
305,0,3,0,6,6,0,-6,0,1.5250000000000001
306,5,-5,0,4,9,2,6,1,1.53
307,9,3,-2,-16,-15,0,-19,-17,1.5350000000000001
308,-54,-11,1,-20,-31,-15,29,-3,1.54
309,63,9,8,81,79,22,19,56,1.545
310,4,8,-12,-7,-2,-5,-19,-19,1.55
311,-28,1,-3,-17,-2,7,-8,-32,1.555
312,-27,6,16,-17,-48,-7,-8,-24,1.56
313,15,-21,-10,43,50,2,58,51,1.565
314,31,18,-12,30,22,-5,-18,20,1.57
315,16,3,-8,20,13,-4,-6,8,1.575
316,-3,0,-2,-11,-1,-2,-30,-16,1.58
317,-5,-1,9,-37,-41,-3,-8,-34,1.585
318,1,-11,2,-12,-10,-3,7,0,1.59
319,10,-4,1,-15,-11,-1,-1,-1,1.595
320,8,0,2,15,-8,-9,6,8,1.6
321,5,0,0,-15,-4,12,-15,-10,1.605
322,-13,-3,-3,-9,-2,2,-3,-7,1.61
323,-10,-1,3,-1,-5,0,15,7,1.615
324,-1,-9,-4,13,21,6,0,14,1.62
325,-3,-1,-5,-14,-14,-8,-12,-10,1.625
326,-22,-3,3,-14,-14,-2,2,-8,1.6300000000000001
327,-11,-2,3,7,3,-1,13,8,1.635
328,5,6,-3,16,25,5,-7,8,1.6400000000000001
329,-4,2,-6,-18,-15,-9,-20,-15,1.645
330,-21,-3,3,-6,-18,1,12,-1,1.6500000000000001
331,-5,-5,0,5,-2,-8,1,9,1.655
332,7,-2,-5,6,20,14,1,1,1.6600000000000001
333,-11,1,1,-12,-5,0,-5,-11,1.665
334,-13,1,0,-2,-3,-5,5,2,1.67
335,4,9,0,-1,-17,-14,-6,6,1.675
336,5,5,-4,0,11,17,2,-5,1.68
337,-8,6,1,-7,-10,0,3,0,1.685
338,-10,3,0,-1,-1,1,-4,5,1.69
339,-6,3,0,-1,10,-8,-18,0,1.695
340,-5,0,-2,4,5,7,6,5,1.7
341,0,0,2,-3,-5,12,7,-11,1.705
342,-2,-23,-1,-2,0,-9,-4,-5,1.71
343,-9,-25,-2,-4,-2,7,13,-3,1.715
344,-7,-22,1,0,-10,-11,-10,4,1.72
345,-16,-16,-5,-7,13,5,5,-3,1.725
346,-1,-3,8,1,-8,-1,-7,-4,1.73
347,-1,9,-4,9,9,8,14,-2,1.735
348,22,22,16,5,8,-6,-8,-1,1.74
349,12,7,-29,-7,-15,-2,-6,5,1.745
350,4,8,-6,-10,0,-8,-8,6,1.75
351,11,10,-4,-4,-13,-9,10,-1,1.7550000000000001
352,6,12,3,-1,4,-6,-19,-6,1.76
353,5,10,10,1,-4,-16,-4,-4,1.7650000000000001
354,4,11,13,3,5,25,16,-1,1.77
355,8,-1,-22,1,14,25,1,-1,1.7750000000000001
356,1,1,12,3,2,-4,6,21,1.78
357,-3,6,3,-2,-4,-7,-25,-28,1.7850000000000001
358,-8,-15,-49,-11,-12,-11,8,-8,1.79
359,17,-1,14,3,8,0,0,24,1.795
360,-5,-2,-2,1,-4,18,9,6,1.8
361,7,-1,26,3,-3,-22,-8,-13,1.805
362,-10,7,-27,-7,-9,3,-5,6,1.81
363,-2,2,3,-4,-1,-6,-9,-15,1.815
364,-6,-8,27,11,8,-7,5,7,1.82
365,9,-1,-18,-1,-5,1,-1,26,1.825
366,-2,-7,3,-7,-9,-16,-6,-32,1.83
367,-4,20,12,-1,1,3,8,-4,1.835
368,-18,-12,-3,-6,17,6,-20,-19,1.84
369,3,-20,-28,-4,-35,-6,5,0,1.845
370,9,2,10,6,13,11,0,4,1.85
371,1,-11,-15,-5,3,-7,-4,12,1.855
372,6,8,-6,3,-7,0,8,-6,1.86
373,-2,6,3,4,24,7,1,1,1.865
374,-1,-4,-1,-3,-5,-15,-9,7,1.87
375,-1,-2,8,1,9,19,12,-8,1.875
376,-1,1,-1,0,-15,-11,-2,0,1.8800000000000001
377,0,-3,-7,-6,-1,1,-1,3,1.885
378,0,1,14,5,1,-8,-7,5,1.8900000000000001
379,-7,-5,11,0,-16,-11,-2,-4,1.895
380,2,-5,-26,-9,7,7,6,-1,1.9000000000000001
381,-1,-3,4,-2,-1,0,2,3,1.905
382,-3,2,14,-2,0,8,3,-4,1.9100000000000001
383,-1,-3,-3,5,7,-7,-14,-3,1.915
384,1,-2,-10,2,-7,5,7,2,1.92
385,0,4,8,0,4,-2,-2,-2,1.925
386,-5,-3,4,-1,-6,-2,0,-1,1.93
387,-7,-8,-11,-13,-16,-25,-4,-1,1.935
388,1,-6,-18,-9,-12,-2,-18,1,1.94
389,-3,1,23,10,13,6,7,0,1.945
390,-2,6,24,14,12,12,21,-1,1.95
391,1,-5,-7,2,11,8,5,3,1.955
392,0,2,0,7,0,-10,-5,-4,1.96
393,-3,-5,-15,-10,-13,-3,-4,0,1.965
394,-1,-9,-17,-8,-7,0,-5,1,1.97
395,0,4,10,-6,-20,-8,-2,-1,1.975
396,-1,2,1,-2,12,5,13,-1,1.98
397,1,-1,-15,1,-1,-11,-18,0,1.985
398,0,6,18,11,8,13,6,0,1.99
399,-3,1,17,9,0,-13,-26,-5,1.995
400,-2,-2,-10,-9,2,18,35,-3,2.0
401,-3,1,1,-5,-13,-11,-2,2,2.005
402,5,-7,-24,-11,-4,-11,1,8,2.0100000000000002
403,-3,-6,-13,-4,-4,8,-6,-2,2.015
404,-1,-3,1,1,-1,-13,-6,5,2.02
405,-1,-5,2,3,16,10,5,-10,2.025
406,-4,-4,2,-2,-21,-14,-9,-4,2.0300000000000002
407,-3,-9,-1,-4,3,1,1,-2,2.035
408,1,0,4,4,17,1,-8,1,2.04
409,-1,5,6,1,1,3,0,5,2.045
410,1,5,2,4,-4,-3,2,-3,2.05
411,-3,5,-1,0,-7,5,2,4,2.055
412,-3,3,-5,-5,-10,-9,-6,-4,2.06
413,0,2,3,-3,6,0,-1,0,2.065
414,-1,6,-2,-3,9,1,-8,-2,2.07
415,-1,28,-9,-14,-33,-23,-3,-2,2.075
416,0,26,2,2,-2,0,10,-2,2.08
417,2,30,7,11,17,1,-8,0,2.085
418,-1,11,1,5,15,19,-5,0,2.09
419,0,9,-3,3,9,11,15,0,2.095
420,0,2,-3,-6,-11,-10,-5,0,2.1
421,-1,-6,-2,-7,-20,-11,-5,-2,2.105
422,-2,-16,1,-2,-1,-5,-1,-2,2.11
423,1,-22,-1,3,26,10,-3,2,2.115
424,-1,-22,-1,-1,-28,-14,-6,-1,2.12
425,-2,-24,-2,-5,3,1,8,-1,2.125
426,-2,-15,-1,0,7,0,-5,0,2.13
427,2,-14,1,2,-1,3,2,0,2.1350000000000002
428,2,-9,-1,0,11,4,-1,-1,2.14
429,-2,-11,-1,-3,-7,4,1,-2,2.145
430,-1,-4,-5,-1,-3,-2,-1,-1,2.15
431,1,-5,-1,1,-4,-3,-5,0,2.1550000000000002
432,-1,-8,-2,0,4,1,-2,-2,2.16
433,0,-5,-1,-1,-6,-1,3,-1,2.165
434,-3,-2,0,0,-6,-4,-1,-3,2.17
435,2,1,0,0,-4,-1,0,0,2.1750000000000003
436,-3,-5,0,1,13,5,-5,0,2.18
437,-1,0,0,-1,-4,-1,1,1,2.185
438,-2,-2,-3,-2,-4,1,3,-1,2.19
439,0,-3,-3,-4,-2,-8,-5,0,2.195
440,0,-3,-6,-8,3,2,-13,-1,2.2
441,1,0,-1,4,-9,-10,11,1,2.205
442,0,5,9,10,10,2,2,0,2.21
443,1,0,-6,-2,8,11,2,0,2.215
444,0,4,2,0,-1,2,-3,1,2.22
445,-4,0,5,-3,-4,3,-4,-3,2.225
446,-1,-2,-3,-3,-11,-8,-4,0,2.23
447,-4,-5,-10,-5,-6,-10,-2,-1,2.235
448,2,-7,26,14,10,6,0,-1,2.24
449,2,-14,-3,5,-11,0,2,2,2.245
450,1,-11,-4,-2,7,2,1,0,2.25
451,0,-11,-7,-1,1,4,1,-1,2.255
452,0,-19,-7,-6,-3,-3,2,-1,2.2600000000000002
453,-2,-20,14,1,0,-4,-9,-3,2.265
454,-1,-12,-13,-7,-10,-6,-3,0,2.27
455,-2,-1,3,-1,-2,-7,-5,-2,2.275
456,-1,15,-2,6,7,1,4,0,2.2800000000000002
457,5,27,1,0,6,5,2,0,2.285
458,-5,13,-4,-3,3,3,-1,-2,2.29
459,-2,17,0,-2,-4,-1,-1,0,2.295
460,-1,12,-1,-1,-12,-9,-1,-1,2.3000000000000003
461,-1,9,-3,-3,3,0,-1,0,2.305
462,1,4,-5,-5,0,-3,-6,0,2.31
463,-2,-13,2,1,-1,4,6,-1,2.315
464,-2,-9,-2,0,-4,-2,0,-1,2.32
465,-2,-4,-7,-8,1,1,5,-2,2.325
466,-1,7,7,2,1,-1,-8,-2,2.33
467,-1,8,6,5,-10,-4,-3,-1,2.335
468,1,8,-6,-1,-7,0,5,0,2.34
469,-1,7,-4,1,14,7,4,2,2.345
470,0,6,1,-1,-3,-1,3,0,2.35
471,0,3,1,0,4,2,-3,-1,2.355
472,-2,2,-6,-5,-4,-4,-4,0,2.36
473,-2,-1,-1,-4,-5,-5,-5,-2,2.365
474,2,2,-4,-2,0,-1,1,0,2.37
475,0,-1,1,1,7,4,1,1,2.375
476,0,8,17,3,-2,-5,-1,-1,2.38
477,-6,-7,-1,-1,-20,-7,-3,-3,2.3850000000000002
478,1,1,2,1,13,4,2,1,2.39
479,-3,0,-6,2,3,4,2,-1,2.395
480,1,0,-8,-3,-3,2,-8,-2,2.4
481,2,3,0,1,9,2,2,-1,2.4050000000000002
482,-3,-4,-1,-1,-9,-1,0,-2,2.41
483,-2,-4,1,-2,-9,-10,-2,0,2.415
484,-2,-4,-1,-1,4,2,1,-1,2.42
485,0,-2,-2,-1,-3,-2,-2,0,2.4250000000000003
486,0,-3,-2,-4,-3,-4,-1,-2,2.43
487,1,-1,1,-3,-8,-2,0,0,2.435
488,-1,-2,-3,4,7,2,0,0,2.44
489,0,0,-3,-2,-2,-2,-2,1,2.445
490,-2,4,3,2,0,1,2,-2,2.45
491,-2,0,3,1,2,2,-1,-2,2.455
492,-1,-1,-6,-8,-12,-5,-3,0,2.46
493,-1,-3,-3,-2,5,1,-3,-3,2.465
494,0,-1,2,3,-4,0,-2,0,2.47
495,1,1,1,2,0,-5,1,0,2.475
496,0,-2,-6,-2,2,5,-1,0,2.48
497,-2,-6,-1,3,4,3,-1,0,2.485
498,-1,-6,-5,-4,4,6,2,-1,2.49
499,0,-2,-3,-4,-8,-7,1,-1,2.495
500,1,2,-1,-4,-2,-3,1,1,2.5
501,-1,2,0,-4,-4,-7,-9,-1,2.505
502,-3,-5,1,3,-1,-1,0,-1,2.5100000000000002
503,-2,-1,-3,-1,2,2,-2,-1,2.515
504,-1,-1,-3,0,6,-1,-3,-1,2.52
505,-1,0,0,-3,-15,-2,4,1,2.525
506,1,3,1,0,-2,-3,-1,1,2.5300000000000002
507,0,-1,1,2,8,5,1,0,2.535
508,-1,-4,0,-2,-3,-1,0,-2,2.54
509,2,5,-2,-1,-4,-3,-3,-1,2.545
510,-4,-3,-1,-4,5,0,1,1,2.5500000000000003
511,1,-2,0,0,-3,3,2,1,2.555
512,1,1,-3,-3,-7,-8,-3,-1,2.56
513,-6,-6,-2,2,4,8,3,-1,2.565
514,3,0,-2,-2,-4,-5,-2,-1,2.57
515,-2,-4,0,-2,5,4,0,0,2.575
516,-1,0,1,-2,1,1,2,-1,2.58
517,1,2,0,-1,-4,-7,-7,-1,2.585
518,-3,-2,0,-1,-3,-1,-2,2,2.59
519,-3,-4,-3,-4,3,1,3,-3,2.595
520,-1,-2,2,3,1,5,3,0,2.6
521,0,-2,2,-2,2,-1,-2,-1,2.605
522,-2,-3,-1,-2,-5,-1,0,-1,2.61
523,0,0,0,0,-14,-12,-7,-2,2.615
524,0,-1,-2,-1,-3,-4,-2,-1,2.62
525,-2,1,-1,-1,4,9,3,-2,2.625
526,0,0,1,1,4,0,-3,-1,2.63
527,0,-2,-2,-3,0,2,-2,0,2.6350000000000002
528,-2,-2,-3,-2,-2,-4,-1,-2,2.64
529,0,1,-1,0,-11,-9,1,0,2.645
530,0,1,-4,-3,2,3,1,-3,2.65
531,-2,1,-2,-3,-2,0,1,0,2.6550000000000002
532,-3,0,1,2,8,3,0,-2,2.66
533,0,-3,-1,0,3,-1,-3,-1,2.665
534,-1,-1,-1,-2,-8,-5,0,-1,2.67
535,1,-1,-1,0,1,0,-2,0,2.6750000000000003
536,-1,-2,-3,-3,0,-2,-1,1,2.68
537,-1,0,-1,-2,7,3,0,-1,2.685
538,-1,-2,0,-2,-14,-7,0,0,2.69
539,1,1,-1,-3,-10,-3,3,1,2.695
540,0,-4,-1,-2,4,-5,-8,-2,2.7
541,0,0,0,4,10,5,-2,0,2.705
542,1,2,-1,1,9,7,3,-3,2.71
543,-1,0,-5,-1,1,-5,-4,-3,2.715
544,-2,-1,2,0,-13,-2,2,0,2.72
545,0,-6,-3,-3,-1,0,4,-1,2.725
546,-1,-3,-3,-2,-3,-6,-7,-1,2.73
547,0,-1,1,-1,-1,-2,2,-1,2.735
548,0,-1,-2,-3,-2,-1,0,-2,2.74
549,-2,1,1,-2,-5,-2,-1,-1,2.745
550,-2,-1,1,0,0,0,2,1,2.75
551,-1,-2,3,2,3,-2,-4,1,2.755
552,0,-2,-3,0,11,4,-1,-1,2.7600000000000002
553,0,1,-4,-2,-14,1,1,1,2.765
554,0,3,3,-1,-8,-8,-2,-2,2.77
555,1,0,-1,0,3,4,0,1,2.775
556,-1,-2,-1,3,2,2,2,2,2.7800000000000002
557,1,1,0,-2,3,-4,-4,1,2.785
558,0,-1,-3,-5,-15,-9,-8,-2,2.79
559,-5,-7,-2,0,8,2,3,-2,2.795
560,1,4,2,7,10,6,3,-1,2.8000000000000003
561,-3,-4,-4,0,-2,0,0,-1,2.805
562,0,-1,0,2,-2,-6,-1,-1,2.81
563,0,3,3,-3,-10,-1,1,-1,2.815
564,-4,0,1,-3,1,3,0,-1,2.82
565,3,-1,-3,-2,-4,-2,-3,-1,2.825
566,-2,-1,-4,-4,10,4,1,0,2.83
567,0,2,5,-1,-6,-7,-5,-2,2.835
568,-1,-2,-4,-3,-16,-7,1,-1,2.84
569,-1,0,-8,-4,6,0,-2,-2,2.845
570,2,1,0,1,-1,1,0,1,2.85
571,0,2,7,3,7,4,-2,-1,2.855
572,1,0,0,-1,-4,0,1,0,2.86
573,-3,-5,1,1,0,-5,-3,-3,2.865
574,0,-3,-8,-1,2,8,6,-2,2.87
575,-2,-2,-4,-3,-1,0,1,0,2.875
576,-1,-1,-2,-3,-2,-5,-9,-1,2.88
577,0,-1,-2,-2,-20,-6,-1,1,2.8850000000000002
578,-2,-4,4,2,7,2,4,1,2.89
579,-2,-3,-2,1,5,1,-8,-1,2.895
580,0,-1,-4,-1,-4,-1,0,0,2.9
581,-1,0,-1,2,10,1,1,-2,2.9050000000000002
582,-2,-5,2,-1,-6,3,-3,-2,2.91
583,-1,-3,-4,-1,-4,1,3,0,2.915
584,-2,-6,0,-6,3,3,-2,-2,2.92
585,0,-1,2,-1,-4,-8,-4,-1,2.9250000000000003
586,-1,2,5,3,0,-2,1,1,2.93
587,3,-3,-7,1,3,6,1,1,2.935
588,-2,1,3,2,-3,-2,0,-1,2.94
589,-2,-2,-2,-2,0,0,-2,-2,2.945
590,-2,-3,-8,-5,0,3,4,0,2.95
591,0,-1,3,-1,3,-5,-4,-2,2.955
592,1,3,1,-1,-17,-10,-3,1,2.96
593,0,4,4,1,3,1,-1,-2,2.965
594,-1,-2,-5,0,4,4,-1,-1,2.97
595,-1,0,-4,-1,-1,3,5,1,2.975
596,0,-1,-4,-2,2,0,-8,-1,2.98
597,0,0,-5,-3,-3,-2,-2,-2,2.985
598,0,6,8,0,-4,-1,-2,-2,2.99
599,-2,-2,-4,-3,-5,-6,-1,-3,2.995
600,-1,-6,-2,-1,2,9,5,-2,3.0
601,-2,-1,1,3,1,-6,-2,1,3.005
602,0,-1,-4,3,4,0,-3,-1,3.0100000000000002
603,-2,-1,1,1,3,4,1,-3,3.015
604,0,-1,-2,-3,-4,-7,1,-2,3.02
605,-2,-3,-4,-4,-1,0,-4,-2,3.025
606,-2,-1,-1,-1,-12,-4,1,-1,3.0300000000000002
607,-1,0,0,1,-2,-2,1,0,3.035
608,0,0,-2,1,5,4,3,1,3.04
609,-1,1,2,1,4,2,-1,0,3.045
610,0,-1,0,-1,-1,-5,-3,-2,3.0500000000000003
611,-1,2,-2,-2,-4,3,0,0,3.055
612,0,2,-2,1,0,0,5,1,3.06
613,-3,-1,3,-1,-9,-2,-10,-2,3.065
614,1,4,0,3,8,0,-3,-1,3.0700000000000003
615,-3,-6,-6,-2,2,-2,1,-2,3.075
616,0,-3,-9,-3,0,-2,2,0,3.08
617,-3,1,4,1,-1,0,4,-2,3.085
618,1,1,3,-2,9,-1,-6,-3,3.09
619,0,2,5,1,-22,-3,0,0,3.095
620,1,2,-1,0,4,-1,-1,-1,3.1
621,0,-5,-8,-4,0,2,3,1,3.105
622,-4,-3,-7,-3,-2,-2,-2,-1,3.11
623,1,0,-1,0,5,-1,-5,-1,3.115
624,-3,0,0,-3,-11,-5,0,0,3.12
625,-1,-2,0,0,2,1,1,-1,3.125
626,-1,-2,1,1,0,1,-2,-1,3.13
627,-1,2,-1,0,0,-1,-3,1,3.1350000000000002
628,0,0,4,2,0,-1,-4,0,3.14
629,1,1,0,-1,2,1,5,0,3.145
630,-2,-2,-1,-4,-7,-5,-6,0,3.15
631,-1,-1,-4,-1,2,0,-3,-1,3.1550000000000002
632,0,-1,-1,1,1,1,2,0,3.16
633,0,0,8,1,-2,-4,-4,1,3.165
634,-3,0,5,1,0,4,5,-1,3.17
635,1,-2,-3,-1,-1,-1,0,0,3.1750000000000003
636,0,-2,-3,-4,2,-5,-4,-3,3.18
637,0,0,-4,0,1,4,1,1,3.185
638,1,-6,-16,-9,-6,-2,-1,-1,3.19
639,-2,4,19,4,-2,-3,-4,-1,3.1950000000000003
640,1,1,3,4,-3,-2,-1,-1,3.2
641,0,0,-4,1,-6,-2,-4,1,3.205
642,-3,-1,-1,1,4,-1,6,0,3.21
643,3,-1,-10,-5,0,-2,-2,1,3.215
644,-2,-5,-5,-4,1,1,0,0,3.22
645,-2,-6,-10,-4,1,1,2,-3,3.225
646,0,5,15,6,-4,1,1,-1,3.23
647,-4,-2,-6,0,-2,-6,-1,-1,3.235
648,-3,0,2,1,3,4,-1,-1,3.24
649,-2,-3,-6,-1,2,-1,-2,-1,3.245
650,1,-3,-7,-2,4,3,5,1,3.25
651,1,2,2,1,-11,2,-7,-1,3.255
652,-4,-2,-1,-2,-1,-7,-5,-2,3.2600000000000002
653,7,1,-4,-1,0,0,4,1,3.265
654,-5,-4,-8,-4,-5,-4,-2,-1,3.27
655,6,-3,6,0,0,-4,-2,0,3.275
656,-2,2,4,1,2,3,3,1,3.2800000000000002
657,-14,0,2,1,-9,-1,-2,-3,3.285
658,9,-1,0,-1,-3,-4,-6,-1,3.29
659,-3,-1,-8,-2,4,1,-2,-2,3.295
660,4,-1,-2,-1,0,4,0,0,3.3000000000000003
661,7,3,4,-1,7,2,0,1,3.305
662,-10,0,-2,1,-7,-5,-5,0,3.31
663,-3,-4,-5,-3,6,8,6,-3,3.315
664,1,1,2,1,-6,-5,-2,1,3.3200000000000003
665,-1,0,3,-1,-2,1,3,-1,3.325
666,3,0,-4,1,1,-1,-1,-2,3.33
667,-3,-1,2,0,3,-5,-5,-1,3.335
668,-1,1,2,0,-1,-1,1,-3,3.34
669,0,-4,-7,-2,1,4,0,-1,3.345
670,-1,-2,2,0,-1,0,-1,-1,3.35
671,3,1,5,-1,-2,-2,3,1,3.355
672,-4,0,5,1,1,2,-6,-3,3.36
673,-4,-4,0,-1,1,-2,-2,-1,3.365
674,1,-1,-6,-2,-17,-5,0,-1,3.37
675,-5,-2,-6,-3,1,-3,0,0,3.375
676,2,-4,-2,-1,1,4,-2,0,3.38
677,2,6,15,4,2,-6,-5,-2,3.3850000000000002
678,-7,-5,1,3,8,3,-1,-1,3.39
679,1,-2,-3,0,-1,0,-1,-1,3.395
680,0,0,-8,-4,-1,6,4,2,3.4
681,0,-1,-2,-1,1,0,0,0,3.4050000000000002
682,3,1,-1,-3,-1,-1,1,0,3.41
683,-5,-3,-3,-2,-6,-4,-4,-2,3.415
684,-1,-1,-1,-1,-1,-8,-2,0,3.42
685,1,1,-2,-5,-12,1,-2,-1,3.4250000000000003
686,-4,-3,0,3,6,-2,-2,0,3.43
687,-1,1,1,2,-5,-4,2,2,3.435
688,1,-3,-2,0,4,3,1,-1,3.44
689,-1,0,-1,2,7,-2,-4,0,3.4450000000000003
690,-4,-2,1,-1,3,3,-3,-3,3.45
691,3,0,-2,0,15,7,1,1,3.455
692,-1,0,3,-3,-24,-4,0,-1,3.46
693,-8,-4,-2,-4,-10,-4,0,-3,3.465
694,2,0,-2,-3,5,-1,-2,0,3.47
695,-3,-1,-1,-4,-6,-3,-1,-3,3.475
696,2,-1,-5,-2,8,-2,-1,-1,3.48
697,2,1,-3,1,-11,-7,-1,1,3.485
698,0,1,2,4,3,11,5,1,3.49
699,1,0,-3,-1,-1,-3,-4,-2,3.495
700,-2,0,-1,0,2,1,0,-2,3.5
701,0,1,0,-3,0,-2,-1,-1,3.505
702,2,0,-2,-1,-1,-1,-1,0,3.5100000000000002
703,-1,-2,0,-1,-4,-1,0,-2,3.515
704,0,-2,-3,-1,-1,-4,-1,-2,3.52
705,-1,-2,-1,0,2,0,0,-1,3.525
706,3,2,-1,-4,-5,-10,-6,-1,3.5300000000000002
707,-3,7,0,2,4,3,0,-1,3.535
708,-4,6,-2,3,1,0,-2,0,3.54
709,0,0,-2,-2,-1,-1,3,-1,3.545
710,1,-3,-1,-1,0,2,1,0,3.5500000000000003
711,-1,-7,2,0,-3,-4,0,0,3.555
712,-1,-5,-2,-1,2,-3,-1,-2,3.56
713,2,0,3,3,-1,2,1,1,3.565
714,-2,-2,-4,-1,-6,-2,2,-1,3.5700000000000003
715,-1,-1,1,-1,-1,-5,-9,0,3.575
716,-1,-3,0,-1,3,3,3,-2,3.58
717,-2,-3,-2,0,0,3,3,0,3.585
718,-1,1,-1,-2,1,-4,1,1,3.59
719,1,0,-9,-2,-4,-1,0,0,3.595
720,-2,0,5,0,2,-2,0,-1,3.6
721,-2,-5,-2,0,5,0,-3,-1,3.605
722,0,-1,0,0,-6,-1,-3,0,3.61
723,-1,-1,1,1,-3,-5,-2,-2,3.615
724,-3,0,-4,0,2,1,0,-1,3.62
725,-1,1,-2,-3,-4,-3,-1,0,3.625
726,1,0,-2,-5,-1,-4,2,1,3.63
727,-2,0,-5,-3,-3,0,0,-1,3.6350000000000002
728,-2,-2,5,4,8,5,-2,1,3.64
729,-2,-4,-4,-2,-4,-2,-2,0,3.645
730,-1,-1,2,1,2,-1,0,-1,3.65
731,1,-1,-3,-2,-3,3,2,-1,3.6550000000000002
732,-3,-2,-1,-1,-5,-3,-1,-1,3.66
733,1,0,-1,0,16,2,-2,-1,3.665
734,-1,-3,-1,-2,-16,-9,-3,0,3.67
735,-1,-2,-2,-2,-12,-3,5,-1,3.6750000000000003
736,0,-1,-3,-3,3,0,-3,0,3.68
737,1,-2,-3,0,4,3,0,-2,3.685
738,-3,-1,-3,-3,3,-4,-7,-3,3.69
739,-1,-1,5,3,-5,3,4,0,3.6950000000000003
740,2,1,3,0,0,-2,-4,1,3.7
741,-1,1,-2,0,1,0,2,0,3.705
742,-2,2,-4,-3,2,-1,-2,-3,3.71
743,-3,0,5,1,1,2,-1,0,3.715
744,-2,-4,-1,0,-6,-4,-3,-2,3.72
745,3,3,1,-2,0,-2,4,2,3.725
746,-4,-4,-2,-1,2,1,-4,-1,3.73
747,-1,-3,-8,-3,1,-4,4,0,3.735
748,0,1,-2,-1,-7,2,2,-2,3.74
749,-1,-2,-2,0,0,-1,-2,-1,3.745
750,-1,-1,1,0,-5,-1,-1,0,3.75
751,2,3,6,1,6,-2,-6,1,3.755
752,0,2,1,0,-1,-1,1,-2,3.7600000000000002
753,0,-3,-5,-3,-5,0,-3,-3,3.765
754,-1,-2,-6,-1,3,1,-2,-1,3.77
755,-1,0,2,-2,3,-3,-4,-1,3.775
756,0,0,2,-4,-5,-5,-1,0,3.7800000000000002
757,0,-1,0,-1,0,0,3,0,3.785
758,1,-1,0,3,1,5,4,1,3.79
759,-3,-2,-4,0,0,0,0,-3,3.795
760,1,0,-5,-2,-3,-1,-3,0,3.8000000000000003
761,-4,-1,0,-4,-7,-3,-3,-3,3.805
762,1,-2,2,1,0,0,1,1,3.81
763,-2,-1,-1,1,0,1,-1,-1,3.815
764,-1,-2,-2,-2,-1,-4,3,2,3.8200000000000003
765,-1,-2,-1,1,0,1,-1,-1,3.825
766,-1,1,2,-1,-4,1,-2,0,3.83
767,-1,0,0,-1,1,0,-6,-1,3.835
768,-1,-2,-5,-1,0,-5,0,0,3.84
769,2,1,1,0,-2,1,-1,1,3.845
770,-1,-1,-1,-4,-1,-2,2,-1,3.85
771,-1,-6,-12,-1,3,-1,-3,-2,3.855
772,-1,0,6,-1,-2,0,-4,-2,3.86
773,-2,1,8,2,-3,-7,-5,-2,3.865
774,0,0,-1,-1,-3,2,-2,-2,3.87
775,-1,-2,-2,0,-7,-1,6,0,3.875
776,2,-5,-9,2,11,1,0,1,3.88
777,-1,-2,-2,2,0,1,2,0,3.8850000000000002
778,1,1,0,-1,2,-1,-3,0,3.89
779,0,-1,-2,-4,-6,-5,-1,-2,3.895
780,-2,-2,-1,-2,-7,-2,0,0,3.9
781,-2,-1,0,-2,7,-1,-9,-2,3.9050000000000002
782,0,0,-2,-1,-4,2,9,2,3.91
783,-2,-1,1,-2,0,0,-2,0,3.915
784,-1,3,0,1,-1,2,0,-3,3.92
785,-2,-1,-3,-1,-2,-6,-2,0,3.9250000000000003
786,-1,-3,-2,0,4,0,-6,-1,3.93
787,0,2,4,0,-1,3,5,-1,3.935
788,-2,0,-1,-1,-5,-1,-1,-4,3.94
789,1,-2,-3,-2,-2,2,1,1,3.9450000000000003
790,1,1,-1,-1,-3,-1,-1,-1,3.95
791,-2,-1,4,1,5,1,-2,0,3.955
792,0,-1,-2,1,-7,-1,-2,1,3.96
793,0,1,0,-1,-3,-3,-2,-2,3.9650000000000003
794,0,-2,0,-1,2,-1,-1,0,3.97
795,0,0,-1,-2,0,0,-1,0,3.975
796,-2,-2,-1,-1,2,-2,-4,0,3.98
797,-2,-1,2,1,-1,-2,1,0,3.985
798,-2,0,3,2,4,2,2,-2,3.99
799,0,0,-3,-2,-2,-3,-4,-1,3.995
800,-1,-2,-4,-3,-3,-1,-1,-1,4.0
801,-2,0,-1,1,-2,-2,0,0,4.005
802,0,-2,1,1,-1,-5,-3,0,4.01
803,2,2,1,-1,-2,0,-1,0,4.015
804,-1,-2,-1,-1,2,1,4,-1,4.0200000000000005
805,-1,-1,-3,-4,2,0,-4,-1,4.025
806,0,1,1,-1,-6,1,5,-1,4.03
807,0,0,-3,0,1,-4,1,1,4.035
808,-1,-1,-2,1,-3,0,0,-1,4.04
809,0,-3,-2,1,0,-2,0,-2,4.045
810,-2,-3,-2,-2,-1,-1,-4,-1,4.05
811,0,-2,1,-1,7,0,-4,0,4.055
812,-1,-3,-2,-3,-15,-9,-4,-1,4.0600000000000005
813,1,0,1,2,1,-2,2,0,4.065
814,-3,-5,0,1,4,4,-1,-1,4.07
815,-2,-1,-1,0,3,0,0,-1,4.075
816,-1,-2,-4,-4,0,-4,-3,-2,4.08
817,0,-3,-2,-2,-6,3,2,-1,4.085
818,1,3,3,2,2,-2,-2,0,4.09
819,1,2,2,0,-7,0,-1,0,4.095
820,1,-1,-1,-1,3,0,0,-1,4.1
821,-2,0,-4,-3,-2,-4,-3,-1,4.105
822,-2,-1,-5,-1,5,1,-1,-2,4.11
823,-2,-3,-2,0,-6,-3,-2,-1,4.115
824,0,4,-4,-4,-10,-4,4,0,4.12
825,1,1,4,-2,5,5,1,1,4.125
826,-2,-1,-1,-1,1,3,0,1,4.13
827,-1,0,1,1,5,-5,0,-2,4.135
828,-1,-1,0,0,0,6,-2,0,4.14
829,-1,-2,-5,-1,-2,-6,-4,-1,4.1450000000000005
830,-2,1,-1,-3,-5,-4,-3,-2,4.15
831,-1,-5,-2,-2,-4,-4,3,-2,4.155
832,6,3,9,2,2,1,-2,-1,4.16
833,-13,1,4,2,5,-4,1,-2,4.165
834,2,-1,0,1,-5,-3,-1,-2,4.17
835,-1,-1,-5,-1,-7,-1,-3,0,4.175
836,-1,-4,-4,-2,8,4,0,0,4.18
837,4,-2,-5,-4,-6,-1,-1,-2,4.1850000000000005
838,0,1,-2,-4,-4,-4,-3,-1,4.19
839,-4,0,2,-3,-1,0,1,-2,4.195
840,1,0,-2,1,3,2,4,1,4.2
841,0,-3,-3,0,-3,-4,1,-1,4.205
842,-5,-4,-1,1,2,0,-8,-2,4.21
843,5,-1,-4,-3,0,-1,-1,0,4.215
844,-2,0,4,0,2,4,0,1,4.22
845,-3,-2,-2,-3,-4,2,0,-1,4.225
846,-1,0,0,-3,-2,-3,2,-3,4.23
847,0,-2,2,0,-1,-3,-9,0,4.235
848,-5,-1,-3,3,2,-4,-3,-2,4.24
849,2,2,1,0,1,0,1,-1,4.245
850,1,-3,-2,-1,-7,-4,-1,0,4.25
851,-1,1,6,2,12,9,3,0,4.255
852,-3,-3,-3,-3,-12,-7,-2,-2,4.26
853,4,1,-1,-1,-3,0,-1,0,4.265
854,-4,-2,-2,-2,0,0,5,-2,4.2700000000000005
855,-1,-4,-4,0,0,-3,-2,-2,4.275
856,-1,-1,-1,-4,3,-4,-12,-3,4.28
857,0,-1,1,1,0,4,7,0,4.285
858,3,2,2,0,3,2,3,1,4.29
859,-1,0,-4,-1,-2,-1,2,2,4.295
860,1,0,-2,-2,3,0,-1,0,4.3
861,-4,-2,-3,-4,-12,-5,-5,-1,4.305
862,0,-3,-1,0,0,-5,-2,0,4.3100000000000005
863,-1,1,4,3,5,2,-1,0,4.315
864,-3,2,-1,1,1,2,1,0,4.32
865,0,-1,-2,-1,6,0,-3,-2,4.325
866,1,1,-1,-2,-7,-2,1,0,4.33
867,-1,-1,-3,1,-9,-2,1,1,4.335
868,-1,-3,0,1,-1,-1,2,0,4.34
869,-3,1,3,3,4,2,1,-1,4.345
870,2,1,-5,0,5,2,-2,-1,4.3500000000000005
871,-1,-3,-3,-3,-8,0,-1,-1,4.355
872,1,0,4,-1,0,-2,-2,-1,4.36
873,-1,-1,-2,-2,5,4,3,1,4.365
874,-1,1,1,-1,-2,-2,-8,-1,4.37
875,-1,-2,-5,-2,1,-1,-1,-1,4.375
876,0,-2,-4,0,-4,-3,1,1,4.38
877,-5,-4,-3,-4,-7,-4,-3,0,4.385
878,-1,0,2,1,5,3,-2,-1,4.39
879,-2,0,-2,-1,-4,2,2,-3,4.3950000000000005
880,-1,-1,-1,0,10,0,-1,-2,4.4
881,0,-3,-2,4,-9,0,-3,-1,4.405
882,1,-1,-1,-2,-7,-3,1,0,4.41
883,-2,0,1,-1,2,-1,0,0,4.415
884,-2,-1,-1,-2,4,2,-1,-2,4.42
885,0,1,0,2,3,6,-4,0,4.425
886,-4,-1,1,0,-3,0,4,0,4.43
887,1,0,-1,-1,0,0,-1,-1,4.4350000000000005
888,-1,0,-1,-3,-5,-5,-3,-2,4.44
889,1,-1,0,-2,-2,-5,-3,0,4.445
890,-1,-2,-1,-1,-1,6,1,-1,4.45
891,0,2,0,-2,-2,-6,-2,-2,4.455
892,1,0,-1,0,-2,-1,2,0,4.46
893,-2,-3,-1,0,5,-1,-2,-3,4.465
894,-2,0,-1,1,-7,-5,-2,1,4.47
895,-2,-2,-1,-6,0,3,8,-1,4.4750000000000005
896,1,-1,1,1,-2,-3,-10,-1,4.48
897,2,0,-2,1,0,-1,2,0,4.485
898,-3,-2,-2,-2,-1,-1,-4,-2,4.49
899,-1,-2,-3,-4,-1,-2,-2,-3,4.495
900,-3,-1,-2,4,1,0,2,-2,4.5
901,2,0,0,3,-9,4,0,2,4.505
902,1,0,0,-1,6,-3,-5,-1,4.51
903,-3,-2,-3,0,-2,0,-2,-1,4.515
904,-2,-1,-2,-4,-2,-2,1,-1,4.5200000000000005
905,-1,0,-1,-3,0,-1,-1,-2,4.525
906,0,0,-2,0,-4,-2,2,-2,4.53
907,-1,0,2,1,-1,-4,-4,1,4.535
908,0,-3,-4,0,-3,0,-1,-1,4.54
909,0,0,-1,-4,0,-5,-1,-2,4.545
910,-1,-2,-1,0,-5,1,-4,1,4.55
911,-1,-3,0,2,0,-3,-3,-1,4.555
912,-3,-2,1,0,-5,-1,0,-2,4.5600000000000005
913,-1,1,0,0,0,2,3,-1,4.565
914,-1,-3,-3,-3,2,1,2,0,4.57
915,0,1,-2,0,-2,-3,-2,0,4.575
916,-1,-1,-3,-4,-7,-2,-1,0,4.58
917,-1,-2,1,1,9,-2,-3,-3,4.585
918,1,-1,-1,2,5,2,3,0,4.59
919,-1,1,-1,0,0,0,-8,-1,4.595
920,-2,-1,1,-3,-4,-3,9,1,4.6000000000000005
921,-1,-2,-3,-3,-7,-2,-2,0,4.605
922,1,0,-1,0,-1,-2,0,-1,4.61
923,1,0,-1,1,0,0,2,-1,4.615
924,-1,-2,-1,1,1,2,-1,-1,4.62
925,3,-1,1,-1,-1,0,0,-2,4.625
926,-4,-2,1,-2,-3,-4,-3,0,4.63
927,-2,-2,-4,-1,-1,3,2,-2,4.635
928,-1,1,0,1,7,-1,-2,-1,4.64
929,0,0,0,-3,-22,-3,0,2,4.6450000000000005
930,0,-1,0,0,3,-2,-4,-2,4.65
931,-3,-1,0,1,2,2,0,0,4.655
932,-1,-2,-3,-1,3,4,3,-1,4.66
933,-2,-2,0,-1,6,-4,-5,-2,4.665
934,-1,-2,-4,-5,-4,-6,-1,-3,4.67
935,2,-1,2,-1,-1,5,4,0,4.675
936,0,-2,0,-1,0,-3,-5,-1,4.68
937,-1,0,-2,1,3,-1,0,0,4.6850000000000005
938,0,1,0,3,-7,-1,2,-1,4.69
939,1,-1,-1,-2,3,0,-3,1,4.695
940,1,0,0,0,-4,-1,-4,1,4.7
941,-2,-1,0,-1,1,1,1,-1,4.705
942,1,3,0,1,2,0,-1,-2,4.71
943,-4,-5,-1,-1,-5,1,0,-3,4.715
944,-1,1,-1,-2,5,0,-1,0,4.72
945,-1,-2,-2,-1,-12,-5,-4,-2,4.7250000000000005
946,-2,1,1,-1,-1,-3,-1,0,4.73
947,-2,-1,-1,-1,-3,-4,4,0,4.735
948,0,0,2,2,3,4,-6,-2,4.74
949,-1,0,0,-2,7,-1,0,-1,4.745
950,0,-3,-1,-3,-3,0,-4,1,4.75
951,1,0,-2,-3,-8,-3,-1,-1,4.755
952,-2,-1,-2,0,-1,1,3,0,4.76
953,-1,2,-1,1,-3,-1,0,-1,4.765
954,-1,1,-1,0,2,3,0,-2,4.7700000000000005
955,-1,-3,1,3,6,-3,-1,-1,4.775
956,1,-1,-1,-2,-2,0,-2,-1,4.78
957,-2,-4,-3,-2,0,-4,-6,-1,4.785
958,0,-2,1,-2,-6,-1,1,-1,4.79
959,0,0,-1,-3,-4,2,2,-1,4.795
960,-3,0,1,-2,-9,-3,1,-3,4.8
961,1,0,-2,1,4,1,3,0,4.805
962,-3,-3,-1,-1,3,2,-4,-2,4.8100000000000005
963,-1,-4,-4,0,3,-2,-4,-1,4.815
964,0,-1,-1,-1,-3,-4,-1,0,4.82
965,-2,-1,-1,-2,0,1,0,0,4.825
966,-1,-2,-2,-2,-2,0,-2,-1,4.83
967,1,2,0,2,5,0,-1,-1,4.835
968,0,0,-1,1,-7,-2,1,0,4.84
969,-2,-2,-1,0,4,4,1,0,4.845
970,-1,-1,0,-2,0,-2,-6,0,4.8500000000000005
971,1,1,1,-1,-4,-5,-3,-1,4.855
972,-2,-4,-5,-4,0,0,3,-2,4.86
973,-2,-3,-2,0,0,2,-1,-3,4.865
974,-1,-1,-2,-3,-5,-3,2,0,4.87
975,1,1,0,0,10,2,-2,-2,4.875
976,-2,0,0,0,-8,-5,-5,0,4.88
977,1,0,0,-2,-3,-2,0,-2,4.885
978,-2,-2,-1,3,3,4,2,-1,4.89
979,0,0,-2,-1,-4,-2,-2,-1,4.8950000000000005
980,-1,1,1,0,4,1,-6,-2,4.9
981,-2,-2,-3,0,0,1,5,0,4.905
982,0,-3,-4,-3,-1,-4,-6,0,4.91
983,0,0,-2,-2,-5,-3,4,1,4.915
984,0,-1,0,0,1,1,4,1,4.92
985,0,0,-1,-1,0,-5,-9,-2,4.925
986,-1,1,1,2,3,0,0,-1,4.93
987,-1,2,2,2,-6,1,-3,0,4.9350000000000005
988,1,0,-3,-1,3,0,3,-1,4.94
989,0,0,-1,1,-3,-1,-3,-1,4.945
990,-1,0,0,-1,-4,-5,0,0,4.95
991,0,-1,-2,0,2,6,2,1,4.955
992,-2,-2,-2,-2,-5,-2,0,0,4.96
993,0,0,-1,1,4,2,-1,1,4.965
994,1,-1,-3,-2,1,-5,-1,-2,4.97
995,0,-2,0,-2,-2,0,-2,-1,4.9750000000000005
996,-1,-2,-1,1,4,1,-3,-1,4.98
997,-2,0,3,1,-4,-4,-1,0,4.985
998,-4,-2,0,1,-3,-1,3,-2,4.99
999,-1,0,1,1,-2,-3,-3,-2,4.995
1000,1,1,-2,-1,8,2,-4,2,5.0
1001,-2,-2,0,-2,-9,1,0,-1,5.005
1002,0,1,-2,-3,-6,-2,4,1,5.01
1003,-2,-1,-1,-1,1,2,-3,-1,5.015
1004,-1,-3,1,0,2,-3,-1,-1,5.0200000000000005
1005,-3,-1,-2,0,5,1,1,0,5.025
1006,-1,-2,1,1,-1,-1,-2,-1,5.03
1007,-2,-2,-1,-1,-4,-1,-4,-1,5.035
1008,-2,0,-1,-4,-4,-6,-2,-1,5.04
1009,1,0,-2,1,2,-3,-4,0,5.045
1010,2,2,1,2,2,2,5,0,5.05
1011,-5,-5,-2,-2,-8,-8,0,-1,5.055
1012,-1,-1,-2,-1,0,3,2,-1,5.0600000000000005
1013,-1,-1,0,-1,-2,-4,-3,-2,5.065
1014,-1,0,-1,-2,1,4,0,3,5.07
1015,1,1,0,-1,2,-1,0,0,5.075
1016,0,-2,0,2,-2,0,3,-2,5.08
1017,-2,-3,-1,-1,-2,-2,-1,-1,5.085
1018,-1,-1,-1,0,5,0,-2,-1,5.09
1019,0,-1,-2,1,-1,0,-3,-2,5.095
1020,-1,-1,-3,-1,-12,-8,-3,-1,5.1000000000000005
1021,-1,1,-2,-2,3,4,9,-1,5.105
1022,0,0,0,0,3,-2,-3,-1,5.11
1023,0,0,-2,-2,8,2,-1,-2,5.115
1024,0,-2,0,-1,-3,1,3,1,5.12
1025,0,-2,-3,0,-7,-1,-3,-1,5.125
1026,-2,-2,-1,-3,1,-2,-1,-2,5.13
1027,0,-1,0,1,-3,1,-1,0,5.135
1028,0,2,3,0,4,2,-1,-3,5.14
1029,0,-2,-1,-3,-1,2,4,0,5.1450000000000005
1030,0,0,1,-1,-2,0,2,1,5.15
1031,-3,-1,-2,0,0,-4,-5,-1,5.155
1032,-4,-2,-3,-1,3,0,-5,0,5.16
1033,1,0,-3,-4,-12,0,1,0,5.165
1034,0,-2,-1,0,-3,-2,3,-1,5.17
1035,-1,-1,1,1,0,-4,1,1,5.175
1036,-1,0,0,0,1,1,-1,-2,5.18
1037,0,-1,0,0,4,-6,-3,-2,5.1850000000000005
1038,-1,-2,-1,-1,-2,4,-3,-1,5.19
1039,0,0,-2,-2,-1,-1,2,2,5.195
1040,0,-1,-3,-2,0,0,0,-2,5.2
1041,-2,2,3,0,3,-4,-7,-1,5.205
1042,-1,-1,0,1,1,-1,-1,-1,5.21
1043,-3,0,-2,-2,1,-1,1,1,5.215
1044,-1,-2,-4,-2,-2,2,-1,-2,5.22
1045,3,1,-1,0,0,-2,-1,0,5.2250000000000005
1046,-2,-1,0,-1,0,2,-3,-1,5.23
1047,0,-1,0,-2,-2,0,1,-2,5.235
1048,0,-1,-1,0,-2,-2,-1,0,5.24
1049,-1,-1,1,-2,-4,-2,-2,-1,5.245
1050,-1,-1,-1,-1,0,0,-1,0,5.25
1051,1,0,-1,0,-3,-2,1,-1,5.255
1052,1,-3,-1,-1,9,-1,0,-1,5.26
1053,-2,-2,0,2,-4,0,-3,-3,5.265
1054,0,-3,1,-1,-8,-2,1,1,5.2700000000000005
1055,0,-1,-1,-2,-1,-2,-2,-2,5.275
1056,-1,0,-1,0,0,-1,-1,1,5.28
1057,-2,0,-2,-1,7,3,0,1,5.285
1058,-1,-2,-4,-1,-1,-1,-2,-1,5.29
1059,0,0,-1,-2,-4,-2,-1,0,5.295
1060,-2,-1,2,3,1,1,0,-1,5.3
1061,-1,-3,-1,1,8,4,1,0,5.305
1062,0,1,-1,1,-5,-6,-6,0,5.3100000000000005
1063,-1,-2,0,0,-2,-3,-2,0,5.315
1064,-1,1,-4,-2,-2,-1,1,0,5.32
1065,0,0,-1,-1,-2,-2,0,-2,5.325
1066,-1,-2,-1,-1,3,1,-1,-2,5.33
1067,0,-1,-1,1,-3,-3,-3,-2,5.335
1068,1,-1,0,-1,-4,1,1,1,5.34
1069,-2,-3,0,1,-1,-2,-1,0,5.345
1070,-1,0,-2,-1,0,-2,-1,-2,5.3500000000000005
1071,0,-1,-2,-2,0,0,1,-2,5.355
1072,2,1,0,0,-3,0,0,-1,5.36
1073,-3,-3,-1,-2,1,-1,0,1,5.365
1074,-1,-3,0,1,0,-2,-3,-1,5.37
1075,-2,-1,-3,-1,-3,0,-1,-2,5.375
1076,-2,-1,-3,-5,-1,-1,1,-2,5.38
1077,-2,-1,-3,-1,-1,-5,-11,-1,5.385
1078,1,-1,1,1,3,2,1,-2,5.39
1079,-1,-1,-1,-1,-3,2,1,-1,5.3950000000000005
1080,-2,-2,-2,1,0,1,3,0,5.4
1081,2,-1,1,0,-2,1,4,-1,5.405
1082,0,0,-1,-3,1,-1,-3,-2,5.41
1083,-1,-4,-3,-4,1,-2,-1,0,5.415
1084,-1,-1,0,-2,-1,-3,-2,-2,5.42
1085,-1,-4,-2,-3,-3,0,-1,-2,5.425
1086,1,1,0,-2,-1,0,-3,1,5.43
1087,1,1,-2,-2,-8,-1,0,0,5.4350000000000005
1088,-3,0,-2,0,0,-2,0,0,5.44
1089,-2,1,1,0,0,-1,-1,0,5.445
1090,-3,-1,-1,-1,-1,-1,0,0,5.45
1091,-2,-1,0,2,3,2,-1,-1,5.455
1092,1,-3,-2,-2,-5,-4,-2,0,5.46
1093,0,-2,-3,-3,4,3,3,-2,5.465
1094,-2,-1,-1,0,-5,-3,-1,-1,5.47
1095,1,1,1,1,0,3,2,-1,5.4750000000000005
1096,0,-1,1,0,-3,2,0,-1,5.48
1097,0,3,-3,-1,0,-2,0,-3,5.485
1098,-1,0,-2,1,5,0,-1,-1,5.49
1099,-2,-3,-1,-1,-9,2,-2,1,5.495
1100,2,0,0,1,0,-5,-4,0,5.5
1101,-3,-1,-3,-4,-4,5,3,1,5.505
1102,-1,0,0,0,-2,-4,0,-1,5.51
1103,0,0,0,1,3,-4,-1,-2,5.515
1104,-1,0,0,-1,-1,2,-1,-2,5.5200000000000005
1105,-1,-3,0,0,4,-2,0,0,5.525
1106,0,-1,-1,-2,-9,1,2,-1,5.53
1107,0,-3,-2,-2,3,2,-2,0,5.535
1108,-2,-4,-3,-2,-4,-3,-4,-1,5.54
1109,0,0,0,1,-1,-4,-2,-2,5.545
1110,-1,0,-1,0,2,6,1,-1,5.55
1111,-1,-1,-1,-1,-1,-4,-2,0,5.555
1112,0,1,-1,0,3,0,0,-1,5.5600000000000005
1113,-4,-2,0,1,-2,-2,-3,0,5.565
1114,1,-1,-1,-2,-3,-4,2,-1,5.57
1115,-1,0,-4,-2,-3,0,-6,-2,5.575
1116,-1,-1,-1,1,0,-1,-2,0,5.58
1117,2,2,2,0,-3,3,6,1,5.585
1118,0,-1,0,1,3,2,-11,-1,5.59
1119,-2,-2,-1,0,0,-1,3,-1,5.595
1120,-1,-2,-4,-3,-10,-8,0,-1,5.6000000000000005
1121,1,-1,-3,-3,0,-1,-4,-1,5.605
1122,-1,0,0,0,-4,-2,3,-2,5.61
1123,0,2,1,0,7,0,1,-1,5.615
1124,2,1,2,1,2,7,2,-1,5.62
1125,0,-2,-3,-2,1,-3,-3,-1,5.625
1126,-2,-1,0,0,-7,-2,2,1,5.63
1127,-3,-2,-2,0,6,1,-4,-1,5.635
1128,-2,-1,1,0,-4,-1,1,-2,5.64
1129,0,0,-1,-3,-8,-2,-3,0,5.6450000000000005
1130,2,0,-3,1,13,1,-2,1,5.65
1131,0,1,-1,2,-7,-3,2,-1,5.655
1132,-2,-1,-1,-3,-2,-2,-1,-2,5.66
1133,-4,-4,2,0,3,0,-1,1,5.665
1134,1,0,-1,-5,-7,-5,-8,-2,5.67
1135,0,-1,2,-1,1,-1,1,0,5.675
1136,-3,-3,-1,-1,4,0,1,-2,5.68
1137,0,0,0,0,-3,3,2,-1,5.6850000000000005
1138,0,1,-1,-1,-2,0,2,0,5.69
1139,-3,-4,-1,-2,-1,1,-1,-1,5.695
1140,0,1,-1,-1,0,2,0,0,5.7
1141,-1,0,-2,-1,2,-5,-7,-1,5.705
1142,-1,-3,-2,-4,-7,-5,3,-1,5.71
1143,2,2,1,-2,-2,-8,-4,-2,5.715
1144,-1,-1,-1,0,1,6,2,-2,5.72
1145,0,-1,-2,1,1,0,6,0,5.7250000000000005
1146,0,-3,-1,3,5,5,-2,0,5.73
1147,0,-1,-2,0,-1,0,-4,0,5.735
1148,0,1,-1,-1,-2,-9,-3,0,5.74
1149,-1,-1,-3,-2,-3,-2,0,-3,5.745
1150,-1,0,1,0,1,-1,0,-1,5.75
1151,-3,-2,-2,2,0,0,0,-1,5.755
1152,0,-1,0,1,6,0,-2,-1,5.76
1153,0,2,-2,-4,-11,1,1,-2,5.765
1154,0,1,-1,-1,-3,-6,-7,-2,5.7700000000000005
1155,-3,-2,2,-1,0,5,2,-2,5.775
1156,-1,0,0,0,1,0,-1,-1,5.78
1157,-1,-2,0,-3,1,-3,-3,1,5.785
1158,-3,-1,-3,0,-1,0,3,-1,5.79
1159,1,1,-1,-2,-7,-2,0,0,5.795
1160,0,0,0,0,1,2,-1,1,5.8
1161,2,-1,-1,-2,-2,-2,-4,0,5.805
1162,-2,-1,-3,-3,-1,-1,-8,-1,5.8100000000000005
1163,0,-3,-2,-1,0,-5,2,-1,5.815
1164,0,-1,-2,-3,-6,2,-1,-2,5.82
1165,-1,-1,-2,1,3,0,-3,-1,5.825
1166,0,-2,-1,0,0,2,-1,-1,5.83
1167,-1,2,1,-1,-4,0,1,2,5.835
1168,1,1,-2,0,-1,-5,-1,-1,5.84
1169,-4,-1,0,0,3,-3,-1,-2,5.845
1170,-1,-2,-1,-1,9,8,3,1,5.8500000000000005
1171,-1,-1,-2,-4,-9,-4,-3,-2,5.855
1172,1,-2,-2,-1,-3,-4,-3,-1,5.86
1173,-2,-3,1,4,7,5,3,-2,5.865
1174,0,-2,2,0,-4,-2,3,0,5.87
1175,0,0,-1,0,-1,-2,-6,-2,5.875
1176,0,0,0,-2,-1,2,-1,0,5.88
1177,0,-1,-2,-2,-4,-2,-1,2,5.885
1178,0,-1,-1,-1,0,0,3,0,5.89
1179,-1,-1,0,0,3,0,1,-1,5.8950000000000005
1180,-2,1,2,-2,-4,-5,-5,-3,5.9
1181,0,0,-1,1,1,0,-3,0,5.905
1182,1,1,-1,-2,-3,1,2,0,5.91
1183,-2,-1,-2,0,0,-4,-2,-2,5.915
1184,-3,-1,-4,0,3,3,-3,-2,5.92
1185,1,-1,2,3,0,1,1,0,5.925
1186,-3,0,-1,-1,-5,-3,1,0,5.93
1187,-1,-1,-1,-3,1,1,1,-1,5.9350000000000005
1188,0,-1,0,-1,-1,1,3,-1,5.94
1189,-1,0,0,-2,-5,-5,-8,-1,5.945
1190,-1,-1,-1,0,-1,-2,1,0,5.95
1191,0,-1,2,-1,1,0,1,0,5.955
1192,-2,-3,-1,-3,-1,1,-3,-4,5.96
1193,-2,-1,-2,-2,-1,2,-1,-3,5.965
1194,1,-1,0,1,1,-2,-2,-4,5.97
1195,-1,0,-2,-3,2,-2,-1,-1,5.9750000000000005
1196,2,-1,-1,-2,0,-2,2,3,5.98
1197,-1,1,1,0,-1,-1,3,-1,5.985
1198,-4,-1,-3,-1,-2,-4,-5,-1,5.99
1199,0,0,-2,1,-1,-1,1,-1,5.995
1200,1,-1,-1,-2,-2,0,0,1,6.0
1201,3,2,0,-2,-1,-1,0,-1,6.005
1202,-2,-2,0,-3,-3,-2,-1,0,6.01
1203,0,3,0,-1,-4,0,-1,1,6.015000000000001
1204,0,-3,-2,-1,-4,-2,-3,-3,6.0200000000000005
1205,1,0,-2,2,7,4,4,0,6.025
1206,0,-1,-1,1,-4,-2,1,-1,6.03
1207,-3,0,3,2,-1,0,-7,-2,6.035
1208,-2,0,-2,-1,1,1,-3,1,6.04
1209,-2,-3,-3,-4,-3,-4,-1,0,6.045
1210,-1,0,1,1,3,1,1,0,6.05
1211,-1,-1,0,0,-1,-1,-2,-1,6.055
1212,-2,-1,-2,-1,-2,-2,-2,-1,6.0600000000000005
1213,1,1,1,-1,-3,-1,1,0,6.065
1214,-5,-4,-4,-3,0,-1,0,-5,6.07
1215,0,1,-2,-1,2,3,1,2,6.075
1216,0,2,0,1,1,-3,2,0,6.08
1217,-2,-2,-3,-5,-5,-2,-2,-3,6.085
1218,2,2,2,0,-4,-6,-4,1,6.09
1219,-1,0,0,0,1,0,1,-2,6.095
1220,-4,-2,-5,-2,-1,-2,-4,0,6.1000000000000005
1221,1,1,1,3,0,-3,2,1,6.105
1222,-1,0,1,-1,0,3,0,-2,6.11
1223,-1,-3,-6,-4,-2,-2,-3,-6,6.115
1224,-1,-1,-2,1,-3,-2,2,-1,6.12
1225,-2,2,8,0,2,7,0,-2,6.125
1226,1,-2,0,-1,1,-2,-12,1,6.13
1227,-2,-3,-2,-1,0,0,2,0,6.135
1228,0,-1,-2,-1,0,-4,-3,-3,6.140000000000001
1229,1,-3,-5,-3,-2,-5,1,0,6.1450000000000005
1230,1,0,-3,-3,-2,6,7,-1,6.15
1231,1,0,1,2,1,-2,0,-2,6.155
1232,-1,-2,-1,0,3,5,0,1,6.16
1233,-2,-1,2,2,2,-1,-3,-2,6.165
1234,0,-1,-2,-3,-5,1,2,0,6.17
1235,-3,-6,-4,-3,-8,-4,-2,-2,6.175
1236,-1,-2,3,3,3,-1,2,-2,6.18
1237,-1,1,0,1,-3,-1,2,0,6.1850000000000005
1238,2,1,-2,-1,0,-2,-2,-2,6.19
1239,-1,-1,-1,-1,-3,-4,-1,1,6.195
1240,0,0,0,-2,0,0,-3,0,6.2
1241,-2,-1,-1,1,0,2,0,-1,6.205
1242,-2,-2,-2,1,3,0,-3,-1,6.21
1243,0,0,1,-1,1,-2,0,0,6.215
1244,0,-1,-3,-2,-3,-5,-3,1,6.22
1245,1,-1,-2,-3,-4,1,0,-1,6.2250000000000005
1246,0,0,-1,-1,-3,-3,-3,-1,6.23
1247,1,0,0,0,3,1,-2,0,6.235
1248,1,-1,1,0,1,-1,-2,0,6.24
1249,-3,-2,-3,-1,-1,-4,-1,0,6.245
1250,-1,-1,-1,-1,-1,5,7,0,6.25
1251,-3,-4,0,-1,0,4,-1,0,6.255
1252,1,-1,1,-1,-2,-2,4,0,6.26
1253,-2,-1,-2,-2,-4,-3,-5,-2,6.265000000000001
1254,-1,0,3,1,2,-7,-3,0,6.2700000000000005
1255,0,1,0,2,1,3,0,-1,6.275
1256,-1,-1,-3,-1,0,-2,-3,-2,6.28
1257,-1,-2,-2,-3,-5,-1,1,1,6.285
1258,-2,-1,-2,-1,0,-6,-2,-3,6.29
1259,1,2,1,-2,-2,5,3,1,6.295
1260,-2,-2,-2,2,0,-1,-2,-2,6.3
1261,-1,-1,-3,-3,-1,0,-1,0,6.305
1262,-1,1,-1,-2,-4,-2,2,1,6.3100000000000005
1263,0,-1,-2,-3,-2,-5,-5,1,6.315
1264,-2,1,0,-1,-1,-3,-1,-1,6.32
1265,1,-1,1,1,2,-1,-2,-2,6.325
1266,-2,-2,0,-1,-1,2,0,1,6.33
1267,0,0,-1,-2,-2,-1,2,-1,6.335
1268,1,-1,-1,-2,-4,0,-1,0,6.34
1269,1,-1,1,1,2,0,3,0,6.345
1270,0,1,-1,0,0,-4,-9,-3,6.3500000000000005
1271,-1,2,0,-1,-4,0,0,-1,6.355
1272,-2,-1,1,-1,-1,2,7,1,6.36
1273,-1,0,-3,-3,-2,-4,-3,0,6.365
1274,-1,-5,0,-1,-4,3,0,0,6.37
1275,0,-1,-4,-2,2,-5,-4,-2,6.375
1276,1,0,0,1,1,2,0,0,6.38
1277,-3,-3,-3,-1,4,2,1,-1,6.385
1278,0,2,2,1,0,0,1,1,6.390000000000001
1279,-1,-1,-1,-1,-4,-3,-1,0,6.3950000000000005
1280,-4,-2,-1,-2,-3,1,-2,-3,6.4
1281,-1,-1,-3,-1,-3,-3,-6,-3,6.405
1282,-3,-2,-3,0,-1,-1,2,0,6.41
1283,0,2,-1,2,2,2,-2,-1,6.415
1284,1,-1,-1,-1,-1,-2,-2,1,6.42
1285,0,-1,0,1,1,-1,-1,-2,6.425
1286,0,1,-1,-1,1,6,4,1,6.43
1287,-2,-3,1,0,-1,2,4,0,6.4350000000000005
1288,0,-2,-1,0,2,-3,-4,-1,6.44
1289,-1,-1,-2,1,-4,-7,-3,0,6.445
1290,-1,-1,2,-1,-1,-3,-1,-3,6.45
1291,-1,-2,-2,-2,-2,-2,0,1,6.455
1292,0,-2,2,-2,4,2,6,-2,6.46
1293,-2,0,0,1,-5,0,-10,-6,6.465
1294,-1,-1,-5,-1,-2,-7,-3,-1,6.47
1295,-2,-1,-1,1,1,2,-3,-2,6.4750000000000005
1296,-2,0,-1,-3,-3,-5,0,1,6.48
1297,1,0,-2,-3,2,4,4,3,6.485
1298,1,-1,0,-1,-1,0,4,2,6.49
1299,-2,-1,2,-1,1,-3,-3,-2,6.495
1300,0,-1,0,1,2,-1,-6,-2,6.5
1301,-1,-1,3,-1,-1,-1,4,1,6.505
1302,-2,-3,-3,0,-3,0,-4,-1,6.51
1303,-3,-2,-1,0,2,2,2,-1,6.515000000000001
1304,0,-1,-1,0,-2,0,-1,0,6.5200000000000005
1305,1,0,-1,-2,-5,-3,-3,-1,6.525
1306,-2,-1,-1,0,2,-4,0,0,6.53
1307,0,-1,1,-1,0,-2,4,5,6.535
1308,0,0,-1,0,-3,1,-2,-4,6.54
1309,-3,-5,-3,-1,0,0,0,-4,6.545
1310,-1,-2,0,-2,-4,-2,-3,-2,6.55
1311,0,0,-1,-2,-4,-1,-2,-1,6.555
1312,-1,0,1,1,2,-1,-2,3,6.5600000000000005
1313,0,-1,1,1,-4,-3,1,0,6.565
1314,1,0,-2,2,2,2,0,-1,6.57
1315,-1,-1,-3,0,0,1,1,-1,6.575
1316,-2,0,4,-1,-2,-5,1,1,6.58
1317,0,0,-2,-5,0,-1,-6,-2,6.585
1318,1,2,3,0,1,1,3,0,6.59
1319,2,-2,-2,0,-3,-4,-5,-2,6.595
1320,-1,-1,-3,0,-3,-4,-3,0,6.6000000000000005
1321,-1,-3,-3,-2,-2,-1,2,1,6.605
1322,1,0,2,-1,-2,0,-3,-4,6.61
1323,-3,-4,-5,0,2,4,7,4,6.615
1324,-2,-1,-2,0,1,4,-3,-8,6.62
1325,0,1,-2,0,1,-4,-3,-4,6.625
1326,1,-1,1,-2,-1,-1,-1,1,6.63
1327,1,0,1,0,1,0,-2,-2,6.635
1328,0,-1,-1,0,2,3,2,2,6.640000000000001
1329,-2,0,-2,0,-3,-2,1,2,6.6450000000000005
1330,0,1,-1,-2,-4,-1,-1,-1,6.65
1331,-2,-2,0,-2,-3,-3,-6,-2,6.655
1332,-1,0,-1,1,1,2,2,2,6.66
1333,1,-1,1,0,-1,-2,1,0,6.665
1334,-3,-6,-6,-4,0,-6,-4,-3,6.67
1335,0,1,1,-1,-5,1,1,-3,6.675
1336,0,-1,-1,-1,-2,-2,-7,0,6.68
1337,0,0,-1,2,6,6,2,2,6.6850000000000005
1338,-3,-1,-1,-3,-2,-2,7,-2,6.69
1339,0,-2,-3,-1,0,-2,-11,-4,6.695
1340,-1,0,3,-4,-3,-2,0,-3,6.7
1341,0,1,1,1,0,-1,-3,3,6.705
1342,-1,-3,-2,3,1,0,1,1,6.71
1343,-2,-2,-2,0,0,1,6,-1,6.715
1344,-1,-1,-3,-3,-3,-1,-1,-1,6.72
1345,-3,-5,0,-2,-2,1,2,-2,6.7250000000000005
1346,1,0,1,0,5,-2,-3,0,6.73
1347,1,2,3,0,2,3,1,-1,6.735
1348,2,0,-1,1,-2,-2,2,1,6.74
1349,0,-1,-1,-1,-2,-3,-2,-2,6.745
1350,-3,-3,-5,-1,-4,-2,-2,-2,6.75
1351,0,0,2,0,1,-4,-1,0,6.755
1352,-1,-2,-3,-2,-8,0,5,0,6.76
1353,0,0,0,0,3,-2,-2,-2,6.765000000000001
1354,0,0,-1,-2,-2,-2,-5,0,6.7700000000000005
1355,-1,-1,-1,1,1,2,0,-2,6.775
1356,-3,-5,-3,-1,0,0,-5,-2,6.78
1357,-2,-1,-1,-3,-2,-1,3,-1,6.785
1358,1,0,1,1,0,4,2,1,6.79
1359,-2,0,0,0,-2,-7,-3,0,6.795
1360,0,0,-5,-2,-3,-4,-4,-2,6.8
1361,0,0,1,2,1,1,-1,-1,6.805
1362,-2,-1,-2,-1,0,0,4,-1,6.8100000000000005
1363,0,-1,-1,-3,1,3,4,1,6.815
1364,1,-2,-2,-1,-1,-3,-3,-1,6.82
1365,0,-2,-1,-1,-1,-1,-2,0,6.825
1366,0,0,-1,0,0,1,0,0,6.83
1367,0,-1,0,0,-4,0,-2,-1,6.835
1368,-2,0,4,-1,1,-3,-1,-1,6.84
1369,0,-2,-2,0,-1,-1,-3,0,6.845
1370,-2,-1,-2,-1,-4,-2,-1,-2,6.8500000000000005
1371,-3,-2,-3,-2,-1,0,0,-2,6.855
1372,-3,-1,-3,-1,-1,-5,-2,0,6.86
1373,0,1,1,-1,1,-3,-8,-1,6.865
1374,0,1,2,0,0,0,-3,-1,6.87
1375,0,-2,-3,0,-2,-4,-3,0,6.875
1376,0,-3,-2,2,2,6,6,-2,6.88
1377,-1,1,-1,-1,-6,-3,-1,1,6.885
1378,-1,-2,-4,-5,1,2,12,7,6.890000000000001
1379,1,5,6,1,-3,-4,-5,-6,6.8950000000000005
1380,-2,-2,-1,-2,0,5,2,-3,6.9
1381,-1,-2,-3,1,-1,-3,-10,-3,6.905
1382,-2,-3,-2,-3,-2,-3,-5,-4,6.91
1383,-1,-2,-2,-1,-3,2,2,1,6.915
1384,0,0,0,0,1,-1,-1,1,6.92
1385,0,1,0,-2,1,0,3,-2,6.925
1386,0,-1,-1,0,-2,-2,-3,-3,6.93
1387,-1,-1,-1,-1,0,-5,0,-1,6.9350000000000005
1388,-3,-3,0,0,2,4,-3,-2,6.94
1389,0,-1,-3,-2,-2,1,3,1,6.945
1390,-2,-2,0,0,-2,3,-2,-2,6.95
1391,-1,-4,-2,-2,-2,-4,-5,1,6.955
1392,0,1,0,1,-1,-1,1,-2,6.96
1393,-2,-2,-2,-2,-2,0,3,0,6.965
1394,-1,0,-1,-1,1,-2,-4,-2,6.97
1395,-1,-1,-2,-1,-1,-2,-2,-1,6.9750000000000005
1396,1,0,-1,1,-3,-1,-1,1,6.98
1397,-1,-1,-2,-2,5,4,1,0,6.985
1398,0,-2,-3,-3,-5,0,-5,-3,6.99
1399,-3,-3,-2,-1,-3,0,6,-1,6.995
1400,0,1,1,0,1,-4,0,0,7.0
1401,-1,-1,-2,-1,0,-2,0,0,7.005
1402,0,-1,3,1,4,1,1,1,7.01
1403,0,2,-1,-2,0,-1,-10,-2,7.015000000000001
1404,-1,-2,-4,-2,-4,-4,0,0,7.0200000000000005
1405,0,0,1,-2,-7,-3,-2,-2,7.025
1406,-1,-2,0,-3,-3,-1,-2,0,7.03
1407,-3,-2,-4,-1,1,-1,4,-1,7.035
1408,0,3,1,1,4,1,-5,-1,7.04
1409,1,-1,1,0,0,-1,-1,0,7.045
1410,-1,0,-1,-2,-4,-4,-2,-1,7.05
1411,-4,-2,0,-3,-2,1,3,-1,7.055
1412,-2,0,-1,-2,-5,-5,-2,-1,7.0600000000000005
1413,-1,-2,-2,-1,0,0,0,0,7.065
1414,-1,-2,-1,2,2,2,0,-2,7.07
1415,2,1,-3,0,4,2,-3,1,7.075
1416,-1,-1,-2,-1,-1,-3,1,1,7.08
1417,-1,0,0,-3,-2,0,-4,-3,7.085
1418,-2,0,-2,0,-2,-5,0,-2,7.09
1419,-1,-2,-2,-1,-2,-2,-5,0,7.095
1420,1,0,-3,-1,-1,2,2,0,7.1000000000000005
1421,-1,-2,-1,0,4,4,6,0,7.105
1422,-2,2,1,1,0,1,-3,-3,7.11
1423,0,0,1,0,-4,0,6,-1,7.115
1424,-2,-1,-1,-1,0,-4,-12,-4,7.12
1425,0,0,-2,0,-1,-4,-1,-1,7.125
1426,1,-1,-3,-1,0,-4,-3,2,7.13
1427,1,0,0,2,3,4,2,0,7.135
1428,2,2,1,-2,-5,2,3,-1,7.140000000000001
1429,-3,-3,-2,-3,-2,-1,-1,0,7.1450000000000005
1430,0,0,-2,-1,-3,-5,-2,0,7.15
1431,0,-1,-1,-1,-3,-2,2,0,7.155
1432,-1,-1,-3,1,1,1,2,1,7.16
1433,2,2,-2,1,2,2,-1,-1,7.165
1434,0,1,0,1,1,5,10,3,7.17
1435,2,-2,0,-2,-4,-9,-15,-3,7.175
1436,-3,-1,-3,-2,-2,3,5,-4,7.18
1437,-1,-1,1,1,-4,-8,-5,-2,7.1850000000000005
1438,-4,-1,2,2,3,2,-4,0,7.19
1439,-2,-1,-2,0,-1,3,3,1,7.195
1440,0,-3,1,-1,-2,-2,0,-1,7.2
1441,-3,-7,-4,-3,-3,-1,4,-2,7.205
1442,2,0,-11,-2,0,0,-4,-2,7.21
1443,-4,-14,-29,-13,-6,-4,4,6,7.215
1444,-8,-15,-32,-9,-4,-6,-20,-29,7.22
1445,10,24,61,18,5,5,-3,23,7.2250000000000005
1446,-1,-21,-35,-7,-1,1,43,19,7.23
1447,5,13,36,7,-1,-1,-18,-9,7.235
1448,-8,0,-4,2,3,3,-10,-25,7.24
1449,-6,-6,-17,-4,0,-5,-27,-23,7.245
1450,2,28,53,12,-2,-2,9,8,7.25
1451,-1,0,3,0,0,1,15,6,7.255
1452,-2,-8,-15,-8,-4,0,8,4,7.26
1453,-5,-13,-35,-9,1,3,3,-11,7.265000000000001
1454,-3,-11,-18,-5,-2,-3,-22,6,7.2700000000000005
1455,2,0,-10,-5,-2,1,11,9,7.275
1456,4,11,18,3,-1,-2,-4,9,7.28
1457,-2,0,-6,-3,-1,1,7,-2,7.285
1458,1,-2,1,-4,-3,-1,-5,-1,7.29
1459,-7,-22,-42,-7,5,3,3,-8,7.295
1460,-2,-34,-82,-26,-1,0,-6,-1,7.3
1461,2,8,39,11,0,2,19,30,7.305
1462,-3,16,33,21,2,-2,-25,-34,7.3100000000000005
1463,-5,11,52,1,2,-2,-4,-5,7.315
1464,6,80,108,79,6,5,29,5,7.32
1465,-2,-29,-122,-28,-3,-6,-1,-22,7.325
1466,-6,-25,-85,-28,-3,6,-12,4,7.33
1467,10,-44,-110,-60,4,4,-4,23,7.335
1468,-13,45,84,49,-11,-23,-12,-40,7.34
1469,7,41,120,42,0,-5,-29,1,7.345
1470,2,-2,-16,8,8,18,49,4,7.3500000000000005
1471,9,9,13,17,3,12,11,17,7.355
1472,5,-53,-116,-65,-1,1,10,17,7.36
1473,1,0,6,-12,-6,-3,14,5,7.365
1474,1,22,40,23,-5,-18,-27,1,7.37
1475,-24,-21,-41,-21,-6,0,-5,-81,7.375
1476,-10,-35,-62,-31,2,6,1,18,7.38
1477,2,-2,-27,-1,-5,-5,-2,1,7.385
1478,17,20,13,23,8,3,-8,13,7.390000000000001
1479,10,3,-41,1,2,-6,-12,14,7.3950000000000005
1480,-9,25,78,33,-1,-10,-17,-24,7.4
1481,-7,-17,-32,-28,1,9,0,12,7.405
1482,4,6,28,2,-6,-5,6,3,7.41
1483,-8,18,19,23,-4,-1,19,14,7.415
1484,6,-47,-95,-48,0,3,-2,7,7.42
1485,4,-30,-103,-36,-5,0,-13,25,7.425
1486,4,39,81,25,2,1,29,-7,7.43
1487,-5,14,86,27,1,-21,-73,-14,7.4350000000000005
1488,17,-20,-81,-44,1,16,36,53,7.44
1489,-10,29,100,34,-5,-8,6,-51,7.445
1490,4,-29,-120,-29,-3,0,-16,-29,7.45
1491,-8,12,52,21,-7,-7,-1,-11,7.455
1492,-4,5,32,17,4,-1,-30,-11,7.46
1493,8,-13,-29,-8,-1,7,30,27,7.465
1494,2,-13,-20,-26,-3,-7,-16,18,7.47
1495,13,13,37,17,-1,2,33,33,7.4750000000000005
1496,-3,-11,-69,-36,-2,0,-22,-29,7.48
1497,-11,11,83,62,7,2,17,4,7.485
1498,-7,-8,-8,-15,-4,-3,-11,15,7.49
1499,2,-3,-47,-10,-2,-1,-15,-2,7.495
1500,3,-19,-54,-29,-3,5,22,-12,7.5
1501,-14,29,41,45,-8,-9,-13,-7,7.505
1502,-13,7,-8,2,3,-7,-30,-53,7.51
1503,6,2,11,-2,2,6,22,3,7.515000000000001
1504,6,5,9,6,1,0,12,31,7.5200000000000005
1505,0,-15,-51,-24,2,9,4,-12,7.525
1506,-7,6,40,7,-6,-3,5,3,7.53
1507,-3,-12,-35,-6,2,1,-7,-6,7.535
1508,-8,2,37,8,-6,-10,-5,-12,7.54
1509,2,5,-36,-23,1,-1,-5,4,7.545
1510,-4,-7,53,21,0,2,6,2,7.55
1511,2,-9,-34,-20,2,3,-2,6,7.555
1512,-1,22,69,34,-3,-4,8,3,7.5600000000000005
1513,10,-17,-69,-39,-2,-7,-16,-4,7.565
1514,-2,-18,-6,2,1,2,0,-9,7.57
1515,-9,5,10,12,-5,-7,-14,4,7.575
1516,5,10,29,11,4,11,16,26,7.58
1517,-7,-14,-44,-13,0,-1,-1,-15,7.585
1518,0,10,22,-5,-4,-3,1,-7,7.59
1519,5,-15,-38,-22,-3,1,15,7,7.595
1520,-1,15,2,14,1,-1,-4,23,7.6000000000000005
1521,-5,13,69,26,7,3,-7,-31,7.605
1522,11,-19,-63,-22,-5,-5,7,21,7.61
1523,-8,9,32,28,0,4,-21,-23,7.615
1524,-5,-13,-41,-22,-2,-4,17,-18,7.62
1525,-10,-11,-44,-22,-1,1,5,13,7.625
1526,0,-1,36,0,-5,3,11,17,7.63
1527,15,16,-28,2,1,-1,0,6,7.635
1528,3,-2,17,1,0,-1,-14,-8,7.640000000000001
1529,4,-1,-49,-4,-7,-11,-11,19,7.6450000000000005
1530,-16,-12,12,-6,0,3,9,-4,7.65
1531,-6,-22,-73,-28,-4,10,7,-4,7.655
1532,0,21,98,40,3,-8,-12,-12,7.66
1533,1,-37,-85,-45,0,2,-1,-4,7.665
1534,-5,23,58,34,-1,-6,-12,0,7.67
1535,-1,0,2,-6,-6,-3,9,12,7.675
1536,2,-2,-9,8,4,2,-5,-12,7.68
1537,1,-2,28,21,1,0,2,24,7.6850000000000005
1538,-9,-18,-97,-44,-5,3,13,-31,7.69
1539,4,18,100,15,5,-1,-7,-1,7.695
1540,11,-6,-25,-14,-6,-1,-26,13,7.7
1541,3,2,47,24,0,-3,27,-8,7.705
1542,-1,-4,-48,-17,2,0,-5,-2,7.71
1543,-6,-3,-26,-2,1,1,12,-13,7.715
1544,-5,24,88,32,-3,-5,-16,4,7.72
1545,5,6,7,1,0,1,-1,3,7.7250000000000005
1546,-6,-14,-40,-3,-5,-1,-20,3,7.73
1547,-3,-15,-26,-5,4,3,18,-11,7.735
1548,2,-8,-87,-30,-3,-3,1,-7,7.74
1549,-11,13,114,46,2,-4,-16,5,7.745
1550,-1,2,1,2,8,-1,-7,-16,7.75
1551,3,-17,-29,-12,-2,0,22,21,7.755
1552,-3,-18,-33,-15,0,4,4,14,7.76
1553,5,26,-7,10,-2,2,11,31,7.765000000000001
1554,3,28,54,19,-2,-10,-27,-46,7.7700000000000005
1555,9,4,20,0,1,0,9,-13,7.775
1556,-7,-6,-9,13,3,1,5,8,7.78
1557,-4,-6,-30,-42,-8,0,-1,-7,7.785
1558,-3,-18,-11,7,0,0,0,12,7.79
1559,-8,-5,-30,-13,-5,-5,-14,-13,7.795
1560,-3,14,53,22,1,-4,-5,5,7.8
1561,-2,-3,-15,-9,2,2,4,-9,7.805000000000001
1562,5,-3,5,5,-1,-9,-11,20,7.8100000000000005
1563,-4,1,7,1,-6,3,19,-8,7.815
1564,0,-10,-21,-2,1,4,1,4,7.82
1565,-6,7,2,2,0,-5,-26,-18,7.825
1566,6,-6,-23,-19,-2,4,28,14,7.83
1567,3,-12,-9,12,5,-5,-28,4,7.835
1568,-3,20,62,-4,-5,-3,9,0,7.84
1569,3,-12,-13,4,-2,2,8,23,7.845
1570,-7,1,-7,-16,-15,-1,4,-13,7.8500000000000005
1571,0,3,1,-6,-13,-6,-17,-7,7.855
1572,-3,-7,-34,11,32,8,-9,-7,7.86
1573,-2,24,58,23,1,-1,14,8,7.865
1574,-4,-19,-56,-5,3,3,-2,2,7.87
1575,-6,3,34,13,-6,-7,-15,3,7.875
1576,-1,-11,-22,-32,-20,-3,10,-8,7.88
1577,-4,-13,-25,-13,7,-1,-28,-20,7.885
1578,1,9,5,1,-2,6,45,30,7.890000000000001
1579,-5,8,31,3,2,6,1,-4,7.8950000000000005
1580,0,5,8,-3,-6,-5,-4,-3,7.9
1581,2,-8,-13,-7,0,1,2,-9,7.905
1582,0,1,2,-5,-3,-3,-14,-15,7.91
1583,-7,2,2,15,4,-2,-13,2,7.915
1584,1,4,36,2,-3,-2,13,12,7.92
1585,-1,7,15,4,-4,0,-8,-22,7.925
1586,-5,-9,-13,-1,1,-3,-16,5,7.930000000000001
1587,-5,-5,-14,-8,0,-1,6,0,7.9350000000000005
1588,0,-13,-39,-5,-5,1,-2,-6,7.94
1589,3,0,9,-11,-6,-2,2,-1,7.945
1590,0,-6,-6,10,7,4,-4,1,7.95
1591,4,12,-2,13,9,-3,-10,1,7.955
1592,1,0,19,-2,-5,0,13,5,7.96
1593,-6,0,28,12,-1,-1,8,-25,7.965
1594,-1,-2,-14,-4,1,2,-8,9,7.97
1595,-2,5,-7,-6,-5,0,-1,6,7.9750000000000005
1596,-2,-4,-19,-1,3,-1,-6,-4,7.98
1597,1,-11,-27,-14,-1,0,4,3,7.985
1598,2,3,13,1,-1,-1,-2,-5,7.99
1599,0,2,3,2,0,-1,3,0,7.995
1600,-4,1,8,-1,-2,-3,-4,-5,8.0
1601,0,-7,-7,-4,1,1,-3,0,8.005
1602,0,0,-3,4,1,-1,0,4,8.01
1603,2,3,5,-4,-2,-1,5,3,8.015
1604,-5,-5,-3,3,-1,-1,-4,-5,8.02
1605,1,-3,-13,-3,0,-1,1,4,8.025
1606,4,0,7,0,0,-3,-5,2,8.03
1607,0,-2,0,-5,2,-1,3,1,8.035
1608,0,0,-4,2,-6,-3,-2,-5,8.040000000000001
1609,-2,-2,-10,-5,-2,0,-5,0,8.045
1610,0,4,16,5,1,-2,1,0,8.05
1611,1,-2,-8,-2,0,-1,0,-2,8.055
1612,-3,-2,-3,1,5,2,-2,-1,8.06
1613,0,-2,-9,-3,0,0,-6,1,8.065
1614,-1,-3,0,-2,-4,0,3,1,8.07
1615,-2,1,2,1,-2,-1,3,-1,8.075
1616,3,2,-5,-1,-4,-3,-5,-2,8.08
1617,0,-3,-8,-1,2,-1,-2,-1,8.085
1618,0,2,4,0,-1,-2,-5,-2,8.09
1619,1,3,8,2,-4,-1,1,1,8.095
1620,0,-2,-2,0,-3,-1,5,0,8.1
1621,0,-2,-4,-3,-1,2,-6,-3,8.105
1622,-4,2,5,0,1,2,6,0,8.11
1623,-1,0,0,-2,-3,-3,0,2,8.115
1624,5,-2,-3,-1,2,-6,-2,-1,8.120000000000001
1625,0,-4,-2,1,-5,-1,-2,1,8.125
1626,2,2,2,0,1,-2,-1,-1,8.13
1627,-4,0,0,-1,1,-1,1,-2,8.135
1628,-5,-4,-3,2,-1,0,-4,-2,8.14
1629,3,0,-4,-2,-3,-7,-1,-2,8.145
1630,0,-1,3,-2,-2,0,-5,-1,8.15
1631,-1,-3,-4,-4,0,4,11,0,8.155
1632,-3,0,8,3,0,-2,-2,-2,8.16
1633,-3,-4,-9,-4,-1,-3,0,-7,8.165000000000001
1634,-1,-1,-1,-1,-2,-4,0,3,8.17
1635,1,1,0,-1,-1,0,-5,5,8.175
1636,1,-1,-3,-2,1,3,-4,-1,8.18
1637,0,3,1,-3,-2,5,13,-1,8.185
1638,-4,-3,-2,0,0,1,-3,-2,8.19
1639,-1,-3,-4,1,1,-1,-6,-1,8.195
1640,-3,-1,1,1,-4,-5,13,0,8.2
1641,-2,-1,-3,-3,-1,-4,-31,-3,8.205
1642,1,1,-3,-3,0,-2,22,2,8.21
1643,0,-3,-6,-3,1,1,2,-3,8.215
1644,-3,3,12,2,-2,-1,-4,-5,8.22
1645,3,-2,3,3,-1,-3,-1,4,8.225
1646,-2,-1,4,-1,-3,-2,-6,-6,8.23
1647,-1,-3,-3,-2,-3,-1,0,-7,8.235
1648,-1,-1,-8,-5,-1,0,2,12,8.24
1649,-2,-1,-2,0,1,0,3,2,8.245000000000001
1650,2,0,1,0,-3,1,-4,1,8.25
1651,0,-2,0,0,1,0,0,-5,8.255
1652,0,-3,-3,2,-1,3,-5,-7,8.26
1653,1,5,6,1,-2,2,4,2,8.265
1654,1,-4,-5,-2,1,-5,-1,1,8.27
1655,-1,1,1,-1,0,1,-4,-4,8.275
1656,0,0,-3,-1,-2,-6,-3,-1,8.28
1657,-1,-4,-5,-5,-2,-2,4,1,8.285
1658,1,0,2,-1,-2,3,-2,-3,8.290000000000001
1659,-2,-3,0,-2,-3,-4,-2,2,8.295
1660,-1,-3,-4,-2,-1,-4,-1,0,8.3
1661,0,0,-1,3,2,2,0,-1,8.305
1662,-2,-1,-2,-1,0,1,-3,0,8.31
1663,2,1,3,0,-1,-4,-8,3,8.315
1664,3,2,2,1,-3,2,3,-3,8.32
1665,-4,-4,-2,-3,0,-2,7,-2,8.325
1666,0,-2,1,0,-2,-2,-2,0,8.33
1667,-2,2,1,1,0,1,-3,-5,8.335
1668,-4,1,-6,-4,-1,0,-5,-5,8.34
1669,-1,-1,-2,-2,-1,2,2,5,8.345
1670,3,2,-1,0,1,0,-7,2,8.35
1671,-1,-1,2,-1,-4,-2,6,4,8.355
1672,0,-3,0,0,-2,-3,-4,-2,8.36
1673,-2,-1,-1,0,1,6,7,-1,8.365
1674,-4,-1,-1,-1,-4,-1,-5,-7,8.370000000000001
1675,-2,-3,-3,-2,-2,-2,4,0,8.375
1676,-1,-2,-2,0,0,0,-2,-2,8.38
1677,-1,-2,-1,-2,3,-3,-10,1,8.385
1678,0,-2,-1,-2,-3,0,15,1,8.39
1679,-2,0,1,2,1,2,-4,-4,8.395
1680,0,0,2,0,2,-3,-1,1,8.4
1681,1,-1,-1,-1,-2,-7,-4,0,8.405
1682,0,-2,-2,-2,0,1,-10,-3,8.41
1683,-2,-4,-1,-1,-1,-1,5,0,8.415000000000001
1684,-3,-3,-3,-1,1,-3,-2,0,8.42
1685,0,-2,1,0,3,5,4,-4,8.425
1686,-1,-1,-2,0,2,1,0,0,8.43
1687,3,-1,-3,-1,-3,0,-4,0,8.435
1688,-1,-3,-4,-2,-1,1,1,-5,8.44
1689,-2,5,13,1,-6,-4,-1,-2,8.445
1690,0,1,1,-1,0,-2,-3,5,8.45
1691,0,1,1,1,3,1,-1,0,8.455
1692,-1,-3,-7,-1,-3,4,3,1,8.46
1693,0,-4,1,0,-3,-1,-1,-3,8.465
1694,-2,-1,0,-1,-2,2,6,-3,8.47
1695,-3,0,1,-1,1,-3,-12,-2,8.475
1696,-1,-2,-1,-1,0,3,6,-2,8.48
1697,1,0,-4,2,-2,-2,-4,0,8.485
1698,0,0,0,1,1,-3,-1,-1,8.49
1699,0,0,-3,-1,-2,-2,-2,-2,8.495000000000001
1700,-1,-1,1,-3,3,-2,-1,-1,8.5
1701,-1,-2,-4,-2,-6,-3,-2,0,8.505
1702,-2,1,1,-1,2,1,0,-1,8.51
1703,5,-1,-3,-3,-4,-3,-6,-1,8.515
1704,-2,0,-1,-1,-5,2,2,0,8.52
1705,-1,2,11,2,4,1,7,-4,8.525
1706,-2,-3,-3,0,0,1,-10,3,8.53
1707,-2,-1,0,-1,-2,-2,9,1,8.535
1708,-1,-1,-1,-3,-2,-2,-7,0,8.540000000000001
1709,-1,-2,-11,-4,-3,-5,-1,-5,8.545
1710,-1,-1,1,-2,3,1,-2,0,8.55
1711,0,3,4,3,1,0,-2,-3,8.555
1712,-1,0,1,1,-1,-3,-4,-3,8.56
1713,0,1,-3,-1,0,2,-3,-2,8.565
1714,-1,1,-2,0,2,-4,2,-3,8.57
1715,-2,-3,-5,-3,-4,0,-3,-1,8.575000000000001
1716,2,0,1,0,-2,-2,-2,0,8.58
1717,0,0,-2,-2,-1,-2,-9,0,8.585
1718,-2,-1,0,-1,-1,-2,4,2,8.59
1719,-2,-3,-2,-1,1,1,0,0,8.595
1720,-2,1,4,0,-2,1,-1,-1,8.6
1721,-3,-2,-2,-1,5,1,0,0,8.605
1722,-1,-1,0,1,-2,1,-1,-8,8.61
1723,-5,-2,0,-2,0,-5,-1,1,8.615
1724,-1,-2,-5,-2,0,5,5,3,8.620000000000001
1725,0,1,0,0,0,-2,0,1,8.625
1726,1,-1,1,3,0,-2,-1,-2,8.63
1727,-3,1,-1,0,-2,4,5,-5,8.635
1728,-1,-2,-2,-1,-2,-5,-9,-4,8.64
1729,-3,0,1,-1,-3,-3,-1,0,8.645
1730,-2,-2,-3,-2,-5,-3,-8,-2,8.65
1731,0,2,0,-1,1,1,6,1,8.655
1732,0,0,1,1,0,-4,-5,2,8.66
1733,0,-1,-5,-2,-1,3,6,-4,8.665000000000001
1734,-2,-4,0,-1,4,0,0,-1,8.67
1735,0,0,-1,1,-3,-2,-3,0,8.675
1736,-3,-1,-2,-3,0,0,-1,-2,8.68
1737,-1,-1,-2,-2,-4,-3,-2,-1,8.685
1738,-2,-1,-3,-2,-4,-1,3,1,8.69
1739,-1,-2,-3,1,5,2,-2,0,8.695
1740,-3,-1,1,1,-1,0,5,-7,8.700000000000001
1741,-1,-1,2,2,-2,-2,-10,2,8.705
1742,-1,1,-1,-1,-1,-2,1,7,8.71
1743,-1,0,3,-3,-3,-3,-12,-3,8.715
1744,-3,-4,-8,-2,-1,0,10,-1,8.72
1745,1,-3,-4,0,4,1,7,4,8.725
1746,2,2,8,1,-2,-1,0,-7,8.73
1747,1,-2,-2,0,0,-2,0,6,8.735
1748,-1,0,3,0,-2,-3,-11,-9,8.74
1749,-2,0,-3,-3,-1,-2,0,-3,8.745000000000001
1750,0,-3,-4,-3,-5,-1,0,2,8.75
1751,1,-1,2,0,2,0,-4,0,8.755
1752,0,0,0,2,-1,0,4,4,8.76
1753,1,-2,-2,-3,-6,-1,2,-2,8.765
1754,-1,-3,-3,-2,0,-1,-3,-3,8.77
1755,-3,-2,-1,-1,-2,-2,-1,-4,8.775
1756,0,-1,-2,-1,0,1,2,2,8.78
1757,-1,1,2,-1,0,-3,-2,-2,8.785
1758,1,-3,-1,-1,-4,-2,-5,-8,8.790000000000001
1759,-2,-2,-3,-1,0,1,2,0,8.795
1760,2,1,1,1,1,2,3,8,8.8
1761,-2,-1,1,3,2,1,-6,0,8.805
1762,-3,0,-2,-3,0,5,3,2,8.81
1763,-2,-2,-3,-3,-4,-9,-3,-4,8.815
1764,0,0,-1,-3,-5,-2,-9,-7,8.82
1765,-2,3,7,1,-1,-2,6,3,8.825000000000001
1766,-2,1,-6,-3,3,4,2,-1,8.83
1767,-2,-3,1,1,-1,1,-1,-2,8.835
1768,-2,-3,-3,-2,-4,-2,-4,-1,8.84
1769,0,-2,-1,1,0,-1,-3,0,8.845
1770,0,-1,-1,0,-1,-4,-2,0,8.85
1771,0,-2,-3,-1,2,4,8,-1,8.855
1772,-3,-2,2,1,1,-3,-8,0,8.86
1773,0,-2,-6,-3,-2,-1,4,-3,8.865
1774,-2,1,8,2,1,1,1,-6,8.870000000000001
1775,1,1,-2,-3,-2,-2,-3,5,8.875
1776,-1,-1,1,-1,-1,-2,-1,1,8.88
1777,1,-6,-2,-1,0,1,-13,-1,8.885
1778,0,-9,-6,-1,-7,-4,12,1,8.89
1779,-2,-8,-1,-1,-4,-2,2,-3,8.895
1780,1,1,7,3,4,-1,-11,-2,8.9
1781,-2,0,-6,-2,2,2,5,5,8.905
1782,-1,3,-4,-1,-3,0,-5,-6,8.91
1783,-4,-1,0,1,1,-2,-9,-5,8.915000000000001
1784,-1,1,-6,-3,-6,-5,4,6,8.92
1785,-2,2,3,0,1,-3,-6,-7,8.925
1786,5,1,1,-1,0,-1,-3,2,8.93
1787,0,4,0,-1,-2,-2,5,2,8.935
1788,-2,0,-3,-2,0,1,5,1,8.94
1789,-2,-3,-1,0,0,-1,0,-1,8.945
1790,-3,-1,0,-2,0,4,3,4,8.950000000000001
1791,0,1,-1,0,2,2,0,-1,8.955
1792,1,-1,0,0,0,-1,-8,-8,8.96
1793,-1,0,-1,-4,-5,2,7,4,8.965
1794,1,-2,-6,2,3,-3,-2,3,8.97
1795,0,5,11,2,-3,-2,-4,-2,8.975
1796,-2,0,-3,-1,-1,3,7,-2,8.98
1797,-5,-3,-5,-2,-2,-2,-2,-2,8.985
1798,0,-3,-3,0,2,-1,-8,1,8.99
1799,2,1,-5,-1,1,2,4,2,8.995000000000001
1800,-1,-3,-1,0,-2,3,-3,-2,9.0
1801,-3,0,1,0,2,-1,-4,-7,9.005
1802,-2,-1,-3,-3,-4,-3,-3,-2,9.01
1803,-1,-1,-3,-2,0,2,5,2,9.015
1804,1,1,2,0,1,-2,-2,-1,9.02
1805,-1,-2,-1,-2,-3,0,-1,-1,9.025
1806,-2,0,6,2,2,-2,-11,-4,9.03
1807,-1,-1,-1,0,-1,-2,0,-3,9.035
1808,0,-3,-1,1,1,-1,2,5,9.040000000000001
1809,1,-1,-2,-1,-1,4,6,4,9.045
1810,1,1,1,0,-2,-2,-8,-12,9.05
1811,-3,-6,-3,-2,-2,-2,-1,3,9.055
1812,1,-2,-1,-1,0,-3,3,2,9.06
1813,-1,0,-1,-1,2,3,-1,0,9.065
1814,-2,0,-1,-3,-6,-3,9,1,9.07
1815,3,0,-1,-2,-2,-3,-9,-5,9.075000000000001
1816,-2,-1,-1,0,5,3,2,0,9.08
1817,0,0,4,0,-2,0,-4,-3,9.085
1818,-3,-2,-4,-3,-5,-5,4,2,9.09
1819,0,-1,0,-2,2,0,-1,0,9.095
1820,-2,-1,-3,0,2,0,0,-1,9.1
1821,-2,-2,-3,1,-2,-2,-6,-5,9.105
1822,-4,-4,-4,-3,-1,1,-6,-2,9.11
1823,1,1,0,-1,-3,-1,13,3,9.115
1824,1,-3,-2,-2,0,2,0,0,9.120000000000001
1825,2,0,1,2,1,-5,2,6,9.125
1826,1,-1,-2,-2,0,2,-1,-3,9.13
1827,-3,-2,3,1,0,0,-10,-6,9.135
1828,-3,-1,-4,-4,-3,-3,-1,-2,9.14
1829,-1,-1,-2,0,-4,-4,0,-1,9.145
1830,3,2,1,2,-3,-1,0,-5,9.15
1831,-2,-2,-2,-2,1,3,0,4,9.155
1832,0,-1,2,-2,0,2,2,2,9.16
1833,1,-1,-1,-3,-2,-3,1,0,9.165000000000001
1834,-1,1,5,-1,5,-4,-13,1,9.17
1835,-2,0,-2,0,1,4,1,-5,9.175
1836,-3,-1,-1,-1,-3,-1,-4,-4,9.18
1837,2,-1,-2,0,0,-2,1,-1,9.185
1838,-1,-2,-2,0,0,2,7,4,9.19
1839,3,-1,-1,3,1,-1,-4,2,9.195
1840,-2,-3,-3,1,-2,-5,-1,-5,9.200000000000001
1841,-3,-3,-2,-2,0,4,-5,-8,9.205
1842,-4,-1,-2,-4,-2,2,4,1,9.21
1843,-2,0,-3,-3,-2,-3,-5,-4,9.215
1844,0,0,5,0,4,-2,1,5,9.22
1845,0,-5,-5,0,-5,0,4,-2,9.225
1846,-1,-2,-1,-2,-2,-5,-3,3,9.23
1847,-1,-2,-4,-3,-4,2,2,-1,9.235
1848,-2,0,-1,0,0,0,-2,-6,9.24
1849,-3,0,0,0,0,-1,-4,2,9.245000000000001
1850,0,1,-2,1,-2,-1,-1,6,9.25
1851,0,-1,0,-2,0,-2,2,-1,9.255
1852,2,1,2,2,-1,0,-9,0,9.26
1853,2,-1,-2,-2,-1,0,7,2,9.265
1854,1,-1,-1,1,-5,0,-4,-5,9.27
1855,1,3,5,0,0,-3,-1,-1,9.275
1856,0,-2,-3,-2,-2,0,1,-2,9.28
1857,-2,-1,0,-1,-1,-1,-5,-1,9.285
1858,0,1,-1,0,1,1,7,2,9.290000000000001
1859,0,-2,-1,0,-4,-3,-1,0,9.295
1860,5,3,2,0,0,1,3,0,9.3
1861,-2,-4,-3,-2,-2,-1,-2,-1,9.305
1862,-2,-3,-1,-1,0,1,-1,-2,9.31
1863,-1,-1,-2,0,1,-2,-4,-1,9.315
1864,-3,0,0,-2,-1,3,6,0,9.32
1865,1,1,-2,-1,-1,-1,4,5,9.325000000000001
1866,0,-2,0,-1,0,0,-5,-13,9.33
1867,-4,-1,5,1,-1,-1,3,-1,9.335
1868,-1,-2,-4,-1,-1,-4,-5,4,9.34
1869,0,-3,-1,-2,-1,0,-5,-2,9.345
1870,0,0,-4,-1,-2,-3,0,4,9.35
1871,1,-1,-4,-2,0,-1,-3,-1,9.355
1872,-2,-2,-1,0,-4,-4,-2,-1,9.36
1873,1,2,4,0,0,4,3,-1,9.365
1874,-3,-2,-1,-1,6,0,0,-1,9.370000000000001
1875,-2,-2,-1,0,-3,0,0,0,9.375
1876,-2,-1,-2,-4,-4,0,1,-1,9.38
1877,1,-1,1,1,-1,-5,-6,-4,9.385
1878,0,0,0,0,-2,0,-7,-1,9.39
1879,0,0,1,-1,1,4,11,7,9.395
1880,-1,-4,-4,-2,-2,1,1,-6,9.4
1881,-2,1,0,-1,-1,0,-2,-4,9.405
1882,0,-1,3,-1,-1,-3,1,-1,9.41
1883,0,-1,-3,0,3,-2,-3,0,9.415000000000001
1884,1,-1,-3,-2,-1,1,-3,0,9.42
1885,0,2,1,-1,-1,-1,0,-5,9.425
1886,-1,0,2,-1,-1,-1,8,1,9.43
1887,-4,-5,-5,-1,-3,-4,-7,2,9.435
1888,-1,0,0,0,1,-1,3,1,9.44
1889,-1,-1,-1,0,-1,2,1,0,9.445
1890,3,1,-3,-2,2,-2,-2,0,9.450000000000001
1891,1,-1,0,0,1,1,-3,-6,9.455
1892,-1,-2,-1,-1,-4,-4,-2,-2,9.46
1893,-4,0,-2,1,-2,-2,-1,1,9.465
1894,-3,-5,-4,-3,-2,1,1,1,9.47
1895,-2,-2,-3,-2,-2,-6,-4,-2,9.475
1896,0,0,2,-1,2,4,0,-2,9.48
1897,1,0,2,0,-1,-4,0,0,9.485
1898,1,1,0,0,-3,-1,-7,2,9.49
1899,0,1,-1,-1,2,4,8,-3,9.495000000000001
1900,0,-1,-1,0,-4,-4,-2,-1,9.5
1901,1,1,-1,-2,0,-1,4,5,9.505
1902,-3,0,-1,2,3,2,-4,-6,9.51
1903,-6,-2,0,-4,-5,-4,-5,-2,9.515
1904,4,0,0,3,-2,-5,5,2,9.52
1905,1,0,-1,1,2,0,-3,1,9.525
1906,1,-1,-1,-1,-1,-4,2,0,9.53
1907,0,1,-1,-1,5,4,0,-3,9.535
1908,-3,-3,-3,-1,-9,-1,0,-2,9.540000000000001
1909,1,0,-1,-1,1,-1,-1,0,9.545
1910,-3,-2,-1,-1,-3,-4,1,-1,9.55
1911,1,0,0,-1,-3,0,-3,-3,9.555
1912,0,0,-3,-2,2,0,-7,1,9.56
1913,-5,-5,-4,-2,-3,-4,1,-5,9.565
1914,0,-1,0,1,1,2,-3,1,9.57
1915,1,0,-3,0,-2,4,11,1,9.575000000000001
1916,0,1,0,-1,1,-5,-5,-2,9.58
1917,-2,-3,1,1,0,4,1,0,9.585
1918,-5,-3,-3,-2,-2,-4,-2,0,9.59
1919,0,-3,1,-2,0,-2,-3,-1,9.595
1920,-1,0,-1,-3,-2,-1,-2,-1,9.6
1921,-1,0,-2,-3,1,1,3,-8,9.605
1922,-3,-2,1,1,-3,-5,-10,4,9.61
1923,-1,-1,-4,-2,-5,-2,0,-1,9.615
1924,-2,-1,2,-3,-1,-7,-6,-1,9.620000000000001
1925,2,1,2,1,-2,4,-2,0,9.625
1926,0,-2,-2,-2,-1,2,8,-2,9.63
1927,0,0,-1,-2,-4,-3,-2,-1,9.635
1928,-4,-3,-2,-1,2,2,5,0,9.64
1929,-1,1,2,1,0,-2,-3,1,9.645
1930,0,1,-1,-2,2,0,-1,-2,9.65
1931,-1,0,0,0,-1,-3,-7,-1,9.655
1932,2,-2,-1,-2,-2,1,5,0,9.66
1933,-2,-4,-3,-1,-3,-2,-3,2,9.665000000000001
1934,-2,0,-3,-3,-2,1,4,-2,9.67
1935,-4,-3,1,-3,2,-3,-2,-2,9.675
1936,1,2,3,3,5,5,1,0,9.68
1937,3,-2,-3,0,2,2,-2,5,9.685
1938,-1,-1,0,-1,-6,-4,-5,-6,9.69
1939,-11,-1,-3,-2,-2,-1,0,-2,9.695
1940,0,-2,-3,-2,-3,0,-2,-1,9.700000000000001
1941,-3,-2,-1,-2,1,-2,-1,-1,9.705
1942,5,3,2,1,0,-1,11,2,9.71
1943,3,0,-3,0,0,0,-7,0,9.715
1944,-3,-1,-1,-1,-1,-2,-10,-3,9.72
1945,-1,-1,-4,-5,-4,-4,3,1,9.725
1946,-1,-3,-1,-2,-3,-4,-7,-3,9.73
1947,3,0,1,2,0,6,3,-2,9.735
1948,1,1,0,2,4,4,9,7,9.74
1949,0,0,2,2,-1,0,-2,-2,9.745000000000001
1950,2,1,-2,-1,0,-1,0,0,9.75
1951,1,-2,-2,-3,-3,-5,-3,2,9.755
1952,-2,-2,-3,-3,-6,-3,-7,-9,9.76
1953,-3,-1,1,0,1,-3,0,-3,9.765
1954,-1,0,3,3,3,8,2,0,9.77
1955,1,0,-4,-2,0,0,2,1,9.775
1956,-3,-5,-3,-1,1,0,4,3,9.78
1957,0,-1,-2,-5,-5,-4,-2,2,9.785
1958,-2,-1,0,1,-5,-4,-12,-5,9.790000000000001
1959,2,1,3,5,1,1,12,-2,9.795
1960,-2,1,-1,2,3,-1,-12,1,9.8
1961,0,0,-1,1,-2,1,-3,-3,9.805
1962,4,-1,-4,-2,0,0,2,1,9.81
1963,0,-1,-1,-2,-4,-1,0,6,9.815
1964,-6,-3,1,-1,-6,-5,-6,-7,9.82
1965,-1,-2,-3,0,6,0,-4,-1,9.825000000000001
1966,0,0,-1,-1,-3,0,5,1,9.83
1967,-1,0,0,0,-1,-2,-3,-3,9.835
1968,0,0,-2,-3,1,2,4,-1,9.84
1969,2,1,2,-1,-2,-2,-3,1,9.845
1970,-2,-2,-1,-2,0,-2,2,5,9.85
1971,-2,-2,0,0,1,0,-6,-7,9.855
1972,1,1,-1,0,-3,-2,-5,-2,9.86
1973,-2,-2,-1,2,-4,0,1,0,9.865
1974,0,-1,-2,0,0,2,4,1,9.870000000000001
1975,0,-3,0,0,0,2,-2,3,9.875
1976,0,0,-2,0,1,-1,3,0,9.88
1977,0,1,-1,0,0,-2,-5,-4,9.885
1978,-4,-3,0,1,-5,-4,0,-1,9.89
1979,0,-1,-3,0,2,0,3,0,9.895
1980,-1,1,5,0,-2,-4,-5,-2,9.9
1981,3,-2,-4,-3,2,-1,1,2,9.905
1982,-3,-1,-1,-3,-1,-2,-1,-2,9.91
1983,-1,-1,-2,-3,-2,-3,-6,-7,9.915000000000001
1984,-2,0,-1,0,2,0,5,3,9.92
1985,0,2,2,1,-1,-4,0,4,9.925
1986,1,1,-1,1,3,1,-4,-1,9.93
1987,1,-1,-1,-2,-1,0,-1,2,9.935
1988,-2,-2,-1,-3,-4,2,0,-3,9.94
1989,-2,-3,-3,-2,-3,-1,4,-2,9.945
1990,-1,1,2,0,4,1,-5,1,9.950000000000001
1991,-2,1,1,-1,-3,-3,-4,-1,9.955
1992,0,-1,-1,0,-1,-2,-1,1,9.96
1993,-1,1,-1,-1,2,-2,-2,0,9.965
1994,-2,-2,3,-1,-2,-2,1,-2,9.97
1995,-2,-1,-1,0,-3,-2,-1,-1,9.975
1996,3,-2,-1,0,3,0,-1,-2,9.98
1997,-2,-3,-2,-3,-10,-2,1,-2,9.985
1998,2,2,-3,-3,-1,-1,-2,0,9.99
1999,-2,0,0,0,0,-1,-3,2,9.995000000000001
2000,2,-2,-2,0,1,-1,-1,0,10.0
2001,-2,-2,0,-1,1,3,-4,-1,10.005
2002,-1,-1,-2,0,-4,0,9,-5,10.01
2003,-1,-2,0,-3,-1,0,-1,3,10.015
2004,0,-1,-2,-1,2,-2,7,5,10.02
2005,-1,0,3,0,-2,2,-6,-3,10.025
2006,-1,0,-1,1,0,-2,-7,-1,10.03
2007,-1,-2,-3,0,0,0,-3,-5,10.035
2008,-3,0,0,-1,-4,3,5,0,10.040000000000001
2009,-1,-1,-2,-3,-2,-2,-1,0,10.045
2010,1,0,-2,-1,-1,-4,-3,0,10.05
2011,-4,-5,-3,-1,-2,1,4,-3,10.055
2012,3,2,0,0,1,0,0,2,10.06
2013,-1,-3,1,-2,1,-2,2,-2,10.065
2014,-3,-2,-2,-1,0,1,1,-1,10.07
2015,0,-2,4,0,0,-3,-5,-1,10.075000000000001
2016,0,1,0,-1,-7,0,0,-2,10.08
2017,-3,-3,-2,-1,0,0,-2,-1,10.085
2018,0,-3,-2,-1,-2,-6,0,-4,10.09
2019,-1,0,-1,-1,1,4,6,-2,10.095
2020,-3,-4,-2,-3,-1,0,-3,1,10.1
2021,0,0,0,-1,-4,-5,1,3,10.105
2022,0,0,1,-1,1,-3,-6,0,10.11
2023,3,3,-1,1,3,0,-2,-1,10.115
2024,-1,-1,1,1,0,-3,3,-4,10.120000000000001
2025,1,2,-2,-1,2,8,5,-1,10.125
2026,-4,-2,-3,-1,-1,4,-2,3,10.13
2027,3,0,-2,-2,-6,-3,0,0,10.135
2028,0,0,-1,-2,-1,-5,-3,1,10.14
2029,1,-1,0,1,-1,-3,-5,-3,10.145
2030,-2,-2,0,1,2,3,-1,-3,10.15
2031,-1,-2,-1,-1,-5,-5,-3,2,10.155
2032,-1,0,-1,0,0,3,-2,-1,10.16
2033,-3,-1,0,-1,-1,2,0,-2,10.165000000000001
2034,-1,-2,-5,-2,-4,-3,0,3,10.17
2035,-1,1,4,0,1,-2,-1,-4,10.175
2036,0,0,5,2,-1,-2,-3,-1,10.18
2037,0,0,-3,0,3,-2,-2,-3,10.185
2038,-1,-1,-2,-3,0,2,2,1,10.19
2039,-3,-2,-3,-1,-1,3,4,1,10.195
2040,0,-2,-3,-4,-4,-7,-8,-2,10.200000000000001
2041,1,1,6,3,-1,-3,-7,-6,10.205
2042,-2,-1,-2,-1,1,5,6,5,10.21
2043,0,-4,-1,-3,-2,-2,5,1,10.215
2044,-1,-1,-1,0,-1,0,-7,-2,10.22
2045,1,0,-5,-2,-3,-1,3,0,10.225
2046,2,2,0,0,-1,-2,-6,-5,10.23
2047,0,3,3,2,4,0,1,0,10.235
2048,-6,-4,-2,0,-5,0,-3,-2,10.24
2049,-1,-3,-2,0,2,-2,2,0,10.245000000000001
2050,1,-1,0,-1,0,-1,3,1,10.25
2051,-1,-2,-3,0,-1,2,-4,2,10.255
2052,-1,-1,-7,-4,-2,-3,-2,-2,10.26
2053,-1,3,3,-1,-5,-1,1,4,10.265
2054,0,-1,0,0,0,2,-2,0,10.27
2055,0,0,-1,-1,2,-4,-4,-2,10.275
2056,-1,3,0,-1,3,3,0,-6,10.28
2057,0,-5,-4,-2,-4,-3,3,3,10.285
2058,1,-2,1,-3,-2,-5,-1,-1,10.290000000000001
2059,-1,-1,-2,-2,-1,1,-1,0,10.295
2060,0,1,0,0,-2,0,1,1,10.3
2061,1,2,-2,-3,0,-1,4,-2,10.305
2062,-2,-2,2,2,5,0,-9,-3,10.31
2063,-2,-3,-3,-1,1,0,2,-3,10.315
2064,1,-1,-2,0,5,-1,4,1,10.32
2065,-1,0,-4,-4,-5,-3,2,1,10.325000000000001
2066,-3,-1,2,1,-5,-2,1,0,10.33
2067,-2,0,0,-2,0,-2,-6,-3,10.335
2068,-1,-2,-2,0,0,2,3,-1,10.34
2069,-2,-1,-2,-1,-1,-2,-4,0,10.345
2070,-2,0,-1,-2,-1,0,1,-4,10.35
2071,-3,-1,-1,1,0,-4,-10,-3,10.355
2072,2,0,0,1,4,4,8,5,10.36
2073,-2,-2,-1,-1,2,-3,-9,-3,10.365
2074,0,1,-1,-1,-4,0,0,-2,10.370000000000001
2075,0,-2,-3,-1,-3,3,11,1,10.375
2076,-2,-3,-1,-2,-4,-2,-2,-3,10.38
2077,0,1,4,0,-1,-3,-4,-5,10.385
2078,-1,-3,1,-1,2,-4,-9,-1,10.39
2079,1,-1,1,-1,-2,-4,4,6,10.395
2080,0,0,2,0,1,1,-3,2,10.4
2081,-3,-6,-4,0,0,3,7,1,10.405
2082,0,-1,-2,-2,-2,-3,1,-3,10.41
2083,0,0,-2,-1,-4,-1,-6,-4,10.415000000000001
2084,-3,1,0,-1,-1,-5,-4,-1,10.42
2085,-1,-2,-1,0,0,0,1,-2,10.425
2086,-3,-1,-2,-1,-6,-1,3,-1,10.43
2087,-2,-2,-1,0,4,-1,-4,-1,10.435
2088,1,0,1,1,3,3,-1,-1,10.44
2089,3,-1,-2,-1,1,1,2,0,10.445
2090,-1,0,-2,-2,-3,-3,-3,-2,10.450000000000001
2091,-2,-2,-4,-2,-5,-6,-6,-2,10.455
2092,-3,-2,-5,-2,-1,-4,2,-4,10.46
2093,-1,-1,9,2,0,1,-4,1,10.465
2094,1,-1,-1,0,0,1,6,3,10.47
2095,0,-2,0,-2,-1,-1,-3,-6,10.475
2096,-2,-3,-3,-3,-2,-1,0,3,10.48
2097,-2,-1,-4,0,1,6,1,6,10.485
2098,-1,2,0,0,-2,-2,4,-1,10.49
2099,-2,-3,0,0,0,-4,-10,3,10.495000000000001
2100,1,0,-1,-3,-3,0,0,-6,10.5
2101,-3,-1,-2,-5,-2,-4,-7,-5,10.505
2102,-1,1,0,2,0,0,2,0,10.51
2103,1,2,2,1,2,1,-2,-1,10.515
2104,-2,0,0,-1,-2,-4,1,0,10.52
2105,-4,-3,-4,-2,-1,3,3,-1,10.525
2106,2,-2,-2,-4,-3,-4,-4,0,10.53
2107,-3,-2,-3,-4,-7,-6,-1,-4,10.535
2108,-3,0,0,1,-3,0,2,-2,10.540000000000001
2109,-3,-1,1,2,3,-4,1,0,10.545
2110,0,2,-3,1,3,0,3,0,10.55
2111,0,0,0,0,0,-2,-2,1,10.555
2112,-1,-3,-3,-2,0,-1,-6,1,10.56
2113,1,2,0,-1,-3,2,1,-2,10.565
2114,1,-2,-3,-1,0,0,-4,-1,10.57
2115,1,1,0,-1,-2,2,1,-6,10.575000000000001
2116,-2,-2,-2,0,-1,-4,1,3,10.58
2117,4,-3,1,3,3,-1,-2,5,10.585
2118,-4,-2,2,0,0,-3,-4,1,10.59
2119,-2,0,-1,-2,-2,2,3,1,10.595
2120,0,-1,-2,-5,-5,2,-1,-3,10.6
2121,-3,-2,-2,0,-2,-1,1,-7,10.605
2122,-1,-2,0,2,4,6,8,6,10.61
2123,1,-1,-2,0,1,-2,-2,-3,10.615
2124,0,2,4,0,-1,-3,-6,-1,10.620000000000001
2125,-3,0,-2,-3,-2,-5,-6,-7,10.625
2126,-1,-1,-1,-3,-3,4,-2,-3,10.63
2127,-2,-1,-4,-3,3,1,14,4,10.635
2128,-1,1,1,1,-1,1,-2,2,10.64
2129,0,1,-2,-1,-2,-1,-1,-2,10.645
2130,2,0,-1,-1,0,-5,-3,-2,10.65
2131,-1,-3,0,0,-4,2,-1,0,10.655
2132,-1,-2,-2,0,1,-3,1,2,10.66
2133,-3,-2,-2,-1,-3,-2,-3,-4,10.665000000000001
2134,-1,1,-1,-2,-2,-2,-1,-1,10.67
2135,-4,-2,-5,-1,-4,-3,-14,2,10.675
2136,-4,-4,0,0,-3,-3,4,-2,10.68
2137,1,1,3,0,3,3,0,0,10.685
2138,2,-1,-1,-1,0,-1,0,0,10.69
2139,-1,-2,0,-2,2,1,2,-1,10.695
2140,2,2,0,-2,0,-1,-2,-3,10.700000000000001
2141,-2,0,-3,-4,-2,0,-2,3,10.705
2142,-1,0,2,2,2,-1,2,-4,10.71
2143,-2,-1,0,-2,-1,3,3,-1,10.715
2144,-1,-2,-3,-2,-3,2,1,-3,10.72
2145,4,1,2,1,2,-5,-7,2,10.725
2146,-2,-1,-2,-2,-3,0,-3,2,10.73
2147,1,-1,-1,0,0,-3,0,0,10.735
2148,0,0,1,-2,0,3,-1,1,10.74
2149,2,0,-3,-3,-3,-1,-3,-2,10.745000000000001
2150,-1,-1,-2,-1,0,-2,4,-1,10.75
2151,-1,1,1,0,-1,-1,1,0,10.755
2152,1,0,-5,-1,-7,-1,-6,-3,10.76
2153,-2,-1,-1,1,0,-2,2,-7,10.765
2154,-1,1,1,-3,1,-3,-3,1,10.77
2155,-2,1,3,-1,-1,1,-2,1,10.775
2156,1,2,1,1,2,-4,-2,3,10.78
2157,-1,-3,-2,-1,-2,2,3,-1,10.785
2158,0,-1,-2,-1,-2,2,-6,-4,10.790000000000001
2159,1,-1,0,-1,1,-1,0,1,10.795
2160,-3,-2,-1,-2,-1,1,0,-7,10.8
2161,-2,1,-1,1,1,-3,-2,1,10.805
2162,-2,-4,-1,0,-1,1,1,0,10.81
2163,1,0,-1,0,-2,-2,-1,-1,10.815
2164,-1,-4,-2,-1,0,-3,-3,1,10.82
2165,1,1,0,-1,1,-5,-1,1,10.825000000000001
2166,1,3,2,0,2,2,-1,-1,10.83
2167,-1,-1,-6,-4,-4,-3,-1,0,10.835
2168,-1,-2,-4,-1,3,-3,0,-1,10.84
2169,-1,-2,-2,0,-1,2,5,-1,10.845
2170,0,-2,-1,0,-1,-2,0,1,10.85
2171,1,1,2,1,-1,2,3,-1,10.855
2172,-2,-1,3,3,0,1,1,-1,10.86
2173,3,-1,0,-2,-4,-3,-10,-1,10.865
2174,2,0,-2,-1,-3,-2,-4,1,10.870000000000001
2175,-2,-4,-3,-2,-3,-6,0,-2,10.875
2176,-1,-1,-6,0,2,4,0,1,10.88
2177,0,1,1,1,0,-1,-3,1,10.885
2178,-1,-3,-2,-3,-5,-2,3,-3,10.89
2179,-4,0,-1,-1,1,-3,1,-3,10.895
2180,0,0,0,0,1,6,2,-1,10.9
2181,-5,-4,-1,-2,-2,3,3,0,10.905
2182,0,-1,-4,-2,-3,-1,-2,-2,10.91
2183,1,-1,0,0,0,-5,-6,-2,10.915000000000001
2184,-2,0,2,-1,0,1,-1,0,10.92
2185,0,0,-1,0,-1,4,9,0,10.925
2186,-1,-2,0,0,-3,-3,-5,1,10.93
2187,-2,-2,-2,1,-1,0,-4,-2,10.935
2188,3,-3,-1,-4,-4,-7,-5,-1,10.94
2189,0,0,-1,-3,-8,-2,1,-1,10.945
2190,-3,-2,-2,-1,2,0,0,-6,10.950000000000001
2191,1,1,-2,1,3,4,-2,1,10.955
2192,-1,-1,0,0,1,-3,3,6,10.96
2193,0,-2,-4,-3,-2,-1,0,1,10.965
2194,1,0,0,-1,-4,0,0,2,10.97
2195,-1,0,1,1,0,-1,1,-5,10.975
2196,-2,-2,-2,1,-1,-3,-2,-2,10.98
2197,-2,-3,-1,0,1,1,2,1,10.985
2198,-4,2,-2,-1,-1,-1,-5,-8,10.99
2199,1,0,2,-1,-1,1,-1,-3,10.995000000000001
2200,2,4,1,-2,-2,-3,0,-2,11.0
2201,2,-1,1,-1,-1,-2,-2,3,11.005
2202,1,-1,1,0,1,1,1,2,11.01
2203,0,-1,-3,-2,-2,-2,0,0,11.015
2204,-3,-4,-1,-1,-2,4,3,-2,11.02
2205,-4,-3,-1,1,2,-1,-1,-2,11.025
2206,3,0,-1,-1,0,-3,-5,1,11.03
2207,-1,1,1,-2,-6,-5,1,0,11.035
2208,-2,-1,-5,-3,-2,3,4,-2,11.040000000000001
2209,0,1,0,-2,2,1,2,-4,11.045
2210,-2,-1,1,0,-1,-2,-8,0,11.05
2211,-1,-4,-2,1,4,-4,-2,-1,11.055
2212,1,0,-2,0,-4,-4,-6,0,11.06
2213,0,0,0,-1,-2,2,8,0,11.065
2214,-1,1,1,1,2,1,0,-3,11.07
2215,-3,-3,-3,-4,-1,-1,2,-1,11.075000000000001
2216,0,0,3,2,-1,2,-7,4,11.08
2217,0,0,-3,-2,-1,-4,-7,-1,11.085
2218,-1,-3,-2,-1,-6,-3,-4,1,11.09
2219,-2,1,2,1,0,2,4,2,11.095
2220,-1,0,-1,-1,2,-1,5,-8,11.1
2221,-2,-5,-6,-1,-2,-2,-5,-3,11.105
2222,0,2,3,0,1,2,2,0,11.11
2223,-2,-1,-1,0,0,2,-6,-3,11.115
2224,-1,1,1,-1,-3,-4,-4,-2,11.120000000000001
2225,6,0,0,1,0,-1,4,2,11.125
2226,-1,-3,-3,-2,-6,-4,-2,1,11.13
2227,0,-1,-4,-2,-1,3,1,2,11.135
2228,-2,-1,-1,-2,0,3,8,3,11.14
2229,-3,-4,-3,-1,3,-2,-13,-5,11.145
2230,-1,3,9,1,2,1,-1,0,11.15
2231,-1,-1,-1,-3,-4,3,4,-1,11.155
2232,2,0,1,4,1,-3,-5,-2,11.16
2233,-2,-3,-3,1,0,-1,2,0,11.165000000000001
2234,-2,3,15,1,-2,0,1,0,11.17
2235,0,-3,-8,-4,-3,-6,-7,5,11.175
2236,0,3,6,-6,-4,0,-5,-12,11.18
2237,0,0,0,1,-1,0,-2,3,11.185
2238,-2,-5,-7,2,1,0,5,-5,11.19
2239,1,-2,-8,-2,-2,-3,-5,3,11.195
2240,-6,-2,-5,2,0,1,-9,-2,11.200000000000001
2241,0,0,6,-4,-5,-3,2,-1,11.205
2242,5,-4,-21,-6,2,3,8,6,11.21
2243,0,11,33,6,0,1,-1,-3,11.215
2244,-2,-6,-22,-5,3,1,2,4,11.22
2245,-2,11,28,2,-7,-8,-10,-3,11.225
2246,-3,-9,-24,-4,-1,5,1,-3,11.23
2247,-2,-2,-10,-4,3,2,7,4,11.235
2248,-1,-10,-15,-5,-6,-10,-20,-3,11.24
2249,0,-2,-14,-3,0,5,28,11,11.245000000000001
2250,-2,5,10,-2,-5,-5,-6,-7,11.25
2251,-2,-9,-8,-1,2,5,-3,-4,11.255
2252,-2,8,18,0,1,-2,-5,-2,11.26
2253,-1,-15,-30,-4,1,0,4,-1,11.265
2254,1,10,28,5,-3,-1,3,1,11.27
2255,0,-5,-15,1,2,0,-10,-2,11.275
2256,4,-1,-1,-8,-2,-2,-24,9,11.28
2257,0,16,46,19,0,-3,38,7,11.285
2258,2,-8,-25,-6,2,0,-14,8,11.290000000000001
2259,-7,-28,-55,-20,2,-1,2,-24,11.295
2260,-11,-17,2,2,-2,0,13,-8,11.3
2261,5,15,-10,2,1,-2,-26,-3,11.305
2262,-4,19,51,11,-3,0,1,-2,11.31
2263,7,28,89,29,-1,-7,12,27,11.315
2264,12,-27,-74,-20,1,1,5,9,11.32
2265,-3,-9,-7,-6,0,-3,-34,-5,11.325000000000001
2266,-3,-21,-45,-11,3,1,13,-21,11.33
2267,-5,-5,-26,-11,-7,-11,-35,6,11.335
2268,-7,6,28,9,-1,7,40,-1,11.34
2269,-1,-16,-23,-7,-1,3,0,-6,11.345
2270,-3,2,-2,-4,-3,-5,-20,-11,11.35
2271,3,10,23,10,5,4,-7,-16,11.355
2272,5,36,54,25,0,-8,-2,0,11.36
2273,-8,-12,20,9,-2,1,-4,4,11.365
2274,-2,-31,-77,-17,1,5,17,14,11.370000000000001
2275,6,11,26,0,-4,0,2,-3,11.375
2276,1,17,42,15,1,1,2,3,11.38
2277,-2,-9,-23,-14,0,-2,-7,-10,11.385
2278,-1,-1,13,10,-5,-8,-2,3,11.39
2279,-2,-14,-15,-6,-3,2,1,11,11.395
2280,-1,-11,-47,-14,0,-2,-4,-11,11.4
2281,-3,-6,-4,-2,0,0,6,-14,11.405
2282,-6,17,44,-11,-2,-1,5,1,11.41
2283,12,15,-17,9,3,3,15,20,11.415000000000001
2284,-14,-13,-1,-6,-4,-3,-14,-39,11.42
2285,3,-24,-59,-17,-2,-5,-14,13,11.425
2286,7,25,46,21,4,6,29,9,11.43
2287,-10,2,16,-5,-3,-5,-4,-8,11.435
2288,9,4,-8,-1,4,3,-5,20,11.44
2289,-4,-9,-18,-7,-4,-4,22,-11,11.445
2290,4,-6,-36,-15,-2,-2,-58,-15,11.450000000000001
2291,-1,5,15,-1,-1,0,35,2,11.455
2292,-2,6,34,15,-3,-2,-7,1,11.46
2293,-6,-12,-33,-17,-2,1,1,-3,11.465
2294,-1,8,33,14,0,-4,-11,8,11.47
2295,-5,-8,-2,4,0,0,11,-22,11.475
2296,5,14,9,-7,-6,-2,0,33,11.48
2297,5,1,-9,6,-1,4,-9,2,11.485
2298,-5,10,37,3,-3,-5,4,-8,11.49
2299,-2,-14,-33,-3,7,6,-40,-12,11.495000000000001
2300,5,-7,-18,0,-1,-2,52,5,11.5
2301,1,18,21,1,-1,5,18,16,11.505
2302,-3,-27,-77,-30,-4,-3,-14,-7,11.51
2303,0,19,69,28,-1,-6,-16,-15,11.515
2304,-6,-11,-11,-7,-2,3,-18,3,11.52
2305,0,9,19,3,-2,-4,-12,-9,11.525
2306,2,-7,-34,-1,0,0,18,5,11.53
2307,6,-12,-41,-17,-4,3,7,25,11.535
2308,-12,-3,23,0,-1,6,-4,-26,11.540000000000001
2309,1,12,26,12,-1,-9,-25,-8,11.545
2310,-2,-10,8,3,0,3,7,20,11.55
2311,9,29,49,18,-7,-9,-4,9,11.555
2312,5,-9,-17,-7,0,-4,-7,25,11.56
2313,-8,-17,-37,-14,-1,-1,-3,-52,11.565
2314,7,11,14,2,0,5,13,7,11.57
2315,0,-10,-25,-9,-1,1,17,11,11.575000000000001
2316,-4,2,9,6,-4,-4,2,-2,11.58
2317,2,14,40,11,1,1,-4,27,11.585
2318,1,-18,-31,-9,0,-1,-11,-10,11.59
2319,-2,7,18,4,-4,-6,-16,-22,11.595
2320,1,-10,-37,-13,0,11,32,-6,11.6
2321,4,15,60,13,1,-2,-2,18,11.605
2322,0,6,9,8,-1,-8,-1,-1,11.61
2323,-6,-17,-47,-9,-1,3,0,-2,11.615
2324,6,0,-2,-7,1,-3,0,1,11.620000000000001
2325,0,14,47,19,-2,-2,-3,-25,11.625
2326,-3,-8,-8,-15,-4,6,-23,23,11.63
2327,-7,3,-13,-6,-5,-9,29,-6,11.635
2328,2,2,22,12,3,-1,-24,7,11.64
2329,2,2,-24,-11,1,5,24,22,11.645
2330,8,5,7,8,1,-6,-13,-16,11.65
2331,-6,-31,-65,-22,0,3,0,-8,11.655
2332,-2,33,76,26,0,-4,-2,-12,11.66
2333,0,-10,-37,-15,-3,-2,-9,5,11.665000000000001
2334,-7,0,11,0,0,0,8,-11,11.67
2335,2,-3,-6,-10,-2,0,-9,7,11.675
2336,4,-5,-39,-6,0,6,20,-3,11.68
2337,-6,6,51,23,1,-4,-26,-2,11.685
2338,-10,4,-18,-18,-11,-10,3,-9,11.69
2339,-2,-12,-5,-6,5,16,33,5,11.695
2340,4,-5,-50,-19,-2,-2,-24,-6,11.700000000000001
2341,-4,23,48,15,-2,-3,16,1,11.705
2342,1,-22,-50,-6,-3,-3,-30,8,11.71
2343,4,26,87,25,-1,-3,-2,-7,11.715
2344,-8,-23,-43,-31,-3,0,3,-9,11.72
2345,3,7,8,15,-4,5,33,27,11.725
2346,-5,-2,5,-1,1,-2,-6,-26,11.73
2347,1,0,-15,0,-2,-6,-30,8,11.735
2348,-2,-13,-14,-4,0,-4,-17,-7,11.74
2349,-7,-17,-37,-23,-2,-2,-5,-11,11.745000000000001
2350,8,16,31,22,1,5,36,8,11.75
2351,2,5,-6,-4,1,2,8,1,11.755
2352,-4,-1,7,4,0,-3,-11,4,11.76
2353,0,-8,-28,-14,-4,-3,-9,-3,11.765
2354,-3,0,22,14,3,2,7,8,11.77
2355,0,2,0,-5,-4,-1,-4,-13,11.775
2356,1,8,-3,1,-2,-4,-4,4,11.78
2357,1,-9,-16,-4,2,3,-6,4,11.785
2358,-3,-3,-8,1,2,0,4,-15,11.790000000000001
2359,-3,-3,23,-2,2,4,9,-2,11.795
2360,1,5,-4,4,-2,-6,-2,11,11.8
2361,0,1,3,-1,-1,-1,-14,-5,11.805
2362,-1,-8,-11,-6,3,4,5,8,11.81
2363,-10,-8,-15,4,-2,-6,-5,-12,11.815
2364,-1,3,7,-16,0,2,-2,-4,11.82
2365,6,26,41,16,1,-4,4,3,11.825000000000001
2366,-1,-17,-32,-17,-2,0,-9,3,11.83
2367,1,11,23,18,1,2,5,-4,11.835
2368,-3,-15,-9,-4,2,1,2,-6,11.84
2369,2,2,-3,0,0,-4,-8,-3,11.845
2370,-1,3,-5,-11,-1,-1,7,-7,11.85
2371,-1,-17,-27,-8,-3,-3,-19,16,11.855
2372,-3,10,30,9,-3,1,15,-3,11.86
2373,-2,-12,-10,-4,-2,-4,-10,-2,11.865
2374,0,-7,9,10,-1,0,1,9,11.870000000000001
2375,-3,-7,-7,-9,0,-3,-5,-20,11.875
2376,5,2,3,2,0,2,-41,6,11.88
2377,1,-3,-15,-5,-1,5,52,24,11.885
2378,1,7,7,1,0,4,20,-10,11.89
2379,0,2,0,-3,-6,-4,-20,-2,11.895
2380,-11,-16,-15,-2,2,-1,23,-13,11.9
2381,-1,4,-5,1,-1,1,-18,-4,11.905
2382,2,8,10,-1,-1,-6,-22,0,11.91
2383,0,-1,-24,-6,-2,2,20,-6,11.915000000000001
2384,2,15,30,7,-4,-9,-11,-6,11.92
2385,3,-24,-55,-24,3,3,-7,17,11.925
2386,3,16,43,23,2,-1,11,1,11.93
2387,1,-1,-3,0,1,-4,-18,9,11.935
2388,-10,-7,2,-2,-1,-3,-1,-20,11.94
2389,-2,8,-2,4,-4,-6,-18,0,11.945
2390,5,-9,-18,-23,-3,8,28,11,11.950000000000001
2391,1,2,13,6,1,-3,-37,-4,11.955
2392,-1,-4,-17,3,-1,0,43,5,11.96
2393,-1,0,10,-2,1,-2,5,4,11.965
2394,-6,-2,-11,2,-1,-2,-16,-12,11.97
2395,-6,-1,6,-1,0,-3,-12,2,11.975
2396,0,-7,-26,-8,-1,3,1,4,11.98
2397,-6,-9,-7,3,5,4,-16,-31,11.985
2398,-10,9,38,10,-6,-4,12,6,11.99
2399,3,10,6,-5,-3,-3,8,-2,11.995000000000001
2400,1,-7,-12,-2,2,0,-16,4,12.0
2401,-1,3,-8,-2,-3,0,18,-11,12.005
2402,-5,2,1,2,5,-2,-21,1,12.01
2403,-2,-14,-21,-11,-1,0,26,13,12.015
2404,-1,-13,-9,1,-4,-8,-14,-6,12.02
2405,1,-5,-10,-9,4,7,6,-1,12.025
2406,2,25,64,27,-3,-11,-13,-15,12.030000000000001
2407,1,-3,-7,-2,-2,4,-3,4,12.035
2408,-1,5,1,-1,-3,-4,-5,3,12.040000000000001
2409,-1,-15,-31,-11,0,1,19,6,12.045
2410,-1,-4,-11,-10,-3,1,-14,-4,12.05
2411,1,2,0,1,1,0,15,3,12.055
2412,-1,-5,-10,-2,0,3,10,0,12.06
2413,1,2,10,-1,-1,-2,-21,-3,12.065
2414,-3,-10,-27,-8,-1,-7,-8,7,12.07
2415,-6,-1,15,0,-1,-2,-4,-11,12.075000000000001
2416,8,12,19,10,0,3,22,3,12.08
2417,1,7,10,6,-2,-1,-4,1,12.085
2418,0,-14,-33,-8,-1,-2,-1,-2,12.09
2419,-1,12,33,12,-1,2,0,-4,12.095
2420,-3,-3,-5,-5,-3,-7,-2,-10,12.1
2421,-3,-4,8,5,-2,-5,-12,-2,12.105
2422,2,-3,-23,-6,-1,1,8,8,12.11
2423,-4,-9,-17,-11,-1,2,-7,1,12.115
2424,6,11,22,-2,-1,-3,-3,16,12.120000000000001
2425,0,0,1,0,2,1,11,-1,12.125
2426,1,2,-2,2,-1,-4,-3,1,12.13
2427,2,3,-2,0,2,-2,-4,-7,12.135
2428,-3,-2,3,6,-1,6,4,10,12.14
2429,-2,-15,-24,-14,-6,-1,3,-6,12.145
2430,2,2,8,2,1,3,2,0,12.15
2431,1,-5,-5,7,1,-6,-2,1,12.155000000000001
2432,-4,15,26,0,-2,-2,-15,-9,12.16
2433,-1,1,-2,-4,-5,2,5,-2,12.165000000000001
2434,-2,4,12,3,0,-3,-4,-9,12.17
2435,-3,-6,-16,-3,1,5,4,-1,12.175
2436,-1,-6,-12,-1,-1,-5,-6,1,12.18
2437,-2,4,12,5,1,-3,-5,-4,12.185
2438,1,-5,-7,-3,0,1,11,6,12.19
2439,-1,-9,-25,-10,-3,-1,0,0,12.195
2440,-3,2,15,5,0,-1,0,-3,12.200000000000001
2441,2,10,17,4,0,1,-4,-3,12.205
2442,-2,-2,-5,-3,-1,-2,-7,1,12.21
2443,-1,-14,-21,-11,-1,3,17,3,12.215
2444,2,10,15,3,-2,-1,-10,-3,12.22
2445,-3,1,5,1,-1,-3,-2,-5,12.225
2446,-3,-5,-2,2,2,0,0,-2,12.23
2447,0,2,0,1,-2,-4,-6,0,12.235
2448,1,-5,-17,-5,1,6,0,2,12.24
2449,0,3,9,2,0,-1,-5,-3,12.245000000000001
2450,-1,-1,-4,-3,-3,-1,1,-2,12.25
2451,1,5,7,2,-1,1,3,2,12.255
2452,-3,-10,-8,0,1,-1,-1,-3,12.26
2453,1,-1,-1,-2,0,-2,-3,0,12.265
2454,-1,1,-1,-4,-2,-1,2,-2,12.27
2455,-2,2,3,2,-2,-3,1,-2,12.275
2456,0,-1,-2,0,0,0,-3,-3,12.280000000000001
2457,-1,0,-4,-2,-1,0,0,-1,12.285
2458,1,-2,3,1,1,0,0,0,12.290000000000001
2459,-1,1,5,1,-2,-2,-1,-1,12.295
2460,0,-2,0,0,-3,-1,-2,1,12.3
2461,-2,-5,-7,-3,-1,-1,1,-1,12.305
2462,-1,-2,-3,1,-2,0,0,-2,12.31
2463,0,2,0,2,1,1,0,-2,12.315
2464,0,1,-1,-2,0,-1,-1,0,12.32
2465,1,-4,-2,-3,-3,-3,-2,-1,12.325000000000001
2466,0,-1,2,1,0,0,-1,1,12.33
2467,-1,0,-1,-4,-3,-2,-2,-1,12.335
2468,-2,1,2,0,0,2,0,-1,12.34
2469,-3,-4,-3,0,-2,0,-2,-2,12.345
2470,-2,-1,0,0,-3,-3,-4,-1,12.35
2471,0,-1,1,-1,3,1,3,-2,12.355
2472,0,1,-3,1,-5,-3,-2,0,12.36
2473,0,6,1,0,-1,-2,-2,-1,12.365
2474,-4,-3,-3,-3,-2,1,3,-1,12.370000000000001
2475,-2,-2,-4,-3,-1,0,-5,1,12.375
2476,-1,-4,-4,-2,3,-3,4,0,12.38
2477,-1,2,4,1,2,-2,-1,1,12.385
2478,-1,-1,1,0,-1,-1,2,0,12.39
2479,-2,-1,1,3,-1,-2,-7,-3,12.395
2480,-1,-1,-3,-3,-2,-3,-4,0,12.4
2481,-3,-3,-5,-2,2,6,3,-2,12.405000000000001
2482,0,2,4,2,-2,1,-2,0,12.41
2483,-2,-2,-2,-2,-4,-3,3,-2,12.415000000000001
2484,-1,0,0,3,2,-5,-11,1,12.42
2485,-2,-4,-6,0,-1,-2,6,0,12.425
2486,0,0,-6,-1,0,1,-2,1,12.43
2487,1,2,5,0,-1,0,6,6,12.435
2488,-3,-3,3,-1,-4,2,-2,-11,12.44
2489,-2,-2,-5,-3,-4,-6,-13,-1,12.445
2490,1,-1,-3,0,2,-2,-2,3,12.450000000000001
2491,-3,0,-4,-1,-1,-4,3,2,12.455
2492,0,-1,-2,-1,2,-1,0,0,12.46
2493,0,-2,1,0,0,2,0,-3,12.465
2494,-2,1,0,-1,-2,-1,3,-4,12.47
2495,0,1,0,-1,-1,1,-5,-1,12.475
2496,-3,-2,-2,-2,-1,-1,-2,0,12.48
2497,-2,-1,2,-1,-1,-2,2,-2,12.485
2498,1,-3,1,-1,-3,-5,0,0,12.49
2499,-3,-3,-1,1,5,-2,-6,-1,12.495000000000001
2500,2,-2,-5,-2,-3,6,3,1,12.5
2501,2,0,-2,-2,-4,-3,3,0,12.505
2502,0,-1,2,-2,3,2,8,1,12.51
2503,-1,-1,-3,-1,-1,-4,-3,-3,12.515
2504,-1,-1,-3,-3,-1,-6,1,2,12.52
2505,-3,0,2,2,-2,5,-1,-1,12.525
2506,-1,1,0,-1,-1,-3,-1,-4,12.530000000000001
2507,0,0,-1,-1,-1,0,-8,-2,12.535
2508,1,0,1,-1,0,3,9,2,12.540000000000001
2509,-1,-1,2,-2,0,-3,0,1,12.545
2510,0,-1,-2,-3,-2,0,-1,0,12.55
2511,1,0,-4,-3,0,-1,-1,-1,12.555
2512,-1,-2,0,1,-1,-2,-4,-1,12.56
2513,-4,0,1,1,0,0,-1,-2,12.565
2514,-2,0,-2,-1,-1,-3,-5,-2,12.57
2515,-2,-3,0,-1,-3,2,2,-1,12.575000000000001
2516,-1,0,-1,-4,-2,0,5,-1,12.58
2517,0,0,0,-3,3,-6,-16,-3,12.585
2518,-1,-2,-6,-2,-4,1,3,1,12.59
2519,-2,0,8,3,-1,1,4,0,12.595
2520,-2,-1,-4,-1,3,-2,-4,-6,12.6
2521,0,3,1,0,2,2,-4,4,12.605
2522,-2,-2,1,-1,0,0,2,1,12.61
2523,0,-3,-5,-4,-3,-5,1,-1,12.615
2524,0,3,0,0,0,8,2,1,12.620000000000001
2525,-3,-3,-6,1,4,0,0,-5,12.625
2526,-2,-2,6,1,-2,-1,-6,-2,12.63
2527,1,1,0,-1,-3,-1,4,3,12.635
2528,-2,-1,-1,-1,-2,-4,-2,1,12.64
2529,2,0,-3,-1,-2,-1,1,0,12.645
2530,-3,-2,-1,2,3,5,-2,-1,12.65
2531,-3,-1,-4,-2,-3,-3,0,-3,12.655000000000001
2532,0,-1,-1,-2,3,-3,-10,0,12.66
2533,-2,-4,-2,-1,-5,4,8,-2,12.665000000000001
2534,1,0,2,0,0,-1,-1,1,12.67
2535,0,0,0,0,0,-1,-2,-2,12.675
2536,-1,-2,-2,-2,-2,-2,-2,-1,12.68
2537,1,-1,-1,-1,-3,-5,-2,1,12.685
2538,0,-1,-1,1,-1,2,3,-1,12.69
2539,-2,-1,-1,0,0,6,4,-1,12.695
2540,-1,2,-1,0,-2,-3,-1,-1,12.700000000000001
2541,-2,-1,-1,0,0,-1,-1,-6,12.705
2542,-1,-2,-3,-1,-3,-6,-4,2,12.71
2543,2,2,2,0,-2,0,-6,4,12.715
2544,1,1,1,3,-1,0,7,0,12.72
2545,0,0,-1,2,3,3,6,1,12.725
2546,-2,1,-3,-3,1,-3,-3,-6,12.73
2547,-2,-2,-4,-2,-1,-1,-6,-2,12.735
2548,1,1,5,-1,-3,0,4,1,12.74
2549,-1,-2,-3,-2,-2,-3,-1,1,12.745000000000001
2550,-1,0,1,-2,2,-2,-2,0,12.75
2551,1,-2,-6,-2,2,1,3,0,12.755
2552,-2,-3,-2,0,0,-2,-1,-1,12.76
2553,1,1,1,1,-6,-4,0,1,12.765
2554,-2,0,1,-2,0,5,0,-3,12.77
2555,0,1,0,-2,-1,-3,-4,-1,12.775
2556,-2,-1,-4,-1,1,0,0,0,12.780000000000001
2557,-1,-2,1,-1,-2,-2,-3,0,12.785
2558,1,-1,-1,-1,-2,1,0,0,12.790000000000001
2559,-1,-4,-1,0,-1,0,-3,-2,12.795
2560,-2,-2,1,0,0,-1,-3,-3,12.8
2561,0,1,1,1,-1,1,1,1,12.805
2562,-2,0,-1,-1,-1,-5,-4,-1,12.81
2563,0,0,-3,-4,-3,1,2,-1,12.815
2564,-1,-2,-1,-2,-6,-6,-5,1,12.82
2565,-4,-3,-2,-2,4,-3,-8,-3,12.825000000000001
2566,1,-1,-1,3,2,4,5,-1,12.83
2567,0,-3,0,0,1,5,1,-1,12.835
2568,0,1,-1,0,-3,-1,5,-1,12.84
2569,0,0,0,-3,-2,-4,-1,-4,12.845
2570,-1,0,-1,0,-2,-3,-4,5,12.85
2571,-1,-3,0,0,3,-2,-4,-1,12.855
2572,2,0,2,-3,-6,-2,-2,1,12.86
2573,1,3,2,1,0,8,5,-2,12.865
2574,-2,-3,-5,-3,1,-3,1,-3,12.870000000000001
2575,0,0,1,1,1,2,4,0,12.875
2576,-1,-1,-3,0,2,-1,-3,-3,12.88
2577,0,0,-2,-2,1,-4,-3,1,12.885
2578,-1,0,1,0,-1,3,-2,-3,12.89
2579,-1,0,-1,-1,-1,-3,0,0,12.895
2580,-1,-1,0,-1,2,1,-2,-2,12.9
2581,1,1,-1,1,-3,-1,-3,1,12.905000000000001
2582,-1,2,-1,-3,-6,-3,1,0,12.91
2583,-1,0,1,-1,-3,-8,-7,-3,12.915000000000001
2584,0,1,2,3,6,2,-5,-1,12.92
2585,-1,-5,-6,-1,0,9,22,4,12.925
2586,-2,-3,-4,-2,-1,2,0,-3,12.93
2587,0,-2,1,-1,-3,-2,-5,-1,12.935
2588,0,1,-1,-1,-5,-5,-5,1,12.94
2589,2,1,0,-2,0,-3,-4,-2,12.945
2590,1,-1,0,-1,-6,0,1,-1,12.950000000000001
2591,-2,0,-2,-2,-2,-2,-1,1,12.955
2592,-2,-2,-2,-1,0,1,-2,0,12.96
2593,-2,-3,-1,-3,-1,-1,-1,-2,12.965
2594,-3,-4,-3,-1,-2,-4,-3,0,12.97
2595,-1,-1,0,1,1,-1,5,-1,12.975
2596,0,-1,-1,-1,3,0,-5,-1,12.98
2597,0,0,2,1,0,-5,-6,-2,12.985
2598,2,1,4,2,2,5,5,1,12.99
2599,-1,0,-4,-2,-1,1,2,-1,12.995000000000001
2600,1,-1,-2,-1,0,-2,5,0,13.0
2601,-2,-3,-2,-2,-6,-4,-3,-1,13.005
2602,0,1,2,-1,-1,-7,-7,-3,13.01
2603,-2,-1,-1,-2,2,1,5,0,13.015
2604,-2,-1,-4,-3,-4,1,3,-2,13.02
2605,-3,-2,-1,-1,2,-4,-10,-4,13.025
2606,1,1,0,1,-1,4,4,5,13.030000000000001
2607,1,1,0,1,-1,2,0,1,13.035
2608,-1,-1,0,0,-1,-1,-1,1,13.040000000000001
2609,1,-2,-3,-1,1,0,0,-2,13.045
2610,-3,-3,-2,0,1,0,0,-5,13.05
2611,1,-1,0,0,0,-2,-3,0,13.055
2612,-2,1,-3,-1,-4,-1,-2,-1,13.06
2613,-2,2,1,1,4,-2,-5,-2,13.065
2614,-2,0,-1,-1,-4,-1,8,-1,13.07
2615,-1,-4,-5,-1,1,0,-15,-2,13.075000000000001
2616,-1,0,-1,-2,-3,-2,1,-1,13.08
2617,0,-1,0,-1,-2,2,2,2,13.085
2618,-1,-2,1,-1,1,-6,-7,-2,13.09
2619,-1,1,-1,-1,-2,-2,2,-1,13.095
2620,-1,-2,-1,0,0,1,1,-1,13.1
2621,0,2,0,-1,-2,2,2,2,13.105
2622,-2,-2,-3,-3,0,-2,-3,-3,13.11
2623,0,-1,-1,-1,-5,-4,1,-1,13.115
2624,-2,-5,-1,0,0,-3,4,-1,13.120000000000001
2625,-1,-1,1,0,-1,3,5,2,13.125
2626,0,-1,-4,-3,-1,-1,0,-2,13.13
2627,-1,0,-1,-2,-1,2,1,-3,13.135
2628,-1,-1,0,-1,-2,-2,-4,-1,13.14
2629,-2,-1,1,2,3,-1,0,1,13.145
2630,-1,2,-1,0,4,2,-1,1,13.15
2631,-1,-2,1,-1,-2,-2,-1,-3,13.155000000000001
2632,-1,-1,-1,0,-2,0,-2,-1,13.16
2633,-1,-2,-3,-7,-5,-2,2,-2,13.165000000000001
2634,0,0,0,-1,0,-3,-10,0,13.17
2635,0,0,-1,-2,4,-2,1,1,13.175
2636,-3,-2,-1,-2,-1,1,-2,-1,13.18
2637,-1,-1,-1,-1,-5,-4,1,-4,13.185
2638,2,0,0,1,-2,-3,0,2,13.19
2639,-1,0,0,1,1,5,3,-1,13.195
2640,-2,-3,-1,1,0,2,-6,-3,13.200000000000001
2641,-3,-4,-5,-4,-3,-2,-6,-2,13.205
2642,-1,0,1,2,2,3,2,3,13.21
2643,-1,0,-1,0,-3,-3,5,1,13.215
2644,0,1,-1,-1,-2,1,-3,1,13.22
2645,1,1,0,2,-2,-3,-1,-1,13.225
2646,-4,-5,-2,-2,-3,-4,1,-4,13.23
2647,-1,0,3,1,1,2,-10,0,13.235
2648,-1,-1,-2,0,-3,-1,-5,-3,13.24
2649,1,-1,-3,-2,2,-1,-2,-1,13.245000000000001
2650,1,1,1,1,0,1,4,0,13.25
2651,-1,0,-3,-1,-3,1,0,0,13.255
2652,-1,0,0,-1,1,-2,-1,0,13.26
2653,1,0,3,2,2,-1,-2,1,13.265
2654,-2,0,0,-1,0,-2,-2,-2,13.27
2655,0,-1,-3,-1,-2,-4,-6,-2,13.275
2656,0,-1,-1,0,2,1,5,-2,13.280000000000001
2657,-2,-2,-5,-2,-4,0,1,0,13.285
2658,-1,-2,0,0,0,0,-5,-2,13.290000000000001
2659,0,1,0,-3,-4,-1,5,0,13.295
2660,1,-1,1,-2,-2,-2,-2,1,13.3
2661,0,1,0,0,1,0,3,0,13.305
2662,-2,-4,-4,-2,-2,-4,-5,-3,13.31
2663,-3,-1,-1,0,2,3,0,-6,13.315
2664,-1,-2,-3,-2,6,2,7,8,13.32
2665,0,-1,0,-1,-9,-6,-13,-1,13.325000000000001
2666,1,1,-2,-2,-2,-3,-1,-1,13.33
2667,1,-1,0,1,0,1,0,-3,13.335
2668,0,3,0,-1,0,1,-1,-3,13.34
2669,1,1,0,1,4,-1,2,1,13.345
2670,-2,0,1,0,-4,-3,1,-1,13.35
2671,-2,-2,-1,-1,-3,-2,-3,0,13.355
2672,0,0,-2,-3,-4,-1,2,0,13.36
2673,0,0,-1,-1,-3,-1,3,1,13.365
2674,0,-1,0,0,0,1,-6,-1,13.370000000000001
2675,-1,-1,0,2,2,-2,2,1,13.375
2676,1,-2,-1,0,0,-3,-1,-1,13.38
2677,0,-1,-1,-2,-1,4,0,-1,13.385
2678,1,-1,-1,-2,0,-4,-5,-2,13.39
2679,-1,-3,-2,0,-1,1,6,0,13.395
2680,0,-1,-2,-2,-2,-4,-1,-2,13.4
2681,-3,-1,-2,-2,2,-1,1,-1,13.405000000000001
2682,0,-2,-2,-3,-6,-4,-1,-1,13.41
2683,0,1,0,0,3,-1,-4,2,13.415000000000001
2684,-1,0,2,2,-2,-3,2,-1,13.42
2685,-1,-2,-2,0,2,4,5,0,13.425
2686,-1,1,-2,-2,-1,1,-1,1,13.43
2687,0,-2,-4,-3,-4,-10,-8,-2,13.435
2688,-1,-3,-2,-2,-1,-3,-1,-1,13.44
2689,-1,-2,3,1,-1,1,-2,-2,13.445
2690,-1,-1,1,0,-1,3,2,0,13.450000000000001
2691,-1,0,-1,-1,-3,3,5,-1,13.455
2692,-2,-2,-4,-1,1,-2,-5,-3,13.46
2693,0,1,0,0,-3,-4,0,-2,13.465
2694,0,1,-2,-1,0,-1,0,1,13.47
2695,-2,-1,0,-4,2,0,-1,0,13.475
2696,-1,0,0,1,-5,2,5,-1,13.48
2697,-3,-2,-4,-1,1,6,1,-2,13.485
2698,-1,0,1,2,4,3,-6,-12,13.49
2699,0,-2,-2,-2,-3,-6,-12,4,13.495000000000001
2700,-1,-2,-4,-4,-2,3,10,6,13.5
2701,0,-1,0,-4,-4,-3,0,-1,13.505
2702,0,0,-2,-2,-2,-2,3,1,13.51
2703,0,0,-2,1,0,-1,2,-4,13.515
2704,-1,0,2,2,-1,-3,-10,-3,13.52
2705,0,0,2,1,0,-4,-5,-2,13.525
2706,-2,-1,0,0,0,-3,2,1,13.530000000000001
2707,-2,-2,-2,-3,-5,0,-1,-2,13.535
2708,-3,-1,-1,-1,1,2,6,0,13.540000000000001
2709,-1,-2,-1,-2,-5,-5,-4,-1,13.545
2710,-2,0,-1,1,8,2,-2,-1,13.55
2711,1,1,0,2,-4,-2,3,-1,13.555
2712,0,-1,0,-1,2,-2,-11,-3,13.56
2713,-2,0,-1,-3,-2,-2,-1,0,13.565
2714,1,1,0,-1,-3,0,2,1,13.57
2715,-3,-2,-2,-1,2,2,-1,-1,13.575000000000001
2716,-2,-1,-2,-2,-2,1,3,-2,13.58
2717,2,-1,-1,-2,2,-3,-9,-2,13.585
2718,-1,0,3,2,-2,-2,4,3,13.59
2719,2,-2,0,-1,0,6,3,0,13.595
2720,-1,-3,2,-2,-3,-2,1,-2,13.6
2721,0,1,0,1,3,0,-1,0,13.605
2722,-3,-4,-4,-3,-3,-5,-7,-4,13.61
2723,0,0,2,0,-2,-2,8,1,13.615
2724,0,0,0,0,1,-3,-6,4,13.620000000000001
2725,-2,-1,-2,1,1,5,11,0,13.625
2726,1,0,-2,-2,-5,-3,-4,0,13.63
2727,0,-1,0,-1,-2,-3,-4,-2,13.635
2728,0,-1,-1,-2,-1,-4,-11,-3,13.64
2729,0,-1,0,0,0,1,5,0,13.645
2730,-1,-1,-3,-1,1,4,-2,-2,13.65
2731,-1,-2,-2,-1,0,-1,1,0,13.655000000000001
2732,-1,0,0,-1,-3,-3,-8,-3,13.66
2733,-2,-1,0,1,0,0,-4,-1,13.665000000000001
2734,-1,0,0,-3,-4,-5,2,0,13.67
2735,0,0,1,0,3,-2,-4,0,13.675
2736,1,0,-1,1,3,3,6,0,13.68
2737,1,1,1,0,-2,-7,-10,-2,13.685
2738,0,0,0,1,1,7,5,3,13.69
2739,-2,-3,-5,-4,-2,1,6,1,13.695
2740,-2,-3,-4,-2,-2,0,2,0,13.700000000000001
2741,-1,-2,-2,0,-1,-1,-4,0,13.705
2742,-1,-2,1,0,-1,-3,-1,0,13.71
2743,-1,2,4,1,-4,2,0,-3,13.715
2744,-1,-1,-1,0,1,2,-1,-1,13.72
2745,-2,-2,-1,-3,-3,0,-2,-2,13.725
2746,-1,-2,-2,-3,-1,-3,-6,-1,13.73
2747,-1,-3,-1,-1,1,-1,3,0,13.735
2748,2,0,-2,-3,-2,-2,2,-2,13.74
2749,-1,0,0,-1,-1,4,6,3,13.745000000000001
2750,0,-2,-1,0,0,0,-1,-1,13.75
2751,1,0,-1,1,-1,-3,-11,-1,13.755
2752,-2,0,-1,0,1,2,1,-8,13.76
2753,-2,-1,-1,0,-3,-8,-5,2,13.765
2754,1,1,0,0,0,5,3,2,13.77
2755,0,-1,-1,-1,-2,0,3,0,13.775
2756,-1,-1,2,0,-3,-1,0,0,13.780000000000001
2757,0,-2,-4,-2,-2,5,8,-2,13.785
2758,-2,-2,-2,-1,-1,-8,-10,-2,13.790000000000001
2759,0,1,0,-1,-3,-5,-6,0,13.795
2760,-2,-1,-1,1,0,-1,-1,-3,13.8
2761,-2,-3,-1,0,0,4,2,0,13.805
2762,-3,2,-3,-1,-1,3,5,0,13.81
2763,-1,0,1,0,2,-2,-6,-3,13.815
2764,0,1,1,-3,-1,0,5,3,13.82
2765,-1,-1,-1,-3,-2,-3,-3,-1,13.825000000000001
2766,-1,-3,-2,-2,-3,1,-2,0,13.83
2767,-3,0,-1,1,0,-2,0,-3,13.835
2768,0,0,0,2,5,3,-1,1,13.84
2769,-1,1,1,1,2,0,2,0,13.845
2770,1,0,0,-1,0,-1,-2,-2,13.85
2771,-1,-2,-1,-4,-3,1,0,2,13.855
2772,-1,0,-1,-2,-3,-5,-4,0,13.86
2773,1,-4,-3,-2,0,-4,1,-1,13.865
2774,-2,-3,-1,-2,-5,3,11,-2,13.870000000000001
2775,2,-2,-1,0,3,-3,-13,-1,13.875
2776,1,0,0,2,-2,-3,-4,-2,13.88
2777,3,3,0,0,0,-1,-4,-3,13.885
2778,-1,-1,-1,-1,-2,-3,-1,2,13.89
2779,-2,-1,-2,-1,-3,2,7,1,13.895
2780,-1,-2,-1,-1,1,3,1,0,13.9
2781,0,-2,-1,-3,-2,-4,-6,-2,13.905000000000001
2782,0,0,-2,0,2,2,2,-1,13.91
2783,0,0,0,-2,-2,0,-2,-1,13.915000000000001
2784,-1,-2,-3,-1,0,-2,-6,-2,13.92
2785,-1,-2,1,1,1,-2,-5,-2,13.925
2786,-2,-3,-2,1,-1,-5,-4,-3,13.93
2787,1,0,0,0,1,-1,6,6,13.935
2788,-1,-1,-2,-2,0,3,0,-1,13.94
2789,0,-2,-3,-1,-7,-2,2,1,13.945
2790,2,0,0,-1,-4,-2,-2,-1,13.950000000000001
2791,-2,-3,-2,0,-1,-2,-2,-4,13.955
2792,0,0,-2,-1,-1,-2,-1,1,13.96
2793,-1,1,1,1,2,1,-2,-1,13.965
2794,-1,-1,2,1,1,0,-1,-1,13.97
2795,-2,-2,-4,-4,-4,-6,-5,-4,13.975
2796,0,-4,-2,-2,0,-1,-6,1,13.98
2797,-2,-1,-2,-2,-2,5,6,0,13.985
2798,-2,0,-2,-1,-3,-3,-1,-1,13.99
2799,0,1,0,0,-3,0,0,-1,13.995000000000001
2800,-3,-1,2,0,-2,-3,-7,-2,14.0
2801,1,-2,0,2,2,1,6,0,14.005
2802,0,2,1,-1,2,0,5,2,14.01
2803,-4,-1,-3,-2,0,2,-10,-3,14.015
2804,-1,-1,-3,0,-3,0,5,0,14.02
2805,-1,-1,-1,-2,-2,-2,-5,-3,14.025
2806,1,-1,-1,-1,-1,0,-3,0,14.030000000000001
2807,1,-2,0,1,2,3,5,1,14.035
2808,1,1,0,-1,-8,-5,-6,-1,14.040000000000001
2809,-2,-1,-2,-1,-2,1,-2,1,14.045
2810,-1,0,-1,-2,1,-3,-2,-3,14.05
2811,0,1,-3,-1,0,1,-1,0,14.055
2812,-2,-1,0,0,-1,4,1,0,14.06
2813,1,0,-1,-1,1,-1,-1,-3,14.065
2814,0,-1,-1,-3,-3,-2,2,1,14.07
2815,0,0,2,0,-3,-5,-4,-3,14.075000000000001
2816,-2,-2,0,0,3,-6,-7,-2,14.08
2817,-1,-1,0,-1,-3,1,2,-4,14.085
2818,0,-1,0,-1,0,4,2,6,14.09
2819,-2,-2,-2,0,-3,0,1,2,14.095
2820,1,2,-1,-3,-2,-3,0,1,14.1
2821,-2,-1,-1,-1,0,-2,-1,-2,14.105
2822,1,1,-1,-3,-1,-1,0,-5,14.11
2823,1,1,1,1,1,1,1,0,14.115
2824,-1,0,0,0,0,2,1,-2,14.120000000000001
2825,0,0,1,0,-5,-1,-8,-1,14.125
2826,0,-1,-1,-1,-1,-3,-1,-2,14.13
2827,-3,-1,-1,0,0,-1,3,1,14.135
2828,-3,-2,-1,1,2,1,-1,-1,14.14
2829,-2,-2,-1,-2,3,2,2,1,14.145
2830,-2,-2,-1,-1,-3,1,-1,-2,14.15
2831,-2,-2,0,-2,-4,-4,-5,-3,14.155000000000001
2832,2,1,-1,1,1,-2,4,-1,14.16
2833,-1,-1,-2,-3,-4,-1,3,3,14.165000000000001
2834,0,0,-1,0,2,0,-1,-1,14.17
2835,-1,-2,-2,-2,-2,1,5,0,14.175
2836,0,0,2,-2,0,0,1,-1,14.18
2837,-2,-1,-4,-2,-1,-6,-7,-2,14.185
2838,-1,-3,-1,0,1,2,-2,0,14.19
2839,1,0,0,1,-1,-5,-2,-2,14.195
2840,-1,-3,-1,0,-1,5,5,1,14.200000000000001
2841,1,-1,2,0,0,-1,-3,2,14.205
2842,0,0,-1,1,-2,6,14,0,14.21
2843,0,-2,0,-1,0,0,-6,-1,14.215
2844,-1,-1,-2,1,1,-4,-4,-5,14.22
2845,-1,-2,-4,-2,-5,0,2,5,14.225
2846,-1,0,0,-2,-1,-3,-3,2,14.23
2847,-1,-1,-2,-2,0,-1,-3,1,14.235
2848,-1,0,-2,-2,-1,-2,3,0,14.24
2849,0,-1,0,0,3,2,3,-3,14.245000000000001
2850,0,1,-1,0,-3,-4,-10,-3,14.25
2851,-1,-2,-1,-1,1,1,3,-1,14.255
2852,0,0,1,-2,1,2,-3,1,14.26
2853,1,0,-1,-3,-1,-2,1,-2,14.265
2854,-3,-2,-3,-1,0,-3,-5,-1,14.27
2855,0,0,0,-2,-1,-2,2,-1,14.275
2856,1,-1,1,0,-1,3,5,1,14.280000000000001
2857,-2,0,-1,-1,-1,-7,-7,-3,14.285
2858,0,-1,-3,1,-2,0,0,1,14.290000000000001
2859,1,0,0,-1,0,2,4,-2,14.295
2860,0,-1,-2,-2,-3,0,1,1,14.3
2861,0,-1,0,1,0,1,2,-2,14.305
2862,-2,-1,0,-1,1,-6,-13,-4,14.31
2863,-2,-2,-1,1,-1,2,1,-1,14.315
2864,-1,0,-1,-1,-1,-4,-2,1,14.32
2865,-2,-1,-2,-1,-4,4,-4,-3,14.325000000000001
2866,-2,-1,0,-2,-3,-3,3,0,14.33
2867,0,-1,0,0,-2,2,1,1,14.335
2868,-2,-1,-1,0,-1,-1,4,-1,14.34
2869,-1,0,-1,-1,2,-4,-4,-1,14.345
2870,2,1,-1,-1,-1,-1,0,-1,14.35
2871,0,0,2,1,-1,0,-4,-1,14.355
2872,-1,-2,-1,-1,-3,-2,0,0,14.36
2873,1,-1,-1,-2,-1,2,1,0,14.365
2874,0,-4,-2,-1,1,2,1,-3,14.370000000000001
2875,1,0,-1,0,2,-1,-4,-5,14.375
2876,-1,1,-1,-1,1,1,-1,3,14.38
2877,1,1,1,0,0,0,7,2,14.385
2878,0,1,0,-1,-2,-1,-3,1,14.39
2879,-1,0,-1,-2,-3,2,4,0,14.395
2880,-2,-3,-2,-3,-4,-6,-8,-2,14.4
2881,0,2,2,-1,0,-1,4,0,14.405000000000001
2882,-2,-1,0,1,3,3,1,-1,14.41
2883,-1,-4,-3,-1,0,-4,-1,-1,14.415000000000001
2884,-1,0,1,0,1,3,4,0,14.42
2885,-1,-4,-2,-1,-1,-6,-19,-3,14.425
2886,-2,-1,1,0,0,4,-1,-1,14.43
2887,0,-1,0,-3,-7,-1,7,2,14.435
2888,0,2,0,1,-3,0,0,1,14.44
2889,-1,-1,1,1,2,4,5,1,14.445
2890,-3,-1,0,0,-1,-2,-1,-3,14.450000000000001
2891,-1,0,-2,-3,0,-3,-6,-1,14.455
2892,1,-2,-1,-4,-1,-1,-1,-2,14.46
2893,-3,-1,1,1,-2,0,1,-2,14.465
2894,1,-2,-1,-2,-2,0,-3,-1,14.47
2895,-1,-2,-1,1,-2,-2,-10,4,14.475
2896,0,-1,0,-1,0,-5,1,-1,14.48
2897,0,-1,-4,-2,4,3,0,0,14.485
2898,0,0,0,0,0,-1,3,0,14.49
2899,0,2,0,0,-1,0,-2,-3,14.495000000000001
2900,-1,0,-3,2,0,1,-3,-1,14.5
2901,-2,1,0,-2,-2,-3,-1,-2,14.505
2902,0,-1,-2,-2,-2,-4,-3,-1,14.51
2903,0,-3,-1,-2,0,-3,-2,0,14.515
2904,-1,0,-2,0,-2,-1,1,-2,14.52
2905,-1,-1,-1,-2,1,2,3,0,14.525
2906,-2,0,0,-1,-1,0,-1,0,14.530000000000001
2907,-1,-1,-1,1,-1,0,-1,0,14.535
2908,1,-1,0,1,-1,-3,2,0,14.540000000000001
2909,0,-1,-2,-2,1,1,-3,2,14.545
2910,-1,0,-1,-1,1,1,1,1,14.55
2911,-1,-2,-3,-2,-1,0,0,-2,14.555
2912,-2,0,-2,-1,-2,-5,-1,-1,14.56
2913,1,2,-2,1,-1,4,5,1,14.565
2914,-2,-2,-1,-1,1,-2,-2,-4,14.57
2915,-2,-1,3,0,0,-2,2,0,14.575000000000001
2916,-1,-3,-2,-1,-1,4,-4,-8,14.58
2917,-2,-3,-2,-2,-4,-4,-3,4,14.585
2918,0,-1,-1,0,-1,-5,3,3,14.59
2919,-1,-2,-2,-1,-1,0,1,-1,14.595
2920,0,0,1,1,4,-4,-8,1,14.6
2921,0,0,0,0,-1,5,-1,-3,14.605
2922,-1,-3,-2,-1,0,0,2,-1,14.61
2923,-1,1,-2,-1,-4,0,-1,-2,14.615
2924,-2,-2,-1,-3,-1,1,3,-1,14.620000000000001
2925,-1,-3,0,-3,1,-3,-9,-3,14.625
2926,-1,0,0,-1,-6,-3,-12,0,14.63
2927,0,0,0,0,-2,-4,11,1,14.635
2928,0,-1,-2,-1,2,5,2,0,14.64
2929,-1,-1,-2,-1,-2,-1,4,0,14.645
2930,-1,-1,-3,1,1,4,1,0,14.65
2931,-1,-1,1,-1,4,-1,-5,-3,14.655000000000001
2932,-1,0,-2,-3,-4,-2,-6,1,14.66
2933,0,-1,-1,0,0,-6,-1,-2,14.665000000000001
2934,-2,0,-2,0,3,2,-1,-3,14.67
2935,-1,-1,-2,-2,-2,2,-1,0,14.675
2936,0,-1,0,-1,-1,-1,6,2,14.68
2937,-2,-2,-3,-1,-5,-4,-10,-7,14.685
2938,-1,-3,1,1,0,-4,1,2,14.69
2939,0,1,0,1,3,4,-1,5,14.695
2940,-1,-1,1,-2,-1,1,0,0,14.700000000000001
2941,-1,-2,-2,-2,-3,-2,-7,-2,14.705
2942,1,-1,-1,-2,-4,0,8,-1,14.71
2943,-2,-2,-2,0,2,0,5,-1,14.715
2944,-1,0,-1,-2,-5,1,-4,-1,14.72
2945,0,2,0,-1,1,0,1,-2,14.725
2946,-1,0,-1,0,-1,-7,-8,-3,14.73
2947,-1,-1,-2,-1,0,1,1,0,14.735
2948,0,-1,1,1,3,2,4,0,14.74
2949,0,-2,-1,-1,-1,-3,2,0,14.745000000000001
2950,-1,-2,0,-2,-3,-2,-5,-1,14.75
2951,0,-2,-2,-3,-3,1,0,-2,14.755
2952,-4,-1,-1,0,1,1,-2,-1,14.76
2953,0,1,0,2,0,5,4,1,14.765
2954,0,-3,-2,-2,3,4,4,-2,14.77
2955,0,0,0,1,1,-2,-7,-1,14.775
2956,0,0,-3,-4,-4,-4,-7,-2,14.780000000000001
2957,-2,1,1,0,1,-1,2,0,14.785
2958,0,0,-1,0,-2,0,5,1,14.790000000000001
2959,-2,-1,0,-1,-1,-2,-1,-2,14.795
2960,0,1,1,1,-1,0,-8,-4,14.8
2961,0,-2,-3,0,-1,-4,-3,-2,14.805
2962,1,-2,-2,0,-1,-2,2,4,14.81
2963,-3,-1,-1,0,4,-4,-4,-2,14.815
2964,-1,-1,1,-1,-3,1,0,2,14.82
2965,-3,-1,0,-2,2,-1,6,-2,14.825000000000001
2966,0,1,2,2,2,5,-7,-4,14.83
2967,1,-2,0,-2,-2,-1,-2,1,14.835
2968,0,-2,-1,-1,-1,-5,2,-2,14.84
2969,-1,0,-1,-1,-3,4,4,3,14.845
2970,-1,2,-3,-1,-2,-4,1,0,14.85
2971,-2,1,0,1,0,-4,-6,-2,14.855
2972,-2,-2,-1,1,3,-1,4,-2,14.86
2973,0,-4,-3,-2,-4,3,1,2,14.865
2974,0,0,-1,0,1,-3,-4,-2,14.870000000000001
2975,0,-1,-1,-2,-2,3,-3,-3,14.875
2976,-1,-2,-2,-3,-1,-3,0,0,14.88
2977,1,1,0,2,1,-2,-3,0,14.885
2978,0,0,-1,-2,-3,-1,1,0,14.89
2979,-1,0,-1,1,-2,-3,2,-1,14.895
2980,-1,-1,-4,-1,-1,0,3,1,14.9
2981,-1,-2,0,-2,0,-2,-5,-1,14.905000000000001
2982,-1,-2,0,-2,-4,1,-1,-2,14.91
2983,1,1,0,2,-5,-1,2,0,14.915000000000001
2984,0,-1,-1,-2,0,-5,-8,-3,14.92
2985,-1,-2,-1,0,-2,1,3,-2,14.925
2986,-1,-1,0,-2,2,-1,-6,5,14.93
2987,1,-1,-2,-1,1,3,13,-1,14.935
2988,-2,0,-1,1,1,1,1,0,14.94
2989,0,1,-2,-1,0,-6,-8,-5,14.945
2990,-1,1,0,0,-1,-6,3,-5,14.950000000000001
2991,-4,-4,-4,-4,-1,-1,-4,2,14.955
2992,0,-1,-1,0,1,4,5,1,14.96
2993,0,0,-2,-1,-3,-3,-3,0,14.965
2994,1,-1,-1,-1,-3,1,-1,-1,14.97
2995,-1,0,-1,-3,0,-1,-3,-1,14.975
2996,-2,0,1,1,2,-1,-8,-3,14.98
2997,0,1,0,-1,-1,1,-1,0,14.985
2998,-2,-2,-1,-2,1,1,4,2,14.99
2999,1,1,-1,-2,1,-5,-3,-2,14.995000000000001
3000,1,-2,-2,-3,-2,-2,-2,-2,15.0
3001,0,0,-1,-1,2,-2,-2,2,15.005
3002,0,-1,-1,-1,-4,-1,0,-1,15.01
3003,-1,1,4,2,0,2,-8,-2,15.015
3004,-2,-3,-1,-1,-1,0,6,-4,15.02
3005,-2,-5,-5,-3,-1,-2,3,5,15.025
3006,-1,-1,-2,-2,-1,0,3,-2,15.030000000000001
3007,-1,-3,-2,-2,-3,0,0,2,15.035
3008,-1,1,0,0,-3,-2,-4,-1,15.040000000000001
3009,-1,1,2,3,1,1,-1,-5,15.045
3010,0,-1,-1,1,0,-1,-4,1,15.05
3011,-1,-3,-2,-2,-2,2,4,0,15.055
3012,-3,-1,0,-2,-2,-1,0,0,15.06
3013,0,0,0,-1,1,-1,-2,-1,15.065
3014,-4,-1,-2,-1,-2,0,-6,-4,15.07
3015,-1,0,-3,0,-3,-3,2,0,15.075000000000001
3016,-1,0,-2,0,0,-2,-8,-1,15.08
3017,0,-1,0,2,0,7,6,2,15.085
3018,-1,0,1,-2,-1,-2,-6,-2,15.09
3019,0,0,-2,-1,-3,-3,4,-2,15.095
3020,0,-2,-2,-1,-4,-3,1,1,15.1
3021,0,1,1,0,-2,1,0,-2,15.105
3022,-2,-2,0,0,5,2,-10,-6,15.11
3023,-1,-3,0,0,-3,-3,-5,4,15.115
3024,1,-1,1,-1,0,0,1,2,15.120000000000001
3025,0,1,-3,-2,-2,-3,4,-1,15.125
3026,0,0,-1,-1,-2,-1,2,-1,15.13
3027,-2,0,-1,0,4,0,-3,-5,15.135
3028,-1,0,-1,0,-4,-3,-3,1,15.14
3029,-2,-2,-4,-2,0,0,-3,0,15.145
3030,-3,-4,-3,0,0,1,8,-1,15.15
3031,0,0,0,1,0,-1,-4,-1,15.155000000000001
3032,0,-1,1,-4,-4,-2,-2,-1,15.16
3033,-4,-3,1,-1,-3,-7,-4,-2,15.165000000000001
3034,1,2,1,2,4,1,0,3,15.17
3035,-2,-1,-1,1,0,2,1,-2,15.175
3036,-1,-2,-1,-1,0,2,7,0,15.18
3037,-2,-1,-1,-1,-2,-4,-8,-1,15.185
3038,-1,1,0,0,-6,-8,-3,-2,15.19
3039,-1,1,2,-3,-1,0,2,-2,15.195
3040,-1,2,1,3,8,4,2,0,15.200000000000001
3041,-1,-2,-1,-1,-4,-2,0,1,15.205
3042,0,-1,-2,-3,0,-1,0,-2,15.21
3043,-1,-2,-4,-2,-1,0,-6,-2,15.215
3044,0,0,-1,-3,-1,-1,2,0,15.22
3045,0,-2,1,0,2,1,1,-3,15.225
3046,0,1,-1,0,0,-1,-3,0,15.23
3047,0,1,0,0,-1,0,5,4,15.235
3048,-2,-2,-2,0,-1,1,-1,-1,15.24
3049,0,0,-1,-1,-2,-2,0,0,15.245000000000001
3050,-1,-1,-3,-1,-2,-2,-4,-2,15.25
3051,0,-1,-2,0,-3,-6,-6,-6,15.255
3052,1,3,3,-1,-3,-1,-2,1,15.26
3053,-1,0,-1,-1,-2,0,-1,-1,15.265
3054,0,0,-1,1,3,1,3,-2,15.27
3055,-1,-1,0,-2,1,0,-3,-1,15.275
3056,-3,-2,-2,0,-2,-3,0,-2,15.280000000000001
3057,0,-2,-1,-1,-1,3,-5,-2,15.285
3058,0,-1,-1,-2,-2,2,2,3,15.290000000000001
3059,-1,0,-1,-1,-3,-3,-1,1,15.295
3060,1,0,-2,-2,1,0,1,-2,15.3
3061,1,1,-1,-1,-4,-4,-3,0,15.305
3062,-1,-2,-2,1,-1,0,2,1,15.31
3063,-1,0,1,-1,0,-2,-1,-3,15.315
3064,-4,-3,-5,-1,-1,0,-8,-1,15.32
3065,-1,1,0,0,2,2,10,1,15.325000000000001
3066,0,-1,-1,-2,-3,0,-5,-8,15.33
3067,-1,-3,-1,0,0,-1,0,3,15.335
3068,0,1,-1,0,0,-2,-4,1,15.34
3069,0,-2,-1,-1,3,-2,-5,0,15.345
3070,-1,-1,0,-2,-4,-2,4,0,15.35
3071,-1,-1,-3,-3,-1,2,-10,-5,15.355
3072,1,2,1,1,4,-2,-1,1,15.36
3073,-1,-3,-2,1,0,1,0,0,15.365
3074,-2,-3,0,1,0,-2,-2,0,15.370000000000001
3075,-2,0,-3,-1,0,0,4,-1,15.375
3076,-1,-1,-1,-3,-3,-2,-4,-3,15.38
3077,-1,-1,-1,-1,-2,-1,1,-1,15.385
3078,-2,1,0,-1,-1,1,0,0,15.39
3079,1,-1,-1,-2,-5,-3,-1,-1,15.395
3080,0,-1,-2,-2,-1,-3,-3,-2,15.4
3081,-1,-1,-3,-3,-1,0,-2,-1,15.405000000000001
3082,-4,-3,-1,0,1,4,7,0,15.41
3083,0,-1,1,-1,3,0,-7,-1,15.415000000000001
3084,-1,-3,-2,-1,-5,-1,1,-1,15.42
3085,0,-1,0,-1,-1,-4,-3,0,15.425
3086,2,1,1,-1,0,3,7,-6,15.43
3087,-2,-1,-1,2,3,-1,-1,6,15.435
3088,0,0,0,1,0,1,1,1,15.44
3089,-1,1,-1,-1,0,-2,-2,-1,15.445
3090,0,-2,0,-3,-4,-1,-2,-1,15.450000000000001
3091,0,0,-1,-2,-2,-1,0,-4,15.455
3092,-1,-1,-1,0,1,2,-2,-1,15.46
3093,1,-1,-1,-2,1,-1,-2,0,15.465
3094,-1,1,0,0,-1,-9,-3,0,15.47
3095,0,-3,-1,0,-5,2,0,-3,15.475
3096,-1,-3,0,-2,0,-1,-2,0,15.48
3097,0,0,1,0,4,1,7,-2,15.485000000000001
3098,-3,-5,-3,0,-1,-1,-2,2,15.49
3099,0,0,1,0,0,-4,-4,1,15.495000000000001
3100,-1,0,1,-1,0,4,5,-3,15.5
3101,-1,-2,-3,-2,-2,-3,-11,-2,15.505
3102,0,-1,-2,-1,0,-4,-5,0,15.51
3103,0,-2,-1,-1,1,0,5,-2,15.515
3104,1,1,0,-2,-4,0,2,1,15.52
3105,0,0,0,0,0,0,0,0,15.525
3106,-1,1,-2,1,-2,1,-3,0,15.530000000000001
3107,1,0,0,0,2,1,-2,-2,15.535
3108,0,-1,-2,0,-2,-2,-4,-1,15.540000000000001
3109,-1,-2,0,-2,-2,-1,1,1,15.545
3110,-2,-2,0,-2,-3,-4,-8,-4,15.55
3111,-1,0,0,1,1,-1,-1,-1,15.555
3112,-2,-4,-4,-2,0,1,10,5,15.56
3113,-1,-1,0,0,-2,1,0,-2,15.565
3114,-1,-3,-2,0,2,1,-4,1,15.57
3115,0,-1,0,-1,-3,-6,-5,-3,15.575000000000001
3116,0,0,1,-1,-2,-5,-1,-3,15.58
3117,-1,-1,-1,-2,-1,3,-2,-2,15.585
3118,1,2,0,1,2,-2,-2,0,15.59
3119,0,0,0,0,-6,3,3,0,15.595
3120,1,-1,-1,0,0,-4,-7,0,15.6
3121,-1,-1,-1,-1,-2,0,6,-1,15.605
3122,-1,1,1,-1,4,2,0,1,15.610000000000001
3123,-2,-1,-2,1,5,3,3,-1,15.615
3124,0,0,1,0,-1,0,0,-1,15.620000000000001
3125,-1,0,1,1,-2,-3,-4,-3,15.625
3126,-2,-2,-2,-2,-4,-3,-7,-2,15.63
3127,-3,-2,-3,-2,0,2,12,3,15.635
3128,0,0,-1,1,2,3,3,-1,15.64
3129,-2,-2,1,1,-1,0,-1,0,15.645
3130,-1,-2,-5,-3,-3,-8,-7,-1,15.65
3131,0,0,0,-1,-2,-1,-5,-3,15.655000000000001
3132,-2,-1,-3,-1,-3,2,4,-1,15.66
3133,0,0,-1,-1,-2,-3,0,-1,15.665000000000001
3134,-2,0,1,0,3,4,5,1,15.67
3135,-1,1,2,2,-3,-2,-3,0,15.675
3136,0,-3,-1,0,-2,-3,-7,-1,15.68
3137,0,0,0,-2,0,4,6,-1,15.685
3138,2,1,-1,-2,-2,-3,-3,-5,15.69
3139,-1,-2,-3,-3,0,-2,-3,7,15.695
3140,-1,2,2,-2,3,-3,-7,0,15.700000000000001
3141,-1,-1,-2,0,-6,0,6,1,15.705
3142,0,1,0,-1,1,6,5,1,15.71
3143,0,0,-1,-2,-3,-3,4,-5,15.715
3144,-2,-2,-2,2,2,-3,-12,0,15.72
3145,0,-2,-4,-2,1,-5,-9,-2,15.725
3146,-2,-6,-10,-2,-3,5,14,2,15.73
3147,-1,7,18,3,-1,-4,-4,-4,15.735000000000001
3148,-4,-7,-19,-5,-3,-3,0,-3,15.74
3149,0,-5,-22,-8,2,-3,-6,1,15.745000000000001
3150,-1,14,57,14,-4,-1,-9,-3,15.75
3151,1,-2,-7,0,0,2,12,-5,15.755
3152,-4,-5,0,4,-4,-3,-3,-1,15.76
3153,0,-1,-4,-3,1,-4,-10,1,15.765
3154,0,-14,-45,-15,1,7,12,6,15.77
3155,-8,-10,-13,-3,-3,-1,-13,-3,15.775
3156,1,1,3,-3,-1,-2,1,-1,15.780000000000001
3157,-1,7,22,10,1,1,20,8,15.785
3158,-1,-5,10,1,0,-6,-14,-8,15.790000000000001
3159,0,31,56,14,3,-2,1,-24,15.795
3160,4,-12,-36,-5,-2,-6,-17,13,15.8
3161,-4,-17,-33,-9,0,5,10,-15,15.805
3162,2,17,53,14,-1,4,18,23,15.81
3163,4,-9,-39,-7,-3,-6,-8,4,15.815
3164,1,7,32,3,-1,2,9,4,15.82
3165,1,-7,-55,-13,1,-1,3,5,15.825000000000001
3166,2,11,39,14,-3,-7,-22,-4,15.83
3167,-6,-11,-9,-7,1,11,7,-24,15.835
3168,-13,4,12,3,-2,-2,19,-16,15.84
3169,8,-15,-21,3,3,-2,-28,-1,15.845
3170,-2,8,6,-10,-1,-1,18,-4,15.85
3171,3,5,18,0,-3,0,-2,23,15.855
3172,0,-10,-29,-5,1,-3,-7,8,15.860000000000001
3173,-8,-6,-13,-8,-1,0,-6,-9,15.865
3174,-3,21,62,21,-1,-8,-4,-9,15.870000000000001
3175,0,-33,-61,-15,0,0,-5,2,15.875
3176,2,24,55,19,-2,0,10,-7,15.88
3177,1,2,-11,-13,0,4,-9,-12,15.885
3178,5,31,65,28,0,-9,-6,14,15.89
3179,-2,-5,-12,-1,-3,-5,-1,9,15.895
3180,-7,-23,-50,-17,-4,13,4,-19,15.9
3181,-1,-60,-83,-38,-1,-3,-6,7,15.905000000000001
3182,4,11,25,0,-7,-6,-19,-13,15.91
3183,4,17,45,16,-2,-7,25,17,15.915000000000001
3184,0,19,52,23,-1,0,1,-16,15.92
3185,-10,22,26,10,1,3,-24,-21,15.925
3186,-9,-37,-97,-31,1,-2,13,2,15.93
3187,-2,-5,-2,-3,-2,-5,-22,16,15.935
3188,7,10,0,-7,0,1,-16,16,15.94
3189,-6,15,25,10,-6,4,57,-4,15.945
3190,-5,-24,-55,-26,-10,-3,-15,2,15.950000000000001
3191,5,-1,-35,-8,1,0,-5,-7,15.955
3192,5,12,47,18,0,-7,-7,6,15.96
3193,-7,4,62,19,0,-3,-3,-19,15.965
3194,-9,-37,-71,-20,3,6,15,3,15.97
3195,6,18,24,3,-2,-6,-9,12,15.975
3196,-3,-18,-44,-19,-2,9,14,-8,15.98
3197,3,2,-22,-14,-3,0,6,20,15.985000000000001
3198,3,32,81,24,-1,-12,-34,-20,15.99
3199,-5,-35,-82,-29,-1,0,0,-7,15.995000000000001
3200,-6,23,42,18,-2,-6,-8,2,16.0
3201,7,10,22,3,-1,0,15,3,16.005
3202,2,-36,-99,-32,2,19,28,19,16.01
3203,2,21,64,20,2,-5,-19,-31,16.015
3204,-13,-19,-64,-17,-3,-3,-15,5,16.02
3205,-1,23,73,29,-3,-6,-6,9,16.025
3206,-6,-12,-13,-2,1,2,-14,-25,16.03
3207,1,3,-15,-9,-4,-2,9,24,16.035
3208,0,-22,-16,-8,5,2,10,-18,16.04
3209,1,8,-4,-9,-10,-11,-18,7,16.045
3210,-4,15,56,30,7,5,4,6,16.05
3211,-4,-12,-45,-13,-3,-1,-1,-20,16.055
3212,0,-2,-29,-17,0,-3,-7,10,16.06
3213,1,3,31,8,-1,-3,-1,6,16.065
3214,-2,6,28,4,-5,-7,4,-11,16.07
3215,-7,-24,-35,-8,-2,0,-8,1,16.075
3216,7,18,26,12,-6,-1,3,-1,16.080000000000002
3217,3,-6,-8,-7,1,1,-7,3,16.085
3218,6,-19,-54,-20,2,2,7,-20,16.09
3219,-2,14,42,14,0,-1,4,13,16.095
3220,0,0,15,1,4,10,27,33,16.1
3221,1,-13,-25,-15,3,1,2,-24,16.105
3222,-8,27,44,32,-1,-12,-22,8,16.11
3223,-6,-17,-30,-3,2,4,8,-25,16.115000000000002
3224,-5,1,1,1,-1,-3,-25,-10,16.12
3225,-1,-6,-8,-11,3,4,13,15,16.125
3226,4,-18,-53,-23,-3,9,16,5,16.13
3227,-1,24,70,38,5,7,29,17,16.135
3228,6,15,29,21,-4,-10,-17,-11,16.14
3229,0,-11,-30,-6,4,2,-21,-9,16.145
3230,4,-6,-31,-17,2,-8,6,-1,16.15
3231,-3,7,23,11,1,6,1,2,16.155
3232,-1,-16,-26,-17,-3,2,16,7,16.16
3233,3,14,35,15,-7,-4,10,-2,16.165
3234,-6,6,30,-1,-1,-4,-15,7,16.17
3235,-1,-12,-45,-18,2,-1,-19,-11,16.175
3236,8,10,24,-2,6,1,9,-2,16.18
3237,-12,7,60,39,1,1,2,4,16.185
3238,1,-33,-84,-30,-2,1,8,-2,16.19
3239,-7,30,77,19,-5,-17,-20,-16,16.195
3240,-5,-19,-53,-28,-6,1,0,9,16.2
3241,3,-6,-33,-12,0,4,12,22,16.205000000000002
3242,21,16,37,22,6,8,11,22,16.21
3243,-3,-1,37,7,0,0,-9,-5,16.215
3244,-7,-10,-18,-5,-5,-16,-4,-4,16.22
3245,-9,-6,-18,-3,1,4,-5,-36,16.225
3246,-4,21,75,20,-4,-1,6,32,16.23
3247,17,-16,-62,-26,-2,1,9,-12,16.235
3248,1,-3,11,8,3,-5,-27,-15,16.240000000000002
3249,7,11,69,31,2,4,5,14,16.245
3250,-11,-19,-114,-46,-5,2,-3,-32,16.25
3251,-4,10,60,15,2,-5,0,7,16.255
3252,11,18,35,11,-2,3,-6,-2,16.26
3253,11,-9,-32,-12,-1,-8,-1,18,16.265
3254,-12,-11,-9,14,-1,3,0,-11,16.27
3255,-2,-23,-33,-24,4,10,22,6,16.275
3256,-9,18,3,13,-8,-11,-8,0,16.28
3257,1,1,-4,-10,-3,-12,-35,-15,16.285
3258,6,15,54,5,2,10,19,0,16.29
3259,2,13,5,9,-5,-7,-10,5,16.295
3260,-11,-19,-3,-6,3,-2,7,-25,16.3
3261,1,8,10,5,2,2,-7,5,16.305
3262,-8,-10,-28,-3,-1,4,3,-2,16.31
3263,7,-9,-23,-15,0,5,-8,11,16.315
3264,2,-1,11,7,-1,-10,0,-7,16.32
3265,-13,9,2,-9,-3,2,-8,-16,16.325
3266,1,-5,-7,14,5,-6,5,-5,16.330000000000002
3267,3,-8,-29,-21,-3,12,17,15,16.335
3268,-7,3,-4,1,-3,-8,-30,-14,16.34
3269,4,-5,-41,-21,-5,0,-2,13,16.345
3270,-2,11,53,11,-5,-10,-16,-18,16.35
3271,0,-5,-25,5,1,2,5,16,16.355
3272,-1,-22,-9,-14,0,-3,-2,-15,16.36
3273,2,20,10,8,-2,12,18,-3,16.365000000000002
3274,0,-13,-60,-18,-3,-5,-3,11,16.37
3275,-3,9,31,6,-3,-9,-11,-7,16.375
3276,-4,-4,-8,-2,6,14,18,-3,16.38
3277,1,-2,1,-7,-2,-9,5,12,16.385
3278,3,-2,-2,0,-4,-8,-14,5,16.39
3279,-5,-2,-7,-1,-1,-3,-10,-10,16.395
3280,17,13,9,0,0,5,11,19,16.4
3281,-8,-16,-16,-3,-1,0,3,-2,16.405
3282,0,18,16,3,-2,1,-14,-18,16.41
3283,-7,-3,-3,-5,2,-4,-8,-10,16.415
3284,4,4,-5,0,0,7,12,32,16.42
3285,2,-7,-17,-3,-4,-1,12,-12,16.425
3286,0,2,3,-4,1,-1,1,17,16.43
3287,-5,-10,-8,7,-2,-2,-8,-16,16.435
3288,-2,12,22,-19,-2,2,0,6,16.44
3289,-3,-5,-21,-1,-2,-12,-19,-4,16.445
3290,-6,1,32,15,1,-1,7,-4,16.45
3291,-1,-3,-20,-3,0,8,10,8,16.455000000000002
3292,-2,-9,-20,-9,-5,0,8,-4,16.46
3293,-1,9,19,0,1,-5,-18,-1,16.465
3294,6,-3,-2,-3,1,4,10,4,16.47
3295,0,-3,-17,-3,3,4,5,-2,16.475
3296,-4,-5,1,0,0,-1,-9,-16,16.48
3297,-5,-3,1,-5,-2,-1,0,8,16.485
3298,4,11,17,16,-4,-10,-6,6,16.490000000000002
3299,4,-4,-7,-5,0,6,6,-2,16.495
3300,-2,-5,0,9,2,-1,2,-2,16.5
3301,-8,-7,-5,-6,7,9,8,-6,16.505
3302,0,-7,-21,-8,-1,0,-10,-2,16.51
3303,-1,7,25,2,-5,-6,4,2,16.515
3304,2,-6,-13,-2,1,-2,5,6,16.52
3305,3,-3,-9,5,0,2,12,8,16.525
3306,-4,8,20,6,1,-2,-20,-8,16.53
3307,1,7,20,1,-4,-5,3,-6,16.535
3308,2,-3,-10,0,-2,0,-6,8,16.54
3309,1,-6,-22,-6,1,3,19,-1,16.545
3310,-1,-9,-12,-9,-1,-1,-11,-4,16.55
3311,-4,0,8,-1,-3,-2,2,-3,16.555
3312,-3,3,-7,-2,-2,0,-4,1,16.56
3313,0,6,23,8,-1,-4,-1,6,16.565
3314,-2,0,8,-2,1,0,1,-5,16.57
3315,0,-2,-9,0,2,-2,-4,2,16.575
3316,-2,-7,-16,-12,-3,-2,0,0,16.580000000000002
3317,-1,1,8,3,-3,-1,-9,-7,16.585
3318,-2,-4,-9,-3,0,0,4,0,16.59
3319,-1,-3,-1,-1,-3,-1,-4,-1,16.595
3320,-3,-1,5,5,-4,0,-1,-3,16.6
3321,-1,4,10,4,-2,-5,-5,-3,16.605
3322,1,-5,-13,-6,-1,6,1,1,16.61
3323,-2,2,6,3,-1,-4,-1,-2,16.615000000000002
3324,-2,0,2,2,1,2,0,-3,16.62
3325,-2,-3,-2,-2,-5,-4,-8,-3,16.625
3326,0,-1,-3,-1,-2,1,5,1,16.63
3327,-1,2,1,1,0,0,-2,0,16.635
3328,0,0,1,1,-1,-7,-3,-1,16.64
3329,0,0,2,0,0,2,-1,-1,16.645
3330,-1,0,-4,-6,-2,-1,-1,-2,16.65
3331,1,0,1,-1,2,4,0,0,16.655
3332,1,-4,-5,-1,0,0,2,1,16.66
3333,1,2,4,1,0,-5,-3,-2,16.665
3334,-2,-3,-2,-1,-1,-2,1,0,16.67
3335,-1,-3,-2,0,-4,-2,0,-1,16.675
3336,0,0,-1,0,-1,0,-2,-1,16.68
3337,2,2,1,0,-3,-4,-3,-1,16.685
3338,-2,-4,-7,-4,-1,2,6,0,16.69
3339,-2,-1,1,-1,0,-4,-3,-1,16.695
3340,-2,-3,2,-1,-2,3,6,0,16.7
3341,0,0,3,-1,-1,-1,-10,-2,16.705000000000002
3342,-1,-1,0,-1,-1,2,3,-1,16.71
3343,-1,-1,-4,-2,-1,-3,-1,-2,16.715
3344,-2,-3,0,0,1,-3,-7,-9,16.72
3345,-2,-3,-2,1,-4,8,12,5,16.725
3346,0,-1,2,0,-1,-5,0,4,16.73
3347,2,-1,-2,-2,-1,3,-1,-1,16.735
3348,-3,0,-1,2,2,3,0,2,16.740000000000002
3349,-3,-2,-1,2,2,0,-5,-4,16.745
3350,2,1,-3,-3,0,-6,-6,-3,16.75
3351,-2,0,1,0,-1,3,2,0,16.755
3352,0,-1,-2,-2,-1,-3,-1,-1,16.76
3353,-2,-2,-5,1,1,-2,-2,-2,16.765
3354,0,-1,-3,1,-1,1,-2,1,16.77
3355,-1,-2,-1,-2,-1,-4,-2,-2,16.775
3356,1,1,1,-1,-2,2,6,-1,16.78
3357,-1,1,0,-1,1,1,-4,0,16.785
3358,-2,-2,-5,-3,-5,-11,-12,-3,16.79
3359,0,0,-2,-2,-2,4,-1,-2,16.795
3360,1,0,2,2,0,0,7,2,16.8
3361,3,-2,1,1,0,-3,3,-1,16.805
3362,-1,-3,-1,0,5,4,1,-7,16.81
3363,-2,-1,-1,-2,-6,6,0,6,16.815
3364,0,1,-2,-1,-3,-2,-4,0,16.82
3365,2,-1,-3,-2,-2,-2,-5,2,16.825
3366,0,-1,0,0,1,3,10,-2,16.830000000000002
3367,-5,-2,-2,-3,1,-8,-9,-6,16.835
3368,-1,-1,0,0,2,-1,-3,-2,16.84
3369,1,-2,-1,-1,-2,0,0,0,16.845
3370,-2,-1,-2,-1,-2,2,6,1,16.85
3371,0,2,0,1,0,-3,-10,-3,16.855
3372,-4,-3,-3,0,1,-1,-6,-1,16.86
3373,0,0,2,-1,-2,-2,4,-2,16.865000000000002
3374,0,-1,0,-3,-2,-2,0,2,16.87
3375,0,1,0,0,-1,0,6,2,16.875
3376,2,-2,-3,-2,0,0,-4,0,16.88
3377,-2,-1,0,-1,2,-3,-6,-2,16.885
3378,-1,-2,-2,-1,0,-5,1,0,16.89
3379,0,0,1,0,-1,5,4,-3,16.895
3380,4,0,0,-1,-3,0,1,8,16.9
3381,-2,-1,-2,-3,-1,3,2,-1,16.905
3382,0,-1,-1,1,-2,-3,-3,1,16.91
3383,-1,-2,0,-2,1,-4,-3,-3,16.915
3384,-2,0,-2,-1,0,1,3,-3,16.92
3385,-1,-1,0,-1,-3,0,-2,-1,16.925
3386,-2,-2,-1,0,-2,-1,-5,-3,16.93
3387,-2,-1,-2,0,-1,-1,2,0,16.935
3388,-1,-1,0,0,4,3,-4,-2,16.94
3389,0,-1,-2,0,-3,-8,1,-1,16.945
3390,-1,0,0,-2,-3,3,1,0,16.95
3391,0,-1,-3,-1,-1,-6,-4,0,16.955000000000002
3392,-1,0,-2,-2,-4,-1,3,-2,16.96
3393,-1,-1,-2,1,2,0,0,0,16.965
3394,-2,-1,-1,1,-2,0,-6,-2,16.97
3395,0,-2,-1,-1,0,-3,0,1,16.975
3396,0,-1,-2,-3,0,-4,-5,-2,16.98
3397,0,0,1,-2,-2,1,-2,-3,16.985
3398,0,0,-2,-2,-1,5,3,2,16.990000000000002
3399,-1,-1,-1,1,2,-1,0,0,16.995
3400,-2,0,-1,0,0,-3,-2,-1,17.0
3401,-1,-1,-1,1,1,-2,1,1,17.005
3402,-1,0,-1,-1,0,-1,-2,-1,17.01
3403,0,-1,-1,-1,-1,3,2,-3,17.015
3404,-2,-3,-3,-1,-2,-1,-3,-2,17.02
3405,0,-1,-4,-1,0,1,-3,-1,17.025
3406,0,-1,0,-3,-1,-1,-1,-1,17.03
3407,0,-1,-1,-1,-1,-2,-3,-1,17.035
3408,-1,-2,-1,0,-4,0,4,-1,17.04
3409,1,0,0,0,1,3,1,-1,17.045
3410,0,-1,1,-1,1,-4,-4,0,17.05
3411,-1,-2,0,-1,-2,0,2,-1,17.055
3412,-1,-3,-2,-1,-2,1,-1,-1,17.06
3413,-2,-2,0,1,-1,-5,-4,-1,17.065
3414,-3,0,-2,-2,-1,-3,-3,-1,17.07
3415,-1,0,0,-2,-1,-2,2,1,17.075
3416,-2,-2,-1,0,1,5,4,-1,17.080000000000002
3417,-1,-2,-1,-1,1,0,-6,-2,17.085
3418,-1,1,-1,1,0,1,-1,-2,17.09
3419,-1,-1,0,1,-2,-3,0,0,17.095
3420,3,1,0,0,1,-1,2,0,17.1
3421,-5,-3,-3,-3,-6,-4,-9,-2,17.105
3422,0,-1,0,0,1,6,5,-2,17.11
3423,-2,-3,-1,-2,-3,-2,-2,1,17.115000000000002
3424,1,1,2,1,-1,4,1,-1,17.12
3425,0,-1,-2,0,1,-3,-6,-1,17.125
3426,1,-1,0,-1,-1,-2,-1,-1,17.13
3427,-1,-2,-2,-1,3,0,2,-1,17.135
3428,-1,-2,-3,-3,-1,-3,-3,-6,17.14
3429,-1,0,1,-1,-1,-1,2,1,17.145
3430,2,-1,-1,-1,-3,-1,0,4,17.150000000000002
3431,0,0,-1,0,1,-2,-1,0,17.155
3432,-2,-1,0,-2,-3,0,-1,0,17.16
3433,0,0,-3,-2,-1,3,4,-3,17.165
3434,-4,-2,-1,-4,-1,-5,0,-2,17.17
3435,-1,0,-1,0,-1,-3,-11,-3,17.175
3436,-1,-1,0,0,0,1,-2,-2,17.18
3437,-1,-1,-3,-1,-2,-1,13,2,17.185
3438,1,-2,-2,2,2,7,2,0,17.19
3439,-1,-1,0,1,0,0,-1,-2,17.195
3440,-1,2,2,1,-1,-4,-13,-2,17.2
3441,0,-1,-1,-2,-1,7,14,1,17.205000000000002
3442,0,0,-1,-1,-1,-4,-5,-1,17.21
3443,-2,0,-3,-2,-1,-1,-2,-2,17.215
3444,-1,0,-2,-2,3,3,-1,1,17.22
3445,-2,0,0,-1,-6,0,2,-4,17.225
3446,-1,-1,0,-4,-2,-4,-2,4,17.23
3447,2,1,-1,-3,-1,5,0,1,17.235
3448,-1,-1,-1,-1,0,-3,-2,2,17.240000000000002
3449,2,0,-2,-1,3,-5,-3,-1,17.245
3450,-2,-2,-1,1,-2,-2,-2,-7,17.25
3451,1,2,1,-1,-1,-3,-4,-2,17.255
3452,-2,-1,-1,0,-3,-1,5,1,17.26
3453,-2,-3,-2,0,0,3,-4,-2,17.265
3454,-2,0,-3,-2,-5,5,3,-3,17.27
3455,-1,0,0,0,0,-6,-4,2,17.275000000000002
3456,2,-1,2,1,-1,-2,-2,-1,17.28
3457,-1,-2,0,0,-1,-3,-6,-1,17.285
3458,1,1,-1,-2,0,-3,3,1,17.29
3459,-2,1,0,0,-2,3,3,-2,17.295
3460,1,-1,-2,-2,-3,-7,-4,-2,17.3
3461,0,-2,-1,-1,1,-1,-6,1,17.305
3462,-1,-1,0,1,4,-1,2,-1,17.31
3463,-1,-1,-1,0,-6,0,-2,-1,17.315
3464,0,1,0,0,-2,-1,7,1,17.32
3465,-2,0,-1,-2,2,3,-7,-2,17.325
3466,-1,-3,-1,-1,-2,-1,1,-2,17.330000000000002
3467,-1,-1,-1,1,2,-1,-2,-4,17.335
3468,4,-2,-4,0,-3,-6,-1,7,17.34
3469,-3,1,1,-1,-1,-2,0,-1,17.345
3470,-1,-1,-1,-1,1,-2,-5,-2,17.35
3471,-1,-2,-1,-3,-1,-2,-1,1,17.355
3472,-3,-1,1,2,4,7,-1,-4,17.36
3473,0,-2,0,-1,0,-4,0,0,17.365000000000002
3474,-1,-1,-3,-1,-2,2,-4,-1,17.37
3475,-2,-2,0,0,-1,-1,4,0,17.375
3476,-2,-1,-3,-3,-3,0,1,-4,17.38
3477,1,-1,0,-2,-3,-4,-2,-1,17.385
3478,-1,2,-1,-2,-2,-6,-3,0,17.39
3479,2,0,-1,0,0,-3,0,0,17.395
3480,-3,-1,-2,0,2,0,-3,-1,17.400000000000002
3481,-1,1,-1,1,-4,0,6,0,17.405
3482,-2,-3,-3,-1,0,5,5,-1,17.41
3483,3,0,0,-2,0,-2,-2,-1,17.415
3484,0,-1,-2,-3,-2,-2,1,-1,17.42
3485,0,-1,-1,-1,-1,-5,-5,-2,17.425
3486,-1,0,1,1,1,0,-4,0,17.43
3487,-1,1,0,0,2,0,-4,1,17.435
3488,-2,-3,1,0,-3,2,2,-3,17.44
3489,-1,-3,-2,-2,1,2,0,-6,17.445
3490,-2,-3,-3,-2,-2,-2,2,5,17.45
3491,0,-1,-2,-2,1,1,1,0,17.455000000000002
3492,-1,1,-2,-1,-1,-3,1,1,17.46
3493,-3,2,0,-1,0,0,-3,0,17.465
