slno,emg1,emg2,emg3,emg4,emg5,emg6,emg7,emg8,Time
0,-1,-3,-2,-1,-1,0,-1,-3,0.0
1,0,0,-2,-1,0,1,1,-1,0.005
2,-2,-2,0,1,2,-2,-4,-1,0.01
3,-3,-3,-6,-2,1,-1,0,0,0.015
4,2,2,2,2,-1,2,2,3,0.02
5,-3,-2,1,-1,-2,-2,0,0,0.025
6,-5,-5,-4,-3,-3,-1,-2,-4,0.03
7,-2,2,4,2,2,-1,-1,-2,0.035
8,-1,0,-3,-2,-1,-3,-3,-1,0.04
9,2,3,-1,0,0,-3,1,1,0.045
10,0,-4,-2,-4,-3,-1,0,0,0.05
11,2,4,3,3,0,1,0,1,0.055
12,-3,-7,-2,-2,-1,0,-3,-4,0.06
13,-2,0,-1,-1,1,0,0,-3,0.065
14,0,2,1,-1,-2,1,-3,5,0.07
15,3,1,1,-2,-2,-1,3,0,0.075
16,3,7,3,1,2,0,-1,3,0.08
17,0,-4,-3,-2,-1,1,3,-1,0.085
18,3,12,1,4,1,-1,-4,0,0.09
19,-2,0,-1,1,-1,1,1,-1,0.095
20,-2,-3,-3,-2,-2,-1,-2,0,0.1
21,1,8,2,0,-2,0,-6,0,0.105
22,1,2,1,0,0,-2,0,-5,0.11
23,2,-2,-2,-1,-1,-1,3,3,0.115
24,-3,-3,-2,-3,0,-2,-1,8,0.12
25,1,0,-2,1,-1,-1,-2,-10,0.125
26,4,3,4,0,-1,-1,-4,4,0.13
27,-3,1,-3,-2,-1,1,6,-4,0.135
28,4,11,5,-1,-1,0,-2,-3,0.14
29,-5,-9,-2,0,0,0,1,6,0.145
30,-3,-3,0,0,-1,0,-2,-1,0.15
31,-1,-2,-2,-2,-2,-1,-5,-4,0.155
32,-2,-4,-3,-3,-4,-2,0,2,0.16
33,-2,-3,-5,-3,-2,-3,-2,-1,0.165
34,3,5,-4,1,0,-1,3,-1,0.17
35,-2,-2,1,-1,1,1,-2,0,0.17500000000000002
36,0,-2,-1,2,1,-1,-2,2,0.18
37,0,-1,1,1,0,-1,-6,-10,0.185
38,3,5,0,0,0,-1,5,0,0.19
39,-3,-7,-3,-1,-2,-1,-2,2,0.195
40,0,0,0,1,2,0,4,-2,0.2
41,-6,-8,-1,-1,-1,-1,-7,-8,0.20500000000000002
42,-4,-4,-2,-3,-4,-3,-6,3,0.21
43,-2,-4,-3,1,2,-1,0,0,0.215
44,-2,3,0,1,0,1,6,-2,0.22
45,0,1,0,-1,0,0,3,4,0.225
46,-2,-3,-4,0,1,2,2,-3,0.23
47,-2,1,2,-2,-1,-2,1,-1,0.23500000000000001
48,-2,-5,2,0,-1,-2,-8,-5,0.24
49,2,5,2,1,1,0,2,3,0.245
50,-3,-7,-1,-4,-4,-1,-1,-3,0.25
51,5,8,3,2,0,0,-8,0,0.255
52,-3,-4,-2,1,-1,-2,3,-6,0.26
53,0,0,-3,-2,-3,-1,3,3,0.265
54,3,7,4,3,1,1,-3,-3,0.27
55,-5,-10,-4,0,-2,-3,4,3,0.275
56,-3,-2,0,-2,-1,1,-1,-2,0.28
57,-1,2,0,0,0,-1,-3,-2,0.28500000000000003
58,-1,6,2,-2,0,0,1,7,0.29
59,4,6,2,0,-3,-2,-3,-9,0.295
60,4,-1,-5,0,-2,-1,-1,3,0.3
61,-3,-8,-3,-1,-2,0,2,0,0.305
62,-4,-11,-3,-6,-3,1,-2,-2,0.31
63,1,1,1,-2,0,-1,-1,-2,0.315
64,-1,1,-1,-1,-1,-2,-4,-3,0.32
65,-3,0,2,-1,0,0,3,4,0.325
66,-1,2,1,0,1,-1,3,-2,0.33
67,1,3,-2,-1,-2,-1,-4,-4,0.335
68,3,2,1,-1,-1,-1,0,4,0.34
69,2,1,-3,-1,0,-1,-2,-9,0.34500000000000003
70,-1,-3,3,2,0,0,0,7,0.35000000000000003
71,3,12,4,2,-1,2,2,3,0.355
72,2,5,-1,-1,-1,2,-9,-1,0.36
73,1,3,2,1,0,-1,4,-1,0.365
74,-6,-8,-6,-3,-2,-2,0,-8,0.37
75,0,-1,-1,-3,0,0,7,2,0.375
76,-4,-8,-5,-2,-3,-3,-1,-6,0.38
77,2,0,-1,-2,-2,-3,-4,-3,0.385
78,3,3,-2,2,-1,-1,-4,-1,0.39
79,-3,-5,0,-1,-2,-2,-4,-4,0.395
80,-5,-8,-5,-4,-1,-2,0,3,0.4
81,-2,-3,3,2,2,1,-1,8,0.405
82,-7,-10,-5,-3,-3,-1,0,-13,0.41000000000000003
83,-2,-7,-3,-5,-2,0,3,0,0.41500000000000004
84,4,-2,1,-1,0,-2,-1,-3,0.42
85,0,1,-1,-1,-1,-1,-3,1,0.425
86,0,-5,-4,-1,0,-2,-3,-1,0.43
87,-4,-11,-4,-2,-2,-2,-4,-2,0.435
88,-3,-2,-1,0,-1,1,0,-2,0.44
89,-2,-4,-6,-7,-4,-6,-10,-3,0.445
90,-2,-9,1,0,0,-2,2,0,0.45
91,-1,3,2,-3,-5,-2,1,2,0.455
92,-2,-7,-3,-3,0,1,2,0,0.46
93,-1,-2,1,-2,-2,1,4,2,0.465
94,1,-1,-3,-1,-2,-4,-11,-2,0.47000000000000003
95,-2,-4,0,0,0,-4,2,0,0.47500000000000003
96,0,0,1,0,-2,-2,-3,-2,0.48
97,-2,-1,-2,0,1,2,3,0,0.485
98,-2,2,1,0,-1,0,-1,0,0.49
99,0,2,4,4,2,1,-2,-7,0.495
100,-2,1,-4,-2,-1,-2,1,13,0.5
101,-4,-8,3,2,0,-3,-5,-14,0.505
102,1,4,0,1,0,0,5,2,0.51
103,-3,-4,-5,-4,-3,-1,4,1,0.515
104,2,5,4,4,0,1,-6,-4,0.52
105,4,5,-5,-2,-2,-6,-3,3,0.525
106,5,7,2,0,0,2,-3,6,0.53
107,0,2,-3,-2,1,-1,0,-2,0.535
108,-3,-6,-1,0,1,1,3,0,0.54
109,-4,2,1,0,-1,1,-5,-4,0.545
110,2,10,5,2,0,-1,2,1,0.55
111,-3,-5,-2,-1,-1,-1,-2,-1,0.555
112,4,7,-1,1,0,-2,-1,5,0.56
113,-5,-5,1,1,-1,-1,4,2,0.5650000000000001
114,-2,-2,1,-3,0,3,-2,-2,0.5700000000000001
115,1,4,1,-1,-1,0,0,-1,0.5750000000000001
116,-2,-8,-8,-6,-3,-1,-1,-9,0.58
117,2,3,4,-1,0,-1,-3,1,0.585
118,-2,-10,-2,-3,-2,-2,-2,-2,0.59
119,-4,-1,-2,-2,-3,2,-4,-1,0.595
120,-1,-1,-3,-1,-2,-1,2,-4,0.6
121,3,3,-1,0,1,1,7,2,0.605
122,0,-3,-1,1,0,-2,-2,-1,0.61
123,1,-3,-3,2,0,-3,-5,0,0.615
124,0,1,1,0,-1,-1,-3,-2,0.62
125,1,2,-2,-2,1,0,-2,-1,0.625
126,-3,-6,-2,-2,-3,-1,2,0,0.63
127,1,3,2,0,1,1,-5,-1,0.635
128,-3,-1,-4,-1,1,-1,1,2,0.64
129,-1,2,2,0,2,2,-3,-1,0.645
130,1,3,-1,-2,-3,-3,3,15,0.65
131,2,1,-5,1,0,-1,-3,-17,0.655
132,-4,-3,3,2,-2,-1,3,0,0.66
133,3,8,2,1,-1,-2,-1,-3,0.665
134,-2,-2,0,1,1,1,-4,0,0.67
135,1,2,4,-1,-2,-1,0,5,0.675
136,-5,-3,4,-1,1,0,-1,-5,0.68
137,1,0,-1,-2,0,1,-1,5,0.685
138,-4,-7,-2,-1,-1,-1,-3,-5,0.6900000000000001
139,-1,-3,-2,1,0,1,4,4,0.6950000000000001
140,-1,-8,-2,-2,-4,-3,-3,-7,0.7000000000000001
141,-6,-9,0,-2,-3,-2,-3,0,0.705
142,2,5,-2,-1,0,1,1,-3,0.71
143,0,2,1,3,3,2,-1,1,0.715
144,0,3,-4,-2,0,-3,-4,1,0.72
145,-3,-4,-1,2,0,-1,2,-2,0.725
146,-4,-10,-5,-1,1,1,0,-3,0.73
147,3,-3,0,-2,-1,-2,-2,1,0.735
148,4,5,2,1,0,2,5,2,0.74
149,1,-2,0,0,0,-1,-3,0,0.745
150,2,9,-1,-3,-3,-3,-2,-4,0.75
151,-1,-1,0,0,-1,-1,-1,1,0.755
152,0,3,3,-2,-1,-1,-2,0,0.76
153,-3,-9,-3,-2,-2,0,0,-2,0.765
154,0,-1,0,0,2,0,1,0,0.77
155,2,11,0,-2,0,1,0,6,0.775
156,0,0,1,0,-1,0,0,-8,0.78
157,-1,-2,-5,-4,-2,1,2,0,0.785
158,-1,0,-1,1,1,-1,-1,-3,0.79
159,-2,-4,-3,-4,-1,-2,-5,2,0.795
160,2,4,1,3,-1,-1,1,-2,0.8
161,-3,-7,-2,-1,-3,-3,-3,-1,0.805
162,0,-2,2,-2,-1,-1,-2,-1,0.81
163,-1,-2,-2,-3,-3,0,3,-3,0.8150000000000001
164,-2,-4,-4,-4,-4,-1,-3,1,0.8200000000000001
165,1,6,1,-1,-1,-1,1,-2,0.8250000000000001
166,3,-2,-2,-2,0,0,-2,1,0.8300000000000001
167,-2,1,5,1,1,-2,1,-1,0.835
168,-1,2,-3,-1,0,-1,-1,0,0.84
169,3,1,-1,1,0,1,1,0,0.845
170,-3,-5,-1,0,1,-2,-1,-3,0.85
171,-2,0,1,0,-1,0,-2,0,0.855
172,0,2,2,0,0,0,-2,1,0.86
173,1,-3,-5,-4,-4,-1,-2,1,0.865
174,0,1,-1,0,-2,-3,-8,-4,0.87
175,-3,-5,-4,-2,-1,-2,-4,-7,0.875
176,-1,1,-1,-1,-1,3,13,3,0.88
177,3,4,-3,-1,0,1,4,1,0.885
178,-1,2,1,-1,1,-2,-5,0,0.89
179,-1,-5,-6,-5,-3,-3,-3,-4,0.895
180,-1,-5,-3,-2,-1,-1,-5,0,0.9
181,1,5,0,-2,-1,-1,-1,4,0.905
182,-3,0,0,-2,-2,-1,3,-1,0.91
183,-1,-6,-1,3,-2,-2,-3,-2,0.915
184,4,3,1,-1,1,0,-2,1,0.92
185,-5,-6,1,0,-1,1,1,-7,0.925
186,1,3,-4,-4,-3,-1,-1,0,0.93
187,-2,0,1,-2,0,0,1,-1,0.935
188,-9,-21,-6,-2,-3,-3,-1,-1,0.9400000000000001
189,-4,-3,-1,-1,-3,-1,-5,-4,0.9450000000000001
190,3,1,-2,-1,-2,-1,4,1,0.9500000000000001
191,0,-4,0,1,1,1,0,2,0.9550000000000001
192,1,-1,-1,-1,-1,-4,-10,-4,0.96
193,1,1,0,-1,0,0,5,1,0.965
194,-4,-8,0,1,0,1,3,-2,0.97
195,0,-4,-3,-1,-1,-1,-5,1,0.975
196,-2,-6,-1,1,1,-1,4,0,0.98
197,0,-2,1,0,-1,-2,-11,7,0.985
198,-1,-5,-6,-2,-3,-1,7,-16,0.99
199,1,1,1,3,4,2,4,7,0.995
200,2,12,0,-1,-1,0,-4,-4,1.0
201,0,0,0,0,1,-2,-1,5,1.0050000000000001
202,0,1,0,0,0,0,-1,1,1.01
203,-1,3,2,-2,2,-2,-4,-4,1.0150000000000001
204,0,-2,-4,-3,-2,-1,-3,4,1.02
205,1,6,1,1,1,0,0,-4,1.025
206,-3,-4,-3,-2,-2,1,1,4,1.03
207,-1,1,-1,-3,-2,-2,-4,-1,1.035
208,-1,2,2,1,2,0,2,3,1.04
209,0,0,-2,0,-2,-3,-1,-5,1.045
210,-4,-7,1,0,-2,-2,-2,1,1.05
211,0,-3,0,0,-4,1,0,1,1.055
212,-1,-5,-3,0,-2,0,2,-5,1.06
213,2,1,-3,0,1,0,-1,-2,1.065
214,3,16,2,-1,0,-2,1,2,1.07
215,-1,-4,0,0,-1,0,0,1,1.075
216,-3,-5,-1,-1,0,-2,-8,-3,1.08
217,-4,-4,-2,-4,-2,-2,7,-2,1.085
218,2,1,-2,-2,-2,0,-3,2,1.09
219,-1,3,1,-2,0,-3,1,-2,1.095
220,1,4,1,-4,-4,-1,-2,-1,1.1
221,-3,-2,2,2,1,2,3,1,1.105
222,-1,0,2,1,2,0,-2,0,1.11
223,-4,-7,-7,-5,-3,-4,0,-2,1.115
224,2,0,-1,-2,-2,0,2,0,1.12
225,-3,-6,-3,-1,-1,-3,-4,-1,1.125
226,0,-1,-2,0,-1,1,0,1,1.1300000000000001
227,0,-1,1,3,-1,0,-1,-2,1.135
228,-1,3,1,1,0,-2,0,-2,1.1400000000000001
229,2,3,0,-1,-1,-2,-2,0,1.145
230,0,1,1,-1,0,-2,0,0,1.1500000000000001
231,2,1,-3,-1,-2,-2,-3,-3,1.155
232,2,3,5,0,-1,-1,-3,2,1.16
233,-2,-1,1,0,2,0,3,0,1.165
234,-3,-7,-3,-2,-1,-4,-7,-3,1.17
235,-5,0,0,-1,0,1,12,5,1.175
236,-2,0,-2,0,-1,-1,3,-11,1.18
237,2,2,1,-2,0,0,-3,-1,1.185
238,0,6,0,0,-2,0,-7,0,1.19
239,0,-2,0,0,0,0,0,-1,1.195
240,-2,-9,-3,-1,1,-1,3,0,1.2
241,-5,-1,-3,-1,-4,-2,0,-3,1.205
242,-1,-2,1,-2,0,-1,-1,-2,1.21
243,-5,-10,-2,-2,-4,-3,-7,-1,1.215
244,1,4,1,-2,-1,1,3,3,1.22
245,1,5,1,-3,-3,-1,-2,-3,1.225
246,-3,-4,0,1,1,0,4,0,1.23
247,4,10,3,2,2,0,-1,0,1.235
248,-5,0,3,2,-1,-1,-4,-1,1.24
249,-1,-5,-5,-2,-2,-1,0,-1,1.245
250,1,5,-1,0,0,-1,4,-2,1.25
251,0,2,-1,-1,1,0,-1,0,1.2550000000000001
252,2,2,-1,-2,-1,1,-2,-1,1.26
253,-6,-6,-2,-2,-1,0,-1,-2,1.2650000000000001
254,4,12,2,0,-2,-1,0,-2,1.27
255,-1,-2,-5,-4,-4,-3,-5,-12,1.2750000000000001
256,1,0,0,-2,1,1,4,9,1.28
257,0,4,3,1,0,1,2,3,1.285
258,-4,-10,-4,-1,-3,-2,0,1,1.29
259,-3,0,1,-1,0,0,-9,-1,1.295
260,-1,-1,-1,0,-2,-3,6,-5,1.3
261,-2,-7,-5,-2,-1,-1,-2,-4,1.305
262,1,0,2,0,-1,0,0,1,1.31
263,3,5,0,1,-1,-2,0,-2,1.315
264,-2,-5,-4,-3,-2,-2,-11,-2,1.32
265,2,1,0,1,1,1,8,2,1.325
266,-5,-2,-2,-4,-4,-1,3,0,1.33
267,-3,-1,-2,-3,-3,0,0,11,1.335
268,1,3,0,0,-3,0,-4,-25,1.34
269,4,5,1,-2,0,-1,-5,1,1.345
270,-1,-3,-3,-1,1,-1,0,-8,1.35
271,0,-3,-3,1,-2,-1,4,8,1.355
272,-5,-2,-1,0,1,-2,-3,7,1.36
273,-1,-2,-1,-2,-3,-4,-1,-4,1.365
274,2,4,0,2,-2,-3,-1,-1,1.37
275,0,4,0,-1,-1,0,-4,-4,1.375
276,0,-3,-5,-1,-1,-1,3,2,1.3800000000000001
277,0,5,1,1,0,1,-4,-2,1.385
278,0,0,1,1,2,0,3,3,1.3900000000000001
279,-2,-6,-4,-4,-1,1,1,-3,1.395
280,-3,-6,-2,0,0,0,-3,2,1.4000000000000001
281,-3,-2,-2,-3,-2,-3,-3,-2,1.405
282,-1,-6,-1,-3,-2,0,1,1,1.41
283,3,2,2,1,0,-1,-2,-3,1.415
284,2,1,0,2,2,-2,-1,-2,1.42
285,-3,-9,-1,0,-1,1,1,-1,1.425
286,-1,-3,-2,2,0,-1,-4,-1,1.43
287,1,5,0,1,0,-1,2,-3,1.435
288,0,-1,-1,-4,-3,-1,0,3,1.44
289,0,4,2,0,0,1,1,-4,1.445
290,-3,-7,-6,-4,-3,-2,-4,3,1.45
291,0,5,2,1,0,0,-5,-2,1.455
292,4,6,1,0,-1,-1,4,2,1.46
293,0,-5,-3,1,2,2,1,1,1.465
294,-8,-10,-1,0,1,2,2,-8,1.47
295,-2,-3,-3,-2,-1,-2,0,0,1.475
296,-1,3,0,0,-2,0,-7,3,1.48
297,1,0,2,-2,-3,-1,2,1,1.485
298,0,0,-5,1,-1,-1,0,0,1.49
299,-3,-12,-3,-3,-2,-2,-4,-4,1.495
300,-3,-1,-1,0,1,-2,-1,-3,1.5
301,4,11,-4,-3,-1,1,3,2,1.5050000000000001
302,5,9,4,-1,-1,0,-1,2,1.51
303,-5,-3,3,1,1,1,1,-2,1.5150000000000001
304,-3,-5,-3,-2,-1,1,-2,0,1.52
305,-2,-1,1,0,-2,-3,-3,-1,1.5250000000000001
306,1,1,0,-1,-2,-1,-2,-2,1.53
307,3,5,1,1,-2,-1,1,-2,1.5350000000000001
308,1,0,-5,-5,-2,-2,0,-1,1.54
309,0,-1,1,0,-1,-3,-2,-2,1.545
310,0,-2,1,0,3,0,-1,1,1.55
311,-2,-2,-1,-2,-1,-1,-1,1,1.555
312,-3,4,5,1,-1,-2,1,-8,1.56
313,-6,-7,-3,-2,-1,-3,-4,6,1.565
314,0,-2,-5,-3,-3,-1,3,3,1.57
315,1,2,0,-3,-1,2,3,4,1.575
316,3,4,2,3,1,-1,-2,-6,1.58
317,-3,-2,-2,-2,0,-3,-8,-9,1.585
318,-4,-9,0,-4,-2,0,-2,-5,1.59
319,-2,-6,-3,-1,-3,-1,5,4,1.595
320,-3,-4,-3,-2,0,0,-1,2,1.6
321,0,-2,0,-2,-2,-1,-5,-1,1.605
322,-2,-3,-1,-1,-2,0,-1,-1,1.61
323,0,2,-1,-1,0,0,2,-7,1.615
324,-1,-5,-4,-1,-2,0,0,3,1.62
325,-4,-10,-1,0,-2,1,1,0,1.625
326,-1,4,2,0,0,-2,-5,-1,1.6300000000000001
327,-3,-3,-1,-1,0,-2,-7,-3,1.635
328,1,2,-1,0,1,0,3,2,1.6400000000000001
329,2,2,1,-1,-1,0,1,0,1.645
330,-5,-4,-3,0,0,1,1,-2,1.6500000000000001
331,0,-2,0,3,0,0,1,1,1.655
332,2,4,0,-2,-2,0,-5,1,1.6600000000000001
333,1,-1,2,1,1,1,0,-2,1.665
334,-3,-3,-3,1,-3,-1,0,0,1.67
335,-3,0,-1,-1,-1,-1,0,-2,1.675
336,2,-2,0,1,1,1,-4,2,1.68
337,2,1,-2,1,-1,-1,5,1,1.685
338,2,3,-1,0,-1,-1,-3,0,1.69
339,-3,-9,-4,-2,0,-1,-1,-2,1.695
340,-1,4,3,1,0,-1,0,-1,1.7
341,2,12,-2,-3,-1,-2,-3,-1,1.705
342,0,2,-1,-2,0,-1,0,5,1.71
343,6,9,3,2,2,0,1,-3,1.715
344,-9,-12,-1,0,1,-1,4,-1,1.72
345,-5,-13,-5,-4,-2,-1,-3,0,1.725
346,0,2,-2,-3,-3,-3,1,-3,1.73
347,-3,-5,-4,-3,-2,1,-1,5,1.735
348,2,2,-3,0,0,-2,-4,2,1.74
349,-1,2,-4,-1,-2,-1,4,1,1.745
350,-1,-2,-2,1,-1,0,1,-4,1.75
351,1,6,-2,-2,0,0,1,10,1.7550000000000001
352,-5,-13,-2,-1,-2,-1,-5,-15,1.76
353,2,4,1,0,-1,-1,0,-1,1.7650000000000001
354,2,4,2,0,0,0,0,-1,1.77
355,-2,-3,3,2,0,-1,0,-3,1.7750000000000001
356,-1,1,-3,-1,-1,1,2,6,1.78
357,-2,3,3,4,1,-1,-2,-1,1.7850000000000001
358,0,-2,0,3,0,-2,-2,-2,1.79
359,0,-2,-1,-1,-3,-3,-10,-1,1.795
360,-3,-5,-4,-2,-3,0,6,-1,1.8
361,-1,-5,0,0,1,1,0,-3,1.805
362,-1,-3,0,-1,3,0,-1,2,1.81
363,0,2,-1,1,0,0,-3,-11,1.815
364,8,18,2,-1,-4,-5,-9,4,1.82
365,0,-1,-2,-2,-3,-1,-1,4,1.825
366,-4,1,3,-3,-1,1,5,-2,1.83
367,0,-3,-2,2,1,1,6,-2,1.835
368,-1,2,0,0,-1,-1,-1,-5,1.84
369,-4,-6,-3,0,0,0,-5,0,1.845
370,-1,-4,-5,-2,-4,-3,-4,4,1.85
371,-2,-1,0,-3,-2,0,2,-2,1.855
372,-4,-7,-2,-2,-3,-2,0,0,1.86
373,3,4,0,2,0,-1,1,-3,1.865
374,1,7,4,1,-1,-1,-8,-5,1.87
375,0,-4,-4,-3,-2,0,7,17,1.875
376,-1,-4,-6,-1,-1,-4,-3,-20,1.8800000000000001
377,0,-3,-2,-1,0,0,2,-1,1.885
378,2,8,-1,1,-1,0,-1,-4,1.8900000000000001
379,0,4,0,-2,-2,-4,0,2,1.895
380,0,-2,3,0,-1,1,3,6,1.9000000000000001
381,-4,-4,-1,-4,-1,-2,-4,-1,1.905
382,-2,-6,-2,-2,0,0,-4,1,1.9100000000000001
383,-4,-7,-1,-3,0,-1,-1,0,1.915
384,-10,-23,-7,-2,-1,0,-9,-7,1.92
385,4,1,-2,-1,-3,-1,9,-1,1.925
386,-2,-4,-3,-2,-1,-1,2,3,1.93
387,-6,-11,-6,-3,-2,-1,-3,-6,1.935
388,3,5,2,0,1,0,2,0,1.94
389,1,1,-2,-1,0,-1,-6,7,1.945
390,5,6,4,2,0,-1,0,0,1.95
391,-2,2,-3,-1,1,-2,-2,-7,1.955
392,-2,-2,-1,0,0,1,-3,2,1.96
393,-4,-5,-2,-3,-1,-2,-2,-5,1.965
394,-2,0,-1,-4,0,0,0,-1,1.97
395,1,4,1,2,0,-3,-4,-5,1.975
396,-2,2,2,1,1,1,6,-5,1.98
397,-3,-2,4,0,1,-1,1,6,1.985
398,-6,-19,-9,-3,-2,-1,-5,-1,1.99
399,0,0,2,2,-1,0,3,-1,1.995
400,2,0,-1,-3,-1,0,-2,4,2.0
401,-1,1,-2,2,0,0,0,-4,2.005
402,-1,1,2,2,-1,-2,-2,-3,2.0100000000000002
403,-3,-10,-5,-3,-3,-2,-2,-1,2.015
404,-5,1,3,2,1,0,4,5,2.02
405,-2,0,0,-3,1,0,0,-2,2.025
406,0,2,-1,0,-1,-2,-3,1,2.0300000000000002
407,2,6,-1,2,3,2,-2,-5,2.035
408,3,4,4,1,1,-2,3,4,2.04
409,-3,-5,-4,0,0,-2,-2,-2,2.045
410,0,6,-1,-4,-3,0,1,0,2.05
411,1,3,-2,-1,-4,0,3,-1,2.055
412,3,13,0,-2,-1,-1,-1,2,2.06
413,0,-1,-2,1,-2,0,-2,0,2.065
414,-2,0,-1,-2,-1,-4,-9,10,2.07
415,0,4,1,-1,1,1,11,-11,2.075
416,1,-7,-5,-1,-2,-1,0,3,2.08
417,0,3,1,-2,-2,-2,-2,-1,2.085
418,0,0,1,1,1,0,2,-5,2.09
419,-3,-5,1,0,-3,1,-2,4,2.095
420,-2,2,-3,0,0,-2,2,0,2.1
421,-2,-2,1,1,0,-1,-1,-4,2.105
422,1,-8,-3,-1,-1,-2,-1,1,2.11
423,0,-6,-3,-1,-2,-2,-6,0,2.115
424,2,3,-2,-2,-2,-2,0,-2,2.12
425,0,2,-2,-1,1,-3,-2,1,2.125
426,-1,0,1,1,0,1,2,-2,2.13
427,-1,4,1,-1,-2,-1,-1,0,2.1350000000000002
428,0,-5,0,-2,-2,-1,-3,1,2.14
429,-1,1,1,0,-2,0,-1,-2,2.145
430,-2,-6,-1,0,0,1,5,-1,2.15
431,1,1,1,-2,-2,-1,-3,-9,2.1550000000000002
432,-1,-2,1,-2,-1,-1,0,5,2.16
433,-3,-1,-1,-1,-2,0,-2,-2,2.165
434,1,1,0,0,-3,0,2,-3,2.17
435,-2,-2,-1,-1,-1,-2,-3,2,2.1750000000000003
436,1,1,2,1,0,1,-2,-2,2.18
437,-1,-3,-4,-2,1,-1,0,-2,2.185
438,-7,-12,-2,1,0,-2,5,-1,2.19
439,-1,2,1,-1,-1,-2,-4,3,2.195
440,-3,-4,-2,-4,-1,-1,3,-1,2.2
441,1,6,0,-2,-1,-1,-2,2,2.205
442,4,5,2,3,2,1,-1,-2,2.21
443,0,4,2,2,1,1,-1,-2,2.215
444,-2,-4,-3,-4,-3,0,-12,-1,2.22
445,-3,-3,0,-2,-3,1,13,-1,2.225
446,2,12,1,-2,-1,-1,-1,-10,2.23
447,-6,-14,-6,-4,-3,-1,-3,7,2.235
448,-2,-6,-2,-2,-1,0,0,5,2.24
449,-4,-5,-2,-1,1,0,-6,-8,2.245
450,1,0,-3,-1,-2,-2,-2,-7,2.25
451,1,-1,-1,-1,0,-2,-3,-4,2.255
452,-1,-2,0,-3,-3,-4,-4,3,2.2600000000000002
453,-2,-8,1,3,1,2,10,5,2.265
454,-2,-4,-2,1,2,-1,1,-2,2.27
455,-1,-1,-3,-2,0,-1,-3,2,2.275
456,-2,-3,-3,0,1,-3,-1,-4,2.2800000000000002
457,3,4,2,-1,-1,0,-5,-1,2.285
458,1,0,-4,-5,-2,1,-1,1,2.29
459,0,-2,-1,2,0,0,-4,-1,2.295
460,0,0,0,1,1,0,0,-5,2.3000000000000003
461,-1,3,0,1,-1,1,2,2,2.305
462,-2,-8,-4,-2,-2,0,-5,7,2.31
463,0,1,1,-1,-1,-1,7,-1,2.315
464,0,0,1,1,-2,0,-1,-5,2.32
465,0,3,-1,-1,-2,-3,-5,-2,2.325
466,-4,0,4,0,2,0,-3,-7,2.33
467,-1,-4,0,0,0,-1,-2,3,2.335
468,-2,-6,-1,-1,1,0,2,5,2.34
469,-3,-13,-5,-4,-2,0,-2,3,2.345
470,1,5,0,-1,-2,-1,4,3,2.35
471,0,4,-2,-2,-1,0,2,-5,2.355
472,-1,-2,-3,3,2,1,1,0,2.36
473,-4,-3,0,0,-1,-3,-6,1,2.365
474,-2,-3,0,-1,1,0,-2,-2,2.37
475,1,4,0,-1,-3,-1,-1,1,2.375
476,-1,5,-1,-3,-2,0,-2,-1,2.38
477,0,0,-2,-2,0,-1,-1,-4,2.3850000000000002
478,-3,-5,-3,-2,-2,-2,0,0,2.39
479,-3,-3,-1,0,1,1,0,-2,2.395
480,1,-2,-3,0,-1,-2,-2,-4,2.4
481,-2,-4,0,-1,0,-1,1,11,2.4050000000000002
482,-3,4,0,-3,0,-3,-7,-10,2.41
483,3,-2,-2,-1,1,0,6,6,2.415
484,1,3,1,-1,0,-1,-4,-2,2.42
485,1,1,2,1,-1,1,7,-4,2.4250000000000003
486,0,0,1,-2,-2,-2,-3,5,2.43
487,-3,-4,-1,-2,-2,-2,-3,-2,2.435
488,-3,-2,-3,-1,-2,-1,-6,-3,2.44
489,3,6,0,1,0,-1,4,3,2.445
490,-1,-7,-6,-1,-3,0,1,-2,2.45
491,4,7,4,1,1,-1,-1,-5,2.455
492,1,2,0,3,0,-2,2,4,2.46
493,-3,-6,-2,-4,-3,-1,-8,-5,2.465
494,3,5,0,0,-1,-2,0,2,2.47
495,-2,-3,0,0,-2,0,-2,0,2.475
496,0,0,1,-1,-1,1,3,-2,2.48
497,-2,-2,-3,-1,0,-1,-3,-15,2.485
498,-1,1,0,-2,0,0,-1,6,2.49
499,-6,-14,-6,-1,-1,1,1,4,2.495
500,-1,0,-1,-1,1,-1,-1,-4,2.5
501,1,2,-2,0,-1,-1,-3,0,2.505
502,-3,-4,0,-3,-2,-1,2,4,2.5100000000000002
503,1,5,2,1,0,-1,-3,-2,2.515
504,-1,2,4,3,-1,2,4,2,2.52
505,3,2,3,2,2,0,-2,-3,2.525
506,-3,1,-4,1,1,-1,-4,-5,2.5300000000000002
507,-3,-4,0,-2,-2,-1,-4,-1,2.535
508,-6,-11,-3,-2,0,-1,-2,-4,2.54
509,-2,1,2,-2,0,-2,5,3,2.545
510,0,-1,1,1,1,1,8,4,2.5500000000000003
511,7,11,-3,0,-1,-2,-3,4,2.555
512,2,-1,-3,0,0,-1,2,-1,2.56
513,-2,0,-3,-4,-1,1,-7,-1,2.565
514,-3,-1,3,0,-1,1,-4,-1,2.57
515,-4,-3,2,0,-1,-2,2,-4,2.575
516,-1,-5,-3,-4,-2,-2,-2,-2,2.58
517,-1,-1,-1,-1,-1,-1,-3,2,2.585
518,-1,-4,0,1,-1,-2,1,-2,2.59
519,1,5,1,-1,0,0,-1,-2,2.595
520,2,7,2,-1,-3,-2,0,-1,2.6
521,-3,-10,-5,-1,-1,-1,-1,-1,2.605
522,0,-2,0,-1,-1,1,-1,-1,2.61
523,-1,4,-2,-2,-3,-2,-6,-5,2.615
524,0,-1,0,-1,0,1,-1,1,2.62
525,2,0,2,-1,-1,-3,3,2,2.625
526,-4,-3,-3,-2,1,0,1,5,2.63
527,-2,1,-3,-2,0,-1,2,-2,2.6350000000000002
528,-1,2,-2,-1,-2,0,1,0,2.64
529,4,9,1,-1,-2,-1,-6,-4,2.645
530,1,-2,-3,0,0,-1,-2,-6,2.65
531,-3,-3,1,-1,1,-2,-2,-5,2.6550000000000002
532,0,-3,-3,-4,-1,-2,-4,-5,2.66
533,0,1,0,1,0,0,-4,-1,2.665
534,0,-3,-4,-3,-1,-1,3,-3,2.67
535,-1,-1,-5,-1,-3,0,0,3,2.6750000000000003
536,-1,0,1,2,-1,-1,0,0,2.68
537,1,-2,2,2,-2,-1,0,2,2.685
538,-2,-4,-6,-4,-3,-2,-4,2,2.69
539,1,1,2,2,2,-1,-1,-1,2.695
540,-1,4,6,2,1,-2,-7,-1,2.7
541,-3,-2,-4,-2,0,2,10,-1,2.705
542,-2,-4,0,2,1,-1,-4,-7,2.71
543,1,-2,-2,-2,0,0,8,5,2.715
544,2,1,-3,0,-1,-2,-1,1,2.72
545,-7,-7,-3,-3,-3,-2,-6,-2,2.725
546,2,2,1,-2,-1,0,-7,-2,2.73
547,-1,-1,-2,-2,-1,-1,5,-5,2.735
548,-2,-2,-3,-4,-2,-1,-1,-1,2.74
549,-3,-5,-3,-1,0,-2,0,13,2.745
550,-1,1,1,-2,-3,-2,-2,-19,2.75
551,1,2,2,1,-1,0,-5,1,2.755
552,-2,-5,0,-1,0,0,2,0,2.7600000000000002
553,3,6,1,-1,-1,-2,-3,-5,2.765
554,-2,-3,0,-2,0,-1,-2,2,2.77
555,-4,-10,-5,-4,-2,-2,-1,1,2.775
556,0,3,-2,-1,0,-1,2,-3,2.7800000000000002
557,0,-4,-1,1,-1,-1,-9,-3,2.785
558,-1,-6,-1,2,-1,-2,4,5,2.79
559,-2,-2,-2,-2,-1,-2,-4,-4,2.795
560,-1,-4,-3,-1,0,1,1,3,2.8000000000000003
561,-2,0,-1,-3,0,-1,0,-4,2.805
562,2,8,2,-1,-2,1,-2,3,2.81
563,0,0,0,1,-1,0,-4,-3,2.815
564,-2,-3,-2,-1,-2,-3,-1,-2,2.82
565,2,9,1,1,0,-1,0,0,2.825
566,-3,-5,-1,0,-1,0,2,1,2.83
567,-1,3,-1,0,-1,1,-4,-1,2.835
568,0,2,-1,-1,0,0,3,2,2.84
569,-3,-4,-3,-4,-3,-2,-3,-5,2.845
570,-2,-2,-2,-1,-2,-1,1,-1,2.85
571,2,3,3,-1,1,0,1,5,2.855
572,-1,-1,0,-1,-1,0,-1,-2,2.86
573,2,8,1,-2,-2,-2,0,1,2.865
574,-3,2,0,1,0,-2,-5,3,2.87
575,-3,-2,-1,-3,-3,-1,-1,-19,2.875
576,1,-3,-4,-3,-2,2,5,6,2.88
577,3,5,3,0,0,0,4,-1,2.8850000000000002
578,1,2,-5,-5,-3,-1,-2,1,2.89
579,-3,-3,1,2,2,-2,-5,-2,2.895
580,1,6,5,1,-2,-2,-10,-2,2.9
581,-3,-4,0,1,0,1,9,-2,2.9050000000000002
582,2,2,-2,2,-2,-2,-2,-1,2.91
583,1,2,0,3,1,-1,1,3,2.915
584,2,1,-2,-2,0,-2,-5,-4,2.92
585,-1,1,1,0,1,-1,-6,2,2.9250000000000003
586,1,2,3,1,1,2,3,1,2.93
587,1,1,0,-1,1,0,2,2,2.935
588,-1,0,1,2,0,-1,-1,-2,2.94
589,-2,1,-1,0,-1,1,-4,-4,2.945
590,-1,-7,-8,-3,-2,-2,-1,0,2.95
591,1,5,1,0,1,1,-3,1,2.955
592,-2,-3,0,2,2,0,2,-1,2.96
593,-5,-8,-1,1,1,-2,0,11,2.965
594,-4,0,0,-2,-3,-3,4,-21,2.97
595,-2,-5,-5,-1,-4,0,-1,4,2.975
596,-5,-3,0,-1,-2,-3,0,-3,2.98
597,2,2,2,2,1,0,0,1,2.985
598,-6,-11,-1,0,0,0,-2,3,2.99
599,-3,-2,-2,-1,-2,-1,-4,-13,2.995
600,2,0,-2,-2,-2,-2,1,7,3.0
601,2,-3,-2,-3,-2,-1,0,-2,3.005
602,-1,-3,-4,-3,-1,-1,7,8,3.0100000000000002
603,0,0,2,-1,-1,-1,0,-1,3.015
604,-3,-5,1,-1,-2,-2,0,0,3.02
605,-3,-3,-2,0,-1,0,-3,-7,3.025
606,-1,-1,-2,-4,-1,-2,-4,-3,3.0300000000000002
607,3,4,1,0,-1,-1,3,3,3.035
608,-4,-6,-3,-1,-1,1,-2,-4,3.04
609,0,-4,-4,-2,-1,0,-4,-6,3.045
610,3,14,4,0,-2,-1,-1,6,3.0500000000000003
611,-5,-7,-1,-1,-2,-2,-2,0,3.055
612,-2,-4,-4,-3,-3,-2,-2,3,3.06
613,-1,-7,-1,-2,-1,-2,3,-5,3.065
614,-2,-3,-1,0,1,1,-3,-2,3.0700000000000003
615,-1,-2,0,-1,-2,0,-1,3,3.075
616,-2,3,-3,-1,-1,0,1,-2,3.08
617,-4,-2,-4,-1,-2,0,0,-5,3.085
618,-6,-14,-2,-1,-1,-1,-1,-2,3.09
619,-3,-4,-2,-4,-1,-2,-10,-2,3.095
620,0,1,2,-2,1,1,6,-4,3.1
621,-3,-4,-4,-3,-2,-1,-2,3,3.105
622,2,6,2,-1,-2,-1,7,3,3.11
623,-1,-7,-7,-2,-1,-1,1,5,3.115
624,3,6,6,3,1,2,1,2,3.12
625,-1,-2,-1,-2,-1,0,-4,1,3.125
626,-6,-12,0,1,0,-3,-4,-7,3.13
627,-2,-7,0,0,1,0,0,-4,3.1350000000000002
628,-2,-10,-4,-2,-4,-4,-2,-4,3.14
629,0,4,1,1,-2,-2,2,4,3.145
630,0,0,-2,-5,-2,-1,1,2,3.15
631,-4,-2,-2,-2,-1,-1,1,1,3.1550000000000002
632,2,4,-1,-2,0,-1,-5,-6,3.16
633,-2,-5,-4,-5,-4,-2,-2,-7,3.165
634,2,1,0,-1,0,-1,-1,4,3.17
635,0,0,1,0,-2,-1,1,2,3.1750000000000003
636,-1,-2,0,-1,1,2,1,-3,3.18
637,-1,3,-1,0,-1,-1,-3,-2,3.185
638,2,6,2,2,2,0,-1,-1,3.19
639,0,0,-4,-2,-3,-1,3,-1,3.1950000000000003
640,0,3,-1,0,-2,-1,-8,-2,3.2
641,-4,-8,-2,-2,0,1,9,4,3.205
642,2,8,2,2,0,0,-6,-16,3.21
643,3,-1,-2,-1,-1,-2,3,4,3.215
644,2,3,-1,-2,-1,0,-2,2,3.22
645,0,-1,1,2,-1,0,-3,7,3.225
646,4,4,2,1,-3,0,1,2,3.23
647,-2,3,1,-1,0,-1,-5,-8,3.235
648,-4,-11,0,-1,-3,-4,-2,-2,3.24
649,-1,5,1,0,1,0,2,2,3.245
650,0,-3,-3,-1,0,-1,0,3,3.25
651,1,3,0,0,-1,-1,-1,-1,3.255
652,-4,-8,-4,-4,0,0,-2,-2,3.2600000000000002
653,-1,-1,2,-1,2,-1,1,-2,3.265
654,-3,-3,-2,-3,-1,-2,-8,-7,3.27
655,2,5,1,2,1,-1,4,1,3.275
656,-2,-4,-6,-1,-2,-3,4,0,3.2800000000000002
657,1,3,-2,-1,-1,-1,-6,-4,3.285
658,1,3,0,0,3,0,6,5,3.29
659,0,1,1,-3,-1,-1,-3,-1,3.295
660,1,0,-1,-1,0,0,0,-2,3.3000000000000003
661,1,0,2,2,-1,-2,-3,-2,3.305
662,-3,-11,-6,1,2,1,-7,0,3.31
663,-3,-3,1,-1,-1,1,12,1,3.315
664,-3,0,1,1,2,2,1,17,3.3200000000000003
665,-1,-3,-3,-3,0,-2,-2,-21,3.325
666,3,5,2,1,-2,-1,-2,3,3.33
667,5,10,0,0,-2,0,-6,2,3.335
668,0,2,2,1,1,1,1,-1,3.34
669,-4,-3,2,2,1,1,0,-4,3.345
670,-5,1,1,-2,-3,-2,-3,5,3.35
671,-4,-3,-4,-2,0,0,-7,-1,3.355
672,5,11,2,1,0,1,7,8,3.36
673,2,5,-1,1,1,-2,3,0,3.365
674,3,3,-1,1,0,0,1,-8,3.37
675,1,0,-1,-2,-1,-4,-3,1,3.375
676,-1,0,-1,-2,0,-3,-5,-5,3.38
677,1,0,-1,0,-1,-1,-1,0,3.3850000000000002
678,-2,-4,-3,-4,-2,0,0,1,3.39
679,-4,-6,3,0,-2,1,0,-1,3.395
680,1,3,-2,1,-1,0,-2,-6,3.4
681,1,4,-1,-3,-4,0,1,4,3.4050000000000002
682,-3,-7,-2,0,-2,-1,4,1,3.41
683,-4,-1,3,2,-1,-1,-3,-4,3.415
684,-1,-3,-2,-1,-1,0,-2,-4,3.42
685,1,2,3,1,0,-1,-4,5,3.4250000000000003
686,-1,2,-1,0,1,-1,-2,0,3.43
687,-2,-2,-1,2,1,0,1,-3,3.435
688,-3,-7,-4,-3,-2,-2,0,-1,3.44
689,-4,-8,-2,-4,-3,0,-3,0,3.4450000000000003
690,-3,1,2,1,-1,-1,0,-2,3.45
691,-3,-6,-3,-3,-1,-2,-2,-1,3.455
692,5,14,1,-1,-1,0,-2,3,3.46
693,-5,-12,-7,-1,0,0,0,0,3.465
694,2,0,0,-1,-3,0,1,6,3.47
695,1,-2,-4,-1,0,-3,-1,-11,3.475
696,1,4,2,0,0,0,-3,6,3.48
697,-2,-6,-3,-3,1,-2,1,2,3.485
698,1,4,1,0,1,-1,-3,-2,3.49
699,-5,-9,-4,1,0,0,-5,0,3.495
700,-4,-10,-3,-1,-3,-3,3,-3,3.5
701,0,1,-1,1,-2,-1,-2,-4,3.505
702,-4,-6,-2,-2,-1,2,-1,0,3.5100000000000002
703,-2,-9,-4,-3,-2,-1,-2,1,3.515
704,-2,-5,-1,-1,-1,1,-1,-4,3.52
705,-5,-3,0,0,1,0,1,1,3.525
706,1,5,-1,-1,-1,0,1,-4,3.5300000000000002
707,3,9,3,-1,-1,0,-2,0,3.535
708,0,-5,-2,1,1,-1,-5,-5,3.54
709,3,5,-1,-3,-1,-1,4,5,3.545
710,1,-2,-2,-1,-1,0,5,2,3.5500000000000003
711,-1,-3,1,-3,-4,-2,-6,-2,3.555
712,-1,0,-1,-1,0,1,7,-1,3.56
713,3,5,3,1,-3,0,-6,-3,3.565
714,0,4,1,0,0,-3,0,0,3.5700000000000003
715,-2,0,-1,0,0,-1,0,-6,3.575
716,-4,-3,-1,-2,-4,-3,-5,-4,3.58
717,3,2,-1,0,-1,2,4,11,3.585
718,-3,-3,-4,-1,-3,-3,-4,-12,3.59
719,1,3,0,-1,-1,-1,3,1,3.595
720,0,4,2,-2,1,0,-1,-8,3.6
721,-1,-3,-2,1,1,0,1,1,3.605
722,-2,-5,1,0,1,-1,-3,2,3.61
723,-1,0,-3,-2,-1,0,-2,0,3.615
724,-1,-1,-4,-2,0,-2,1,2,3.62
725,0,-4,-2,-1,-3,-2,-3,-2,3.625
726,2,4,-1,-3,-1,1,-1,0,3.63
727,2,4,0,0,-1,-2,2,1,3.6350000000000002
728,-6,-19,-2,0,1,-1,1,0,3.64
729,-3,-2,-1,-1,-2,-1,-3,-5,3.645
730,-1,-1,-1,0,-1,-1,-2,-4,3.65
731,6,9,3,-1,0,1,1,3,3.6550000000000002
732,-4,-2,0,2,-2,1,-1,-8,3.66
733,-2,-1,1,-3,-3,-2,0,0,3.665
734,1,-2,-3,0,-1,-1,-1,4,3.67
735,-1,-8,-5,-4,-3,-3,0,1,3.6750000000000003
736,0,0,0,-1,0,-2,-6,0,3.68
737,-2,-1,2,0,1,-1,-4,-6,3.685
738,-1,-6,-1,-2,0,0,0,1,3.69
739,-5,-4,0,0,1,0,2,-1,3.6950000000000003
740,3,8,-1,0,0,-1,3,0,3.7
741,2,6,0,0,2,0,0,-5,3.705
742,3,1,-2,-1,-2,-2,-3,3,3.71
743,-1,4,1,2,0,0,-3,-1,3.715
744,-4,-9,-2,-1,1,-1,-4,6,3.72
745,0,-3,0,0,1,-1,11,3,3.725
746,-6,-2,3,1,0,-1,-1,-4,3.73
747,-2,-7,-5,-5,-3,-1,0,-4,3.735
748,2,7,1,-1,-1,0,-3,-5,3.74
749,2,2,1,2,0,-1,-6,5,3.745
750,2,-4,-4,-5,-2,1,5,4,3.75
751,-4,-8,-3,1,1,-1,-3,-1,3.755
752,-2,-6,-1,-1,0,-1,0,4,3.7600000000000002
753,-1,-1,-8,-2,0,-1,0,-5,3.765
754,-3,-6,-2,-3,-2,-3,-1,3,3.77
755,-2,-2,5,3,0,0,0,-8,3.775
756,3,1,-2,-1,-2,-1,-2,-3,3.7800000000000002
757,0,-4,1,-2,-2,-1,-2,-5,3.785
758,1,0,3,0,-2,-2,-6,-2,3.79
759,-3,-6,-4,-1,-1,-2,4,6,3.795
760,-5,-7,-6,-4,-1,-1,3,-3,3.8000000000000003
761,-1,-2,2,-2,-1,1,-2,-8,3.805
762,-1,3,-3,-1,-2,-2,0,5,3.81
763,2,8,3,1,-1,0,-6,0,3.815
764,3,4,1,0,-2,0,1,1,3.8200000000000003
765,-1,1,-1,-1,-1,-1,-5,1,3.825
766,-4,-1,3,3,2,-1,0,-6,3.83
767,-9,-15,-6,-9,-4,-2,1,-1,3.835
768,4,6,-1,1,0,-1,0,-4,3.84
769,2,-1,-1,-2,-1,-3,-2,5,3.845
770,2,0,-1,-1,-2,-1,-5,-4,3.85
771,-2,3,-1,0,0,1,-2,-1,3.855
772,-3,0,-1,0,-1,0,5,2,3.86
773,-2,-3,-3,-4,-1,-3,-6,0,3.865
774,2,1,-1,-2,0,-1,3,-3,3.87
775,1,5,-1,-2,-3,0,3,-3,3.875
776,-4,-9,-4,-2,-3,-3,-5,2,3.88
777,2,7,3,5,0,0,-1,1,3.8850000000000002
778,0,0,-1,1,0,0,-4,-1,3.89
779,0,-2,0,0,1,0,8,0,3.895
780,-3,-4,3,-1,1,1,-2,-3,3.9
781,-2,-2,-2,0,0,1,4,-7,3.9050000000000002
782,-2,-1,1,-2,0,-3,-9,7,3.91
783,-2,-7,-2,1,-1,-1,-4,-4,3.915
784,6,6,3,1,-1,-2,4,6,3.92
785,-3,-6,-4,-4,-3,-1,3,2,3.9250000000000003
786,0,-1,0,0,0,-2,-3,-6,3.93
787,3,8,-1,3,1,0,0,2,3.935
788,-4,-3,-2,-1,0,-1,-5,-5,3.94
789,-5,-5,-2,-1,-1,0,-3,-2,3.9450000000000003
790,1,2,-3,1,1,-2,4,14,3.95
791,2,0,1,0,-1,-1,-2,-16,3.955
792,-1,-3,-2,-2,-1,-2,-1,0,3.96
793,-4,-7,-2,-4,-2,-1,0,3,3.9650000000000003
794,1,4,-1,-1,0,-1,0,-13,3.97
795,2,3,-1,-2,-2,-1,0,8,3.975
796,-2,-4,-2,0,0,0,-1,-2,3.98
797,0,-3,1,0,-2,-2,0,0,3.985
798,0,2,-1,-1,-1,0,2,-1,3.99
799,0,2,1,-2,-1,-1,-4,2,3.995
800,-2,-2,2,3,-1,-1,0,-5,4.0
801,0,0,0,0,-1,-1,0,1,4.005
802,-7,-12,-2,-2,-2,0,-1,-10,4.01
803,2,-4,-3,-1,-1,-2,-3,6,4.015
804,0,-1,1,-1,0,-1,0,8,4.0200000000000005
805,2,4,1,2,0,-1,3,-1,4.025
806,1,3,-1,1,-1,0,0,1,4.03
807,2,7,2,1,2,-1,-2,-5,4.035
808,-3,-2,-3,0,-1,-1,-7,-5,4.04
809,-2,1,2,-2,-3,1,6,1,4.045
810,1,0,-2,-5,-2,1,0,-2,4.05
811,0,3,3,2,1,-1,0,4,4.055
812,1,1,-3,-2,-1,-2,-5,-2,4.0600000000000005
813,-6,-5,0,0,-1,-1,-6,-3,4.065
814,2,1,1,1,0,0,3,2,4.07
815,-4,-4,-3,0,0,-1,-2,1,4.075
816,-1,0,-2,-2,-2,2,2,-1,4.08
817,2,8,0,-2,-3,-1,-2,-2,4.085
818,0,-2,-3,-1,-3,-2,-1,0,4.09
819,-4,-1,-1,-2,-3,-1,-3,0,4.095
820,-5,-9,-3,1,-1,-1,1,-1,4.1
821,-7,-12,-4,-4,1,0,2,-9,4.105
822,-1,-5,-2,-2,-2,-1,-2,4,4.11
823,2,-3,-3,0,0,-1,0,-1,4.115
824,2,10,-1,-5,-3,-3,-3,-2,4.12
825,6,12,2,3,0,-2,-1,1,4.125
826,-1,-3,0,2,1,-1,-1,-2,4.13
827,-4,-13,-5,-2,0,-1,0,0,4.135
828,0,1,4,0,0,1,2,3,4.14
829,-2,-4,-1,-1,-1,-1,-6,1,4.1450000000000005
830,-1,4,-2,-2,-2,-1,-2,-4,4.15
831,-1,3,0,-3,-1,-1,1,-1,4.155
832,-2,-1,-3,0,1,0,-1,-4,4.16
833,1,-1,-4,-2,-2,-1,-3,-1,4.165
834,0,3,3,0,0,0,0,-9,4.17
835,-2,-5,-2,-3,-4,-2,-2,6,4.175
836,-1,-4,2,2,-2,-1,2,15,4.18
837,3,6,-3,-2,-1,-2,-3,-18,4.1850000000000005
838,3,0,2,1,0,-1,-1,7,4.19
839,-3,-2,-5,-2,0,1,-1,-10,4.195
840,4,10,6,-2,1,1,3,-4,4.2
841,-6,-5,-4,0,0,-1,-3,2,4.205
842,-4,-2,0,-2,-2,-3,1,-2,4.21
843,4,2,-1,0,-1,-1,-1,3,4.215
844,-6,-16,-8,-6,-2,-1,-1,-1,4.22
845,1,2,2,2,0,0,1,4,4.225
846,-5,-6,-5,0,-3,1,-2,-8,4.23
847,-4,-2,-1,2,-1,-1,-3,0,4.235
848,0,7,-1,-2,-1,-2,2,-5,4.24
849,-1,1,-1,0,-1,1,0,3,4.245
850,1,0,-3,-2,-3,0,-1,3,4.25
851,-2,2,2,0,-1,0,1,-1,4.255
852,-1,0,-1,-1,-1,-3,-4,-3,4.26
853,-3,-3,1,1,1,0,-1,0,4.265
854,2,2,-1,1,1,-2,-1,2,4.2700000000000005
855,0,3,-2,1,1,0,1,-1,4.275
856,1,1,0,0,-2,0,0,-2,4.28
857,-5,-6,-1,-2,0,0,1,-2,4.285
858,-3,-6,-2,0,-1,-1,-2,8,4.29
859,-2,-4,0,-1,0,-2,-1,0,4.295
860,0,-2,2,2,3,-1,-3,0,4.3
861,0,-3,-4,-2,-1,1,1,1,4.305
862,-7,-6,-2,-4,-2,-1,-4,-5,4.3100000000000005
863,-1,-5,1,-2,-3,0,6,4,4.315
864,-6,-9,-8,-4,-3,-2,-1,-5,4.32
865,1,1,1,-2,0,-2,-3,16,4.325
866,1,-3,-3,-1,-1,1,3,-20,4.33
867,3,5,0,0,-1,-1,-2,3,4.335
868,0,1,-1,-1,-3,-2,-3,-3,4.34
869,0,0,1,-1,-1,-1,-1,-3,4.345
870,1,6,1,-2,0,-2,-4,3,4.3500000000000005
871,-2,-6,-4,-1,-1,0,-2,-3,4.355
872,2,3,-1,-1,0,-2,2,0,4.36
873,-4,-6,-1,1,-1,-2,-2,-2,4.365
874,-3,-8,3,2,-1,-1,-1,2,4.37
875,2,-3,-5,-1,0,0,-2,-3,4.375
876,-2,-3,1,0,-3,-2,-3,1,4.38
877,0,-1,-3,-3,-4,0,-2,-1,4.385
878,-1,4,-1,-3,-2,1,1,1,4.39
879,-1,1,0,-2,-1,-3,-2,-1,4.3950000000000005
880,-6,-15,-8,-3,0,0,-2,-2,4.4
881,1,6,4,2,0,-1,-1,-4,4.405
882,-1,1,-1,-1,-2,1,2,0,4.41
883,-2,-2,3,-1,-2,0,0,0,4.415
884,2,7,0,2,0,2,1,-10,4.42
885,-3,-3,-4,-4,-1,-2,-3,7,4.425
886,7,22,3,-2,-3,-4,-3,6,4.43
887,-3,-1,0,-3,0,-1,-2,0,4.4350000000000005
888,2,5,5,3,0,0,1,2,4.44
889,2,-1,-3,-1,-1,0,0,-6,4.445
890,-2,-3,-3,0,-2,-1,-2,-5,4.45
891,-4,-5,0,-2,-3,-1,-1,-2,4.455
892,3,8,2,1,1,0,-2,0,4.46
893,-3,-6,0,0,1,2,3,-3,4.465
894,-2,-13,-7,-4,0,0,1,5,4.47
895,5,17,11,5,1,0,1,-2,4.4750000000000005
896,-5,-1,-1,-1,0,-2,-3,-1,4.48
897,-3,-6,-4,-1,-2,-1,0,0,4.485
898,-6,-14,-3,-1,0,-1,1,-1,4.49
899,0,-2,-2,-2,0,-3,-2,-1,4.495
900,3,6,-1,-1,-2,1,-2,1,4.5
901,2,6,0,-2,-2,-2,-2,-1,4.505
902,-3,-9,-2,1,1,1,2,-2,4.51
903,-6,-4,-6,-3,-1,-1,-1,-4,4.515
904,1,5,3,4,2,1,1,2,4.5200000000000005
905,1,6,-2,-4,-2,-4,0,-2,4.525
906,-1,-1,-1,0,-2,-2,-1,1,4.53
907,1,-3,-2,0,-1,1,1,2,4.535
908,-1,-4,-1,-2,-3,0,-1,-14,4.54
909,0,-5,0,1,-1,-3,0,3,4.545
910,6,8,-3,1,0,-1,-2,4,4.55
911,-7,-13,-1,-1,3,-1,1,-7,4.555
912,-2,-3,-1,-2,-3,-1,-1,4,4.5600000000000005
913,-5,-5,-4,-1,-2,-2,-3,-2,4.565
914,1,3,0,-3,-4,0,-2,-1,4.57
915,4,6,1,-1,-1,-1,0,2,4.575
916,-6,-12,-7,-4,-2,-1,-2,-2,4.58
917,1,-1,-3,0,-1,-1,0,-3,4.585
918,0,7,4,2,0,-2,-2,2,4.59
919,2,6,-1,2,-1,-1,1,-1,4.595
920,1,4,2,1,1,0,3,3,4.6000000000000005
921,2,3,0,0,1,-1,-1,-1,4.605
922,-2,3,2,2,0,1,0,-4,4.61
923,2,5,1,-1,-2,-1,-3,0,4.615
924,-4,-9,-2,0,2,0,-2,0,4.62
925,2,0,-3,-2,-2,0,0,2,4.625
926,-3,-5,-2,0,0,-1,1,-4,4.63
927,-1,-2,-3,-1,0,-1,-2,-2,4.635
928,-1,3,3,0,-3,-1,-2,3,4.64
929,1,5,5,3,0,0,-2,-4,4.6450000000000005
930,-1,-1,-2,-1,0,-2,-2,-1,4.65
931,1,0,-2,0,-2,2,-1,6,4.655
932,0,-6,0,-1,0,-1,-2,-4,4.66
933,4,7,4,0,-2,-1,-1,-13,4.665
934,-5,-3,-2,1,1,0,1,7,4.67
935,-5,-11,-5,0,-1,0,0,2,4.675
936,-2,-4,-3,-2,-2,-1,0,-1,4.68
937,1,6,3,2,1,1,0,3,4.6850000000000005
938,2,0,1,-3,-1,-2,-1,-2,4.69
939,-2,-1,0,-1,0,1,2,-2,4.695
940,-1,4,1,0,0,-2,0,-1,4.7
941,-6,-7,-3,0,1,-1,-2,-11,4.705
942,2,4,2,0,1,-1,-1,-1,4.71
943,-3,-6,-2,-1,-1,-1,-1,8,4.715
944,4,4,0,1,0,-2,2,10,4.72
945,9,8,5,3,1,1,-1,8,4.7250000000000005
946,-8,-15,-11,-9,-5,-2,-1,-6,4.73
947,-3,1,1,-1,-2,-1,-2,-20,4.735
948,-2,-2,-4,-1,0,-1,0,-4,4.74
949,-5,-4,-1,-3,-2,0,-2,2,4.745
950,6,4,2,0,0,1,4,4,4.75
951,6,14,5,3,0,-1,-2,0,4.755
952,-4,-13,-6,-1,-2,0,-1,-2,4.76
953,0,2,-1,-1,0,0,0,3,4.765
954,-4,-9,-5,-3,1,-1,-2,-2,4.7700000000000005
955,3,2,-5,-3,-1,-1,-1,0,4.775
956,0,7,4,0,-2,-1,-2,0,4.78
957,-3,-3,-1,1,-2,-2,1,2,4.785
958,-2,-4,-2,2,0,-1,-3,-4,4.79
959,-3,-4,-1,-2,-2,0,0,0,4.795
960,10,15,1,0,0,-1,-2,1,4.8
961,-5,-10,-2,-1,-1,1,3,-1,4.805
962,-3,1,-3,-4,-3,-2,-1,-2,4.8100000000000005
963,4,9,5,-1,0,-2,-3,7,4.815
964,2,-5,-5,-1,-1,-1,2,8,4.82
965,1,2,1,0,0,-2,1,-2,4.825
966,-1,2,2,0,1,0,1,1,4.83
967,0,1,1,-2,-2,-2,-5,-10,4.835
968,-5,-12,-2,-4,-1,0,0,-5,4.84
969,0,3,-3,-4,-2,0,-2,-2,4.845
970,1,4,3,1,-1,-2,-2,1,4.8500000000000005
971,-3,-8,-4,-2,-2,-2,-1,-1,4.855
972,-1,-4,-2,-4,0,0,2,1,4.86
973,-1,-3,-2,-1,-1,0,-3,2,4.865
974,3,9,6,4,1,0,-1,-2,4.87
975,-3,-6,-5,1,-1,-1,0,3,4.875
976,-8,-10,-6,-5,-3,-3,-3,-7,4.88
977,-3,-4,0,0,0,2,0,-2,4.885
978,0,-1,1,0,-2,0,-2,-2,4.89
979,-1,-1,-1,1,0,1,2,1,4.8950000000000005
980,-1,-3,-2,-2,-1,-1,-3,-6,4.9
981,-3,-7,-4,-3,-2,-3,-1,7,4.905
982,1,-3,-1,-1,0,0,0,2,4.91
983,-2,1,0,1,-1,-1,0,-1,4.915
984,3,12,3,0,-2,-2,0,-4,4.92
985,-3,-3,-2,1,-1,-1,-1,2,4.925
986,1,4,0,0,1,0,-1,-1,4.93
987,2,-4,-2,0,-2,-1,1,-2,4.9350000000000005
988,1,5,2,0,-1,1,-1,6,4.94
989,-1,-2,2,0,-3,-2,-1,-5,4.945
990,-10,-24,-7,-5,-4,0,-2,-3,4.95
991,-1,-2,0,-1,0,-1,0,-1,4.955
992,-5,0,1,2,4,2,-1,1,4.96
993,2,2,-4,0,1,1,0,1,4.965
994,-5,-2,0,-2,-1,0,0,-1,4.97
995,-4,-6,-1,-1,0,-1,-1,-2,4.9750000000000005
996,2,-2,-1,0,-1,-2,0,0,4.98
997,0,3,0,0,-1,-1,-1,-1,4.985
998,2,-1,-5,-1,0,2,1,-3,4.99
999,-3,-4,-2,-1,-3,-1,0,7,4.995
1000,-1,-1,1,2,0,-2,-1,-1,5.0
1001,-5,-9,-1,-1,0,0,2,-3,5.005
1002,-6,-10,-7,-4,-2,-1,-2,-8,5.01
1003,0,1,-2,-1,-1,-1,-2,-1,5.015
1004,2,1,-1,-2,-2,-1,0,8,5.0200000000000005
1005,-1,-6,-1,2,1,-1,1,-3,5.025
1006,2,9,3,0,-1,-1,0,3,5.03
1007,-6,-9,-4,-4,-3,0,-2,-4,5.035
1008,0,-1,-3,-1,-2,-1,-2,-2,5.04
1009,3,3,1,0,1,-2,-3,-6,5.045
1010,-1,-3,1,0,1,-2,0,3,5.05
1011,-1,-3,1,1,0,1,-2,0,5.055
1012,-4,-2,0,-3,-1,1,3,-2,5.0600000000000005
1013,2,1,0,-3,-2,-2,-1,0,5.065
1014,2,0,-4,-1,-2,-3,1,-2,5.07
1015,2,3,1,-1,-3,-2,0,5,5.075
1016,-1,-3,-2,0,-1,-2,-3,-1,5.08
1017,-4,-9,-5,1,1,0,0,-1,5.085
1018,-1,0,1,2,1,-1,0,-2,5.09
1019,1,0,-2,-2,2,-1,-1,-3,5.095
1020,2,2,-1,-1,-1,-1,-1,1,5.1000000000000005
1021,1,2,-6,-6,-4,-2,-2,-2,5.105
1022,1,3,3,2,0,-1,0,-6,5.11
1023,0,-2,-1,-1,-1,-1,2,8,5.115
1024,0,2,-1,2,1,1,3,-6,5.12
1025,-1,-3,-2,-2,-3,-1,-1,-2,5.125
1026,2,2,1,1,-1,0,1,1,5.13
1027,-3,2,0,-1,-3,-2,-1,-4,5.135
1028,-2,2,0,-3,0,1,-1,-5,5.14
1029,-3,-1,-2,-1,0,1,-1,3,5.1450000000000005
1030,4,4,-1,-4,-1,-1,-1,3,5.15
1031,-2,-6,-4,0,1,-1,-1,-3,5.155
1032,-3,-4,0,1,-2,0,-5,-2,5.16
1033,-4,-1,-2,0,1,-1,-2,5,5.165
1034,-2,-10,0,-1,-2,-3,2,3,5.17
1035,2,10,1,0,1,0,0,2,5.175
1036,-5,-3,1,0,-1,-1,0,-1,5.18
1037,-4,-4,-1,-2,-2,0,-2,-1,5.1850000000000005
1038,0,1,-2,0,-1,0,-2,-2,5.19
1039,0,-3,-1,0,-1,-1,2,-3,5.195
1040,1,-1,0,2,-1,-3,-2,0,5.2
1041,-2,1,2,1,0,0,0,0,5.205
1042,4,11,1,1,0,-2,-4,-2,5.21
1043,2,0,0,-1,0,1,2,2,5.215
1044,8,0,0,-3,-2,0,-1,4,5.22
1045,-11,4,1,1,-2,-1,-2,-9,5.2250000000000005
1046,1,2,0,-1,-1,1,3,-1,5.23
1047,-8,-8,1,-2,-2,-1,-7,8,5.235
1048,2,2,1,1,-1,1,3,-9,5.24
1049,4,2,4,4,1,0,6,0,5.245
1050,-1,3,-1,0,0,-1,-14,-4,5.25
1051,4,1,-7,-3,-1,0,15,-2,5.255
1052,-7,-9,0,-1,0,-1,-2,4,5.26
1053,-2,-2,4,1,-1,-3,-14,0,5.265
1054,-5,-12,-4,-4,-3,-3,11,-3,5.2700000000000005
1055,-2,1,1,-1,-1,-3,-8,2,5.275
1056,1,6,0,2,-1,-2,-4,0,5.28
1057,-1,-8,-8,-4,-1,-1,12,1,5.285
1058,-2,-2,0,1,0,-2,-10,2,5.29
1059,0,3,3,1,-1,-2,0,-4,5.295
1060,-5,-3,-6,-3,-2,-2,-3,-5,5.3
1061,-1,-9,-2,-3,-5,-3,-8,-4,5.305
1062,1,1,1,2,0,3,4,-2,5.3100000000000005
1063,0,-4,-5,-2,-2,-3,-1,-5,5.315
1064,-3,0,2,1,0,1,0,-2,5.32
1065,2,-1,-5,-4,-1,-3,-1,1,5.325
1066,-5,1,-2,0,0,-1,2,1,5.33
1067,1,7,2,1,1,1,-2,-7,5.335
1068,-3,-12,-4,-6,-4,-4,-2,1,5.34
1069,0,-2,-2,-2,0,2,-4,-2,5.345
1070,-2,-4,-1,-2,-2,-1,5,0,5.3500000000000005
1071,-1,1,0,1,-1,-1,1,2,5.355
1072,-3,-6,-2,-2,0,-1,-6,-13,5.36
1073,-1,-2,1,2,0,-1,7,1,5.365
1074,-1,-3,0,-3,0,-1,-3,-1,5.37
1075,-4,-5,-2,-2,-1,0,-1,4,5.375
1076,-1,-2,-5,-1,-2,0,5,4,5.38
1077,2,0,-2,0,1,-1,-2,-12,5.385
1078,0,-1,-1,0,0,-2,-3,11,5.39
1079,-2,-3,1,0,-1,-2,-4,-2,5.3950000000000005
1080,2,6,-1,1,1,-3,-2,9,5.4
1081,-2,-5,-6,0,-1,1,0,1,5.405
1082,-1,0,-1,0,1,0,7,-4,5.41
1083,-1,3,6,1,-2,-1,-4,-5,5.415
1084,-5,-9,0,-1,-1,0,4,5,5.42
1085,0,6,1,-3,-2,-2,-6,-5,5.425
1086,1,5,1,-1,0,0,-1,1,5.43
1087,3,-8,-9,-5,-3,-1,0,-2,5.4350000000000005
1088,2,5,5,2,2,1,-4,0,5.44
1089,-2,-2,4,3,-1,0,4,-1,5.445
1090,0,1,-2,-2,-1,-1,-2,-2,5.45
1091,0,1,-2,1,-1,0,-4,-1,5.455
1092,1,5,2,-1,-1,-3,3,-2,5.46
1093,-2,-4,2,2,0,2,2,5,5.465
1094,-2,-1,-3,-1,-1,-1,-2,-3,5.47
1095,5,10,2,0,1,0,-2,-1,5.4750000000000005
1096,1,0,-2,-2,1,1,-2,-1,5.48
1097,2,6,2,-2,-1,-1,1,0,5.485
1098,-4,-6,-1,0,-2,-1,-6,-3,5.49
1099,-3,-1,0,-2,0,0,6,-8,5.495
1100,-1,2,-2,-2,-2,-2,-9,3,5.5
1101,-3,-7,-6,-2,-1,-1,10,3,5.505
1102,1,-1,0,-1,-3,-2,0,1,5.51
1103,-1,-1,1,0,-1,0,-1,21,5.515
1104,-1,2,0,0,-1,-2,1,-28,5.5200000000000005
1105,7,10,1,1,1,1,-5,1,5.525
1106,0,8,4,0,-1,-3,-4,-3,5.53
1107,-2,-3,0,0,0,-3,-6,-8,5.535
1108,-1,-4,-2,-1,1,0,8,13,5.54
1109,-2,2,2,0,0,0,-3,-5,5.545
1110,2,3,-2,-2,0,0,-2,-3,5.55
1111,2,6,-1,-1,1,-1,-1,-1,5.555
1112,-2,-5,-1,-1,-1,1,2,3,5.5600000000000005
1113,-4,-1,-4,-4,-2,-1,-1,-1,5.565
1114,0,1,2,0,-2,-1,2,2,5.57
1115,-4,-6,-5,-2,-3,-2,-5,-6,5.575
1116,1,9,0,1,-2,-2,-8,-2,5.58
1117,1,-2,0,-1,-1,-1,3,1,5.585
1118,-6,-11,-5,-2,-1,-1,-1,-4,5.59
1119,3,1,4,2,1,0,6,6,5.595
1120,-1,-3,-5,0,-1,-1,1,-3,5.6000000000000005
1121,3,6,-2,0,0,0,-4,4,5.605
1122,-4,-4,1,-1,0,0,-8,-4,5.61
1123,-3,-6,-1,2,2,1,5,10,5.615
1124,1,-2,-4,-3,0,0,1,-17,5.62
1125,-3,0,-1,0,-5,-2,-3,3,5.625
1126,5,7,-2,-1,-2,0,-3,1,5.63
1127,-4,-7,-8,-5,0,-1,-5,-14,5.635
1128,-3,-3,-1,-2,-2,-2,3,16,5.64
1129,-1,-1,-1,-2,-1,-2,-2,-2,5.6450000000000005
1130,0,0,1,2,0,0,-9,-2,5.65
1131,-4,-7,-4,-3,-3,-2,7,-3,5.655
1132,-3,-4,-3,-2,-1,1,3,-1,5.66
1133,-1,-6,0,2,1,-4,-2,-4,5.665
1134,-1,5,2,3,1,-1,4,2,5.67
1135,-1,-3,-2,-1,-3,-1,-6,-3,5.675
1136,1,2,3,2,0,-1,-1,1,5.68
1137,-5,-1,-1,-3,-2,-1,-4,-4,5.6850000000000005
1138,0,-1,-1,0,1,1,-1,-2,5.69
1139,-1,-3,-3,1,0,-1,6,3,5.695
1140,2,3,-1,0,-1,-2,2,6,5.7
1141,-3,1,-1,-1,-3,1,0,-9,5.705
1142,1,-2,-1,-4,0,-2,2,-1,5.71
1143,0,-6,2,0,2,0,-3,-1,5.715
1144,0,7,2,1,0,0,-1,2,5.72
1145,-2,3,-4,0,1,1,2,-2,5.7250000000000005
1146,-4,-4,-3,-3,-1,-2,1,-1,5.73
1147,-3,3,3,0,-2,-1,-1,-1,5.735
1148,-6,-10,-2,-1,-3,-3,-2,-3,5.74
1149,1,3,-4,-2,-1,0,-1,0,5.745
1150,-2,-4,-2,1,-1,1,-2,1,5.75
1151,1,2,-1,-3,-3,-2,-1,-2,5.755
1152,-2,-6,-4,-3,-1,-1,-2,0,5.76
1153,-1,1,0,-2,-2,-1,2,2,5.765
1154,1,0,-2,0,-1,-1,3,2,5.7700000000000005
1155,1,7,3,1,1,0,-2,-3,5.775
1156,3,11,3,3,2,1,-6,1,5.78
1157,-6,-12,0,-6,-3,-1,-2,0,5.785
1158,-2,-7,-3,0,1,-1,8,0,5.79
1159,-2,1,0,0,-1,-1,-4,2,5.795
1160,-4,-9,-2,0,-2,-1,1,-2,5.8
1161,2,-1,-1,3,0,0,-4,-4,5.805
1162,-4,-11,-4,-3,-2,-3,-7,3,5.8100000000000005
1163,1,4,0,-1,0,-1,1,0,5.815
1164,-5,-12,-3,-4,0,-1,-1,-3,5.82
1165,-1,-2,-2,0,-1,-2,0,1,5.825
1166,-7,0,2,-2,-3,1,-2,-3,5.83
1167,-3,-4,-3,-1,1,0,-7,-5,5.835
1168,2,2,1,0,-1,-1,2,0,5.84
1169,4,7,4,4,1,-2,8,6,5.845
1170,0,-3,-1,-3,-1,-1,2,-2,5.8500000000000005
1171,2,9,5,2,2,-1,-5,0,5.855
1172,-3,-1,1,0,-1,-1,-1,-3,5.86
1173,2,0,-1,1,-1,0,-2,-3,5.865
1174,-3,-2,0,-1,-3,-1,-2,1,5.87
1175,2,-7,-2,0,0,1,8,12,5.875
1176,-3,-1,-5,-3,-1,-1,-4,-17,5.88
1177,0,-2,0,0,0,1,0,3,5.885
1178,-1,3,0,-1,1,-2,-3,-5,5.89
1179,-3,-4,0,-2,-3,-1,-3,-2,5.8950000000000005
1180,1,2,-6,-2,0,0,1,3,5.9
1181,0,1,0,0,-1,-1,-1,1,5.905
1182,1,12,4,0,-1,0,-2,-3,5.91
1183,0,0,0,2,0,2,2,0,5.915
1184,4,1,2,1,-1,-1,0,4,5.92
1185,-1,0,2,-1,0,-3,-3,-3,5.925
1186,-2,-4,-2,0,-3,-2,0,5,5.93
1187,-1,5,3,-1,-2,-2,-3,-7,5.9350000000000005
1188,-2,-2,0,2,-2,-1,-4,-1,5.94
1189,-4,-7,-4,1,1,-2,-5,2,5.945
1190,1,1,1,1,-2,0,6,-2,5.95
1191,1,7,-4,-2,-1,-2,4,-3,5.955
1192,-3,-7,-2,-3,-1,1,2,0,5.96
1193,-6,-11,-2,-4,-2,-3,-2,-2,5.965
1194,-2,-2,-2,2,2,0,-3,-5,5.97
1195,-2,-4,-3,-1,-2,-1,-6,-4,5.9750000000000005
1196,4,10,4,1,2,1,1,6,5.98
1197,-5,-2,-4,-2,-1,0,2,18,5.985
1198,2,0,-2,-2,-2,1,-3,-22,5.99
1199,-2,-16,-4,-1,1,-1,0,3,5.995
1200,-1,-1,2,-2,0,-1,1,2,6.0
1201,4,0,-3,-2,0,-1,-2,-6,6.005
1202,-2,-1,2,3,0,-1,0,2,6.01
1203,6,12,0,-1,-1,0,-2,-2,6.015000000000001
1204,-4,-8,-2,-1,0,-1,-3,-4,6.0200000000000005
1205,-1,2,1,-1,0,0,-3,-1,6.025
1206,3,-5,-4,-4,-2,-2,-1,8,6.03
1207,-2,-1,3,1,0,-1,3,-3,6.035
1208,2,-3,-2,-3,-1,-1,10,5,6.04
1209,-3,0,-3,-3,-3,0,-3,-6,6.045
1210,-2,-1,-2,-1,1,-1,1,0,6.05
1211,-2,1,-1,1,-1,-1,-8,-2,6.055
1212,5,11,0,-1,0,-1,2,0,6.0600000000000005
1213,-1,-2,-3,-2,-3,0,0,-2,6.065
1214,0,0,-2,-1,-2,-1,-4,-2,6.07
1215,0,6,0,-3,-1,0,-1,4,6.075
1216,-4,-9,-4,-2,-1,-1,-6,-3,6.08
1217,1,-5,-2,2,3,1,3,-1,6.085
1218,1,1,2,0,0,-1,0,3,6.09
1219,-2,-3,-2,-1,-3,1,2,-6,6.095
1220,-3,-2,0,0,-3,-4,-6,-2,6.1000000000000005
1221,1,3,3,0,-1,-2,-1,-3,6.105
1222,-3,-5,-3,-4,-3,0,-3,7,6.11
1223,-3,-4,-1,-1,0,-2,3,-1,6.115
1224,0,-1,-4,1,0,0,-5,-6,6.12
1225,0,2,0,-3,-2,-1,1,8,6.125
1226,-1,-7,-3,0,0,1,-1,2,6.13
1227,0,-3,-3,-4,0,-2,1,3,6.135
1228,0,5,3,-1,0,0,-3,0,6.140000000000001
1229,-2,2,0,-1,-1,-4,0,-3,6.1450000000000005
1230,-1,-2,0,1,0,1,2,-2,6.15
1231,-3,-4,-4,-3,-2,-2,-3,-4,6.155
1232,-7,-15,-9,-7,-4,-1,0,-3,6.16
1233,3,4,3,2,0,0,-2,-1,6.165
1234,-4,3,2,-1,1,-4,-6,10,6.17
1235,-4,-8,-5,-4,-1,0,7,-16,6.175
1236,3,10,3,1,2,0,4,5,6.18
1237,0,-2,0,1,0,1,2,0,6.1850000000000005
1238,0,1,-4,-6,-3,-3,-1,-4,6.19
1239,-1,1,-1,1,-1,-1,-2,0,6.195
1240,-2,-3,0,2,-5,-3,-2,-2,6.2
1241,0,-1,2,-2,0,1,-5,-6,6.205
1242,-2,-1,2,1,0,-2,5,3,6.21
1243,3,5,2,2,1,0,-1,7,6.215
1244,-5,-10,-1,-1,1,-1,-2,-7,6.22
1245,-1,4,-2,-2,-2,-1,-5,1,6.2250000000000005
1246,1,-6,-3,-2,0,1,1,-3,6.23
1247,1,2,0,1,2,1,4,0,6.235
1248,-5,-3,0,0,-1,-1,0,4,6.24
1249,-3,-1,-3,-1,-2,0,2,1,6.245
1250,0,2,1,-1,-2,-1,-4,-9,6.25
1251,1,1,2,-1,-1,-1,-3,5,6.255
1252,1,2,0,2,1,1,0,-2,6.26
1253,-1,0,3,-1,1,0,1,-3,6.265000000000001
1254,2,7,-2,1,0,-1,1,-2,6.2700000000000005
1255,2,2,-4,1,-2,-2,-6,-1,6.275
1256,-6,-7,-2,0,0,-3,-10,-3,6.28
1257,0,-6,-3,-2,-2,0,10,1,6.285
1258,0,2,1,-1,-3,-1,3,-1,6.29
1259,-6,-6,2,1,-3,-2,0,-1,6.295
1260,3,6,-2,-2,0,-1,-1,3,6.3
1261,0,1,-1,1,1,-2,-3,15,6.305
1262,-2,-10,-5,-5,-1,0,-4,-19,6.3100000000000005
1263,0,-2,-3,-1,0,-2,2,-2,6.315
1264,2,6,2,-1,0,0,-1,1,6.32
1265,1,1,0,1,-2,-1,1,-5,6.325
1266,-1,1,-1,2,-1,-1,0,5,6.33
1267,-9,-12,-1,-3,-3,-2,-4,-5,6.335
1268,4,-2,-1,0,1,1,3,6,6.34
1269,0,-1,-4,-1,-1,1,-2,-13,6.345
1270,0,-1,1,2,1,-3,-2,9,6.3500000000000005
1271,-1,2,-1,0,1,-2,1,-1,6.355
1272,-2,-1,-1,-1,-2,-1,2,0,6.36
1273,-4,-4,-2,-2,-2,-2,-3,-3,6.365
1274,0,0,-2,-1,-1,-3,-2,-5,6.37
1275,2,2,0,-1,-2,-1,-8,-1,6.375
1276,3,5,1,-1,0,-1,6,0,6.38
1277,-7,-19,-6,-1,-2,0,0,-4,6.385
1278,-1,1,1,1,-1,2,-6,-2,6.390000000000001
1279,-1,0,-3,-5,-3,0,6,2,6.3950000000000005
1280,0,-2,2,1,0,-2,-1,-2,6.4
1281,1,3,-1,0,0,-1,-1,0,6.405
1282,1,6,2,1,1,-1,-2,4,6.41
1283,-2,-4,-1,1,-2,0,-1,-2,6.415
1284,4,4,-3,-1,-3,1,1,3,6.42
1285,-2,-2,0,-1,0,-3,-1,-9,6.425
1286,2,6,3,2,1,1,-3,-2,6.43
1287,-2,3,2,-1,1,-1,2,15,6.4350000000000005
1288,-2,-6,-3,-2,-1,-1,1,-19,6.44
1289,7,4,-1,0,0,-1,-1,15,6.445
1290,0,2,-1,-1,-1,1,1,0,6.45
1291,0,-4,1,-2,-1,-1,-4,-5,6.455
1292,-3,1,0,0,-1,-3,-2,-1,6.46
1293,-5,-4,0,-3,-2,-1,-2,-5,6.465
1294,0,2,0,-2,0,0,2,-3,6.47
1295,-2,-8,-3,-1,-2,-1,0,-1,6.4750000000000005
1296,3,7,3,0,-1,0,-4,2,6.48
1297,0,0,0,-2,-3,-1,-2,-4,6.485
1298,-5,-7,-6,-4,-3,-1,-3,2,6.49
1299,-1,3,1,4,2,1,1,-7,6.495
1300,-3,1,0,0,0,1,0,0,6.5
1301,2,7,0,0,0,-2,-1,0,6.505
1302,-2,-9,-5,-4,-1,-1,4,0,6.51
1303,2,7,-1,-1,0,-1,-4,-5,6.515000000000001
1304,-1,-7,-3,-1,-1,-2,0,8,6.5200000000000005
1305,-2,-6,0,-1,-1,0,5,2,6.525
1306,-2,-3,3,1,-1,-2,-1,-3,6.53
1307,2,3,0,0,-1,-1,-2,-3,6.535
1308,-1,-2,-2,-2,-2,-2,0,1,6.54
1309,0,3,1,0,0,-1,-3,2,6.545
1310,5,-1,-4,-2,-1,-1,3,2,6.55
1311,-6,-7,-4,-1,1,-1,-4,-4,6.555
1312,-3,-1,2,2,0,1,-5,-4,6.5600000000000005
1313,0,2,1,0,-1,-1,-1,-4,6.565
1314,1,0,-3,0,0,0,-2,-1,6.57
1315,1,3,1,-1,-2,-1,-1,1,6.575
1316,-7,-18,-6,-4,-3,-2,-1,11,6.58
1317,-4,0,-1,-1,-2,-1,-4,-22,6.585
1318,2,4,6,3,2,2,-3,1,6.59
1319,-4,-11,-6,-6,-4,-2,4,-11,6.595
1320,0,1,2,0,-1,0,-2,7,6.6000000000000005
1321,0,1,-1,0,-1,0,1,7,6.605
1322,-1,1,0,0,-1,-2,7,0,6.61
1323,1,1,-2,1,0,-1,-2,1,6.615
1324,2,2,-2,-3,-2,-4,-4,-4,6.62
1325,-6,-10,-2,-3,-1,-1,-6,-9,6.625
1326,-4,-4,-2,-3,-2,-1,0,-3,6.63
1327,3,4,3,3,2,0,1,6,6.635
1328,4,12,-1,0,-3,-2,-4,-5,6.640000000000001
1329,-1,-3,-3,0,-2,-4,2,4,6.6450000000000005
1330,-2,4,0,0,0,0,0,1,6.65
1331,-4,-5,0,-2,-2,-1,1,-1,6.655
1332,5,8,0,-3,0,-2,0,-10,6.66
1333,1,0,-1,0,-1,-2,0,5,6.665
1334,-2,-9,-2,0,-2,-1,-1,0,6.67
1335,2,-1,-3,-4,-1,-1,-2,2,6.675
1336,-6,-7,-2,0,-1,2,-1,-5,6.68
1337,0,3,-1,1,1,0,1,0,6.6850000000000005
1338,1,2,-1,0,0,-1,0,-1,6.69
1339,3,5,2,3,0,-1,-5,-1,6.695
1340,-3,-4,-1,-2,-1,0,4,-1,6.7
1341,3,6,4,1,1,-1,1,2,6.705
1342,-2,-5,-2,-2,-1,-1,-2,-1,6.71
1343,-6,-10,-3,-1,-2,-1,0,-3,6.715
1344,2,6,0,1,0,-2,-3,-2,6.72
1345,0,0,-1,1,1,1,-5,2,6.7250000000000005
1346,-3,1,2,0,0,-1,1,-1,6.73
1347,-1,-3,0,0,2,0,-7,-1,6.735
1348,-1,0,-4,-2,-1,-1,6,0,6.74
1349,-1,-4,-4,-3,-1,1,-2,-3,6.745
1350,-3,-1,-1,-1,-1,-4,-2,-5,6.75
1351,1,-2,-3,-2,-3,-1,-3,9,6.755
1352,2,4,4,0,0,1,-5,-4,6.76
1353,1,4,-1,-1,-2,-2,4,2,6.765000000000001
1354,1,-2,-1,0,0,0,2,2,6.7700000000000005
1355,-5,1,-2,2,1,-2,-1,-7,6.775
1356,4,4,2,2,1,-1,-4,1,6.78
1357,-4,-12,-4,-6,-3,2,3,-3,6.785
1358,0,-1,-3,-1,-2,-2,-2,5,6.79
1359,0,3,3,0,-2,-1,-2,-1,6.795
1360,-3,-3,-5,-3,-1,0,-3,1,6.8
1361,0,5,-2,-1,-2,-3,-1,-1,6.805
1362,-3,-7,-4,-4,-2,-1,5,-2,6.8100000000000005
1363,-1,-3,-4,-4,-3,-1,-1,-3,6.815
1364,-4,-6,-1,-1,-1,0,1,-4,6.82
1365,-1,2,-1,0,1,-1,-3,4,6.825
1366,-2,3,2,0,1,-1,-1,0,6.83
1367,0,0,-1,-3,-1,-3,4,-3,6.835
1368,1,-1,2,0,-1,-1,1,4,6.84
1369,-5,-2,0,2,-2,-1,-2,-1,6.845
1370,-8,-18,-5,-1,-3,-1,-2,0,6.8500000000000005
1371,1,-4,-3,0,-2,1,-1,-9,6.855
1372,0,0,-1,1,-1,-1,1,-9,6.86
1373,-1,-4,1,2,2,1,1,6,6.865
1374,1,1,0,-1,-3,-1,-2,6,6.87
1375,-1,2,0,-3,-2,1,4,18,6.875
1376,-7,-15,-6,-3,-1,-3,-6,-21,6.88
1377,1,-2,-3,1,1,0,-2,-4,6.885
1378,4,2,-1,-1,0,-1,-5,-3,6.890000000000001
1379,3,8,3,0,-1,-2,-4,3,6.8950000000000005
1380,-3,-4,2,2,0,1,7,5,6.9
1381,-1,3,1,-1,0,0,-2,-1,6.905
1382,0,2,-1,-1,-1,-1,1,-1,6.91
1383,1,-2,-4,0,1,0,-2,-3,6.915
1384,3,6,0,-1,-1,-3,-3,3,6.92
1385,0,3,3,-1,-2,-1,-1,-3,6.925
1386,-3,1,1,-1,0,0,-3,1,6.93
1387,-2,-3,-2,0,-1,0,0,-4,6.9350000000000005
1388,1,-4,-5,-5,-4,0,-1,2,6.94
1389,0,1,1,-1,-2,-1,3,2,6.945
1390,0,-5,-5,1,0,0,-1,-5,6.95
1391,-2,-3,-2,1,0,-1,0,-1,6.955
1392,-1,0,-5,-6,-2,-1,1,4,6.96
1393,-1,-1,0,-3,-1,-2,-1,-4,6.965
1394,0,-1,-1,1,0,-1,-5,-4,6.97
1395,-6,-12,-2,-1,-1,2,6,8,6.9750000000000005
1396,2,2,0,0,-1,0,-3,-2,6.98
1397,3,3,-2,0,0,0,0,0,6.985
1398,0,6,3,-1,-1,0,1,-4,6.99
1399,2,5,1,0,-1,-2,-3,-4,6.995
1400,-2,-5,2,1,-1,0,0,2,7.0
1401,-2,-6,-2,1,-1,1,0,0,7.005
1402,0,0,-1,2,-1,-2,-4,0,7.01
1403,-2,-2,-2,-2,-2,-3,-6,-9,7.015000000000001
1404,2,3,2,1,0,-1,9,6,7.0200000000000005
1405,-4,-3,-1,-1,1,-1,-3,-4,7.025
1406,-1,-5,-3,-4,-3,-1,-2,-3,7.03
1407,1,4,1,-2,-2,0,0,3,7.035
1408,-1,2,4,1,-1,-1,-4,-2,7.04
1409,1,1,2,1,2,0,1,-3,7.045
1410,-4,-1,2,0,-1,1,0,5,7.05
1411,-1,-1,-1,-1,1,-1,1,-4,7.055
1412,1,8,0,-1,-1,-1,-4,0,7.0600000000000005
1413,-3,-5,-4,-6,-6,-3,-4,-1,7.065
1414,-2,-4,-2,-3,0,0,-1,-5,7.07
1415,1,4,3,0,-2,0,0,-6,7.075
1416,-2,-3,-2,1,1,1,-2,0,7.08
1417,-2,-2,-3,-2,-2,1,9,8,7.085
1418,1,3,-1,-3,-3,-2,-4,4,7.09
1419,-1,-2,-3,-3,-2,-2,4,-4,7.095
1420,0,1,0,-2,-1,-3,-6,2,7.1000000000000005
1421,3,6,1,0,-1,-2,-6,-4,7.105
1422,-2,-8,-4,-2,-1,-1,1,-3,7.11
1423,3,3,0,2,1,-2,-3,4,7.115
1424,-3,-14,-7,-1,0,1,-1,-4,7.12
1425,-5,2,-4,-2,0,-2,-1,9,7.125
1426,4,7,5,-2,-3,-2,3,-14,7.13
1427,2,0,-2,-2,-3,0,1,9,7.135
1428,5,11,-15,-4,1,1,5,6,7.140000000000001
1429,2,-4,-8,3,3,2,-11,-22,7.1450000000000005
1430,9,13,-15,-5,1,0,7,4,7.15
1431,-1,2,-32,-11,0,0,0,22,7.155
1432,-1,-4,1,-3,0,1,11,7,7.16
1433,-4,2,87,38,-3,-4,-19,-16,7.165
1434,0,4,-32,-34,0,1,-7,-18,7.17
1435,-4,-13,16,16,1,0,-10,-17,7.175
1436,-8,1,69,12,-4,-5,6,11,7.18
1437,-3,4,-47,-28,-2,1,11,-11,7.1850000000000005
1438,24,1,-69,-4,6,6,9,56,7.19
1439,-5,-8,26,-17,-6,-4,7,1,7.195
1440,0,7,75,58,-2,-5,9,34,7.2
1441,-2,-16,-43,5,2,4,9,-21,7.205
1442,-12,13,-62,-12,-1,-4,-34,-83,7.21
1443,-7,-14,-94,-50,2,0,-23,-14,7.215
1444,2,4,76,30,-4,-4,-32,-36,7.22
1445,0,-2,-25,-6,3,0,12,28,7.2250000000000005
1446,-9,-22,52,11,-5,1,22,18,7.23
1447,-2,9,-19,-1,2,3,8,-3,7.235
1448,0,-22,-86,-46,-6,-3,17,27,7.24
1449,9,-6,-8,-9,-2,3,-7,38,7.245
1450,-29,-5,66,27,-5,-4,-15,-31,7.25
1451,3,13,65,29,3,0,10,-20,7.255
1452,-2,9,-29,-3,4,2,-8,-11,7.26
1453,-5,-25,-28,-17,-12,-8,4,18,7.265000000000001
1454,14,11,28,28,8,5,20,19,7.2700000000000005
1455,9,6,-19,0,2,-1,-12,7,7.275
1456,12,21,-15,6,6,4,-4,-17,7.28
1457,3,0,-49,-29,3,-1,-1,6,7.285
1458,-2,13,1,0,-2,-3,-7,4,7.29
1459,-5,-9,-14,0,-2,3,15,7,7.295
1460,13,-14,-128,-52,1,7,1,15,7.3
1461,-8,-3,127,38,-8,-7,-17,-28,7.305
1462,-1,15,81,43,2,-4,3,0,7.3100000000000005
1463,-4,2,-35,-2,-2,-3,-3,5,7.315
1464,-20,-24,-49,-15,-3,-1,-1,-29,7.32
1465,8,19,-10,-13,-2,0,6,9,7.325
1466,-3,-27,32,-10,-7,-6,-6,14,7.33
1467,3,-7,-3,-6,-2,2,14,21,7.335
1468,6,3,-23,-17,-1,-2,29,48,7.34
1469,-11,9,-35,-1,1,-1,-29,-82,7.345
1470,-6,-9,11,9,0,-2,-20,5,7.3500000000000005
1471,-1,-6,55,25,-6,-3,-2,7,7.355
1472,-4,0,3,1,-3,-3,-25,-39,7.36
1473,4,19,-20,-6,4,4,21,7,7.365
1474,-6,-18,-68,-26,0,0,-2,-4,7.37
1475,-2,2,43,5,-1,0,5,1,7.375
1476,8,16,17,11,1,-1,3,17,7.38
1477,-1,3,-41,-5,1,0,-1,9,7.385
1478,-4,-13,-9,-12,-4,0,-4,4,7.390000000000001
1479,3,3,-15,-5,-3,-1,-3,3,7.3950000000000005
1480,-1,9,-13,-16,-3,-2,-5,23,7.4
1481,-11,-21,6,-2,-7,-3,-5,-5,7.405
1482,10,-2,14,13,2,2,11,-36,7.41
1483,-6,-3,89,29,-1,-5,-7,-12,7.415
1484,-4,-6,24,11,2,-1,-5,-21,7.42
1485,4,-11,-10,-11,-2,-2,2,30,7.425
1486,3,5,-83,-26,-2,3,-1,21,7.43
1487,-6,4,-17,-13,-1,-1,-5,-20,7.4350000000000005
1488,-16,-12,40,12,-4,-1,-5,-28,7.44
1489,17,10,-28,-8,2,1,8,33,7.445
1490,6,13,33,4,-2,-3,-8,0,7.45
1491,-15,0,-34,-2,-2,-3,-2,-13,7.455
1492,-2,-6,-11,5,-1,-1,0,-4,7.46
1493,-5,12,87,25,1,-1,20,-1,7.465
1494,8,8,-9,-4,2,0,-3,24,7.47
1495,4,2,-48,-16,0,3,0,-18,7.4750000000000005
1496,-1,-1,-41,-16,2,-1,-8,-12,7.48
1497,-5,-2,17,1,-1,-3,-12,-6,7.485
1498,1,2,2,6,-2,1,14,16,7.49
1499,2,1,16,2,-4,-3,10,19,7.495
1500,5,6,11,7,2,0,-5,-22,7.5
1501,-7,-3,7,7,-2,-2,-12,-9,7.505
1502,-2,8,-9,-9,-1,0,-12,0,7.51
1503,-5,-19,10,4,1,0,0,2,7.515000000000001
1504,3,2,-31,-13,0,0,6,7,7.5200000000000005
1505,3,2,-11,2,-4,-1,-3,-7,7.525
1506,-5,-9,45,2,-3,-1,10,3,7.53
1507,8,7,-68,-14,5,1,-5,-1,7.535
1508,-10,-1,89,24,1,1,-2,0,7.54
1509,-3,-9,-31,-12,2,0,5,8,7.545
1510,-9,-4,1,2,-1,-1,1,-37,7.55
1511,23,14,10,4,1,0,-4,19,7.555
1512,5,5,-36,-20,2,2,-9,-5,7.5600000000000005
1513,-3,0,-9,10,2,2,10,4,7.565
1514,-6,0,15,-4,-5,-4,-6,0,7.57
1515,-6,-8,21,11,0,1,10,2,7.575
1516,-6,2,3,2,0,-2,-7,-15,7.58
1517,-3,-15,3,-3,0,1,-13,8,7.585
1518,-1,-3,-63,-23,-3,-3,20,10,7.59
1519,-3,-6,14,3,-4,-2,-5,-5,7.595
1520,4,3,31,7,-3,-2,0,12,7.6000000000000005
1521,-7,0,0,-2,-1,-3,-1,-20,7.605
1522,-3,-17,-17,-3,-1,0,-5,11,7.61
1523,-3,7,21,2,0,1,-5,-13,7.615
1524,7,-5,-14,-11,-3,0,3,3,7.62
1525,-16,6,-3,4,2,0,-6,-12,7.625
1526,4,1,27,12,3,-2,-2,1,7.63
1527,-12,-18,12,9,-8,-7,0,9,7.635
1528,-4,-5,-7,1,-3,-1,2,3,7.640000000000001
1529,7,2,-30,-17,-1,1,5,8,7.6450000000000005
1530,-7,-4,-27,-3,0,1,-7,-16,7.65
1531,-1,5,45,12,1,0,-10,-6,7.655
1532,9,9,4,-10,-3,-4,2,7,7.66
1533,-4,-17,-17,-5,0,0,1,-5,7.665
1534,-6,5,-24,0,1,2,0,-18,7.67
1535,12,-5,-21,-11,-2,1,0,33,7.675
1536,-6,-4,23,16,-2,0,8,-12,7.68
1537,3,2,16,-2,-3,-5,-4,31,7.6850000000000005
1538,-2,-2,-3,-3,0,-1,-5,-43,7.69
1539,-6,-5,-31,-8,-1,-1,-2,-2,7.695
1540,5,-2,-20,-15,0,-1,-2,4,7.7
1541,-8,-11,15,3,-4,0,4,-10,7.705
1542,-2,0,65,20,-1,-4,-13,11,7.71
1543,-1,10,-13,-5,1,0,9,-9,7.715
1544,5,0,2,6,-3,-2,-3,24,7.72
1545,-7,10,-24,-4,3,-2,0,-15,7.7250000000000005
1546,2,-1,3,-4,0,2,-5,0,7.73
1547,-6,-2,14,0,0,-3,-10,-12,7.735
1548,1,0,-19,4,2,0,-3,-1,7.74
1549,11,7,22,2,-4,-1,2,4,7.745
1550,6,5,-33,-5,0,0,7,21,7.75
1551,-2,1,-6,-6,0,-1,4,-1,7.755
1552,-5,-6,10,0,-2,0,-5,-12,7.76
1553,8,20,21,2,0,-1,-5,12,7.765000000000001
1554,-2,3,27,7,1,-5,-3,-13,7.7700000000000005
1555,4,0,-27,-3,2,2,6,6,7.775
1556,0,7,4,0,0,1,1,2,7.78
1557,1,0,-6,2,0,0,0,-13,7.785
1558,-1,7,3,-4,-3,-1,-1,13,7.79
1559,1,17,5,-1,-1,1,-7,-7,7.795
1560,-12,-13,-10,5,3,0,8,0,7.8
1561,1,-7,-1,-1,0,1,3,3,7.805000000000001
1562,-5,-6,-8,-7,-3,-3,-4,-3,7.8100000000000005
1563,-4,-15,-6,-4,-4,-4,-10,-8,7.815
1564,4,0,3,-3,-3,-2,0,-3,7.82
1565,4,-2,-11,1,1,0,-5,4,7.825
1566,-3,-5,0,-2,-4,1,16,5,7.83
1567,1,-5,-3,-2,-2,1,-5,-10,7.835
1568,-2,-1,7,5,-1,2,2,11,7.84
1569,-1,-6,1,-1,-1,-3,-3,4,7.845
1570,4,7,-17,-6,-1,-1,-2,-1,7.8500000000000005
1571,-3,4,-9,-3,0,-4,-2,-7,7.855
1572,-6,-5,-5,-6,-3,-1,3,3,7.86
1573,5,6,18,12,2,0,-3,-19,7.865
1574,0,-2,2,-4,-1,0,0,7,7.87
1575,0,0,11,5,2,2,6,0,7.875
1576,-3,-2,-9,-1,-2,-1,-6,-5,7.88
1577,-1,-3,-17,-7,-1,-1,0,1,7.885
1578,8,1,4,1,-2,-1,3,15,7.890000000000001
1579,2,-4,-22,-2,0,-3,-8,-6,7.8950000000000005
1580,-3,-2,10,1,1,0,3,0,7.9
1581,-7,-8,6,-4,-2,-1,-1,5,7.905
1582,-5,-8,-19,-2,0,0,-3,-12,7.91
1583,1,-1,4,-3,-2,-1,0,1,7.915
1584,-6,-7,14,3,-4,-2,-4,-7,7.92
1585,0,2,-3,1,-3,-3,-3,-2,7.925
1586,-2,-3,-7,-1,-1,-2,-3,5,7.930000000000001
1587,-2,-4,-13,-6,-3,2,9,11,7.9350000000000005
1588,0,6,12,2,0,-2,-7,-10,7.94
1589,-2,-4,10,-2,-1,-1,-5,-16,7.945
1590,-2,-2,-10,-7,-4,-2,-2,9,7.95
1591,-5,-14,-3,-3,-1,-3,2,-7,7.955
1592,-2,-4,-3,-3,-1,1,-5,-2,7.96
1593,0,2,1,1,0,-1,-3,3,7.965
1594,-6,-3,-5,-3,-1,-2,1,-3,7.97
1595,-3,0,-2,-2,-2,0,5,5,7.9750000000000005
1596,-1,0,-4,-6,1,-1,-4,-1,7.98
1597,1,7,6,2,0,0,1,-6,7.985
1598,4,-2,0,1,1,3,3,9,7.99
1599,1,8,9,0,0,3,-3,0,7.995
1600,-2,-6,-9,-4,-4,0,0,-2,8.0
1601,3,8,-2,0,0,1,0,-1,8.005
1602,1,4,6,4,4,-1,-2,-1,8.01
1603,-2,-5,1,1,0,0,-2,-3,8.015
1604,1,4,5,6,0,-1,1,-3,8.02
1605,-4,-7,-3,-2,-4,0,0,3,8.025
1606,4,5,4,2,0,-1,2,0,8.03
1607,-2,-5,-6,-4,-3,-1,-2,-5,8.035
1608,-2,-2,-10,-4,-3,-2,0,0,8.040000000000001
1609,-1,-1,11,3,-2,-2,0,1,8.045
1610,1,-2,1,2,1,-1,-2,-4,8.05
1611,2,5,1,1,0,-1,0,-1,8.055
1612,-1,-1,-2,1,0,1,2,4,8.06
1613,1,-1,-8,-1,2,0,1,1,8.065
1614,-7,-5,-1,-2,-4,-4,-3,-3,8.07
1615,0,-4,0,-1,-2,-2,-5,-3,8.075
1616,-3,1,-4,0,1,-1,-2,-2,8.08
1617,-1,-4,-3,1,1,1,-7,-3,8.085
1618,-5,-5,2,-2,-4,0,15,4,8.09
1619,3,4,2,-1,-1,-1,-2,-1,8.095
1620,-3,-8,-3,-1,1,-1,-4,-5,8.1
1621,2,4,-2,0,-2,1,2,-3,8.105
1622,-1,2,-2,-2,0,0,-4,4,8.11
1623,-1,-5,-1,0,-2,-1,0,-2,8.115
1624,4,10,0,-3,2,-2,-1,-2,8.120000000000001
1625,-7,-8,-4,-4,-1,-3,-5,-2,8.125
1626,-1,-6,-4,-2,-3,1,-4,0,8.13
1627,-4,-7,1,-3,-1,1,3,2,8.135
1628,0,-2,-1,0,-1,-3,-3,1,8.14
1629,-1,-6,-1,-1,-1,-1,3,2,8.145
1630,-1,-2,0,-1,-2,1,0,-6,8.15
1631,1,5,-7,-3,0,0,-5,-5,8.155
1632,-1,4,1,-3,-3,-4,-2,2,8.16
1633,1,-4,4,-1,-3,-2,1,-1,8.165000000000001
1634,1,5,-3,0,3,-1,-3,-1,8.17
1635,-4,2,-1,0,-2,-2,-3,-1,8.175
1636,-5,4,-8,-7,-1,-1,1,-13,8.18
1637,1,11,-4,0,0,-1,2,12,8.185
1638,6,9,0,-2,-2,-3,-9,-4,8.19
1639,5,6,7,6,3,-1,-3,2,8.195
1640,-2,-11,9,7,-1,1,13,0,8.2
1641,2,-5,-7,-4,-3,-3,-1,-1,8.205
1642,-6,-5,-3,-1,0,-1,-6,-8,8.21
1643,-1,-2,-11,-6,0,-1,5,-4,8.215
1644,-1,-2,0,-1,-2,-2,-5,-1,8.22
1645,-1,-3,3,2,1,0,0,-3,8.225
1646,0,2,1,0,-1,-1,-1,-1,8.23
1647,-3,-10,4,-2,-4,-3,-2,0,8.235
1648,1,-2,-2,1,0,1,2,4,8.24
1649,1,5,2,-1,-1,-3,0,-3,8.245000000000001
1650,-4,-13,-5,-1,0,0,-1,-2,8.25
1651,-6,-5,2,1,1,-1,-2,-5,8.255
1652,0,1,-3,-3,-4,-1,-6,0,8.26
1653,-2,-3,-4,1,1,0,2,-2,8.265
1654,4,9,2,-2,0,-1,1,-10,8.27
1655,-5,-9,0,-1,-2,-1,1,9,8.275
1656,1,0,-3,0,0,1,-1,4,8.28
1657,0,2,2,0,1,-1,-2,-3,8.285
1658,0,-1,0,0,0,0,0,4,8.290000000000001
1659,6,6,2,1,-1,1,2,2,8.295
1660,0,4,0,0,2,0,3,-1,8.3
1661,-2,-1,-5,-2,-1,-2,-3,-4,8.305
1662,-3,-7,-5,-3,-1,-2,2,2,8.31
1663,1,7,5,1,0,-1,-4,-3,8.315
1664,-3,-4,-2,-2,-3,-2,-5,-2,8.32
1665,-2,-5,0,-1,-3,-1,3,-1,8.325
1666,-1,-1,0,0,-1,-1,2,1,8.33
1667,-1,-1,-5,-2,-1,-1,-1,-4,8.335
1668,-5,-11,-7,-2,-1,0,1,-4,8.34
1669,-1,0,5,-2,-2,-2,-5,7,8.345
1670,-2,0,1,0,0,-2,-3,-1,8.35
1671,-1,0,2,-1,-2,0,-1,-4,8.355
1672,2,1,2,1,-1,-2,-8,-5,8.36
1673,-3,-7,-4,-2,0,0,7,3,8.365
1674,0,-6,-3,-2,0,-2,-2,5,8.370000000000001
1675,-3,-5,-3,0,-2,0,-1,1,8.375
1676,-1,3,-2,-4,-3,1,-3,-3,8.38
1677,-2,-3,-1,1,0,0,-7,1,8.385
1678,0,-2,-4,0,0,-1,8,0,8.39
1679,-1,-8,-3,-4,-1,-2,0,3,8.395
1680,0,2,2,0,-1,-3,2,0,8.4
1681,2,5,6,2,0,2,-4,-5,8.405
1682,-1,0,0,0,-2,-1,-6,-1,8.41
1683,0,8,1,0,0,-1,2,-5,8.415000000000001
1684,-4,-12,-1,-1,1,1,4,0,8.42
1685,-1,0,-4,-1,-1,-2,-1,-3,8.425
1686,-5,-13,-3,-1,-2,-1,1,0,8.43
1687,-1,2,1,0,-1,-2,0,-3,8.435
1688,3,6,0,2,-1,1,1,1,8.44
1689,-4,-7,-1,1,1,0,2,-3,8.445
1690,2,3,-2,-2,1,-1,-4,-1,8.45
1691,-2,-3,-2,0,1,-1,-3,0,8.455
1692,-2,-1,1,-1,-2,-2,-1,1,8.46
1693,3,2,-3,-1,0,-1,2,-4,8.465
1694,-3,-1,-1,0,0,-1,-2,0,8.47
1695,1,8,1,-1,1,-1,-5,-10,8.475
1696,-1,-6,-4,-1,0,-1,3,11,8.48
1697,-2,-1,-2,-5,-2,0,4,2,8.485
1698,2,3,1,-1,-1,-1,0,3,8.49
1699,-3,-11,-2,-4,-3,-1,-4,-3,8.495000000000001
1700,-5,-9,-3,0,-1,-2,-9,-8,8.5
1701,2,4,-4,-3,-2,-3,5,5,8.505
1702,-3,0,6,-1,-3,-1,2,-9,8.51
1703,-3,-3,-2,-1,-3,-1,-5,-5,8.515
1704,5,2,-4,-2,-1,0,-5,-3,8.52
1705,0,-1,-3,0,-1,0,-2,12,8.525
1706,1,6,-4,-1,0,0,1,-15,8.53
1707,2,4,2,0,0,1,4,5,8.535
1708,-3,-1,0,1,0,-1,0,-2,8.540000000000001
1709,-1,2,-1,-4,-2,-3,-3,-1,8.545
1710,-1,-3,-6,-5,-2,-1,-3,4,8.55
1711,2,7,-1,-2,-1,-1,2,0,8.555
1712,2,7,2,1,1,-1,1,1,8.56
1713,0,3,4,1,2,0,-5,-5,8.565
1714,2,4,3,5,-1,1,0,4,8.57
1715,4,2,-1,2,0,0,-1,6,8.575000000000001
1716,-4,-1,0,-3,-2,-1,-5,-15,8.58
1717,-3,2,3,0,-1,-1,5,7,8.585
1718,2,1,-1,1,1,0,2,5,8.59
1719,-3,-5,-5,-1,0,-1,-1,-1,8.595
1720,2,3,3,2,1,0,2,2,8.6
1721,-7,-9,-1,0,-1,-2,-6,-12,8.605
1722,-1,-6,-3,-3,-1,0,-5,1,8.61
1723,2,6,2,3,0,0,8,1,8.615
1724,2,3,-2,-2,-3,0,-1,-1,8.620000000000001
1725,-1,2,-1,1,2,1,3,-4,8.625
1726,0,0,-1,0,-1,-2,-4,3,8.63
1727,-1,1,2,2,0,4,2,-2,8.635
1728,0,-3,-2,-3,-1,-1,1,2,8.64
1729,4,2,-3,-1,-2,-2,-6,-1,8.645
1730,-2,2,1,0,-1,-1,2,-1,8.65
1731,-1,0,-2,-3,-3,-3,-2,11,8.655
1732,-8,-10,-2,-1,-1,-1,1,-14,8.66
1733,2,-2,-3,-2,1,1,0,-2,8.665000000000001
1734,3,1,-1,0,-2,0,2,3,8.67
1735,-9,-13,-9,-5,-4,-3,-5,-9,8.675
1736,0,4,2,0,-2,-1,0,9,8.68
1737,-5,-7,0,2,0,0,-4,-3,8.685
1738,-2,-2,-1,-3,-2,-1,-2,-3,8.69
1739,4,10,3,1,1,-1,-1,2,8.695
1740,-4,-3,-1,3,-1,0,-2,-2,8.700000000000001
1741,-7,-10,-4,-5,-3,-1,1,-6,8.705
1742,-2,1,0,0,0,0,-1,3,8.71
1743,5,0,-1,-4,-2,-2,-3,-1,8.715
1744,-1,-4,-5,-1,0,-2,0,2,8.72
1745,2,0,-1,2,0,-1,-1,0,8.725
1746,-6,-11,-2,-2,-1,0,0,-1,8.73
1747,-2,1,1,2,-1,-1,-10,-6,8.735
1748,-2,-1,-4,-4,-2,0,11,3,8.74
1749,-1,1,2,-3,-2,0,2,1,8.745000000000001
1750,0,1,2,0,-1,-2,1,-2,8.75
1751,-1,0,0,-1,-1,-1,1,0,8.755
1752,0,3,2,1,-1,-2,-6,-3,8.76
1753,1,2,-5,-3,-1,-1,-1,-4,8.765
1754,-1,-1,-1,-3,-1,-2,-3,-2,8.77
1755,-2,-5,2,-1,1,-1,3,8,8.775
1756,4,2,2,1,-1,0,0,5,8.78
1757,1,3,2,1,-1,0,0,-3,8.785
1758,-8,-12,1,0,-1,-1,-4,-5,8.790000000000001
1759,-2,-8,-1,0,-2,2,-1,-2,8.795
1760,-2,2,-3,-2,1,0,-1,-1,8.8
1761,-5,-6,-2,-3,-2,-2,-3,0,8.805
1762,2,3,2,1,-1,-2,-1,-1,8.81
1763,-4,-5,-5,-2,-2,-2,0,-4,8.815
1764,-1,-6,-3,-2,-2,-3,1,1,8.82
1765,-1,-6,-3,-3,-1,-1,-2,2,8.825000000000001
1766,0,0,-2,1,0,1,1,0,8.83
1767,1,3,2,-1,0,-1,-1,-3,8.835
1768,1,4,-2,-2,-1,-3,-3,-1,8.84
1769,1,2,-3,-2,-2,-2,0,0,8.845
1770,2,6,1,-1,-1,-2,0,0,8.85
1771,-2,-3,-1,0,0,0,-4,-2,8.855
1772,0,2,0,1,-2,-1,3,-2,8.86
1773,1,0,0,0,1,0,-3,0,8.865
1774,0,-1,-3,0,2,-1,1,-1,8.870000000000001
1775,5,5,3,0,-1,-1,7,6,8.875
1776,-6,-3,1,-1,1,0,-5,1,8.88
1777,-4,-7,-7,-3,-1,0,-1,-10,8.885
1778,2,7,1,-1,-1,-1,-3,13,8.89
1779,-4,-8,-4,0,0,-1,-5,-16,8.895
1780,5,-1,2,-1,0,-1,1,5,8.9
1781,-1,2,1,2,-1,-2,0,-2,8.905
1782,2,7,2,-1,-2,-1,-2,-1,8.91
1783,1,0,-5,-3,-1,0,-1,-2,8.915000000000001
1784,-4,-2,-3,-2,-3,-1,0,-3,8.92
1785,2,7,2,0,0,0,-1,2,8.925
1786,1,-1,0,-1,-2,-1,-2,-4,8.93
1787,-5,-10,-3,-2,1,0,1,2,8.935
1788,-3,-9,-3,0,-2,-2,-10,-5,8.94
1789,0,-3,-2,1,1,1,12,5,8.945
1790,-1,1,1,0,0,0,2,-4,8.950000000000001
1791,0,0,1,3,1,1,-1,0,8.955
1792,-4,-10,-4,-2,-1,0,-1,-1,8.96
1793,0,2,0,0,-4,-2,-6,-2,8.965
1794,-3,0,3,4,1,1,0,-2,8.97
1795,3,10,1,-1,-3,-2,-3,-1,8.975
1796,-1,2,-3,-2,0,0,2,7,8.98
1797,-2,-1,-1,-1,-1,-1,-2,5,8.985
1798,-1,-3,-2,-1,1,-1,0,-4,8.99
1799,-4,-4,-3,-2,-2,-3,-2,-2,8.995000000000001
1800,1,0,-1,0,0,-2,1,-5,9.0
1801,-1,1,4,1,1,1,0,3,9.005
1802,-6,-12,0,-1,1,-1,-4,2,9.01
1803,-4,-5,-4,0,0,0,2,-1,9.015
1804,6,6,0,-1,-2,1,1,-1,9.02
1805,1,0,-4,-3,-3,0,7,2,9.025
1806,-2,-3,-4,-3,-3,0,-2,-4,9.03
1807,2,2,1,2,0,-1,0,2,9.035
1808,2,5,2,1,2,0,-3,-6,9.040000000000001
1809,-1,1,3,1,2,0,-6,-5,9.045
1810,-1,-2,-5,-2,-3,-2,4,2,9.05
1811,0,-5,0,-2,-1,0,-3,-2,9.055
1812,-7,-11,2,0,-1,-1,1,-2,9.06
1813,1,2,4,-1,-1,-1,-3,-1,9.065
1814,-2,-4,-3,-1,1,0,1,-2,9.07
1815,0,4,0,0,-1,-1,0,0,9.075000000000001
1816,-3,-4,-4,-3,-3,-4,-4,-2,9.08
1817,-6,-9,-3,-1,-1,-2,0,-2,9.085
1818,0,4,0,0,-1,0,-1,-2,9.09
1819,-2,1,-1,1,-1,-1,-2,-3,9.095
1820,3,7,-2,-1,1,0,0,-2,9.1
1821,1,2,1,-1,-2,-2,-3,0,9.105
1822,0,1,-1,0,-1,-1,0,-13,9.11
1823,-1,-8,-3,0,-1,-3,-1,6,9.115
1824,-3,2,3,-1,0,-1,-1,1,9.120000000000001
1825,-5,-9,-5,-1,-1,2,0,-1,9.125
1826,2,2,-2,-1,-2,-1,-1,0,9.13
1827,-2,-1,1,1,-2,-2,0,-3,9.135
1828,1,0,2,-1,0,-2,-2,-2,9.14
1829,0,-7,-8,-1,-1,-3,-1,-1,9.145
1830,-2,-7,-4,-5,-3,-2,-3,-1,9.15
1831,-4,-4,-3,-3,-1,-1,-3,-3,9.155
1832,-2,2,1,1,-3,-1,0,1,9.16
1833,2,4,2,0,0,0,4,-1,9.165000000000001
1834,0,2,2,0,0,-2,-1,2,9.17
1835,0,2,-1,-1,-1,0,-1,-1,9.175
1836,1,1,-1,1,-1,0,-3,-3,9.18
1837,3,9,1,1,-1,-2,1,-1,9.185
1838,0,0,3,0,-1,0,2,2,9.19
1839,3,6,4,-1,-3,0,-3,-1,9.195
1840,-1,-1,0,0,2,1,1,-1,9.200000000000001
1841,0,3,2,0,0,-1,4,3,9.205
1842,1,-3,-5,-6,-1,-1,-1,1,9.21
1843,-1,-4,-2,0,0,0,-1,-3,9.215
1844,0,5,0,-1,-1,-1,0,-2,9.22
1845,-6,-4,0,1,-2,-1,-6,2,9.225
1846,0,7,2,1,2,-1,-2,0,9.23
1847,-2,-3,3,2,0,0,-1,-1,9.235
1848,0,-8,-5,0,0,-2,-2,-1,9.24
1849,0,2,1,-2,-3,-1,-3,-3,9.245000000000001
1850,-6,-6,-2,-2,0,0,1,-13,9.25
1851,-1,-1,-2,-1,-1,-2,0,8,9.255
1852,-2,-11,-2,-2,-1,0,6,6,9.26
1853,-3,17,-8,-2,-1,-1,-4,-3,9.265
1854,5,29,2,1,-3,-2,-1,2,9.27
1855,1,15,-2,2,1,1,-1,-6,9.275
1856,0,0,-1,-2,-2,-1,2,-3,9.28
1857,-4,-16,0,-1,-1,0,-5,-3,9.285
1858,-3,-21,-7,-2,-1,0,1,0,9.290000000000001
1859,1,-6,0,-2,0,-3,1,-1,9.295
1860,3,2,4,-1,-1,-2,-2,2,9.3
1861,0,-10,1,1,1,1,-1,-2,9.305
1862,2,-5,3,-1,-1,-1,-2,-1,9.31
1863,-2,-10,-2,-4,-2,-1,0,0,9.315
1864,1,-4,-5,-2,0,2,-1,-3,9.32
1865,-1,-2,3,1,-1,-1,1,-1,9.325000000000001
1866,0,-4,0,-1,-1,-2,-1,0,9.33
1867,-1,-5,-2,-3,0,-1,0,2,9.335
1868,-2,1,-1,2,-1,0,-2,-7,9.34
1869,1,-3,-5,-3,-1,0,-1,5,9.345
1870,-1,2,1,0,0,0,-3,0,9.35
1871,-2,-1,-1,-3,-4,-1,1,-3,9.355
1872,-1,4,1,1,0,-1,2,0,9.36
1873,-1,2,-2,-3,0,0,-3,-2,9.365
1874,-3,4,-2,-3,0,-2,-3,2,9.370000000000001
1875,1,8,0,-1,0,0,0,-1,9.375
1876,-3,5,-4,0,-4,-2,0,0,9.38
1877,2,11,-1,-1,-2,-1,-2,-2,9.385
1878,-1,1,-4,0,0,0,1,-1,9.39
1879,-2,4,2,0,-1,-1,-2,-2,9.395
1880,-2,-2,1,1,1,-1,-2,3,9.4
1881,1,15,1,1,0,-2,-2,-3,9.405
1882,-4,20,-1,-2,-3,-2,0,-2,9.41
1883,-4,47,-3,-3,0,0,-1,0,9.415000000000001
1884,-2,25,-2,-3,-2,-1,-2,-3,9.42
1885,-3,-3,-7,-6,-2,-3,-2,-3,9.425
1886,-2,-21,-1,0,1,1,1,-5,9.43
1887,4,-23,-3,1,-2,-1,-1,7,9.435
1888,-1,-27,0,-2,-1,-1,-1,0,9.44
1889,-1,-19,4,-1,-1,0,0,-1,9.445
1890,0,-19,-3,1,-1,0,-1,-2,9.450000000000001
1891,-2,-23,-8,-4,-2,-2,-4,-4,9.455
1892,-1,-9,1,-1,-1,0,-3,-1,9.46
1893,3,-7,3,3,1,0,-2,4,9.465
1894,2,2,1,0,-1,-3,-1,1,9.47
1895,0,-4,2,0,1,1,3,-3,9.475
1896,1,-8,-3,-4,-2,-3,-3,7,9.48
1897,1,-6,1,2,-1,0,0,-4,9.485
1898,-7,-19,-6,0,1,0,-2,-1,9.49
1899,-1,-5,0,0,0,0,-2,1,9.495000000000001
1900,0,4,3,0,-2,-1,-1,-4,9.5
1901,-5,-3,-7,-8,-4,-2,2,-4,9.505
1902,-3,4,1,-1,-1,0,2,2,9.51
1903,-1,-7,1,1,-2,-1,2,-1,9.515
1904,2,2,-2,0,2,0,-1,0,9.52
1905,1,6,3,1,-1,-1,-2,1,9.525
1906,1,2,0,-2,-3,0,-1,0,9.53
1907,0,6,1,2,1,1,-1,-1,9.535
1908,-4,0,-3,-1,0,-1,-3,-4,9.540000000000001
1909,-1,-4,-3,1,1,3,5,-3,9.545
1910,0,-7,-4,-4,-2,-2,-1,1,9.55
1911,4,3,1,0,-1,-2,-2,5,9.555
1912,0,0,1,-2,-3,-2,-2,-1,9.56
1913,0,-6,-2,1,1,1,2,2,9.565
1914,1,1,-4,-3,1,1,0,-5,9.57
1915,1,-2,-1,-3,-2,0,-1,-3,9.575000000000001
1916,2,3,2,1,3,0,-1,-1,9.58
1917,-5,-9,-2,-1,-1,-1,3,-3,9.585
1918,3,9,4,2,3,0,-1,3,9.59
1919,-3,-6,-4,-1,-1,0,-1,-4,9.595
1920,-2,0,-1,0,-2,-2,2,2,9.6
1921,-2,0,2,0,-2,-2,-3,0,9.605
1922,-1,5,1,-1,-3,-2,-2,5,9.61
1923,-6,-11,-1,0,0,-1,0,-5,9.615
1924,0,-6,-2,1,-1,0,0,-4,9.620000000000001
1925,0,-3,-5,-4,-3,-3,-3,0,9.625
1926,-1,-2,-2,0,0,0,0,-1,9.63
1927,-2,-3,-5,-3,-1,0,-2,-3,9.635
1928,-8,-10,-6,-4,-3,-1,0,-3,9.64
1929,-2,0,-2,-1,-1,-2,-2,-2,9.645
1930,2,3,5,2,1,-2,-2,-1,9.65
1931,-2,0,-4,-6,-3,-2,-1,-2,9.655
1932,0,-2,-5,-2,0,0,2,0,9.66
1933,0,7,0,0,0,-1,-3,0,9.665000000000001
1934,0,0,-3,-2,-2,-1,2,-2,9.67
1935,0,1,4,0,0,-1,-2,2,9.675
1936,5,11,2,0,0,-2,2,2,9.68
1937,-6,-9,-3,-6,-1,-1,-4,-3,9.685
1938,0,6,-1,-1,2,0,1,0,9.69
1939,3,8,1,0,-3,1,2,1,9.695
1940,-4,-1,-3,-3,-2,1,1,-10,9.700000000000001
1941,-1,3,1,1,0,1,-1,9,9.705
1942,1,-6,0,-1,-1,-2,-3,1,9.71
1943,-4,-12,-3,0,-1,0,0,1,9.715
1944,-7,-15,-1,3,0,1,1,-2,9.72
1945,-1,-5,-3,0,-1,-1,-1,-8,9.725
1946,-1,-4,-2,-1,-2,-1,-3,6,9.73
1947,-1,0,2,-1,0,-2,-1,-3,9.735
1948,0,1,-1,-3,0,1,-1,0,9.74
1949,5,6,1,0,-1,0,-1,-1,9.745000000000001
1950,-6,-6,-2,-2,-2,-1,0,-6,9.75
1951,-1,-6,-5,-3,-4,-2,-1,0,9.755
1952,-1,3,2,1,1,-1,-1,3,9.76
1953,0,0,-3,-3,-4,-1,0,1,9.765
1954,6,10,-2,0,-1,-1,0,-1,9.77
1955,1,3,5,1,4,0,-3,-2,9.775
1956,1,-2,-4,-5,-2,-2,-3,0,9.78
1957,0,0,3,1,2,2,-1,0,9.785
1958,-2,-2,-1,-1,-2,0,0,-4,9.790000000000001
1959,-6,-7,-3,-4,-3,-2,-1,-2,9.795
1960,-4,-7,-5,-4,-4,0,0,-1,9.8
1961,-2,0,0,-1,-1,-2,-1,-4,9.805
1962,-1,-3,-2,-1,-2,-2,0,0,9.81
1963,1,0,0,0,2,0,2,0,9.815
1964,1,3,4,2,0,-2,0,1,9.82
1965,-2,-9,-5,-1,1,0,0,-1,9.825000000000001
1966,-3,-7,-1,0,-1,-1,-3,-2,9.83
1967,-1,6,3,1,0,0,0,0,9.835
1968,8,6,0,0,1,0,1,1,9.84
1969,-5,-9,-4,1,-1,-2,-1,-1,9.845
1970,-2,-4,-1,0,-2,-2,-1,-1,9.85
1971,0,0,-2,-1,0,-3,-1,-3,9.855
1972,0,1,3,3,0,2,0,-9,9.86
1973,2,5,1,-2,0,-2,-1,5,9.865
1974,-4,-9,-5,-3,2,0,0,-2,9.870000000000001
1975,0,1,0,-2,-4,0,3,2,9.875
1976,-6,-7,1,0,-1,-2,-2,0,9.88
1977,-1,1,-3,1,-1,-2,1,-6,9.885
1978,-2,2,-1,-2,-1,-1,-1,-4,9.89
1979,3,3,0,3,2,1,0,2,9.895
1980,-4,-3,-9,-2,-3,-2,-3,-2,9.9
1981,6,14,6,3,1,2,2,3,9.905
1982,1,4,0,0,0,-1,0,2,9.91
1983,-4,-4,-3,0,-2,-1,-1,-3,9.915000000000001
1984,1,4,3,1,0,-1,-1,0,9.92
1985,-1,0,-2,-2,0,-2,-3,-1,9.925
1986,0,6,0,0,0,1,2,0,9.93
1987,-1,2,-3,-3,-2,0,-1,-2,9.935
1988,4,2,1,3,1,-2,-2,2,9.94
1989,-4,-2,-3,-3,-2,-1,2,-2,9.945
1990,0,5,2,-2,-1,-2,0,1,9.950000000000001
1991,-3,-8,-3,-2,-2,0,-2,-2,9.955
1992,-2,0,0,-1,-2,1,-2,0,9.96
1993,2,6,0,-1,-2,0,0,-1,9.965
1994,4,9,1,2,-1,-1,0,0,9.97
1995,0,0,-2,1,2,0,-3,-2,9.975
1996,-4,-3,-5,-4,0,-2,0,1,9.98
1997,2,-1,2,2,-2,1,0,1,9.985
1998,-1,-1,0,1,2,1,2,1,9.99
1999,4,3,0,-2,-2,-3,-1,0,9.995000000000001
2000,-1,-1,2,-1,0,0,-1,-1,10.0
2001,-5,-9,-1,0,0,-2,-2,-2,10.005
2002,0,-4,-4,-4,-3,-4,-3,-2,10.01
2003,-1,2,3,2,0,-1,-2,-2,10.015
2004,-7,-16,-3,-4,-1,-1,2,3,10.02
2005,0,2,2,2,0,0,-4,-1,10.025
2006,-6,-8,-3,-2,-1,1,-1,-3,10.03
2007,-3,-9,-5,-1,-2,-1,0,1,10.035
2008,2,12,3,-1,-1,-2,-1,-3,10.040000000000001
2009,2,7,3,1,1,1,0,3,10.045
2010,-1,-1,0,3,1,1,-2,4,10.05
2011,2,4,2,0,1,-2,-3,0,10.055
2012,-1,-6,-2,-4,-2,1,3,0,10.06
2013,-2,-1,-2,0,1,-1,-1,-3,10.065
2014,2,-4,-1,-2,-4,0,-2,-4,10.07
2015,-1,-1,2,3,1,0,0,0,10.075000000000001
2016,4,3,-5,2,0,0,-1,-1,10.08
2017,-3,-4,-2,-5,-1,-2,-3,-4,10.085
2018,-3,-4,3,0,0,0,3,0,10.09
2019,0,-6,-2,-3,-4,-2,0,0,10.095
2020,-1,-7,0,-2,-4,-2,-2,-1,10.1
2021,2,-4,-1,-2,-4,0,2,3,10.105
2022,0,2,0,-1,0,0,0,-1,10.11
2023,2,7,1,-2,-2,1,-2,-3,10.115
2024,0,2,-2,0,0,-1,-1,0,10.120000000000001
2025,0,-5,-4,-3,0,-2,-4,-2,10.125
2026,0,1,0,1,-1,-2,-1,-3,10.13
2027,-4,-2,1,-1,0,0,1,-2,10.135
2028,-1,4,2,2,-2,1,-3,0,10.14
2029,-3,1,-2,-4,-4,-1,3,-9,10.145
2030,1,3,-4,-2,0,-1,-1,7,10.15
2031,-2,5,-1,1,0,-2,-1,0,10.155
2032,-2,3,0,-1,0,-2,0,-1,10.16
2033,-2,1,1,0,2,-1,1,-4,10.165000000000001
2034,-1,-5,-3,-3,-1,-1,-2,-3,10.17
2035,0,-1,0,-1,0,-1,-3,-2,10.175
2036,1,4,2,-2,-2,-1,-2,-1,10.18
2037,8,26,5,3,0,1,2,-6,10.185
2038,-4,-3,-6,1,-1,-3,-3,7,10.19
2039,2,-2,-4,-3,-2,0,3,3,10.195
2040,-4,-5,1,1,0,-1,-1,-1,10.200000000000001
2041,0,3,-1,-1,1,-1,-5,2,10.205
2042,1,0,0,-1,-3,-3,-5,-7,10.21
2043,-1,-1,-3,-1,-3,1,5,-1,10.215
2044,1,2,-1,0,0,-1,1,-1,10.22
2045,-7,-13,-5,2,-1,0,-5,0,10.225
2046,-1,2,6,-1,0,-1,-1,-3,10.23
2047,-4,-9,-6,-3,0,-2,-1,1,10.235
2048,0,-1,-3,-3,-2,-2,-4,-4,10.24
2049,5,1,0,-1,0,0,-1,7,10.245000000000001
2050,1,4,3,0,0,-1,-2,-3,10.25
2051,0,-2,-2,0,-1,-1,-2,1,10.255
2052,0,1,-1,-2,-1,0,4,-1,10.26
2053,-3,-3,0,-1,1,0,-2,-4,10.265
2054,5,10,-2,-3,-2,3,3,2,10.27
2055,-3,-4,-1,-2,-1,-1,-4,-8,10.275
2056,2,7,3,1,0,-1,0,2,10.28
2057,-3,-7,-1,-1,-5,-2,-2,1,10.285
2058,4,6,2,2,1,0,-3,0,10.290000000000001
2059,-1,1,-1,-2,2,1,5,-2,10.295
2060,2,3,-1,2,1,-1,-6,1,10.3
2061,-8,-11,-4,-5,0,-2,5,0,10.305
2062,0,1,0,2,0,-1,-1,-2,10.31
2063,5,12,6,2,-2,-2,-6,0,10.315
2064,-2,-3,-3,0,0,1,4,2,10.32
2065,1,1,-1,-3,-1,1,-2,0,10.325000000000001
2066,-6,-8,-7,-2,-2,-1,-4,-16,10.33
2067,-4,-6,1,0,-1,1,0,13,10.335
2068,-1,-4,-1,-1,-1,-2,-4,0,10.34
2069,-2,-3,-2,1,-2,-3,-10,-1,10.345
2070,-1,-4,-2,-3,0,0,7,-1,10.35
2071,0,0,-3,-3,-2,-1,7,4,10.355
2072,0,-4,-1,0,-2,-1,-2,-7,10.36
2073,0,4,3,-1,-3,-2,-3,-4,10.365
2074,0,-1,9,4,1,-1,2,1,10.370000000000001
2075,-5,-8,-5,-3,-1,-3,-5,-9,10.375
2076,5,10,6,0,-1,2,2,9,10.38
2077,-3,-7,-2,2,1,0,1,-2,10.385
2078,0,-1,-4,-3,-3,-1,-6,-2,10.39
2079,-2,0,3,1,0,0,3,2,10.395
2080,2,0,-2,-1,1,-2,0,-2,10.4
2081,2,7,0,-2,-2,0,-1,-2,10.405
2082,-5,-10,-3,0,0,1,1,2,10.41
2083,-4,-8,-3,-2,-1,-1,-2,-4,10.415000000000001
2084,-5,-3,-3,-4,-3,-2,-2,1,10.42
2085,4,11,5,0,-2,-2,0,-3,10.425
2086,-5,-10,-7,-1,-1,-1,-6,-2,10.43
2087,2,4,0,0,-1,-1,0,-3,10.435
2088,-2,-6,-6,-5,-3,-2,-5,1,10.44
2089,-1,-4,-4,2,0,1,7,4,10.445
2090,1,9,5,1,0,1,3,-5,10.450000000000001
2091,1,0,-4,-1,-2,-3,-8,3,10.455
2092,-3,4,-2,-1,1,0,0,-3,10.46
2093,-3,-3,-2,-1,-1,-1,2,4,10.465
2094,-4,-10,-6,-2,-2,-2,-3,-6,10.47
2095,1,-1,-3,0,-1,-1,-4,-6,10.475
2096,4,7,1,-1,2,0,-3,-1,10.48
2097,-7,-21,-4,-3,0,-3,5,0,10.485
2098,2,6,0,0,-2,1,2,1,10.49
2099,1,1,0,0,-1,0,-2,-1,10.495000000000001
2100,-4,0,3,1,-3,-1,1,-3,10.5
2101,2,3,-5,-3,-1,0,-2,-5,10.505
2102,-5,-1,1,-1,-1,-2,-2,8,10.51
2103,-3,-7,-4,0,2,2,-2,-2,10.515
2104,0,0,-1,-2,-1,-2,0,-2,10.52
2105,-3,-5,-4,-3,-1,0,-1,0,10.525
2106,-1,-7,-5,-3,-1,0,1,1,10.53
2107,1,6,2,2,1,0,0,-2,10.535
2108,-4,-7,-1,-1,1,0,-2,-6,10.540000000000001
2109,4,7,1,1,0,-1,0,3,10.545
2110,3,6,0,-3,-2,-3,-2,2,10.55
2111,0,3,0,-2,-3,-1,-2,-1,10.555
2112,0,-3,-1,2,0,0,3,0,10.56
2113,-3,-1,1,-2,-2,-1,1,-13,10.565
2114,-2,1,-3,-5,-2,-2,-2,7,10.57
2115,0,0,0,1,1,1,-3,0,10.575000000000001
2116,-2,-4,-1,0,-1,0,8,1,10.58
2117,2,3,-3,-4,-1,-1,-5,1,10.585
2118,-2,-1,5,-2,-5,-2,2,-4,10.59
2119,-5,-7,-4,-2,-2,-5,-12,-4,10.595
2120,-3,-10,-2,-3,-1,0,3,3,10.6
2121,2,4,1,2,1,1,5,2,10.605
2122,-4,-8,-5,0,0,-1,-2,-4,10.61
2123,-2,2,-1,-3,0,-1,3,0,10.615
2124,1,5,1,-1,-2,-2,-6,-3,10.620000000000001
2125,-3,-4,0,2,1,1,-2,5,10.625
2126,-4,-4,-2,1,-2,-1,1,-8,10.63
2127,1,1,1,0,-1,-1,3,3,10.635
2128,0,-2,-1,-1,1,-1,-3,-2,10.64
2129,-2,-5,-6,-3,-2,0,0,1,10.645
2130,4,3,-2,0,-1,1,1,3,10.65
2131,1,-6,3,1,-1,1,0,-2,10.655
2132,-1,3,1,1,0,-1,-3,-2,10.66
2133,-5,-8,-1,-6,-4,-3,2,0,10.665000000000001
2134,-2,-6,-2,-1,1,1,-1,0,10.67
2135,-1,1,-1,-2,-3,-1,0,-5,10.675
2136,2,8,-1,0,-2,-1,-3,2,10.68
2137,-2,-6,-1,2,1,0,-7,-6,10.685
2138,0,2,0,-1,-1,-1,3,6,10.69
2139,0,3,-5,-2,1,1,3,6,10.695
2140,-2,-4,-4,-2,-2,-1,4,-2,10.700000000000001
2141,2,5,0,-2,-2,-2,-3,0,10.705
2142,-3,-10,1,0,1,-2,-1,1,10.71
2143,-8,-11,-1,-4,-4,-3,-3,-10,10.715
2144,-3,-4,-2,-2,-1,3,1,18,10.72
2145,1,5,-1,2,1,-2,-2,-20,10.725
2146,3,-2,-5,-3,0,0,-3,0,10.73
2147,-1,6,4,-1,-1,-1,-1,-2,10.735
2148,-4,-12,-6,-3,-2,-3,-2,-1,10.74
2149,-2,0,-1,0,-1,3,9,3,10.745000000000001
2150,0,4,4,2,-1,0,0,-2,10.75
2151,5,4,-3,-4,-2,-1,2,-2,10.755
2152,2,0,-2,0,0,-1,-4,-1,10.76
2153,-2,-2,1,1,0,-3,-3,3,10.765
2154,0,4,0,1,-1,-2,-4,-2,10.77
2155,1,2,0,-1,-2,-1,0,1,10.775
2156,-6,-12,-2,-3,-1,-2,-3,-6,10.78
2157,1,2,2,-2,-1,0,2,4,10.785
2158,0,3,0,0,1,-1,1,-1,10.790000000000001
2159,1,6,-1,2,2,-2,2,1,10.795
2160,0,4,-2,-4,-1,0,0,-7,10.8
2161,2,2,-5,1,0,1,-4,-6,10.805
2162,-3,-6,-2,-4,-3,-1,-2,5,10.81
2163,-2,-4,1,3,0,2,0,-3,10.815
2164,-1,-2,1,1,-1,3,-2,-1,10.82
2165,-2,-11,-3,-2,-1,-1,-2,3,10.825000000000001
2166,-5,-6,-2,0,-1,-2,0,-7,10.83
2167,0,-3,-1,2,-1,-3,-4,-2,10.835
2168,-1,-2,-3,-2,0,-4,-5,-2,10.84
2169,2,2,1,-1,-2,-1,4,1,10.845
2170,-2,-3,1,-1,0,-1,0,11,10.85
2171,-4,-8,-5,-5,-2,-1,-1,-16,10.855
2172,-1,-7,-2,2,3,1,1,1,10.86
2173,4,10,6,4,0,0,-8,4,10.865
2174,-1,-4,-2,1,0,-2,1,-4,10.870000000000001
2175,2,7,0,-3,-3,3,4,9,10.875
2176,-2,5,2,2,-3,-2,-1,-8,10.88
2177,-5,-6,-2,-1,-2,-1,3,-9,10.885
2178,5,7,-1,-1,-1,0,-5,10,10.89
2179,-2,-1,5,3,1,-2,1,5,10.895
2180,5,5,-2,-2,0,-2,-1,-2,10.9
2181,0,3,2,-2,0,-1,-4,2,10.905
2182,-2,0,2,-3,-3,-1,-3,-11,10.91
2183,0,-1,-2,-2,-1,-2,0,4,10.915000000000001
2184,-1,-2,1,0,0,0,-2,-1,10.92
2185,2,2,-2,-1,-1,-1,1,1,10.925
2186,-2,-9,-2,-2,0,0,0,-3,10.93
2187,0,2,-1,1,-1,-1,1,-2,10.935
2188,-3,-4,-5,-4,-4,-1,1,-2,10.94
2189,-2,-6,-2,0,-1,0,-2,1,10.945
2190,0,2,4,1,-3,-1,-3,-2,10.950000000000001
2191,-1,-1,-4,-2,-1,0,-2,2,10.955
2192,-2,-4,-3,-2,-2,0,-2,-4,10.96
2193,-2,-1,-3,-2,-2,-2,-1,-2,10.965
2194,3,5,-1,1,-2,0,-2,1,10.97
2195,-2,-2,0,1,-1,-1,2,0,10.975
2196,0,-2,-3,-1,-2,-2,2,2,10.98
2197,-1,-1,2,1,1,1,0,0,10.985
2198,1,7,1,0,0,-1,-9,-7,10.99
2199,1,4,2,-1,1,-1,6,5,10.995000000000001
2200,2,4,0,-2,-1,0,-1,4,11.0
2201,-7,-19,-4,2,0,2,3,-8,11.005
2202,0,-5,-5,-1,0,-1,1,0,11.01
2203,0,1,0,-1,-3,-2,-9,-5,11.015
2204,0,3,2,2,2,0,0,-5,11.02
2205,3,4,1,0,-1,-3,-2,7,11.025
2206,-2,-2,-4,-1,-1,0,3,-2,11.03
2207,0,-5,-5,-1,1,-3,-2,-3,11.035
2208,-1,-1,-1,-2,-3,-1,2,3,11.040000000000001
2209,-1,0,2,-3,-2,-1,-3,0,11.045
2210,-4,-7,-2,1,0,0,4,-3,11.05
2211,-4,-5,-3,-3,0,-1,-1,1,11.055
2212,-7,-14,-7,-3,-1,0,-4,-4,11.06
2213,-4,-3,-1,-2,-2,-3,-1,-2,11.065
2214,0,-3,-1,1,1,0,-1,-1,11.07
2215,-1,-6,-1,0,0,0,-4,8,11.075000000000001
2216,-1,-5,3,1,0,-1,1,-1,11.08
2217,-4,-1,-5,-5,-3,-1,-2,0,11.085
2218,-2,2,-1,-2,-4,-3,0,-3,11.09
2219,1,1,-1,-1,-1,0,-4,-13,11.095
2220,3,6,1,-3,0,1,3,7,11.1
2221,-1,0,1,0,-1,0,-2,3,11.105
2222,3,5,1,-1,1,0,1,-1,11.11
2223,-7,-17,-7,-6,-3,-2,-2,-5,11.115
2224,-1,3,0,1,-3,-1,-2,-3,11.120000000000001
2225,3,6,1,0,-1,-2,-1,-6,11.125
2226,2,-1,0,0,-1,0,-1,5,11.13
2227,-5,3,1,-1,0,1,0,-3,11.135
2228,0,-1,5,-1,0,-1,-3,-1,11.14
2229,-4,-5,-6,-2,-1,-1,0,-1,11.145
2230,2,4,4,0,0,-2,1,-3,11.15
2231,2,4,8,4,2,0,4,5,11.155
2232,-4,-9,-5,-1,0,2,-2,-9,11.16
2233,2,5,2,0,3,1,-4,4,11.165000000000001
2234,-1,-1,-4,-3,0,-2,2,5,11.17
2235,-6,-10,-7,-5,-5,-2,-2,-4,11.175
2236,-3,3,-5,1,0,-1,-3,-4,11.18
2237,2,5,3,-2,-1,-2,-1,-3,11.185
2238,-6,-9,-1,-1,0,-1,-2,-3,11.19
2239,12,6,2,0,-3,0,3,6,11.195
2240,2,1,3,5,1,1,0,1,11.200000000000001
2241,-15,-3,-3,2,0,-1,-4,-1,11.205
2242,6,9,-12,-9,-1,3,4,-9,11.21
2243,6,-6,-5,-4,-1,-2,-1,15,11.215
2244,-5,14,26,9,-1,-2,11,9,11.22
2245,2,-3,-9,2,3,1,-3,-8,11.225
2246,3,7,-5,-3,-2,1,-7,-8,11.23
2247,-3,3,-44,-7,2,1,-12,-19,11.235
2248,13,9,-6,-14,0,3,9,9,11.24
2249,-2,-5,28,11,0,0,7,13,11.245000000000001
2250,0,-2,14,13,1,-1,-2,5,11.25
2251,-10,-12,95,15,-6,-7,3,-1,11.255
2252,1,-4,-10,10,0,-4,-5,0,11.26
2253,-4,-3,-4,-8,-2,-1,-6,-6,11.265
2254,6,-20,-90,-38,0,1,5,14,11.27
2255,-25,10,-27,-5,-4,-6,-24,-32,11.275
2256,-2,-14,-8,-3,2,2,20,-7,11.28
2257,5,0,77,26,-3,-2,10,-7,11.285
2258,-6,-10,47,11,-5,-4,17,19,11.290000000000001
2259,8,14,0,-1,1,-1,-36,11,11.295
2260,-8,-12,-45,-13,-2,-3,9,-26,11.3
2261,3,4,-84,-22,1,-1,-14,-15,11.305
2262,4,12,27,3,1,-1,-21,8,11.31
2263,9,7,81,24,2,2,28,18,11.315
2264,-7,-6,-50,-21,-4,-1,-1,-3,11.32
2265,-2,5,-76,-22,-3,0,11,5,11.325000000000001
2266,-2,0,30,12,-3,-2,-8,-8,11.33
2267,-1,6,18,14,4,0,0,-9,11.335
2268,2,1,21,-6,-4,-1,-12,14,11.34
2269,16,-4,4,21,1,-2,3,5,11.345
2270,-26,-15,-28,-29,-3,0,-4,-35,11.35
2271,-7,-21,64,35,-6,-3,3,6,11.355
2272,-3,-9,14,-3,2,-2,-7,2,11.36
2273,-12,-2,-77,-23,-1,-2,1,16,11.365
2274,20,-3,-41,-4,-1,-3,-5,1,11.370000000000001
2275,0,-7,-93,-33,4,7,9,-10,11.375
2276,-24,1,44,16,-9,-8,-28,-11,11.38
2277,4,-4,16,-7,1,4,-3,4,11.385
2278,-2,1,11,5,-3,2,46,2,11.39
2279,10,6,-116,-40,6,0,-3,6,11.395
2280,2,-5,53,29,-1,-3,-22,-47,11.4
2281,2,-7,62,10,-2,-4,-16,6,11.405
2282,11,15,-31,-5,1,0,-1,6,11.41
2283,-10,-27,-7,-18,-5,-2,15,-9,11.415000000000001
2284,1,6,-6,3,-3,-2,5,34,11.42
2285,-2,8,44,7,-2,-2,-2,-5,11.425
2286,-7,-1,-2,14,3,2,-1,11,11.43
2287,4,-6,-106,-37,3,6,5,7,11.435
2288,-2,19,60,29,5,3,-9,-12,11.44
2289,-5,-7,111,16,-6,-3,11,8,11.445
2290,1,14,14,7,-1,-5,-12,-2,11.450000000000001
2291,-4,-9,-36,-12,-2,-3,-6,-26,11.455
2292,11,-1,-119,-40,0,1,3,1,11.46
2293,-1,5,-8,-10,-1,3,1,2,11.465
2294,-6,1,58,36,-2,-5,-15,12,11.47
2295,1,10,0,6,-5,0,19,9,11.475
2296,13,1,0,5,3,1,9,40,11.48
2297,2,1,-75,-31,0,0,8,-20,11.485
2298,5,-7,-14,-8,4,0,-7,-8,11.49
2299,1,2,10,-1,-2,-1,-1,-10,11.495000000000001
2300,-7,-8,-31,-10,-3,-2,-6,-5,11.5
2301,5,13,10,13,2,0,-1,26,11.505
2302,7,5,-40,-11,-1,3,12,4,11.51
2303,-3,7,72,16,-4,-2,-17,-18,11.515
2304,1,19,65,20,1,-3,-19,3,11.52
2305,-6,-4,-12,7,1,0,-1,-40,11.525
2306,-8,-6,-11,-4,-5,-2,3,8,11.53
2307,11,14,-46,-19,4,3,14,24,11.535
2308,9,-26,-111,-42,-3,5,4,9,11.540000000000001
2309,-18,-1,96,32,-5,-5,-11,-12,11.545
2310,4,19,30,7,2,1,10,-13,11.55
2311,-5,-8,23,18,2,0,-5,18,11.555
2312,1,5,47,21,-2,-6,6,-14,11.56
2313,1,-3,-49,-9,1,-1,-10,5,11.565
2314,-8,-19,-69,-29,-3,1,4,-1,11.57
2315,2,10,70,24,-3,-5,-9,8,11.575000000000001
2316,7,10,-24,-21,-1,2,10,0,11.58
2317,-7,-15,-54,-19,-1,-2,-8,-7,11.585
2318,-10,-6,15,0,-3,-6,-17,-29,11.59
2319,1,-11,-3,2,-4,-1,1,10,11.595
2320,-14,8,28,9,1,4,15,13,11.6
2321,10,-6,8,10,-2,1,6,-8,11.605
2322,9,-1,-14,-4,1,-3,-26,-3,11.61
2323,-3,-1,-2,-1,1,3,5,3,11.615
2324,-3,-10,-54,-12,-2,-2,11,-16,11.620000000000001
2325,-3,9,47,14,2,0,1,5,11.625
2326,-2,3,-3,-2,-1,0,4,6,11.63
2327,-9,-17,37,10,-4,-6,-8,-17,11.635
2328,-10,-6,-26,-10,-2,-1,-6,2,11.64
2329,-3,-4,-7,-4,-3,0,-3,1,11.645
2330,-8,-3,-20,-17,-3,1,-1,-13,11.65
2331,-5,-12,53,22,-1,0,4,6,11.655
2332,8,2,-34,0,3,-1,-3,1,11.66
2333,4,-2,-14,-9,1,-1,-1,10,11.665000000000001
2334,0,2,22,2,0,0,3,-13,11.67
2335,-3,2,-24,-11,-2,-4,-12,5,11.675
2336,4,-6,6,2,-1,0,3,5,11.68
2337,0,12,0,-1,-2,-1,4,-8,11.685
2338,-2,5,-15,-3,3,4,5,5,11.69
2339,-1,5,0,0,-1,-6,-14,-10,11.695
2340,0,-2,42,24,-2,-4,-15,-3,11.700000000000001
2341,4,6,-23,-5,0,4,32,17,11.705
2342,-8,-5,28,8,-3,-3,-12,-13,11.71
2343,-1,1,-38,-13,1,2,6,-7,11.715
2344,2,7,48,6,1,-2,-20,-12,11.72
2345,-9,-24,-35,-7,-5,-3,7,9,11.725
2346,0,-2,-5,10,-2,-1,-6,8,11.73
2347,2,4,-41,-16,1,4,14,3,11.735
2348,5,6,65,27,2,1,1,34,11.74
2349,-20,-20,-13,-13,-4,-3,-12,-59,11.745000000000001
2350,6,-14,13,7,-4,-5,-1,18,11.75
2351,11,10,-55,-7,2,-1,-4,1,11.755
2352,-11,-1,17,-12,0,2,10,0,11.76
2353,0,17,67,23,-3,-7,-12,-8,11.765
2354,-6,-8,13,1,-4,-4,-9,3,11.77
2355,7,3,23,22,2,2,-4,-2,11.775
2356,3,-10,-77,-38,-2,1,18,-6,11.78
2357,-3,-18,-102,-27,0,1,-6,27,11.785
2358,-2,5,56,9,0,-1,8,-4,11.790000000000001
2359,5,13,53,15,-1,-4,3,2,11.795
2360,0,6,-25,-3,-1,0,-7,-38,11.8
2361,2,-16,6,-3,0,-1,0,24,11.805
2362,-1,0,12,12,1,4,19,29,11.81
2363,-14,-7,-48,-21,-1,-2,-24,-47,11.815
2364,-4,7,71,22,0,-4,-1,5,11.82
2365,0,3,-15,-12,-2,-6,-25,-35,11.825000000000001
2366,4,0,-22,-2,2,-2,1,9,11.83
2367,7,3,-12,-6,-3,2,19,26,11.835
2368,-4,-7,4,1,-5,-2,1,-10,11.84
2369,7,5,-14,4,1,-1,8,31,11.845
2370,-1,-5,23,4,1,0,-8,-9,11.85
2371,-4,3,7,4,1,-2,7,-10,11.855
2372,-3,-8,-61,-12,3,0,-3,-2,11.86
2373,-6,-5,33,7,-2,0,6,11,11.865
2374,-3,-3,-21,-6,-3,-2,-6,-2,11.870000000000001
2375,6,5,-5,-7,-2,-1,-7,-13,11.875
2376,4,-2,7,3,-2,-1,6,18,11.88
2377,17,20,1,-2,4,4,3,2,11.885
2378,-6,-6,-25,-6,0,-1,-4,-16,11.89
2379,3,4,51,18,0,-3,1,20,11.895
2380,-14,-12,-19,-9,-4,1,11,0,11.9
2381,3,4,3,0,1,3,-14,-30,11.905
2382,-5,3,6,-4,-1,-4,-10,-13,11.91
2383,-11,-2,-7,-1,-1,0,8,0,11.915000000000001
2384,3,4,-3,-6,-3,-4,-1,27,11.92
2385,15,-4,-10,1,1,1,7,6,11.925
2386,-1,1,3,0,-1,0,0,-4,11.93
2387,-2,-6,-6,-7,1,-1,-7,-2,11.935
2388,-6,2,23,17,-3,-4,-1,-8,11.94
2389,-9,-1,-28,-5,1,0,-1,1,11.945
2390,15,15,32,11,-1,-2,-6,-11,11.950000000000001
2391,-5,-8,-19,-2,-1,0,0,19,11.955
2392,3,6,26,-3,1,3,8,3,11.96
2393,-3,-1,16,2,-2,-2,-7,-3,11.965
2394,0,7,-13,1,0,0,1,-7,11.97
2395,-6,-11,-43,-17,-6,-2,-4,3,11.975
2396,-1,-3,18,8,-1,-2,-7,-10,11.98
2397,12,17,11,0,-3,-1,6,8,11.985
2398,-9,-5,-3,-2,4,1,5,-4,11.99
2399,1,2,7,6,-1,1,-2,-1,11.995000000000001
2400,1,3,-13,-3,0,-3,-6,-5,12.0
2401,-6,-5,1,-5,-1,-1,-4,-12,12.005
2402,-2,-5,-6,-3,-4,-3,3,6,12.01
2403,1,-1,14,2,-2,-1,-1,0,12.015
2404,1,5,-12,-8,-3,-3,-6,-7,12.02
2405,-3,-3,2,4,0,0,-4,10,12.025
2406,4,10,-2,1,1,4,16,8,12.030000000000001
2407,-5,-5,22,2,-2,-3,-2,-17,12.035
2408,-1,-16,-10,-3,-5,-2,-4,4,12.040000000000001
2409,-11,0,-7,-3,-2,1,-1,-9,12.045
2410,2,0,-7,-7,-1,0,-2,0,12.05
2411,2,11,-2,-2,-3,-1,2,-3,12.055
2412,3,6,-8,-3,2,0,-4,2,12.06
2413,-1,2,1,2,1,-2,1,4,12.065
2414,-3,-7,-5,-1,0,0,-1,-3,12.07
2415,0,-5,0,-1,1,-1,1,7,12.075000000000001
2416,-2,-7,-4,-5,-3,-1,-4,-7,12.08
2417,0,-4,2,2,-1,-1,1,2,12.085
2418,-5,2,0,-2,-1,-3,-1,1,12.09
2419,-6,-5,-2,-2,-1,-1,-5,-2,12.095
2420,5,6,1,-3,-4,-1,-4,-6,12.1
2421,-2,-3,-1,-2,-2,-1,3,2,12.105
2422,7,4,-2,-4,-3,0,-2,2,12.11
2423,-1,4,0,2,-1,1,-2,-2,12.115
2424,-6,-4,-8,-4,0,-1,-1,-6,12.120000000000001
2425,0,-5,-11,-8,-2,-2,1,2,12.125
2426,-2,-4,3,4,-2,0,-3,-1,12.13
2427,0,3,8,3,2,2,1,-2,12.135
2428,-3,-5,-2,-3,-3,-1,-2,-2,12.14
2429,-2,0,-2,-3,-2,-1,-3,2,12.145
2430,-5,-5,-14,-5,0,-3,0,1,12.15
2431,0,-1,-6,-3,-1,-1,-1,-14,12.155000000000001
2432,2,6,11,3,2,-1,-3,5,12.16
2433,-1,-7,9,2,-4,-2,4,13,12.165000000000001
2434,3,-3,-2,2,1,1,1,-4,12.17
2435,2,5,-1,-1,-1,-1,-4,-3,12.175
2436,-2,-2,-10,-3,1,1,1,-5,12.18
2437,-6,-1,2,2,-1,-2,-2,-5,12.185
2438,-2,-2,-1,-3,-1,-1,0,4,12.19
2439,0,-5,3,-1,-1,-3,0,1,12.195
2440,-1,0,-5,0,0,0,-7,-6,12.200000000000001
2441,4,4,1,4,3,3,4,2,12.205
2442,1,5,5,2,-1,0,-2,1,12.21
2443,-2,-9,-2,-2,0,3,4,1,12.215
2444,0,-1,2,1,0,1,2,0,12.22
2445,1,2,-3,-1,-2,-1,-2,-2,12.225
2446,-2,0,-9,-7,0,-2,-3,-4,12.23
2447,-3,1,7,3,-2,-4,-2,1,12.235
2448,-2,-4,-2,2,1,-1,0,4,12.24
2449,-1,1,-4,1,2,-1,0,-4,12.245000000000001
2450,-2,-5,-14,-5,-1,-1,4,9,12.25
2451,-4,0,12,2,0,1,-4,-9,12.255
2452,3,0,0,-1,0,-1,-2,9,12.26
2453,3,3,-6,-3,1,-1,-2,-5,12.265
2454,-5,-10,-2,-4,-4,-2,-3,-2,12.27
2455,4,4,-3,-1,0,0,2,6,12.275
2456,-6,-8,0,-1,-1,1,-1,-9,12.280000000000001
2457,-6,-8,14,5,-1,-1,-2,-3,12.285
2458,-1,0,-6,-1,0,-1,-2,-1,12.290000000000001
2459,2,3,-10,-5,0,1,1,4,12.295
2460,1,10,13,4,2,-1,0,-9,12.3
2461,1,1,4,2,0,-1,-1,10,12.305
2462,-4,-5,4,2,-2,1,-3,-8,12.31
2463,-2,-4,-3,-2,-1,-3,-2,3,12.315
2464,3,-1,-7,-5,-1,-1,0,0,12.32
2465,-6,-7,-6,-7,-2,-2,0,-2,12.325000000000001
2466,-2,1,-5,2,2,1,2,0,12.33
2467,3,1,8,0,1,-2,0,0,12.335
2468,-1,2,6,4,0,0,1,2,12.34
2469,-1,7,-5,1,-2,-3,-4,-12,12.345
2470,-3,-9,-1,-3,-1,-1,-2,-1,12.35
2471,-1,-5,-11,-6,-2,-1,0,-2,12.355
2472,-2,-2,-3,-1,-1,-2,0,15,12.36
2473,3,1,-1,-1,-2,-2,1,0,12.365
2474,0,-3,-1,-2,-2,-2,-3,-2,12.370000000000001
2475,-3,-7,1,0,-1,-1,0,-1,12.375
2476,-2,2,1,1,-2,-1,0,-6,12.38
2477,-4,-2,5,0,3,0,1,-2,12.385
2478,-1,-1,-3,-1,-3,-2,-1,-1,12.39
2479,-2,1,-6,-1,-1,0,1,3,12.395
2480,2,5,0,-1,-1,-1,0,-5,12.4
2481,-4,-6,-6,-3,-2,0,-2,-3,12.405000000000001
2482,5,1,-3,0,0,0,3,0,12.41
2483,1,0,5,1,-2,-3,-3,-1,12.415000000000001
2484,0,-4,-7,-3,-2,-1,4,6,12.42
2485,3,1,-9,-7,-1,1,2,6,12.425
2486,0,6,18,6,-1,-1,-7,-10,12.43
2487,-6,-2,-9,1,0,0,-7,-15,12.435
2488,1,1,-1,-1,-1,-1,3,5,12.44
2489,-2,-6,6,3,-2,-3,3,5,12.445
2490,-1,-1,-8,-4,-1,-1,4,5,12.450000000000001
2491,1,-1,-2,-2,0,0,1,4,12.455
2492,-3,-8,2,-2,1,0,0,-7,12.46
2493,-5,-12,-5,-1,-2,-3,-2,-3,12.465
2494,0,1,2,-2,-1,-2,-1,1,12.47
2495,-3,-1,5,3,-1,-1,1,-1,12.475
2496,-6,-16,-3,3,1,0,-2,-4,12.48
2497,0,6,0,-1,-1,-1,-4,0,12.485
2498,-4,-3,-4,-3,0,-1,-3,-3,12.49
2499,0,-1,6,2,1,-2,-3,1,12.495000000000001
2500,5,10,10,3,0,0,0,0,12.5
2501,1,1,-6,-6,-2,-1,1,-6,12.505
2502,0,2,9,5,-2,-1,0,1,12.51
2503,1,3,-9,-4,0,-1,1,5,12.515
2504,-5,-1,-8,-5,-2,-1,-2,-6,12.52
2505,2,4,1,2,0,-2,-3,-5,12.525
2506,2,2,-1,-3,0,0,2,6,12.530000000000001
2507,-2,0,0,-2,-4,-3,0,-1,12.535
2508,0,2,2,-2,-1,0,-3,-3,12.540000000000001
2509,-2,3,0,1,-1,-1,0,-15,12.545
2510,-2,3,4,4,4,0,0,6,12.55
2511,3,-5,-4,-1,-2,0,0,8,12.555
2512,-8,-8,-3,-2,0,-1,-1,-6,12.56
2513,-3,-5,-7,-3,-1,0,-2,1,12.565
2514,0,1,3,-1,-2,-3,-3,-5,12.57
2515,-1,-2,12,2,0,-1,-2,2,12.575000000000001
2516,0,2,-15,-1,0,-2,-1,-3,12.58
2517,2,2,0,-2,-2,0,0,3,12.585
2518,0,0,-11,-2,-1,1,-1,-3,12.59
2519,5,6,-2,-1,-2,-1,0,2,12.595
2520,1,8,18,4,-1,-1,-2,-1,12.6
2521,-5,-8,-13,-3,-1,-2,-3,1,12.605
2522,2,-3,6,-5,-2,0,1,0,12.61
2523,-5,-7,-8,0,2,0,1,2,12.615
2524,4,9,2,-2,0,0,0,-16,12.620000000000001
2525,0,-3,-2,-3,-2,-3,-1,15,12.625
2526,-2,-2,-3,0,-1,0,-2,-4,12.63
2527,-1,2,2,-1,1,1,1,-3,12.635
2528,0,-1,2,2,3,1,5,3,12.64
2529,2,1,1,2,1,1,-6,-10,12.645
2530,0,-3,-4,-3,0,-2,0,3,12.65
2531,-3,0,-5,-1,-2,-1,-4,-8,12.655000000000001
2532,1,-4,-5,0,-1,1,-1,2,12.66
2533,-12,-24,-2,-3,-2,-2,0,-1,12.665000000000001
2534,-1,0,-1,2,0,-1,0,0,12.67
2535,3,4,1,3,2,1,1,-2,12.675
2536,1,0,-1,-3,-2,-2,-1,9,12.68
2537,3,3,5,3,0,-1,-3,-8,12.685
2538,1,-6,-1,2,-2,0,-2,-3,12.69
2539,-4,-6,-6,-4,-1,0,1,0,12.695
2540,0,-4,-14,-9,-4,-2,-4,1,12.700000000000001
2541,0,7,25,7,0,2,2,4,12.705
2542,0,0,-2,2,0,-2,-3,-3,12.71
2543,-1,-1,2,0,0,0,-1,-1,12.715
2544,-3,-9,-1,1,-3,-2,-2,3,12.72
2545,0,3,6,2,0,-1,3,-11,12.725
2546,0,2,-23,-8,-2,-1,1,6,12.73
2547,-2,-5,-3,-4,0,-1,-1,1,12.735
2548,-4,-1,-4,-3,2,0,0,-3,12.74
2549,2,4,0,1,1,1,2,0,12.745000000000001
2550,1,5,9,1,-1,-1,-1,-1,12.75
2551,0,3,-5,-1,-2,-2,-2,-2,12.755
2552,-1,0,0,0,-1,0,-1,-6,12.76
2553,1,5,0,-1,-2,-1,-3,9,12.765
2554,0,-1,1,1,1,0,-1,-1,12.77
2555,1,4,0,0,-2,-3,-1,0,12.775
2556,0,-1,4,2,0,0,-2,-1,12.780000000000001
2557,0,-4,-9,-2,1,-1,-2,1,12.785
2558,-7,-6,10,1,-1,-4,-3,-6,12.790000000000001
2559,-2,-3,1,2,-1,3,3,6,12.795
2560,1,1,1,-1,-3,0,-2,-8,12.8
2561,0,3,-8,-4,-3,-2,0,-1,12.805
2562,-1,-1,-6,-4,0,0,-2,-1,12.81
2563,-2,0,0,-1,-2,0,1,-12,12.815
2564,0,5,7,2,0,-2,0,10,12.82
2565,5,4,-11,-5,-3,1,2,6,12.825000000000001
2566,-1,-1,11,5,0,0,-1,-1,12.83
2567,-2,5,0,2,1,-2,-2,-1,12.835
2568,2,1,-10,-6,-1,-1,0,1,12.84
2569,-3,-5,3,1,0,-1,-3,-4,12.845
2570,-6,-8,-8,-3,-5,-2,3,0,12.85
2571,-1,-3,-4,-4,-1,0,-1,-2,12.855
2572,2,6,4,-1,0,-1,-3,0,12.86
2573,-1,2,1,1,0,-2,0,1,12.865
2574,-3,-4,0,2,1,2,0,-5,12.870000000000001
2575,2,-5,-3,-2,-1,-1,-1,3,12.875
2576,-3,-2,2,0,0,1,0,4,12.88
2577,3,13,0,-2,-1,0,-2,-1,12.885
2578,-1,0,5,-2,-3,-3,0,-2,12.89
2579,0,-1,-1,1,-1,0,1,0,12.895
2580,-1,-7,-4,-2,-2,-1,-1,0,12.9
2581,-2,1,-7,-1,-1,0,-1,-8,12.905000000000001
2582,0,3,-2,-1,-1,-1,-1,-6,12.91
2583,3,4,-3,-2,-1,-1,-2,9,12.915000000000001
2584,2,-2,-4,-1,-2,1,4,8,12.92
2585,0,1,15,4,-1,1,-1,-5,12.925
2586,2,4,-3,-2,1,0,-1,-6,12.93
2587,-3,-5,1,-2,-3,-2,-3,-7,12.935
2588,-3,-5,-13,-4,-2,-2,-2,-4,12.94
2589,0,14,-2,-4,-1,-3,1,4,12.945
2590,3,16,3,4,-1,2,1,4,12.950000000000001
2591,-5,-2,9,2,-1,0,-1,0,12.955
2592,1,-4,-3,-1,-1,-1,1,-2,12.96
2593,-8,-22,-6,-5,-2,0,-3,-2,12.965
2594,1,-7,-5,-2,-2,-3,-4,1,12.97
2595,2,-1,-3,0,-1,-1,0,-1,12.975
2596,-3,-1,-5,-3,-2,-1,-4,-5,12.98
2597,3,-8,-1,0,-2,0,2,1,12.985
2598,0,1,2,2,1,1,-2,1,12.99
2599,3,2,9,-1,1,-1,-3,-1,12.995000000000001
2600,0,-1,6,1,0,-1,-1,-2,13.0
2601,0,1,-7,1,3,2,2,1,13.005
2602,-1,-7,-2,-3,-1,-2,0,2,13.01
2603,0,4,0,-1,-3,-1,2,-1,13.015
2604,-1,1,4,-3,0,0,-3,-2,13.02
2605,1,-1,0,-4,-1,-1,0,2,13.025
2606,-2,0,-2,0,-1,0,-2,-10,13.030000000000001
2607,0,-3,-10,-4,-3,-2,-1,8,13.035
2608,-1,1,3,-1,-1,-2,0,2,13.040000000000001
2609,-5,-6,1,-1,0,-2,-2,2,13.045
2610,1,-1,-2,-2,-2,0,1,2,13.05
2611,-5,-3,-4,-3,-2,-2,-2,-6,13.055
2612,-2,1,3,4,-1,-1,2,-3,13.06
2613,0,2,-4,-2,-2,-2,-4,4,13.065
2614,4,8,1,-2,1,-1,-2,-1,13.07
2615,-4,-2,1,-1,0,0,-2,-3,13.075000000000001
2616,-4,0,0,1,1,0,0,-2,13.08
2617,-4,-14,-10,0,-1,-1,2,-1,13.085
2618,0,1,-3,-1,-1,0,2,5,13.09
2619,1,2,2,-3,0,-1,1,0,13.095
2620,0,0,2,0,0,-1,1,3,13.1
2621,3,7,5,1,-1,-4,-5,-3,13.105
2622,4,7,-1,-3,1,1,-1,-1,13.11
2623,-1,1,19,10,0,0,0,-14,13.115
2624,-5,-2,-6,-1,-2,0,-1,7,13.120000000000001
2625,-1,0,-3,-2,1,-1,1,5,13.125
2626,-4,-7,0,-2,-3,-1,-4,-6,13.13
2627,3,2,-12,-4,-1,-1,-3,-1,13.135
2628,3,4,2,-3,-1,0,-1,-5,13.14
2629,-5,-3,-3,-3,-3,-1,1,0,13.145
2630,-3,-13,-8,-4,-1,0,1,2,13.15
2631,-6,-6,-2,-2,0,-1,-3,1,13.155000000000001
2632,-3,-2,-4,-5,-3,-4,-2,-1,13.16
2633,2,2,2,1,-1,0,0,-3,13.165000000000001
2634,0,3,1,-1,-3,-2,-2,-2,13.17
2635,-4,-6,-7,1,-1,0,2,1,13.175
2636,0,-2,-1,3,0,-1,-3,-3,13.18
2637,6,5,1,3,-1,2,1,1,13.185
2638,0,2,-13,-2,0,0,0,1,13.19
2639,0,-4,0,3,0,-1,-2,-1,13.195
2640,2,7,11,8,1,0,3,-1,13.200000000000001
2641,-7,-10,9,4,-1,-1,-4,-8,13.205
2642,-5,-6,1,3,0,-1,0,2,13.21
2643,0,-4,-26,-9,-3,-2,2,1,13.215
2644,0,0,1,-3,-1,-1,-1,-3,13.22
2645,0,4,8,4,0,-1,-3,-1,13.225
2646,-2,1,3,1,0,-4,-1,1,13.23
2647,-8,-9,-2,1,0,2,0,-10,13.235
2648,-2,-6,-6,0,2,0,-1,7,13.24
2649,-1,-2,-5,-4,-1,-2,3,-1,13.245000000000001
2650,-2,-5,2,0,-2,-1,-1,3,13.25
2651,4,4,4,1,-2,0,-1,-2,13.255
2652,-3,-4,-3,-1,-2,-2,-1,-5,13.26
2653,6,7,1,3,3,0,-3,1,13.265
2654,-1,1,0,1,-1,-1,-1,-2,13.27
2655,-3,-1,5,1,0,-1,0,4,13.275
2656,-4,-8,-8,-5,-3,-4,-2,-4,13.280000000000001
2657,0,5,2,-2,-3,-2,1,-2,13.285
2658,1,1,-2,2,1,0,-2,-2,13.290000000000001
2659,-2,2,2,-2,-2,0,-3,1,13.295
2660,-1,-3,-10,-2,0,1,1,0,13.3
2661,-1,-4,2,3,1,0,-1,-3,13.305
2662,-3,-4,1,0,0,0,0,-3,13.31
2663,2,2,1,-1,-2,-2,1,7,13.315
2664,1,5,0,-2,-1,-3,-3,-8,13.32
2665,-2,-3,-10,-9,-3,-2,1,-1,13.325000000000001
2666,-4,-8,0,-2,-4,0,-2,0,13.33
2667,-1,0,2,1,-1,-3,-1,0,13.335
2668,2,1,2,-1,0,1,2,-1,13.34
2669,-3,0,-6,-3,0,-1,-3,-1,13.345
2670,-3,1,2,0,1,0,0,-1,13.35
2671,4,18,0,-1,0,-2,-2,-4,13.355
2672,-2,-3,13,3,-1,0,-1,8,13.36
2673,-5,-6,-1,-2,0,2,1,-1,13.365
2674,1,0,-6,-3,-1,0,0,3,13.370000000000001
2675,-5,-3,0,-2,0,-2,0,-4,13.375
2676,-3,-4,-3,2,0,0,-2,-6,13.38
2677,2,-4,-1,-1,-2,0,1,6,13.385
2678,0,-6,-2,-1,0,-2,1,-2,13.39
2679,-1,-5,-1,0,1,0,-1,-1,13.395
2680,1,1,4,0,-1,-1,-2,-1,13.4
2681,-2,-2,3,1,-1,-2,-1,-3,13.405000000000001
2682,1,4,2,0,-2,2,1,0,13.41
2683,-3,-8,-10,-3,-3,-1,-2,0,13.415000000000001
2684,-2,-2,-1,0,1,0,-3,-3,13.42
2685,2,3,-6,-2,-2,-2,-3,1,13.425
2686,2,0,4,1,0,-1,0,-1,13.43
2687,-2,-4,3,2,0,-2,-2,0,13.435
2688,0,-4,-5,-3,-3,-1,3,1,13.44
2689,-3,2,0,1,0,0,1,-1,13.445
2690,-6,-5,-3,-2,-2,-1,0,-4,13.450000000000001
2691,-1,2,1,0,-3,0,1,3,13.455
2692,-4,-1,2,3,0,-1,-4,-1,13.46
2693,-3,-6,-10,-4,-2,-3,-4,-6,13.465
2694,0,0,2,-2,0,-4,-2,0,13.47
2695,1,-3,1,1,0,-1,1,-1,13.475
2696,2,5,-3,-4,-4,-2,-1,-2,13.48
2697,-3,-8,1,0,-3,1,1,1,13.485
2698,-4,-7,-5,-3,-4,-1,-2,-3,13.49
2699,-1,0,-1,-1,-2,0,-1,1,13.495000000000001
2700,2,2,2,-1,-2,-2,0,0,13.5
2701,3,3,1,-1,-1,0,1,-3,13.505
2702,1,-2,-1,-1,-2,0,-1,-2,13.51
2703,1,2,-6,-3,-1,-3,-1,1,13.515
2704,-2,-4,-7,-3,-2,0,1,-1,13.52
2705,1,5,2,0,-1,-1,-2,1,13.525
2706,-2,2,9,2,0,0,-1,-2,13.530000000000001
2707,8,15,3,-1,1,2,-2,-10,13.535
2708,-2,-5,-9,-2,-1,0,1,9,13.540000000000001
2709,-1,-4,-6,-2,-2,-1,-1,0,13.545
2710,2,7,0,1,0,0,-2,3,13.55
2711,-5,-10,0,-1,-2,1,-4,-4,13.555
2712,1,4,5,4,-1,0,-1,-3,13.56
2713,-2,-2,0,-1,-2,-1,0,1,13.565
2714,4,0,-3,-1,2,0,1,2,13.57
2715,-3,-7,-9,-3,-1,-1,0,2,13.575000000000001
2716,-3,-3,-1,-3,1,-3,-2,-4,13.58
2717,-5,-7,6,3,0,1,-2,-3,13.585
2718,0,-2,-6,-2,1,-2,-2,-3,13.59
2719,-3,-7,0,1,1,-1,0,4,13.595
2720,1,2,-2,1,2,2,-2,-4,13.6
2721,5,11,1,0,-1,0,0,3,13.605
2722,-1,5,-1,-3,-1,-1,0,1,13.61
2723,-2,-5,-2,2,0,0,0,-2,13.615
2724,-1,-4,-8,-3,-1,-1,-2,-1,13.620000000000001
2725,1,5,-4,-1,1,-1,-1,-4,13.625
2726,3,-3,6,2,-3,0,0,0,13.63
2727,3,11,5,2,0,-1,1,3,13.635
2728,-2,2,7,-1,-2,1,2,0,13.64
2729,-1,4,-1,3,-1,-3,-3,-12,13.645
2730,0,-2,-8,-5,-3,-2,1,9,13.65
2731,3,6,2,-3,-3,0,1,3,13.655000000000001
2732,-1,-8,-2,-1,-2,0,0,0,13.66
2733,-4,-8,-10,-7,-1,-2,2,0,13.665000000000001
2734,-7,-6,-6,0,-1,0,-3,-6,13.67
2735,-3,-1,1,-5,-3,-1,-1,-2,13.675
2736,2,2,1,0,0,-2,-1,2,13.68
2737,-2,2,6,-3,-3,-2,0,1,13.685
2738,-1,-2,2,-1,-1,0,-2,-2,13.69
2739,-4,-9,-6,-3,0,-1,1,0,13.695
2740,-3,-1,-4,-2,0,0,0,-6,13.700000000000001
2741,2,3,-4,-1,0,-2,-3,5,13.705
2742,0,-2,0,1,-1,-2,0,3,13.71
2743,-2,-5,-2,-1,0,1,0,2,13.715
2744,-3,-6,-2,-4,-3,-1,-2,-3,13.72
2745,-2,-7,0,3,1,0,-1,1,13.725
2746,-1,4,-5,-2,-1,-1,-2,-3,13.73
2747,-2,-6,-3,-2,-1,-2,-2,-1,13.735
2748,1,0,-1,-2,-3,-2,2,6,13.74
2749,-1,-4,-3,-1,-1,0,-2,-7,13.745000000000001
2750,0,1,3,-2,-3,-1,-2,-3,13.75
2751,-1,1,2,0,-2,-2,-5,-15,13.755
2752,-1,2,1,-1,-1,-3,-1,12,13.76
2753,2,-3,-1,0,1,2,3,6,13.765
2754,1,2,3,-1,1,-1,0,0,13.77
2755,1,6,10,4,-1,-1,1,3,13.775
2756,-4,1,0,3,2,0,2,-5,13.780000000000001
2757,-1,3,1,-1,0,0,1,1,13.785
2758,-1,-9,-6,0,-1,-3,-2,-1,13.790000000000001
2759,0,-1,-6,-5,-3,-1,1,1,13.795
2760,-2,0,-4,-3,-2,-2,-3,-7,13.8
2761,-1,-2,2,1,0,0,-2,-2,13.805
2762,2,7,-2,0,2,1,-2,0,13.81
2763,-2,-3,2,1,2,1,0,1,13.815
2764,2,-5,-4,-2,-1,-2,-2,1,13.82
2765,-3,-2,0,0,-1,0,-5,-5,13.825000000000001
2766,-3,-5,-7,-4,-3,-1,3,5,13.83
2767,3,3,1,1,-1,-1,3,6,13.835
2768,-1,8,7,4,4,5,-1,-2,13.84
2769,-1,-2,1,-2,-1,-1,0,-1,13.845
2770,0,3,1,0,1,1,-1,-16,13.85
2771,-4,-9,-7,-4,0,-3,-4,6,13.855
2772,0,2,0,0,0,-2,-1,3,13.86
2773,-1,-2,1,0,0,0,3,2,13.865
2774,-1,0,-3,-4,-2,-4,-1,-3,13.870000000000001
2775,-4,-4,-4,-2,-1,-3,0,-5,13.875
2776,-3,-8,4,3,0,2,0,-3,13.88
2777,1,-2,-2,0,-3,-3,-3,-1,13.885
2778,0,-1,-2,-1,-2,1,-2,0,13.89
2779,2,4,0,2,2,1,-3,0,13.895
2780,3,2,-1,-5,-2,-2,-1,1,13.9
2781,-5,-2,-1,0,0,0,0,-3,13.905000000000001
2782,-2,-7,-1,0,0,0,0,-2,13.91
2783,5,11,-3,-3,-3,-2,-4,-1,13.915000000000001
2784,-7,-17,-4,0,-1,-3,4,-1,13.92
2785,1,2,0,0,0,-1,-1,-2,13.925
2786,5,13,2,2,-1,-2,-1,2,13.93
2787,-2,-5,1,2,0,2,-1,-1,13.935
2788,1,-1,-3,-1,-2,0,-2,-3,13.94
2789,-6,-7,-3,-1,-1,1,1,3,13.945
2790,-4,-3,-2,1,0,-1,-1,0,13.950000000000001
2791,1,2,-2,-1,-2,1,-3,-11,13.955
2792,0,1,-3,-1,-1,0,-1,3,13.96
2793,4,4,2,-1,0,-1,1,4,13.965
2794,-8,-11,6,-2,1,0,0,-2,13.97
2795,1,3,2,2,0,-1,0,1,13.975
2796,-6,-17,-10,-3,0,-1,-1,-4,13.98
2797,2,5,-5,-3,-2,-2,-2,-2,13.985
2798,0,1,5,3,0,0,-1,4,13.99
2799,-4,-8,-4,-4,-2,-1,3,-2,13.995000000000001
2800,-1,2,3,-2,-2,-1,-3,-3,14.0
2801,1,0,-2,0,0,-2,-5,1,14.005
2802,3,2,-8,-3,-2,-2,4,1,14.01
2803,-3,-4,-1,-2,0,-1,0,-1,14.015
2804,3,8,6,4,2,1,2,-3,14.02
2805,2,-6,6,0,-2,-2,6,7,14.025
2806,-1,-3,-1,-3,-1,-2,-7,-3,14.030000000000001
2807,-1,-1,-3,-3,0,-1,-3,-4,14.035
2808,-4,-4,-1,1,0,-1,-2,-5,14.040000000000001
2809,-1,3,-2,-2,-2,-3,-2,-6,14.045
2810,2,0,0,-1,-4,0,2,4,14.05
2811,-3,-4,-5,-2,-2,-1,2,-1,14.055
2812,3,0,-10,-6,0,1,0,4,14.06
2813,-6,-3,6,0,-2,0,-1,-4,14.065
2814,1,7,13,5,-1,0,-1,8,14.07
2815,-5,-7,-1,0,-1,0,1,-2,14.075000000000001
2816,-1,3,-4,-2,-1,-2,-2,-1,14.08
2817,0,-4,-10,-3,1,0,-1,-4,14.085
2818,-1,-3,-9,-6,0,0,-1,-3,14.09
2819,6,7,3,3,-1,0,-1,2,14.095
2820,-5,-8,7,2,-2,0,-3,-1,14.1
2821,-7,-2,-2,0,0,1,1,-3,14.105
2822,-8,-5,-4,-1,0,-1,0,-4,14.11
2823,1,-1,6,3,-1,-2,0,4,14.115
2824,2,9,-5,-6,-3,-2,1,2,14.120000000000001
2825,-5,-11,0,-3,-3,-2,-6,-1,14.125
2826,1,-3,-3,0,3,0,-1,-15,14.13
2827,4,5,-5,-2,1,-2,-1,3,14.135
2828,-2,-1,-1,2,1,-1,-2,-1,14.14
2829,5,10,-7,0,1,-1,2,4,14.145
2830,1,-2,-2,-3,-1,0,1,5,14.15
2831,1,6,7,2,2,-2,-3,-3,14.155000000000001
2832,7,1,4,1,-3,-1,0,2,14.16
2833,3,4,-3,-1,0,1,1,4,14.165000000000001
2834,-3,-6,-5,2,0,0,-1,-1,14.17
2835,0,-1,-7,-3,0,-3,-3,-1,14.175
2836,-1,-3,-4,0,0,1,3,-1,14.18
2837,-1,0,5,3,-2,-2,-1,-5,14.185
2838,1,-1,8,2,-1,0,0,1,14.19
2839,-1,4,7,3,1,-1,-3,1,14.195
2840,-7,-16,-14,-8,-2,-2,-3,-3,14.200000000000001
2841,-2,-1,-2,1,1,-1,0,-4,14.205
2842,1,-1,-3,2,-2,-1,-1,3,14.21
2843,2,3,-2,-2,-1,0,2,1,14.215
2844,-1,4,3,1,1,0,0,1,14.22
2845,-3,-7,-1,-3,-3,-3,-1,-2,14.225
2846,-1,3,-6,-6,-3,-2,0,0,14.23
2847,1,6,4,0,0,0,-1,0,14.235
2848,-3,-2,5,0,0,0,-1,7,14.24
2849,-1,-2,0,-3,0,-1,-2,-5,14.245000000000001
2850,4,8,5,0,-2,-1,-2,0,14.25
2851,2,-3,-5,-1,0,0,1,-1,14.255
2852,0,-1,1,1,-1,1,2,0,14.26
2853,-2,1,6,5,1,0,-5,0,14.265
2854,-3,-1,-5,-3,-2,-2,-1,-4,14.27
2855,-3,-4,-2,-1,-2,-1,1,-2,14.275
2856,0,1,8,-1,-2,-2,1,0,14.280000000000001
2857,2,0,-4,-1,0,0,-2,-5,14.285
2858,-3,0,-8,-2,1,1,-2,-2,14.290000000000001
2859,-6,-7,-1,-5,-1,0,1,0,14.295
2860,2,8,9,6,0,-1,2,-1,14.3
2861,-2,1,0,0,-1,-1,-1,0,14.305
2862,-3,-9,0,1,2,1,-2,0,14.31
2863,3,-1,-3,0,0,0,-2,2,14.315
2864,-1,1,-8,-5,0,-1,-1,-3,14.32
2865,5,9,-4,-3,-2,-1,-2,0,14.325000000000001
2866,-3,-7,0,-2,-2,-1,1,9,14.33
2867,-5,-8,-5,-2,-2,-1,0,-2,14.335
2868,1,-1,0,0,1,-1,-3,-5,14.34
2869,6,3,0,0,0,-1,1,4,14.345
2870,0,-1,-5,-3,-2,-2,-3,-4,14.35
2871,-1,0,-1,-2,0,-2,0,-1,14.355
2872,-2,-5,0,2,-1,2,2,-3,14.36
2873,-1,1,-4,-1,-1,1,-1,-3,14.365
2874,-1,-1,0,-2,-3,-1,3,0,14.370000000000001
2875,-4,-6,1,2,0,-2,-4,2,14.375
2876,0,2,-2,-3,-2,-2,-1,-4,14.38
2877,2,-2,1,-1,1,-1,-1,2,14.385
2878,-1,-3,0,-1,0,-1,-3,-4,14.39
2879,2,12,1,1,-2,-2,-2,-6,14.395
2880,-6,-8,-12,-4,-3,-3,-3,-1,14.4
2881,-9,-6,5,0,0,1,1,2,14.405000000000001
2882,-4,-8,-3,-4,-2,1,-1,-3,14.41
2883,-2,-3,-2,-1,-2,-1,-3,-7,14.415000000000001
2884,2,3,-3,-1,-1,0,-3,4,14.42
2885,1,-5,-5,-2,-1,-2,-1,4,14.425
2886,1,-2,3,1,0,-3,5,-4,14.43
2887,-2,-3,2,-1,-2,-3,-4,7,14.435
2888,2,-2,2,2,2,2,1,-2,14.44
2889,-5,0,0,-1,-3,0,-2,-3,14.445
2890,-1,3,2,3,2,0,-3,2,14.450000000000001
2891,-5,-14,-6,-2,-1,1,2,-4,14.455
2892,-1,5,4,1,-1,0,-3,-5,14.46
2893,-2,2,-3,1,-1,-2,0,1,14.465
2894,6,9,-6,-2,0,2,2,7,14.47
2895,0,4,3,-4,0,0,0,0,14.475
2896,-3,-4,-1,1,-3,-3,-2,1,14.48
2897,1,-1,10,0,-1,-1,-1,-5,14.485
2898,2,7,3,2,-1,-3,-4,-4,14.49
2899,2,8,-3,1,1,0,-1,-2,14.495000000000001
2900,0,-5,-6,-4,-2,0,1,3,14.5
2901,0,-3,-6,-4,-3,-1,-1,1,14.505
2902,-4,-2,0,0,-1,-2,-3,0,14.51
2903,0,-2,-2,-2,-1,-1,3,-14,14.515
2904,0,3,-1,-1,1,-2,-1,6,14.52
2905,3,-5,-4,-4,-1,-1,2,5,14.525
2906,-1,2,4,-1,0,-2,-3,0,14.530000000000001
2907,1,-2,-4,-1,1,-1,-2,0,14.535
2908,0,5,4,1,-1,-1,-3,-7,14.540000000000001
2909,0,0,-4,0,-1,-1,2,0,14.545
2910,1,-4,-4,-2,-2,-1,-1,-3,14.55
2911,-1,0,2,-2,-1,-1,0,-3,14.555
2912,0,2,5,2,-1,-1,1,2,14.56
2913,-1,3,-1,0,1,-1,-1,0,14.565
2914,4,14,2,1,1,-1,-1,-2,14.57
2915,-8,-11,-2,1,2,4,2,1,14.575000000000001
2916,2,-1,-4,-3,-1,-3,0,-2,14.58
2917,-2,0,-3,-2,-2,0,-2,-4,14.585
2918,1,-3,-4,-2,-2,-2,3,1,14.59
2919,-2,-1,10,-1,-3,-5,-4,1,14.595
2920,5,10,4,4,1,-1,-1,-1,14.6
2921,-3,-3,-3,-2,-2,-1,2,-1,14.605
2922,-7,-4,-2,1,1,0,0,-1,14.61
2923,-1,-1,-7,-1,-2,-1,-2,1,14.615
2924,-2,-3,-3,-2,0,-1,-1,8,14.620000000000001
2925,2,-2,4,0,1,-1,-1,-1,14.625
2926,0,1,0,1,-1,1,-1,4,14.63
2927,-1,0,-2,1,-2,0,1,4,14.635
2928,-7,-11,-5,-2,-2,1,-2,-9,14.64
2929,-1,1,-3,-2,0,0,-2,-1,14.645
2930,-3,-7,-1,0,-2,0,-1,-7,14.65
2931,-2,-3,-2,-3,-2,-3,-2,1,14.655000000000001
2932,-5,-5,-1,-3,-3,-2,0,3,14.66
2933,0,0,0,0,0,-2,-1,2,14.665000000000001
2934,-3,-9,-1,-2,-3,-1,-1,-2,14.67
2935,-3,-6,-3,-2,-3,-2,0,-5,14.675
2936,-2,-4,-2,2,1,1,-1,0,14.68
2937,3,9,1,2,-2,-2,-3,-4,14.685
2938,0,0,-8,-4,0,0,-3,-1,14.69
2939,-2,-5,0,-4,-2,-1,0,-10,14.695
2940,-4,-1,3,2,-2,-1,2,5,14.700000000000001
2941,-5,-7,-1,0,-1,-1,0,0,14.705
2942,1,4,2,-1,-3,-2,-4,-3,14.71
2943,-1,-4,-5,0,-1,-1,-1,2,14.715
2944,2,2,-4,-4,-3,0,0,-10,14.72
2945,-4,-8,2,-1,-1,0,2,2,14.725
2946,2,3,3,2,-1,1,0,1,14.73
2947,-6,-7,-3,-1,1,0,-2,-4,14.735
2948,3,6,2,1,1,0,-1,-3,14.74
2949,0,-1,-5,0,0,0,1,6,14.745000000000001
2950,-2,0,6,1,1,0,-2,-2,14.75
2951,1,0,1,0,1,1,-2,3,14.755
2952,-3,-4,-2,-5,-2,-1,1,-2,14.76
2953,-1,-1,0,1,1,1,-4,-5,14.765
2954,0,-3,1,0,0,-1,-1,3,14.77
2955,-3,0,-8,-1,0,1,3,-9,14.775
2956,-3,-5,-2,-4,-3,-2,-1,7,14.780000000000001
2957,3,1,4,1,-2,-2,-2,1,14.785
2958,-2,0,2,-1,-1,-2,-1,-2,14.790000000000001
2959,-2,-3,-2,0,1,0,0,4,14.795
2960,2,1,-3,-1,-1,1,0,-4,14.8
2961,-3,-5,-1,-3,-3,-1,0,-8,14.805
2962,-1,-3,-5,-3,-2,-1,0,3,14.81
2963,3,2,-1,-2,-2,-1,-1,3,14.815
2964,-1,0,5,0,-1,-3,-5,-9,14.82
2965,-3,-5,-4,-5,1,-2,-1,0,14.825000000000001
2966,-4,-9,-1,-1,1,1,1,3,14.83
2967,0,0,1,-1,-1,1,1,1,14.835
2968,0,2,1,1,1,0,2,2,14.84
2969,-4,-5,-2,0,-1,0,-2,-5,14.845
2970,-1,1,6,-2,1,-3,2,-5,14.85
2971,-2,-5,-2,-2,0,-1,-4,2,14.855
2972,3,2,0,-1,0,-1,1,1,14.86
2973,-4,1,-2,1,0,2,0,0,14.865
2974,-3,-2,-6,0,-1,-3,0,-9,14.870000000000001
2975,5,7,5,1,0,0,-1,11,14.875
2976,-2,0,3,5,3,0,-2,-2,14.88
2977,-2,-5,-5,-4,0,-1,2,0,14.885
2978,-4,-13,-4,-3,-2,1,-2,0,14.89
2979,-2,4,0,0,-2,0,2,-1,14.895
2980,-3,-6,-6,-2,-3,0,-3,-2,14.9
2981,4,7,5,4,-1,0,-1,-8,14.905000000000001
2982,4,8,-3,-1,-2,0,1,3,14.91
2983,1,0,5,4,1,-1,-1,-1,14.915000000000001
2984,-5,-8,-7,-8,-2,-1,0,1,14.92
2985,1,8,4,1,0,-2,-2,-3,14.925
2986,-2,-3,-1,-3,0,0,0,-1,14.93
2987,-1,1,-4,-1,0,0,0,5,14.935
2988,4,8,-1,1,-1,-2,-3,-3,14.94
2989,-1,-3,-4,-4,-2,-1,-3,-4,14.945
2990,-1,-1,2,1,2,-1,0,0,14.950000000000001
2991,1,3,-2,-2,-2,-3,-2,-1,14.955
2992,-3,-2,-2,-1,2,1,1,-1,14.96
2993,-3,-3,3,-4,-4,-2,0,3,14.965
2994,-2,-4,-1,0,-2,-1,-2,4,14.97
2995,4,7,5,0,-3,-1,0,-1,14.975
2996,2,2,-3,0,-1,1,-1,4,14.98
2997,-5,-12,-8,-2,-2,1,-1,-3,14.985
2998,2,6,5,-2,-2,-1,0,1,14.99
2999,-6,-3,-2,-1,-1,-1,-4,-7,14.995000000000001
3000,2,3,-6,-2,-1,-2,-4,-3,15.0
3001,3,9,13,1,1,0,0,4,15.005
3002,-3,-1,-5,2,1,-1,-1,-3,15.01
3003,0,-3,-2,-4,-1,1,1,-1,15.015
3004,3,9,6,1,-3,-2,1,0,15.02
3005,-3,-6,-9,-2,0,-3,-2,-1,15.025
3006,3,3,-2,-1,1,2,3,0,15.030000000000001
3007,-1,-2,-1,0,-2,0,-1,-3,15.035
3008,-1,-3,-3,-2,0,-1,-2,-2,15.040000000000001
3009,4,6,3,-2,-1,-1,-1,3,15.045
3010,-2,2,-2,-2,-1,-1,-2,-3,15.05
3011,-5,-7,-7,-4,-2,-2,-1,-11,15.055
3012,-2,-6,0,-2,-4,-1,-3,7,15.06
3013,5,5,-2,0,1,-1,2,6,15.065
3014,-4,-7,0,-4,-2,-4,-4,-4,15.07
3015,0,0,3,2,0,0,1,0,15.075000000000001
3016,-1,3,4,-1,-2,0,0,-4,15.08
3017,-1,-4,-3,3,1,-1,-2,3,15.085
3018,4,5,5,4,1,1,-1,6,15.09
3019,-2,-4,-7,0,-1,-1,-2,-1,15.095
3020,-2,-5,-2,-3,0,-1,-3,-1,15.1
3021,-1,1,-1,0,-1,-2,-5,-2,15.105
3022,0,1,4,1,-3,-1,-1,-3,15.11
3023,0,-3,1,-1,2,-1,-3,3,15.115
3024,-2,-5,0,0,0,2,2,-3,15.120000000000001
3025,-6,-2,-4,-2,-1,1,-2,-4,15.125
3026,-1,-3,-5,0,-1,-1,-1,-1,15.13
3027,3,4,-1,-1,-2,-1,0,-1,15.135
3028,-6,-16,-7,-1,-2,-1,1,-1,15.14
3029,4,5,5,2,0,1,1,-1,15.145
3030,-7,-11,0,-1,-1,-3,-3,0,15.15
3031,-1,0,-5,-4,-4,-2,-1,-2,15.155000000000001
3032,2,3,0,0,0,-2,-1,0,15.16
3033,2,-4,-5,-1,-1,1,-1,0,15.165000000000001
3034,-2,-5,-8,-3,-1,-1,0,-3,15.17
3035,2,5,13,5,1,0,-5,1,15.175
3036,-3,-3,1,0,-2,-1,-2,-1,15.18
3037,-4,-2,1,-3,-3,-1,-4,-8,15.185
3038,3,5,-3,1,0,0,-1,1,15.19
3039,-1,-4,-3,-2,-1,-1,-2,2,15.195
3040,0,1,0,-2,-2,-1,6,0,15.200000000000001
3041,0,-5,1,0,0,0,4,-1,15.205
3042,1,7,0,0,2,0,0,-2,15.21
3043,3,12,3,1,0,-3,1,-1,15.215
3044,0,3,3,2,-1,-2,-3,0,15.22
3045,-4,-7,-3,0,-1,-1,4,-1,15.225
3046,0,2,0,-4,-3,-1,0,-3,15.23
3047,-1,-4,-4,-1,-1,0,1,-1,15.235
3048,0,0,-2,2,-1,0,0,-13,15.24
3049,0,-3,-4,-2,-3,-2,0,8,15.245000000000001
3050,-5,6,3,0,-1,0,-1,-2,15.25
3051,0,-4,-1,-1,1,2,-1,0,15.255
3052,2,4,-4,-4,-1,0,4,1,15.26
3053,1,-2,2,1,0,-3,-3,-4,15.265
3054,0,-3,3,0,-1,-1,-2,-2,15.27
3055,-2,-4,-7,-4,-2,-2,-1,2,15.275
3056,-1,1,5,5,2,0,0,1,15.280000000000001
3057,-2,3,-8,-2,-1,0,2,3,15.285
3058,4,4,-4,-1,-2,1,-2,-6,15.290000000000001
3059,-4,-5,-2,0,-1,0,-3,4,15.295
3060,0,0,-2,-2,1,-1,-7,0,15.3
3061,-1,1,1,1,0,-1,-1,-1,15.305
3062,2,1,1,0,-2,-1,3,3,15.31
3063,0,-3,1,1,0,0,0,-2,15.315
3064,2,5,-2,-2,-2,-1,-1,1,15.32
3065,-3,-4,0,-2,0,1,-4,-1,15.325000000000001
3066,-1,-3,-6,-4,0,-1,-2,-1,15.33
3067,-1,3,-2,-2,-1,-2,-1,-4,15.335
3068,-5,-6,0,-2,-2,0,-1,2,15.34
3069,0,-4,-4,-2,-1,-2,2,-2,15.345
3070,-2,-5,-5,-3,-1,-1,-1,-9,15.35
3071,-2,-1,5,1,-3,-4,-1,6,15.355
3072,4,1,4,1,-1,0,-3,1,15.36
3073,-1,-2,-6,-3,0,0,3,7,15.365
3074,-4,-15,-6,-1,0,-1,-3,-4,15.370000000000001
3075,0,-2,0,1,-1,-1,-3,-5,15.375
3076,-2,-2,1,0,1,0,-1,-5,15.38
3077,-1,1,1,-1,-1,-2,-1,-4,15.385
3078,0,-3,-6,-3,-1,-2,0,4,15.39
3079,-1,-3,-2,0,-1,0,-1,-1,15.395
3080,-2,-1,1,1,1,0,3,-5,15.4
3081,-1,-4,-2,1,-2,-2,-2,-4,15.405000000000001
3082,-4,-4,-9,-5,-2,0,-1,9,15.41
3083,4,3,-3,-4,-2,-3,-18,8,15.415000000000001
3084,-1,2,8,3,1,-1,-1,-11,15.42
3085,-1,3,2,0,-1,0,7,2,15.425
3086,-2,0,-3,-3,-1,-1,5,-1,15.43
3087,-3,0,4,4,0,2,3,-1,15.435
3088,-4,-5,-15,-7,-2,-2,3,-9,15.44
3089,-1,-4,12,1,0,0,-3,11,15.445
3090,3,4,20,9,1,-2,-3,2,15.450000000000001
3091,-2,-1,-24,-11,-3,-2,-8,-11,15.455
3092,1,9,1,11,0,0,-4,2,15.46
3093,-4,-8,7,3,-1,-1,-4,-10,15.465
3094,-1,-7,-3,-5,-2,1,6,8,15.47
3095,2,1,-7,-2,-1,-3,4,-5,15.475
3096,6,-9,-38,-11,0,1,0,17,15.48
3097,-14,-5,2,-4,0,-1,1,-1,15.485000000000001
3098,4,10,-8,-3,-1,-1,-3,-5,15.49
3099,10,1,30,1,0,1,0,-13,15.495000000000001
3100,-9,-3,23,13,-2,-3,-11,-21,15.5
3101,-9,-1,-34,-11,-4,-4,-2,19,15.505
3102,11,0,-20,-10,-1,1,5,3,15.51
3103,-5,-5,-1,-11,-1,2,14,0,15.515
3104,0,-8,12,14,-4,-4,-1,6,15.52
3105,-2,12,-5,6,2,4,-3,-6,15.525
3106,-10,-3,33,5,-6,-3,-6,-12,15.530000000000001
3107,11,3,-33,-13,-2,-1,19,41,15.535
3108,-7,-13,-50,-30,1,4,-10,-6,15.540000000000001
3109,2,6,61,25,0,-5,-1,-8,15.545
3110,-16,14,39,24,-3,-6,-25,-51,15.55
3111,10,-13,-72,-26,3,0,-3,-7,15.555
3112,-4,-1,73,9,-2,-3,3,-11,15.56
3113,18,21,25,22,1,-1,6,8,15.565
3114,2,14,-38,-6,1,2,3,17,15.57
3115,-10,-11,29,16,0,-1,8,18,15.575000000000001
3116,-4,2,-16,-11,-3,1,1,5,15.58
3117,4,1,-22,-15,-1,1,-3,-16,15.585
3118,-6,-16,7,1,-2,-2,-12,14,15.59
3119,8,14,-87,-31,0,3,5,5,15.595
3120,5,-2,42,14,-3,-3,-9,8,15.6
3121,6,-9,70,10,-7,-5,2,-4,15.605
3122,-11,-6,-23,9,6,5,22,-4,15.610000000000001
3123,-6,0,20,16,-2,-1,-12,-39,15.615
3124,5,8,-14,-5,0,0,9,19,15.620000000000001
3125,12,-1,-46,-22,-2,-1,-9,10,15.625
3126,-16,-4,28,1,0,-2,-16,-10,15.63
3127,-6,4,30,16,-1,-2,4,-13,15.635
3128,-2,5,-77,-15,0,-1,-3,-13,15.64
3129,0,0,16,-8,-1,1,0,5,15.645
3130,18,3,-43,-25,-2,2,8,48,15.65
3131,-15,9,51,19,-1,-5,-7,3,15.655000000000001
3132,5,13,30,16,2,0,-3,-40,15.66
3133,-2,-3,-79,-25,5,5,3,1,15.665000000000001
3134,-2,-15,22,5,-4,-2,2,-7,15.67
3135,0,3,26,17,0,1,4,9,15.675
3136,3,0,13,1,0,1,9,16,15.68
3137,-8,-10,-17,-4,0,4,1,2,15.685
3138,4,4,-29,-16,-3,-3,-20,-21,15.69
3139,3,3,-20,-5,3,2,-1,-15,15.695
3140,-12,-10,-18,-14,-3,-6,-15,15,15.700000000000001
3141,0,3,58,23,0,1,29,10,15.705
3142,2,-21,33,7,-3,-1,10,13,15.71
3143,0,-7,-49,-15,3,2,-14,-4,15.715
3144,0,3,-19,1,-1,-3,-5,-3,15.72
3145,-9,-4,-6,-20,0,-1,-7,-19,15.725
3146,8,11,45,28,0,-1,6,18,15.73
3147,2,7,-26,-6,-2,1,7,15,15.735000000000001
3148,-2,-5,79,25,-3,-3,-11,-3,15.74
3149,2,-2,-54,-13,1,0,-9,4,15.745000000000001
3150,-12,9,-19,-1,2,-1,-12,-37,15.75
3151,20,-16,-11,-4,-2,-4,14,32,15.755
3152,-6,0,0,-7,-6,-5,-8,28,15.76
3153,-6,15,-14,11,3,0,-2,-62,15.765
3154,6,-7,-51,-29,-1,1,18,16,15.77
3155,-7,0,71,21,-4,-4,-16,-18,15.775
3156,9,2,-57,-14,2,2,2,18,15.780000000000001
3157,12,-5,16,-3,2,-2,-16,-1,15.785
3158,-11,6,49,22,1,-4,-1,-15,15.790000000000001
3159,-9,-5,-63,-7,3,4,0,-10,15.795
3160,10,5,-23,-14,-2,4,25,7,15.8
3161,-8,-16,100,37,-6,-7,-14,5,15.805
3162,10,-7,-61,-27,0,0,10,6,15.81
3163,0,-10,-34,-25,-3,-2,-7,3,15.815
3164,-22,1,6,7,-2,0,-5,-39,15.82
3165,-9,-6,-93,-29,-3,0,-12,26,15.825000000000001
3166,-5,-4,79,38,-1,-2,1,-23,15.83
3167,3,7,21,9,-1,-1,-1,0,15.835
3168,10,-11,-56,-19,3,0,-3,-2,15.84
3169,4,-1,-42,-16,3,6,21,9,15.845
3170,-20,-9,80,22,-10,-9,-7,-2,15.85
3171,7,6,-16,2,1,-1,-9,2,15.855
3172,-7,-5,11,1,-1,-2,6,-8,15.860000000000001
3173,5,3,-39,-9,2,-2,-2,-2,15.865
3174,5,8,-14,-1,7,2,-4,14,15.870000000000001
3175,-8,3,41,10,1,0,11,2,15.875
3176,-6,-2,-55,-7,0,3,2,1,15.88
3177,5,-12,-10,-9,-2,-2,-5,-6,15.885
3178,-4,-5,50,20,-4,-5,-9,-9,15.89
3179,4,2,1,3,0,-2,-5,14,15.895
3180,-7,-2,34,6,-3,2,13,-1,15.9
3181,-2,12,-47,-1,4,4,5,-11,15.905000000000001
3182,10,10,-43,-27,-1,-2,-14,-13,15.91
3183,-2,-6,-23,2,3,-1,-5,0,15.915000000000001
3184,3,3,66,11,-2,-1,8,6,15.92
3185,-14,-1,27,7,-6,-7,-6,6,15.925
3186,5,3,-14,-8,2,0,-3,-8,15.93
3187,-2,-9,-52,-27,-3,4,14,-7,15.935
3188,-8,-18,13,5,0,-3,-7,-16,15.94
3189,-7,11,28,20,-3,-7,-23,-16,15.945
3190,6,6,-81,-22,1,6,8,1,15.950000000000001
3191,-10,-3,97,12,-8,-7,-2,3,15.955
3192,15,18,-28,-12,4,2,3,45,15.96
3193,14,-5,42,22,-3,-2,1,-2,15.965
3194,-2,-5,-14,1,1,2,6,1,15.97
3195,-11,-8,5,4,-2,-1,5,-25,15.975
3196,2,2,-19,-13,0,-2,4,12,15.98
3197,2,14,-21,-8,-2,-1,-9,5,15.985000000000001
3198,6,-3,14,3,-2,-2,-4,16,15.99
3199,-19,-7,0,-4,1,1,-10,-16,15.995000000000001
3200,-1,2,49,28,2,-3,-1,2,16.0
3201,-2,-4,-34,-23,-2,1,20,-10,16.005
3202,25,-1,-32,-13,4,4,18,17,16.01
3203,3,-1,55,16,-4,-4,-4,7,16.015
3204,-10,-1,-45,-2,1,-4,-26,-38,16.02
3205,-10,-4,-28,-23,-5,-3,-11,-6,16.025
3206,-17,-7,-10,5,-7,-5,2,0,16.03
3207,2,0,41,2,-2,-2,-9,-3,16.035
3208,14,0,-6,10,-1,2,18,17,16.04
3209,-7,6,-22,-28,-3,-2,-8,1,16.045
3210,2,4,13,-2,1,5,9,2,16.05
3211,-6,-3,-12,10,2,0,5,2,16.055
3212,-9,-3,-7,-1,-4,-1,-4,-9,16.06
3213,7,-14,-8,8,3,2,8,0,16.065
3214,6,-8,-27,-9,2,1,-12,-3,16.07
3215,-8,12,3,-14,-6,-5,-15,0,16.075
3216,10,11,45,-9,-6,-4,6,6,16.080000000000002
3217,-9,-7,0,18,2,-3,0,2,16.085
3218,-12,-17,-12,-2,-2,3,16,-10,16.09
3219,20,-1,-19,14,2,2,-3,-7,16.095
3220,-2,-7,-46,-22,-2,-1,-5,4,16.1
3221,5,0,37,9,-4,-2,11,20,16.105
3222,-5,-13,-32,-20,-2,-2,-15,-8,16.11
3223,-11,4,-7,-10,-2,0,6,-8,16.115000000000002
3224,-9,-9,20,13,-1,-3,-17,-13,16.12
3225,-3,3,-41,-9,4,1,-8,-11,16.125
3226,-8,1,40,11,1,-1,4,6,16.13
3227,5,18,52,18,0,-1,8,3,16.135
3228,23,9,-41,-14,-1,2,-5,15,16.14
3229,-15,-32,41,6,-2,0,22,-11,16.145
3230,4,7,-24,-3,-3,-6,-16,-3,16.15
3231,-26,-14,29,15,-1,0,12,0,16.155
3232,-8,-9,-24,-20,0,0,0,-5,16.16
3233,24,4,22,7,-5,-2,-7,10,16.165
3234,-3,-1,-12,-11,1,-1,0,14,16.17
3235,5,6,-16,-6,1,-1,-4,-17,16.175
3236,-9,13,5,6,5,4,0,5,16.18
3237,2,-8,-1,-3,-1,-2,-6,15,16.185
3238,-15,-1,42,12,-5,-2,0,2,16.19
3239,5,4,-25,-13,-1,-1,-9,-17,16.195
3240,0,-1,-9,-2,-1,-1,4,-2,16.2
3241,1,15,-2,0,1,1,2,-7,16.205000000000002
3242,3,-1,12,7,-1,-1,1,0,16.21
3243,-2,-6,-54,-11,-2,-1,-3,6,16.215
3244,19,-1,2,-6,-2,0,-15,26,16.22
3245,-1,10,25,12,1,1,13,-5,16.225
3246,-4,6,38,8,4,2,19,24,16.23
3247,-8,-3,13,19,0,-1,-26,-38,16.235
3248,-5,-6,10,-1,-3,-5,-2,-35,16.240000000000002
3249,9,4,3,5,1,1,-11,-2,16.245
3250,3,-1,-79,-19,3,0,3,-1,16.25
3251,12,-2,20,-6,-4,-2,4,39,16.255
3252,-8,1,-15,10,0,1,16,5,16.26
3253,-10,-11,5,-11,-3,-3,0,-3,16.265
3254,4,-1,14,5,-3,-1,-2,5,16.27
3255,0,4,10,0,4,2,0,-23,16.275
3256,-13,-22,-6,8,-2,-3,-3,1,16.28
3257,11,7,-30,-14,-1,-1,2,6,16.285
3258,0,4,3,7,-2,-3,-16,-11,16.29
3259,2,-16,-6,-8,-3,-1,-3,24,16.295
3260,-6,9,23,7,-2,1,0,-29,16.3
3261,-6,-23,-57,-19,-1,1,6,7,16.305
3262,1,0,41,12,-3,0,-8,4,16.31
3263,-2,-5,-18,-6,-2,-3,5,13,16.315
3264,11,2,0,-10,-1,0,13,1,16.32
3265,-21,3,53,19,-2,-6,-23,-1,16.325
3266,11,2,-42,-15,0,1,10,-15,16.330000000000002
3267,-16,-16,-45,-13,-2,0,6,-7,16.335
3268,5,7,49,13,1,-2,-4,5,16.34
3269,9,-8,-35,-3,0,0,-11,3,16.345
3270,-4,-1,34,-2,-5,-4,-6,-3,16.35
3271,-1,13,12,6,0,-1,3,-6,16.355
3272,-12,-22,-28,-3,0,0,10,4,16.36
3273,-2,16,32,11,0,-1,-9,-11,16.365000000000002
3274,7,14,-18,2,2,1,1,4,16.37
3275,5,-4,-22,-11,-2,1,-1,6,16.375
3276,5,4,5,-4,0,0,-2,0,16.38
3277,-4,2,20,9,1,2,6,1,16.385
3278,-12,-2,-36,-15,-4,-3,-6,-8,16.39
3279,1,7,47,15,1,-1,-4,8,16.395
3280,0,-6,-8,-13,-6,-2,-3,-7,16.4
3281,-7,-2,4,3,0,-1,16,11,16.405
3282,-4,-13,-13,-5,-1,0,-1,0,16.41
3283,2,-1,-6,7,3,0,-4,-20,16.415
3284,-5,2,15,12,5,1,-6,6,16.42
3285,0,7,7,0,-2,0,-10,-19,16.425
3286,-9,0,-1,-12,-5,-3,-4,-24,16.43
3287,3,-4,-19,-5,1,2,6,36,16.435
3288,4,3,24,2,-3,-3,0,-9,16.44
3289,0,13,34,9,-2,-2,3,5,16.445
3290,3,-3,-4,4,2,0,8,6,16.45
3291,0,3,0,-6,-3,-3,-6,-29,16.455000000000002
3292,-4,3,-15,-1,1,-1,-14,7,16.46
3293,4,1,-6,-6,-4,0,-2,-1,16.465
3294,1,1,9,3,0,0,12,0,16.47
3295,1,-2,3,-8,-7,-2,3,12,16.475
3296,-5,4,-8,-6,1,-1,0,-2,16.48
3297,3,4,-3,7,4,1,3,7,16.485
3298,-2,-4,1,0,-1,1,-7,-6,16.490000000000002
3299,7,5,-17,10,3,1,1,-1,16.495
3300,7,8,7,-20,-3,2,1,-8,16.5
3301,-10,-23,-52,-23,-4,-2,-1,19,16.505
3302,2,5,41,16,1,-1,3,-1,16.51
3303,-2,-6,6,11,-1,-3,-10,-16,16.515
3304,-5,-11,-12,0,-1,-2,-9,-8,16.52
3305,12,7,4,9,1,1,7,-13,16.525
3306,-20,-16,-47,-16,-4,-1,-8,-9,16.53
3307,-1,6,36,-2,0,1,9,27,16.535
3308,-1,-1,10,4,-5,-3,3,13,16.54
3309,10,4,-1,-4,1,-3,1,-6,16.545
3310,0,6,-8,3,2,1,-1,5,16.55
3311,9,7,-12,-7,-1,-2,-14,-7,16.555
3312,-5,-9,-9,-2,0,5,20,-4,16.56
3313,-12,-1,1,-1,-4,-3,-5,2,16.565
3314,-7,2,0,-1,-2,-4,-4,-10,16.57
3315,-2,0,21,4,0,3,3,2,16.575
3316,-7,-5,8,13,1,-1,-4,0,16.580000000000002
3317,0,-10,-4,1,0,-1,-5,-6,16.585
3318,5,1,-28,-10,3,-2,-5,-4,16.59
3319,-3,-5,-1,-2,-1,-2,1,1,16.595
3320,0,2,12,10,-2,-2,-8,-9,16.6
3321,-3,-7,18,2,-2,2,4,2,16.605
3322,2,-7,-1,0,-3,1,2,3,16.61
3323,-5,-5,-25,-9,-3,-1,5,8,16.615000000000002
3324,-4,-10,-5,-1,-2,-2,-2,-7,16.62
3325,-5,-5,-13,-8,-1,-2,-5,-5,16.625
3326,2,1,20,4,-3,-3,-8,-1,16.63
3327,-2,-1,-13,-5,0,-2,2,0,16.635
3328,-1,1,-2,-3,-3,-2,3,2,16.64
3329,-3,0,8,3,-1,-1,-2,-3,16.645
3330,4,-1,-3,-2,0,1,1,5,16.65
3331,3,2,-7,-5,-3,-2,-1,-4,16.655
3332,-4,1,-14,-5,1,-2,-16,-6,16.66
3333,-4,1,0,-4,-1,2,19,-2,16.665
3334,4,7,14,5,0,-1,-1,0,16.67
3335,-12,-32,-8,3,2,2,2,3,16.675
3336,6,2,-10,-4,1,4,14,18,16.68
3337,-2,-2,4,0,1,-2,-11,-7,16.685
3338,-4,2,3,-1,-5,-6,-14,-10,16.69
3339,0,3,-9,-6,-2,-5,-5,-9,16.695
3340,-2,-3,1,3,-1,-1,0,-3,16.7
3341,2,2,5,2,-1,1,1,4,16.705000000000002
3342,-1,-1,-5,-2,-1,3,2,2,16.71
3343,-1,0,-10,-8,0,0,1,-15,16.715
3344,1,0,16,7,1,0,2,10,16.72
3345,-3,-5,3,-1,-5,-2,0,0,16.725
3346,5,0,6,5,3,3,-1,2,16.73
3347,-3,2,-2,-4,-2,-1,4,3,16.735
3348,-2,-4,-8,-4,-1,-1,0,-7,16.740000000000002
3349,1,3,-1,-2,0,-2,-4,-4,16.745
3350,0,1,1,0,-1,-2,-1,5,16.75
3351,2,7,1,-1,1,0,-1,3,16.755
3352,-4,0,-8,-3,-2,-4,-6,-4,16.76
3353,1,2,5,0,2,2,6,4,16.765
3354,2,-5,3,-1,-1,-2,-1,-8,16.77
3355,6,9,7,4,1,1,0,5,16.775
3356,-2,-12,-9,-5,-3,-1,-3,0,16.78
3357,-2,-2,-4,-2,-2,-2,-4,0,16.785
3358,-2,-1,-4,-2,-1,-3,0,2,16.79
3359,-1,-1,3,0,1,0,0,-16,16.795
3360,-2,-1,0,-1,1,-1,1,9,16.8
3361,1,1,0,1,-1,-1,-2,-2,16.805
3362,-1,2,-2,1,1,2,0,0,16.81
3363,1,-2,0,0,-2,-2,-5,-3,16.815
3364,0,1,-2,-2,-3,-2,-3,-6,16.82
3365,0,3,0,1,-1,-3,0,0,16.825
3366,0,6,-1,-3,-1,-3,-1,1,16.830000000000002
3367,0,-7,-2,0,1,1,4,0,16.835
3368,2,0,1,1,1,3,4,3,16.84
3369,-2,-8,-4,1,-2,-2,-5,-3,16.845
3370,-2,-1,1,1,-2,-1,1,1,16.85
3371,-3,-4,-2,-2,-1,0,1,1,16.855
3372,1,10,6,3,-2,-1,1,-4,16.86
3373,-11,-26,-10,-7,-1,-3,-3,-3,16.865000000000002
3374,-1,-7,-3,-1,-1,1,1,2,16.87
3375,1,-1,-1,-3,-3,-2,-4,3,16.875
3376,2,7,4,1,-2,-2,1,-8,16.88
3377,1,7,1,2,-1,-1,-4,-9,16.885
3378,-1,5,1,0,3,0,-3,8,16.89
3379,-1,-6,-1,-1,0,-2,0,3,16.895
3380,3,4,-3,-1,-2,-1,1,-1,16.9
3381,0,5,1,2,-1,-1,1,2,16.905
3382,0,-1,-5,-2,-2,-1,1,-1,16.91
3383,-3,7,1,0,-1,-1,-3,-8,16.915
3384,-2,0,-3,-2,-2,-2,-6,14,16.92
3385,6,0,2,1,0,0,-1,0,16.925
3386,0,1,0,-1,-1,0,-2,0,16.93
3387,-4,-4,-5,-2,-3,-1,-1,0,16.935
3388,-4,-3,0,0,1,-2,0,-9,16.94
3389,0,8,2,-1,-1,-1,-1,6,16.945
3390,-9,-23,-5,-5,-5,0,-2,-8,16.95
3391,3,2,4,2,1,1,-2,-1,16.955000000000002
3392,1,-4,-2,-3,-2,-3,-1,-5,16.96
3393,-2,-3,-2,-3,-2,-2,-2,2,16.965
3394,4,4,2,1,1,-1,0,1,16.97
3395,-1,2,2,2,1,1,0,1,16.975
3396,-1,-1,1,1,0,1,-3,-6,16.98
3397,-4,-8,-5,-2,-2,-2,-2,5,16.985
3398,0,-1,-1,-2,-2,-2,-2,-2,16.990000000000002
3399,-3,-5,-3,-3,0,-2,5,4,16.995
3400,0,1,0,-1,2,1,1,1,17.0
3401,-4,2,1,0,0,1,-3,-12,17.005
3402,2,1,1,2,0,1,-4,1,17.01
3403,0,-2,-3,-1,-2,-1,3,3,17.015
3404,-4,-9,0,0,-1,-1,-1,-2,17.02
3405,5,4,1,0,1,0,1,0,17.025
3406,-4,5,2,1,1,-1,-2,-3,17.03
3407,0,3,1,-1,-1,0,-3,-1,17.035
3408,-6,-15,-4,-3,-3,-4,-2,-2,17.04
3409,-4,-4,0,3,2,0,0,1,17.045
3410,2,-2,-7,-9,-1,0,-1,-2,17.05
3411,-4,-4,-3,-3,-2,-1,-2,-3,17.055
3412,3,6,0,1,2,2,6,1,17.06
3413,0,4,0,1,2,2,-1,-7,17.065
3414,5,5,4,6,2,-2,-1,15,17.07
3415,-1,-4,-6,0,-1,0,-1,-8,17.075
3416,-1,-1,-8,-8,-1,0,-4,-2,17.080000000000002
3417,6,13,1,0,-1,-2,0,1,17.085
3418,0,11,2,1,0,0,2,-3,17.09
3419,-3,1,0,-1,0,-2,-3,0,17.095
3420,1,-2,4,1,-3,0,-1,3,17.1
3421,1,-5,1,-3,-4,-3,-1,-5,17.105
3422,-3,-9,-3,-1,-2,-1,-1,1,17.11
3423,-3,-11,2,0,0,0,-2,-1,17.115000000000002
3424,-6,-9,-9,-3,-3,0,-1,-6,17.12
3425,-1,-3,0,-1,-3,0,-1,4,17.125
3426,0,4,5,1,-2,-2,-5,-2,17.13
3427,1,3,-1,-2,-2,0,8,9,17.135
3428,0,3,0,1,-1,-3,-4,-13,17.14
3429,-3,-3,-1,-1,0,-1,-5,3,17.145
3430,-1,3,-3,-2,-1,-2,3,0,17.150000000000002
3431,-3,-10,-3,-4,-2,-1,-3,3,17.155
3432,1,2,0,0,0,0,6,-1,17.16
3433,-2,-3,-3,-2,-1,-2,3,-7,17.165
3434,2,10,2,0,-2,-1,-2,-4,17.17
3435,1,-3,-1,2,-2,-1,-1,-2,17.175
3436,5,10,7,3,3,2,-4,8,17.18
3437,-2,-8,-7,-2,-2,-1,-3,1,17.185
3438,-4,-5,1,0,-1,0,-4,-1,17.19
3439,1,4,-1,-1,0,-1,-7,1,17.195
3440,-1,1,1,1,-2,0,-3,-2,17.2
3441,5,13,1,2,0,0,2,1,17.205000000000002
3442,-2,-5,-3,-3,-2,-2,3,-3,17.21
3443,1,3,1,-1,-1,0,1,-1,17.215
3444,-3,-7,-1,-2,-1,-1,1,-9,17.22
3445,0,5,-1,0,-1,1,2,8,17.225
3446,7,9,-1,-1,-1,0,3,6,17.23
3447,2,2,0,-1,1,-3,-3,-6,17.235
3448,1,-1,-1,-2,-1,0,2,2,17.240000000000002
3449,-1,1,0,0,-1,1,-1,-5,17.245
3450,-2,-9,-5,1,-1,-2,1,-6,17.25
3451,2,7,1,-1,-2,-1,2,7,17.255
3452,0,-3,-2,0,-1,-1,0,0,17.26
3453,-2,-5,0,0,-1,-2,-4,-1,17.265
3454,-5,-5,-1,-1,0,1,-1,-4,17.27
3455,-5,-4,-3,-3,-1,-2,-3,-9,17.275000000000002
3456,-5,-4,2,2,0,1,10,9,17.28
3457,-3,-3,0,-1,-1,1,-3,-3,17.285
3458,-6,-7,-4,-1,-1,-2,-4,-8,17.29
3459,2,6,0,1,-1,0,-3,-2,17.295
3460,5,13,1,-1,-1,-3,-7,2,17.3
3461,-1,-6,-5,-2,-1,0,1,3,17.305
3462,-2,-6,-2,-2,-1,0,-1,2,17.31
3463,-3,0,1,0,0,-2,-1,-4,17.315
3464,-3,-2,-1,0,-2,-2,2,2,17.32
3465,3,0,-4,0,-2,0,1,2,17.325
3466,2,-1,1,2,1,-1,-1,-3,17.330000000000002
3467,-7,-4,0,0,0,0,-2,-3,17.335
3468,6,11,-1,1,1,0,-2,-4,17.34
3469,-4,-1,2,0,0,-1,1,1,17.345
3470,1,1,-5,-4,-4,-1,2,3,17.35
3471,-2,-6,-4,-2,-3,0,-1,-4,17.355
3472,-2,1,0,-2,0,-3,-2,-3,17.36
3473,-1,-1,0,-2,-1,-4,-3,-2,17.365000000000002
3474,-5,-14,-3,-1,-2,-1,-1,-2,17.37
3475,-2,-3,-2,-1,0,0,-4,0,17.375
3476,-2,-9,-5,-4,-2,-2,-5,-1,17.38
3477,2,8,6,4,1,0,4,0,17.385
3478,-4,-8,-6,-4,-1,-2,2,-2,17.39
3479,2,0,2,1,1,0,2,1,17.395
3480,-4,-6,-1,-1,-1,-1,-2,-1,17.400000000000002
3481,1,1,-2,-1,-2,-1,-4,-2,17.405
3482,-2,5,1,0,0,0,3,1,17.41
3483,-4,-8,0,0,-1,-1,-2,-4,17.415
3484,-5,-6,-2,0,-2,-2,1,-5,17.42
3485,-1,0,-1,-1,-3,-1,1,9,17.425
3486,0,0,-1,-2,0,0,-3,1,17.43
3487,1,6,-1,-1,-1,-3,-2,1,17.435
3488,-2,-2,0,-2,-2,0,0,-6,17.44
3489,-2,-5,-6,-5,-2,0,-2,1,17.445
3490,0,2,3,0,1,0,0,1,17.45
3491,2,5,-2,1,-1,0,2,-1,17.455000000000002
3492,0,3,0,0,2,0,-1,4,17.46
3493,-4,-9,-2,-1,-1,-2,-1,-5,17.465
3494,-3,-8,0,0,-1,0,-1,-3,17.47
3495,2,3,3,0,1,0,-1,2,17.475
3496,3,-3,-2,-2,-2,-2,-1,0,17.48
3497,-3,1,0,-3,-3,-1,-2,-4,17.485
3498,5,12,1,-2,0,-2,0,-2,17.490000000000002
3499,1,2,0,1,0,0,-3,1,17.495
3500,-1,-3,0,2,0,-1,1,3,17.5
3501,-3,-1,-3,1,1,0,-3,-13,17.505
3502,1,5,2,0,-2,-2,4,11,17.51
3503,0,-4,0,-3,-1,-1,-3,-6,17.515
3504,-2,-1,-3,-5,-2,-1,-4,5,17.52
3505,1,2,-1,-3,0,-1,0,-5,17.525000000000002
