slno,emg1,emg2,emg3,emg4,emg5,emg6,emg7,emg8,Time
0,-1,0,-3,-2,-1,-3,0,1,0.0
1,-1,-1,-2,1,0,-2,-1,-3,0.005
2,-1,-1,0,0,-1,0,-1,-1,0.01
3,-2,0,0,1,-1,0,0,-1,0.015
4,-1,-1,-2,-1,-2,0,0,-1,0.02
5,-1,-1,-1,0,-2,-1,0,-1,0.025
6,-2,1,-3,-1,1,-1,0,-1,0.03
7,-1,-2,-2,1,-2,-2,-1,-2,0.035
8,-1,-2,-1,0,-1,-1,-1,-3,0.04
9,-2,-1,0,-2,0,-1,0,-1,0.045
10,-1,-1,-3,2,-1,-1,-1,-2,0.05
11,0,-4,0,-1,-1,-1,-2,0,0.055
12,-1,-2,-3,-2,-1,-1,-2,-1,0.06
13,1,0,0,0,0,-1,-1,1,0.065
14,-2,0,0,-3,0,-1,0,0,0.07
15,-1,0,-1,-2,-2,-2,1,-1,0.075
16,0,-1,-1,-1,-3,1,-1,-1,0.08
17,1,0,1,0,-1,0,-1,0,0.085
18,2,-2,1,-1,-1,-3,-1,-1,0.09
19,0,1,-2,-1,-2,-1,1,0,0.095
20,-1,-1,-1,0,0,-1,-1,-2,0.1
21,-1,0,0,-1,-1,0,-1,2,0.105
22,-1,0,-2,-1,-1,-1,-1,1,0.11
23,-1,-2,-1,-1,0,-1,-3,-1,0.115
24,-1,0,1,0,-1,-1,-1,-1,0.12
25,-2,-1,0,-1,0,0,0,0,0.125
26,0,-2,-2,-2,-2,1,0,0,0.13
27,0,-2,-2,0,0,-1,0,-1,0.135
28,-1,0,0,-2,1,-2,-2,0,0.14
29,-1,-1,-1,-3,-1,0,-1,0,0.145
30,-1,-1,0,-2,-1,-2,0,-3,0.15
31,-1,-1,0,-1,-3,-1,0,0,0.155
32,0,-2,0,0,-3,0,0,0,0.16
33,0,0,-1,1,0,-2,0,0,0.165
34,-1,0,0,0,0,-1,-1,0,0.17
35,0,-1,-2,-1,1,-2,-2,-2,0.17500000000000002
36,-1,-1,-1,-2,-2,-1,0,0,0.18
37,-1,-3,1,-3,-1,-2,-2,0,0.185
38,-1,-1,-2,-2,0,1,1,-1,0.19
39,-1,1,0,-2,-1,-2,-2,-2,0.195
40,-1,-1,-3,-2,-1,-1,-1,-1,0.2
41,-3,-1,0,-2,-3,0,-2,-2,0.20500000000000002
42,-1,-1,1,-1,-1,-1,-2,0,0.21
43,-1,-1,-3,-3,-1,-1,-2,0,0.215
44,1,-1,-2,0,0,-1,0,-2,0.22
45,0,-1,-2,0,-1,-2,0,-1,0.225
46,-1,-1,-2,1,1,-2,0,-3,0.23
47,0,0,0,-1,-2,1,-2,-3,0.23500000000000001
48,0,-1,-1,0,-2,1,0,0,0.24
49,0,0,-2,0,0,0,-1,-2,0.245
50,-2,-1,-2,0,-1,-1,0,0,0.25
51,-1,0,1,-3,-2,-2,0,-1,0.255
52,-2,1,-1,0,0,-1,-1,-2,0.26
53,-1,-2,-1,0,0,-1,-1,-1,0.265
54,1,-1,-1,-1,-2,0,-2,0,0.27
55,-1,0,-3,0,0,0,0,-1,0.275
56,-1,0,0,-1,0,-1,1,0,0.28
57,0,0,-1,1,-1,1,0,0,0.28500000000000003
58,0,-1,0,-2,0,-2,-2,-1,0.29
59,-1,0,-1,1,-2,-1,-1,-1,0.295
60,0,-2,-1,-2,-1,-2,0,-1,0.3
61,1,0,0,-1,-3,-1,-1,1,0.305
62,0,0,-1,0,-2,0,-1,-2,0.31
63,-1,-2,-2,-1,-2,1,0,0,0.315
64,0,-1,1,-2,0,1,2,0,0.32
65,0,-2,0,-3,-1,-1,-1,0,0.325
66,-2,0,0,1,-1,0,-1,0,0.33
67,0,-2,-1,-1,2,-1,-1,-1,0.335
68,-1,-1,-2,1,-1,-1,-2,-1,0.34
69,-2,0,-1,-1,-1,-2,-2,-1,0.34500000000000003
70,0,0,-1,-1,-4,0,-2,-1,0.35000000000000003
71,0,-3,-1,0,1,0,0,-1,0.355
72,0,-1,0,-2,0,-2,-2,-2,0.36
73,0,-1,-1,-1,2,-1,0,0,0.365
74,-1,-1,1,-2,-1,-2,-1,-1,0.37
75,-2,0,-1,-1,-3,-3,-1,-1,0.375
76,-1,0,-1,0,-2,0,-2,-1,0.38
77,0,-1,-2,-1,-2,0,0,-2,0.385
78,-1,0,-1,-3,-1,-1,0,-1,0.39
79,0,1,0,-1,-3,0,-1,-1,0.395
80,-2,0,1,0,-2,0,-1,-1,0.4
81,-3,1,0,1,-1,-2,-1,-1,0.405
82,-1,-1,-2,-2,-1,-2,-1,-1,0.41000000000000003
83,-1,-1,0,-1,-2,-1,-2,-1,0.41500000000000004
84,-1,-1,-1,-1,-1,0,-2,-2,0.42
85,1,-2,0,0,0,0,0,0,0.425
86,0,-2,1,-1,-3,-2,0,0,0.43
87,-1,-1,-1,0,0,0,-2,-2,0.435
88,-1,-1,-1,1,-1,0,-1,1,0.44
89,0,0,-1,-4,-3,-1,-1,-2,0.445
90,0,-2,-3,-2,-1,-1,-2,0,0.45
91,-1,-1,-1,-1,0,-1,0,-3,0.455
92,0,-1,-1,-1,1,-2,0,-1,0.46
93,0,0,-2,-2,1,-2,-2,0,0.465
94,-1,0,0,-1,1,1,0,-1,0.47000000000000003
95,-1,-2,-2,-1,0,-3,-1,0,0.47500000000000003
96,-1,-1,1,0,-3,-2,0,0,0.48
97,-1,0,0,2,-1,0,-1,0,0.485
98,-1,1,-1,-2,-1,0,0,-1,0.49
99,0,0,-1,0,-1,0,-2,0,0.495
100,-1,-1,-1,-2,0,0,-1,-2,0.5
101,-1,-2,-2,-3,-4,0,0,-1,0.505
102,-2,-2,-2,1,0,-3,-2,-1,0.51
103,-1,-2,1,-1,0,1,-1,-1,0.515
104,0,1,-1,0,1,-1,-2,-1,0.52
105,-2,-1,0,1,-1,0,-1,2,0.525
106,-1,-1,-1,-3,0,-1,-1,-1,0.53
107,-1,0,0,1,-1,-1,1,0,0.535
108,-2,-3,-3,-1,-3,0,1,-1,0.54
109,-3,-1,-3,1,-1,-1,0,-2,0.545
110,-1,-1,-2,2,0,-2,0,-1,0.55
111,-1,1,-1,-2,0,0,-1,1,0.555
112,-1,-1,0,0,1,-1,0,-1,0.56
113,-3,-1,-2,-8,-1,-2,-1,-1,0.5650000000000001
114,2,-1,1,1,-2,0,0,0,0.5700000000000001
115,0,-1,0,2,0,-1,0,-1,0.5750000000000001
116,-1,-1,-1,0,0,0,1,-1,0.58
117,1,-1,-1,1,-2,0,0,-1,0.585
118,0,-1,-1,-2,1,-1,0,-2,0.59
119,-2,-1,-1,-2,-2,-1,-2,0,0.595
120,0,0,-2,-2,-4,0,-3,-1,0.6
121,-3,-1,-1,0,1,-1,0,-1,0.605
122,1,0,0,-3,-1,-2,-2,1,0.61
123,0,-1,-3,0,-1,-2,0,-1,0.615
124,0,-3,-1,-1,0,-2,-2,1,0.62
125,1,-1,0,-2,1,0,-1,0,0.625
126,0,1,-3,0,1,-1,1,-2,0.63
127,-2,0,0,-3,1,0,0,-1,0.635
128,-1,0,-1,-2,1,0,-1,0,0.64
129,-1,-1,0,1,0,-2,0,-2,0.645
130,-1,-3,-1,-2,-3,0,-1,-1,0.65
131,0,-1,-1,-1,-2,-1,-1,-1,0.655
132,-1,0,-1,-2,-2,0,0,0,0.66
133,-1,1,-2,0,0,-2,-1,-2,0.665
134,-1,-1,-2,1,-1,0,-1,-2,0.67
135,-1,-1,-2,0,-1,1,2,-1,0.675
136,0,-2,1,-1,-3,-2,0,0,0.68
137,-1,-1,0,0,0,0,0,0,0.685
138,-2,0,-1,0,-1,-1,-2,-1,0.6900000000000001
139,-3,-2,-1,0,-1,-2,0,0,0.6950000000000001
140,0,0,-1,-1,1,-1,1,0,0.7000000000000001
141,-2,-1,0,1,-4,0,0,-1,0.705
142,-1,0,-2,-1,-1,-1,0,0,0.71
143,0,-2,0,-1,-3,-1,-2,-1,0.715
144,-1,0,-1,-2,-2,0,-2,-1,0.72
145,-1,-2,-1,-1,2,1,-1,-1,0.725
146,-1,-2,-1,0,-1,-1,-2,0,0.73
147,-1,-1,-1,0,0,0,1,-2,0.735
148,0,0,-2,-2,-2,-2,0,-2,0.74
149,1,0,-1,-1,-1,0,-3,-1,0.745
150,-1,0,0,0,-2,-1,-1,-1,0.75
151,1,0,1,-1,-1,-1,-1,-1,0.755
152,-1,-2,-2,1,-2,0,-2,-2,0.76
153,-1,-1,-2,0,6,1,1,-1,0.765
154,-2,2,-1,0,-1,-1,1,-1,0.77
155,-3,0,0,1,-1,-1,-1,0,0.775
156,-1,3,1,7,1,-3,-2,-2,0.78
157,0,0,-2,-11,-8,1,-1,0,0.785
158,-1,-5,-3,-10,6,5,0,-1,0.79
159,-1,0,-1,1,12,12,0,-1,0.795
160,-3,-2,3,13,-13,-13,-2,0,0.8
161,-2,-2,0,-5,9,-4,0,-2,0.805
162,0,1,-3,6,-4,3,1,2,0.81
163,-1,-1,0,-4,-7,-4,-3,-3,0.8150000000000001
164,0,2,5,1,16,10,-1,0,0.8200000000000001
165,-1,-1,-2,-4,-5,0,-2,-1,0.8250000000000001
166,-2,-6,-14,-18,-11,-16,-2,-1,0.8300000000000001
167,0,0,2,6,14,-1,-1,0,0.835
168,-1,-2,-3,-4,-8,7,1,0,0.84
169,-1,1,4,12,4,1,-2,-3,0.845
170,-1,0,3,5,3,1,0,-1,0.85
171,-2,-1,-2,-2,-15,-6,1,1,0.855
172,0,-2,0,-2,9,3,1,-2,0.86
173,-1,-3,-1,-7,-10,0,-1,0,0.865
174,-1,-2,0,-2,-8,1,-2,-3,0.87
175,-1,-1,-2,0,11,-6,-2,-2,0.875
176,-2,0,-3,-2,4,4,0,1,0.88
177,-1,1,-5,-3,2,4,-3,-2,0.885
178,0,0,1,1,-27,-18,-4,-1,0.89
179,-2,-2,-2,-3,-13,-5,-4,0,0.895
180,-2,-2,-3,-9,3,-5,-3,-3,0.9
181,-2,1,2,5,3,-3,2,-2,0.905
182,0,2,5,10,36,20,5,1,0.91
183,2,2,1,0,-9,6,5,1,0.915
184,1,0,-4,-6,-7,0,-2,0,0.92
185,-1,-3,-2,-4,-7,-3,-3,-1,0.925
186,-1,-1,0,-3,-10,-10,-4,-2,0.93
187,1,1,0,3,15,4,-1,-1,0.935
188,0,0,-1,-1,-6,-4,2,1,0.9400000000000001
189,1,1,1,9,-5,-5,0,0,0.9450000000000001
190,1,0,-1,-12,1,0,-3,-2,0.9500000000000001
191,-3,-2,-4,-7,-9,1,-3,-3,0.9550000000000001
192,-2,-4,-3,-8,-10,-11,-2,-2,0.96
193,-2,-2,0,4,2,2,-1,-1,0.965
194,0,0,2,5,10,0,2,1,0.97
195,1,0,-1,-5,-11,0,1,-1,0.975
196,1,-1,-1,3,16,8,1,0,0.98
197,2,-2,-2,-3,-13,-5,0,-2,0.985
198,1,-1,-2,-1,2,4,-4,-1,0.99
199,-6,-10,0,3,0,-7,-1,-3,0.995
200,-3,-5,0,-5,-15,-10,-2,-2,1.0
201,-1,2,2,-8,2,3,-2,1,1.0050000000000001
202,-2,3,1,16,20,9,2,-1,1.01
203,-1,2,-6,-16,-1,2,1,2,1.0150000000000001
204,0,2,-2,0,-2,-1,-1,0,1.02
205,1,4,2,14,-6,-9,-2,0,1.025
206,-4,-3,-2,-15,-12,-5,-2,-2,1.03
207,-3,-3,-1,-1,3,-1,-1,0,1.035
208,-1,-1,-1,2,3,2,3,0,1.04
209,-3,-2,-4,-10,-17,-5,-1,-2,1.045
210,4,11,4,12,13,3,-2,-1,1.05
211,-4,-6,3,9,13,6,3,0,1.055
212,2,6,1,-10,-2,2,2,-1,1.06
213,-2,-2,-3,0,0,-1,-1,-3,1.065
214,-4,-7,-3,-3,-13,-11,-3,-3,1.07
215,4,9,1,1,-4,-2,-4,0,1.075
216,-3,-4,2,-1,10,10,-1,-2,1.08
217,5,3,1,3,9,-8,3,2,1.085
218,-3,-5,-3,-2,-4,3,1,0,1.09
219,5,9,2,3,0,-4,-2,-2,1.095
220,-6,-12,-3,1,-5,2,-1,-3,1.1
221,1,3,-3,-3,2,0,-2,-2,1.105
222,-4,-10,-3,-4,7,1,-3,-3,1.11
223,-2,0,1,-1,-17,-13,-3,0,1.115
224,0,1,4,1,-10,-5,-2,0,1.12
225,1,4,-3,-5,22,9,1,1,1.125
226,1,4,3,2,-9,-3,0,1,1.1300000000000001
227,1,1,-3,-4,-2,2,-1,-2,1.135
228,-3,-11,-4,-1,6,-4,0,0,1.1400000000000001
229,-6,-15,-3,-3,-4,4,0,-1,1.145
230,7,4,0,1,8,12,4,1,1.1500000000000001
231,-1,-3,-4,-8,-26,-13,-5,-2,1.155
232,0,-4,-5,-2,9,-6,0,-3,1.16
233,2,0,2,7,18,5,-1,-1,1.165
234,3,4,2,1,-4,4,2,-1,1.17
235,0,1,0,-1,3,2,0,-2,1.175
236,4,9,-4,0,-11,-3,-1,-1,1.18
237,-3,0,4,-4,-7,-3,-1,-1,1.185
238,-9,-14,-12,-6,-8,-6,-3,-3,1.19
239,-2,5,3,0,9,2,-2,1,1.195
240,-10,-9,-3,-1,-6,-2,-3,-2,1.2
241,-7,-6,-4,-1,-1,-1,-1,-1,1.205
242,-1,9,2,-1,-3,-3,-1,1,1.21
243,-1,-3,-6,-5,1,0,-2,-3,1.215
244,6,7,8,5,5,2,4,2,1.22
245,4,0,-1,1,1,1,-1,2,1.225
246,-5,-18,-3,-2,-8,0,1,-1,1.23
247,-7,-18,0,1,0,-6,-8,-1,1.235
248,1,-4,3,-1,-9,-6,-3,-1,1.24
249,-5,-5,-10,-1,7,-1,0,1,1.245
250,2,9,3,2,7,5,0,1,1.25
251,-2,-1,-2,2,8,8,4,-2,1.2550000000000001
252,0,4,-7,-4,-7,-3,-3,-1,1.26
253,1,8,5,-4,-9,-2,-2,-2,1.2650000000000001
254,-3,2,-1,-2,-2,-9,-5,-2,1.27
255,-7,-10,-6,-4,-11,-4,2,0,1.2750000000000001
256,-5,-2,-2,1,7,5,-2,-1,1.28
257,5,16,2,-1,-3,0,-2,0,1.285
258,3,7,1,0,1,-3,-1,-1,1.29
259,8,15,4,6,2,6,0,1,1.295
260,0,3,-4,-1,-3,-3,0,0,1.3
261,-7,-14,-8,-4,9,-1,-7,-2,1.305
262,0,-1,-3,-2,-5,-2,2,1,1.31
263,1,0,1,0,6,-3,0,0,1.315
264,-1,-3,0,-2,-1,-5,-8,-2,1.32
265,0,-1,0,-2,-14,2,13,3,1.325
266,-3,-7,2,-1,1,2,2,-1,1.33
267,-3,-10,-8,-3,11,5,1,-2,1.335
268,4,4,0,-1,-8,-3,1,0,1.34
269,-7,-18,-4,5,11,-1,-3,-3,1.345
270,-2,-3,-3,1,-10,-3,-6,-2,1.35
271,4,9,1,-2,-1,2,8,1,1.355
272,-6,-10,-4,-4,-1,1,-4,-5,1.36
273,2,1,2,-1,-11,-5,-1,-2,1.365
274,1,5,0,-2,11,-2,-2,-1,1.37
275,-3,-7,-2,-4,-14,-7,-6,-2,1.375
276,-1,2,-1,2,3,0,5,0,1.3800000000000001
277,1,1,0,0,6,5,0,1,1.385
278,-2,-5,-5,-2,4,3,0,-1,1.3900000000000001
279,-1,-3,2,-1,-7,-5,0,0,1.395
280,5,10,1,-3,-10,-5,0,1,1.4000000000000001
281,-2,0,0,-1,-6,0,-1,-1,1.405
282,5,9,4,2,15,4,1,1,1.41
283,1,1,1,3,4,4,0,1,1.415
284,-4,-5,0,0,-7,1,0,-1,1.42
285,2,4,-2,-3,-2,-4,-2,-2,1.425
286,-1,2,-1,-7,-12,-6,-2,-2,1.43
287,5,9,0,0,2,0,-1,0,1.435
288,-2,-6,-2,0,8,5,2,1,1.44
289,-5,-5,-3,-6,-15,-2,-1,0,1.445
290,0,-4,0,2,3,0,-2,0,1.45
291,0,2,0,-1,6,-1,-1,-1,1.455
292,2,5,1,2,-8,0,1,1,1.46
293,3,1,1,-1,3,-2,0,1,1.465
294,-10,-17,-3,0,0,-1,0,0,1.47
295,-2,-5,-1,-3,-2,0,-1,0,1.475
296,1,1,-4,-1,11,3,-2,-1,1.48
297,-7,-9,-4,-3,-10,-4,-1,-3,1.485
298,6,9,1,-2,-3,-4,-2,0,1.49
299,-2,0,-2,-2,6,-1,-4,-1,1.495
300,-5,-5,0,3,1,3,4,-1,1.5
301,2,5,1,-2,2,3,0,0,1.5050000000000001
302,1,3,0,-2,-4,0,-1,-2,1.51
303,-6,-5,-5,-5,-8,-5,-3,-2,1.5150000000000001
304,4,3,0,0,4,-1,-1,0,1.52
305,-1,1,-1,0,1,0,-3,-1,1.5250000000000001
306,-1,-2,0,0,-8,-2,-2,0,1.53
307,3,4,-3,-1,0,1,-2,0,1.5350000000000001
308,-2,0,-1,-1,5,2,1,0,1.54
309,-2,-2,2,1,5,-3,0,-2,1.545
310,-2,-2,-1,-2,-14,-3,1,-2,1.55
311,-1,-2,1,4,5,1,-1,0,1.555
312,1,3,2,3,4,3,0,-1,1.56
313,0,1,-1,-1,0,0,1,0,1.565
314,1,0,1,-2,-2,0,2,-1,1.57
315,-5,-6,-3,-5,-7,-3,-1,-2,1.575
316,0,-3,-3,-3,-2,-5,-3,0,1.58
317,-1,0,0,-1,1,-1,-2,-1,1.585
318,0,-2,-2,-3,0,-3,-1,-1,1.59
319,2,5,-1,1,1,2,1,-1,1.595
320,0,2,1,0,2,-3,-2,0,1.6
321,1,2,-1,-3,-7,0,-3,-1,1.605
322,-5,-7,-5,-1,3,-2,1,-1,1.61
323,1,2,0,1,2,1,1,0,1.615
324,1,3,0,-2,-6,-9,-6,-3,1.62
325,-4,-6,1,2,0,9,5,-1,1.625
326,-2,-1,1,4,4,1,-1,1,1.6300000000000001
327,2,1,-1,-1,2,2,0,0,1.635
328,-4,-4,-3,-7,-2,-2,-3,-3,1.6400000000000001
329,-1,0,0,-3,-3,-5,2,-1,1.645
330,-2,0,-3,-2,-4,-8,-10,-2,1.6500000000000001
331,-4,-8,0,0,-3,-4,1,-2,1.655
332,-1,5,-1,0,-2,6,-13,-2,1.6600000000000001
333,3,-2,-5,-1,1,2,6,-4,1.665
334,0,-1,0,-2,0,7,8,3,1.67
335,1,4,2,2,-5,-6,-1,4,1.675
336,1,0,3,1,1,-5,-5,1,1.68
337,1,6,5,0,-3,-4,-5,0,1.685
338,-7,-16,-4,1,3,1,0,-3,1.69
339,-1,-4,-1,1,5,4,-4,-5,1.695
340,-5,0,-1,-3,-9,-2,14,0,1.7
341,1,4,0,-1,1,-1,-10,0,1.705
342,2,5,-7,-6,2,-1,-1,-1,1.71
343,-7,-10,3,-2,-5,0,-1,-2,1.715
344,3,0,1,0,-3,1,1,-1,1.72
345,1,0,-1,2,-5,-7,-3,0,1.725
346,1,7,1,-1,-4,-2,-1,0,1.73
347,1,5,-7,-1,2,1,-2,-1,1.735
348,-4,-6,-4,-5,2,9,1,-9,1.74
349,-4,4,-9,-3,-3,-6,0,14,1.745
350,17,-8,22,9,-4,3,4,13,1.75
351,-8,-9,-5,-1,-3,-1,-2,-8,1.7550000000000001
352,-6,-6,-2,-1,4,-1,5,-7,1.76
353,-2,8,-5,-3,-2,-4,-8,-8,1.7650000000000001
354,-3,5,-9,-3,1,-3,-1,-2,1.77
355,6,4,4,-2,-2,-1,-1,6,1.7750000000000001
356,-1,-4,-4,-2,-8,-8,-2,1,1.78
357,-3,-6,5,1,3,1,0,-3,1.7850000000000001
358,-3,-4,0,4,9,6,0,-2,1.79
359,-2,-10,3,2,-5,2,2,-3,1.795
360,3,16,0,-2,4,2,-2,0,1.8
361,-1,-8,-4,-2,-5,-2,-2,-2,1.805
362,-2,2,1,-4,-11,-7,-3,-2,1.81
363,-2,-2,-4,7,1,2,6,-2,1.815
364,-1,-11,-9,-15,3,-3,-8,4,1.82
365,7,5,3,0,6,1,1,0,1.825
366,-3,4,7,12,-9,-5,-5,-7,1.83
367,-4,-5,0,2,0,-10,-8,-2,1.835
368,0,-3,-11,-18,-7,0,9,0,1.84
369,2,4,-1,-3,6,8,1,-1,1.845
370,-3,1,-2,-2,6,2,-1,-3,1.85
371,4,10,12,10,1,0,-1,3,1.855
372,-4,-12,3,19,-3,-6,-7,-1,1.86
373,-6,-16,-16,-16,-3,-8,-5,-4,1.865
374,1,0,-11,-15,-1,0,3,0,1.87
375,3,1,-2,-3,2,3,1,0,1.875
376,0,1,5,3,2,1,2,-1,1.8800000000000001
377,-1,0,5,8,-1,4,0,-2,1.885
378,0,-1,0,4,5,1,-4,1,1.8900000000000001
379,1,-2,-5,-10,-11,-9,-1,0,1.895
380,0,0,0,3,-5,0,0,1,1.9000000000000001
381,-3,-7,0,6,2,-2,0,1,1.905
382,-2,0,-3,-5,0,-1,-2,-1,1.9100000000000001
383,0,2,-3,-6,6,5,2,-2,1.915
384,1,-2,3,2,0,-2,-1,1,1.92
385,-2,-3,0,0,-7,-4,-1,-1,1.925
386,-3,-4,-3,-3,0,-3,3,-1,1.93
387,-2,0,-1,-1,-1,-4,-13,-2,1.935
388,3,5,3,3,0,2,8,4,1.94
389,3,7,2,1,0,2,1,-2,1.945
390,1,0,-1,1,1,0,1,0,1.95
391,-1,-1,-8,-5,-4,-2,-1,0,1.955
392,2,2,1,1,5,0,-2,1,1.96
393,5,11,3,2,1,5,3,1,1.965
394,-3,-7,-3,-1,-8,-4,1,-3,1.97
395,-3,-3,0,-2,-3,-4,-6,-2,1.975
396,-1,-3,1,2,2,-2,-5,0,1.98
397,0,1,1,0,3,2,4,-1,1.985
398,0,-1,-1,0,2,5,-1,-3,1.99
399,2,3,-1,-2,-7,0,4,1,1.995
400,-1,-1,0,-1,-1,-1,-2,0,2.0
401,-1,-3,1,1,-3,-5,-4,1,2.005
402,-2,-4,0,-4,0,-1,-2,-1,2.0100000000000002
403,-3,-6,-5,-5,-2,-1,1,-1,2.015
404,-1,4,0,3,2,1,-1,1,2.02
405,-3,-12,-3,-1,-3,-5,0,-2,2.025
406,-1,-5,-7,-4,3,3,2,-1,2.0300000000000002
407,1,4,3,0,-7,-5,-5,-1,2.035
408,-1,-5,-4,-4,-6,-2,-1,-3,2.04
409,-1,0,-3,-2,11,2,-2,0,2.045
410,2,6,3,4,1,3,1,0,2.05
411,-1,-3,-2,-1,5,1,2,0,2.055
412,-2,-1,-2,-1,-6,-6,-1,-1,2.06
413,3,7,2,-1,-8,-3,-1,0,2.065
414,-5,-8,-2,-1,-3,-5,-4,-1,2.07
415,1,3,1,-2,2,3,1,0,2.075
416,0,0,3,1,3,-3,-3,-2,2.08
417,-3,-4,1,0,-9,1,2,-1,2.085
418,1,5,0,-5,-3,-6,-2,1,2.09
419,-2,-2,-3,0,2,3,2,0,2.095
420,-1,-5,-2,-1,2,2,0,-1,2.1
421,1,2,-2,1,6,-3,-3,-2,2.105
422,-1,0,4,1,-5,2,-2,-1,2.11
423,-2,-3,-2,-3,2,1,0,-1,2.115
424,0,-2,-3,-2,-4,-1,2,6,2.12
425,-4,-7,-1,-2,-2,-2,-4,-9,2.125
426,-3,-9,2,1,-1,-4,-2,-3,2.13
427,3,7,4,2,2,1,-1,-2,2.1350000000000002
428,-1,-1,-2,-1,0,0,-2,0,2.14
429,0,0,1,-3,-6,0,0,2,2.145
430,1,2,-2,0,1,0,-1,0,2.15
431,-1,-2,0,1,2,-1,1,0,2.1550000000000002
432,-1,1,-1,-2,4,2,0,-1,2.16
433,-1,-3,-2,-1,-6,-1,1,2,2.165
434,-1,2,-1,-1,0,3,-1,-3,2.17
435,-1,-6,-2,-1,0,-2,-1,0,2.1750000000000003
436,0,3,-2,-1,-7,-1,0,0,2.18
437,-3,0,1,0,3,-6,-7,0,2.185
438,0,-3,-2,-1,-2,1,-1,1,2.19
439,-2,3,-1,1,0,-2,0,-1,2.195
440,1,-3,0,1,3,-2,-2,-3,2.2
441,-5,-10,-3,-1,-2,2,1,0,2.205
442,0,4,-4,-3,-5,-2,-2,0,2.21
443,1,0,2,2,1,2,1,0,2.215
444,-6,-4,1,-2,-1,-3,-2,-5,2.22
445,-2,-5,-3,-2,-2,-3,0,0,2.225
446,0,3,1,2,1,-1,-2,-2,2.23
447,0,0,-4,-2,0,0,1,-2,2.235
448,-2,0,0,-1,-5,1,2,-1,2.24
449,2,7,0,0,0,-2,-2,1,2.245
450,-3,-4,-1,0,3,1,-1,-1,2.25
451,-3,-7,-2,-1,-4,0,0,0,2.255
452,2,3,1,-1,-1,0,0,0,2.2600000000000002
453,0,5,-1,-5,3,0,1,-1,2.265
454,-2,-12,-2,0,-6,-5,-5,-2,2.27
455,0,0,-2,-2,-8,-3,0,-1,2.275
456,3,2,0,-1,4,-1,-3,-1,2.2800000000000002
457,1,0,4,0,-1,0,2,0,2.285
458,1,2,-2,-2,0,1,-1,-1,2.29
459,2,1,0,0,2,-1,2,1,2.295
460,-2,-4,-4,1,0,0,-8,-3,2.3000000000000003
461,0,-1,-1,2,2,4,5,-2,2.305
462,0,11,0,0,0,-5,-3,0,2.31
463,2,6,2,1,3,5,2,1,2.315
464,0,0,-3,-2,-5,-4,-2,1,2.32
465,-3,-10,-4,-1,0,-5,-4,-1,2.325
466,0,4,1,2,7,3,4,2,2.33
467,-1,-1,-1,-1,-6,-2,-4,0,2.335
468,-2,-4,0,-2,-2,-2,0,-1,2.34
469,1,1,-4,-1,-1,2,1,0,2.345
470,-2,-3,-1,-2,-3,0,1,-2,2.35
471,0,0,-1,-2,5,-2,-2,-3,2.355
472,1,2,-2,-2,-3,-1,-1,0,2.36
473,-4,-11,-5,-1,-3,-3,-2,-1,2.365
474,1,0,-2,-2,0,1,0,-1,2.37
475,-2,-1,2,-1,-1,-1,-1,-1,2.375
476,-1,-1,-3,-2,0,-1,0,0,2.38
477,1,10,-1,-1,-1,-1,0,0,2.3850000000000002
478,0,2,-1,0,0,-5,-2,-1,2.39
479,-3,-4,-2,-2,-3,1,-3,-1,2.395
480,-2,-1,-1,0,3,0,-1,-1,2.4
481,2,7,2,1,1,3,-1,1,2.4050000000000002
482,-1,0,-1,-4,-10,-1,4,-1,2.41
483,1,3,-1,-1,-2,-4,-9,-3,2.415
484,-1,-4,-1,-2,-2,-2,1,-1,2.42
485,-1,-4,0,-1,3,1,0,-1,2.4250000000000003
486,-3,-6,-7,-2,-2,-1,-3,0,2.43
487,0,2,2,-1,-1,0,3,0,2.435
488,-6,-14,0,2,1,1,0,-3,2.44
489,-1,-5,-2,-2,-4,-6,-6,-3,2.445
490,0,-2,0,0,5,3,3,0,2.45
491,-2,-3,-3,-3,-6,-2,0,0,2.455
492,2,7,2,-3,-4,-4,-3,-2,2.46
493,-1,-2,-1,0,5,2,4,0,2.465
494,-1,-6,1,0,0,1,-3,-1,2.47
495,0,0,-4,-1,1,-1,1,-1,2.475
496,-1,0,-3,-2,-3,-1,-1,-1,2.48
497,2,9,2,2,-2,-2,-3,-1,2.485
498,-3,-1,-2,2,-2,-3,0,-2,2.49
499,0,-1,-2,-1,-3,-3,-1,-1,2.495
500,-1,-6,-2,-1,0,3,3,0,2.5
501,0,-1,-4,-3,-2,1,-1,0,2.505
502,1,5,-1,-1,-1,-2,-1,0,2.5100000000000002
503,-2,-5,-1,0,2,-4,3,0,2.515
504,-3,-5,-3,1,0,2,-2,0,2.52
505,-1,0,-1,-1,0,0,3,-1,2.525
506,2,4,1,0,-1,3,0,0,2.5300000000000002
507,0,-4,-1,-3,3,-2,1,0,2.535
508,2,3,2,3,-1,-1,-1,0,2.54
509,-2,-5,-1,-1,-8,0,1,-1,2.545
510,-1,-1,0,0,1,-2,-1,-1,2.5500000000000003
511,-1,4,0,1,2,-1,-1,0,2.555
512,-4,-12,-3,0,3,0,0,-1,2.56
513,-3,-6,5,3,-2,1,-3,-2,2.565
514,0,-4,-2,0,-2,-5,-1,-1,2.57
515,1,2,-3,-1,-1,0,-2,-2,2.575
516,3,8,-2,-1,1,0,0,-1,2.58
517,-2,-4,0,-2,-4,1,-1,0,2.585
518,0,0,0,0,1,1,-1,0,2.59
519,-2,-2,-2,0,-2,0,-5,-1,2.595
520,1,4,0,-2,-1,-3,-1,0,2.6
521,-1,2,-2,-2,-1,-1,0,-1,2.605
522,2,3,1,-1,-1,0,-2,1,2.61
523,-3,-8,-2,-1,-1,-1,-1,0,2.615
524,1,4,2,0,-1,0,-1,0,2.62
525,-1,-3,-5,-2,2,0,2,-2,2.625
526,-1,1,-6,-4,-7,-4,0,-2,2.63
527,-3,-9,-2,-1,-2,0,-2,0,2.6350000000000002
528,-2,1,2,0,1,0,-2,0,2.64
529,1,2,0,1,1,-1,1,0,2.645
530,0,2,2,0,-2,-1,2,-1,2.65
531,3,2,-2,-1,-2,-1,-4,-1,2.6550000000000002
532,-2,-1,-3,-2,3,-1,-2,0,2.66
533,-2,-1,-2,-3,-8,-4,-4,0,2.665
534,-2,-4,0,-1,-1,-2,0,-1,2.67
535,2,9,0,-1,3,1,5,1,2.6750000000000003
536,-3,-9,0,-2,-1,1,-2,-2,2.68
537,2,2,0,-1,2,0,3,-1,2.685
538,-2,-7,-2,-2,0,-4,-9,-2,2.69
539,-2,-3,-2,-3,-3,-2,-1,-3,2.695
540,1,6,0,0,-2,-2,-2,1,2.7
541,-3,-10,-2,0,-3,-2,1,-2,2.705
542,0,1,-4,0,3,2,1,0,2.71
543,-2,-6,0,-2,-2,1,1,-3,2.715
544,1,2,-4,-2,-4,-1,2,-1,2.72
545,-1,0,0,-1,-1,-5,-3,-1,2.725
546,-2,0,0,0,-2,-2,-3,0,2.73
547,0,-1,1,1,6,2,-1,1,2.735
548,1,6,-2,0,-4,3,4,1,2.74
549,0,3,-3,0,-1,-2,-3,-1,2.745
550,0,-1,-1,0,1,2,2,-1,2.75
551,2,10,1,2,2,2,1,2,2.755
552,0,5,2,1,1,-3,-2,-1,2.7600000000000002
553,-2,-7,-3,-4,-5,-3,-1,-1,2.765
554,-3,-7,0,-2,2,-2,-1,-1,2.77
555,-1,-1,-2,2,-1,1,1,-1,2.775
556,2,1,0,-2,2,-2,2,-1,2.7800000000000002
557,0,0,0,-2,1,2,-1,-1,2.785
558,-2,-3,-2,-4,-7,-2,-1,-2,2.79
559,-1,-5,1,1,-1,-2,-2,2,2.795
560,-3,-6,1,0,0,-2,-2,-3,2.8000000000000003
561,1,1,-1,-2,0,2,0,0,2.805
562,1,2,1,-2,1,1,1,0,2.81
563,-3,-5,-1,-1,-3,-2,-2,-2,2.815
564,0,-1,0,1,-2,2,-1,-3,2.82
565,-2,-4,-4,-1,0,-2,-2,-2,2.825
566,0,2,3,4,-1,1,-2,-1,2.83
567,0,0,-2,0,-3,-2,1,-1,2.835
568,0,-1,-1,-3,2,0,1,-1,2.84
569,-1,-6,-3,0,-1,0,0,-1,2.845
570,-2,-2,-2,-3,-2,0,1,-1,2.85
571,-2,-1,0,-1,-3,-3,-1,-1,2.855
572,1,4,-1,0,-2,-7,-3,-2,2.86
573,-1,0,2,1,-2,-1,1,1,2.865
574,0,0,-1,1,1,-1,-2,0,2.87
575,-3,-6,-3,-1,-1,3,2,-1,2.875
576,0,1,-3,-3,-2,1,0,-1,2.88
577,2,7,-1,2,2,-1,-3,-1,2.8850000000000002
578,-2,3,-1,-2,2,1,1,-1,2.89
579,-7,-17,-4,-2,-4,-1,-1,-1,2.895
580,0,-4,-1,1,-6,-4,-5,0,2.9
581,0,1,0,0,5,2,0,2,2.9050000000000002
582,-1,-4,-2,-2,0,0,0,-2,2.91
583,1,9,-3,-2,3,-4,-3,-1,2.915
584,-2,-4,-2,-2,2,-2,-1,1,2.92
585,-1,-1,-1,-3,-4,-2,-2,0,2.9250000000000003
586,1,0,0,0,3,-3,-1,1,2.93
587,-1,-1,-1,1,-1,4,1,-1,2.935
588,0,1,-1,1,-2,1,2,-2,2.94
589,0,3,-1,-2,5,2,0,-1,2.945
590,-2,-3,-2,0,-6,-1,0,-1,2.95
591,0,2,0,0,-6,-5,-3,1,2.955
592,-3,-7,-5,-3,-1,1,-3,0,2.96
593,1,5,1,-1,-1,1,-2,0,2.965
594,0,5,2,3,0,-2,-2,-2,2.97
595,-3,-9,-2,2,3,-2,-1,-1,2.975
596,1,4,-2,-2,-1,2,0,0,2.98
597,-8,-15,-2,-1,-2,-1,-2,-3,2.985
598,2,1,-1,-2,-4,-1,1,-1,2.99
599,0,5,2,-3,-1,-2,2,-2,2.995
600,-3,-1,-1,1,1,-2,1,-1,3.0
601,2,0,-1,2,2,1,-1,-1,3.005
602,-2,-2,-4,-2,-8,-3,-2,-2,3.0100000000000002
603,-1,-2,-4,-3,3,3,0,0,3.015
604,-1,-2,0,-2,0,1,0,0,3.02
605,0,-4,0,-1,2,-2,1,0,3.025
606,-1,0,2,1,0,-1,-2,0,3.0300000000000002
607,0,1,-2,-2,0,-2,0,0,3.035
608,1,3,0,-2,-8,-2,-1,1,3.04
609,1,13,2,-3,1,-3,-3,-1,3.045
610,-3,-11,-1,1,-3,2,3,0,3.0500000000000003
611,-1,-2,-1,0,-1,-4,-3,-1,3.055
612,-1,-3,0,1,2,-3,-2,-2,3.06
613,0,-2,-2,-3,-3,-1,0,-1,3.065
614,0,2,-2,-2,0,0,-1,-1,3.0700000000000003
615,1,2,0,-1,-1,1,-1,-1,3.075
616,-2,0,0,0,-4,-4,-3,-1,3.08
617,1,5,0,0,-2,-2,1,1,3.085
618,0,2,2,2,5,-1,-2,1,3.09
619,-1,-8,-4,1,-2,5,4,0,3.095
620,-2,-3,-5,-5,-4,-2,-2,-2,3.1
621,1,1,-1,0,1,-3,-1,-2,3.105
622,0,5,0,-2,-8,-3,1,0,3.11
623,0,5,2,-1,1,-6,-5,-1,3.115
624,-1,-2,0,1,-2,3,1,-1,3.12
625,-2,-6,-2,0,1,-1,0,-3,3.125
626,-2,-5,-1,-2,2,0,1,-2,3.13
627,0,2,-1,1,-1,-2,-2,0,3.1350000000000002
628,-1,-4,-2,1,4,4,0,-1,3.14
629,1,-3,-2,1,0,0,-1,0,3.145
630,-3,-3,-3,-5,-4,-2,2,-1,3.15
631,1,4,1,-3,-7,-4,-3,-1,3.1550000000000002
632,-1,0,2,0,3,-4,-1,0,3.16
633,-3,-10,-2,3,-1,1,-3,-3,3.165
634,3,8,-1,1,2,1,-3,0,3.17
635,-1,-3,0,-2,-1,1,1,-1,3.1750000000000003
636,-2,-3,-2,0,-1,0,0,-1,3.18
637,-2,-3,-5,-4,1,-1,-2,-3,3.185
638,-2,-3,-1,-2,-7,-4,-1,-1,3.19
639,-1,-4,-2,-2,1,1,-2,-2,3.1950000000000003
640,0,-2,-2,-1,-2,-2,-1,0,3.2
641,0,1,2,0,0,0,2,1,3.205
642,-4,-15,-4,0,2,-1,-3,-1,3.21
643,-1,-1,-1,2,0,0,0,0,3.215
644,-1,0,-2,-1,1,0,-1,-1,3.22
645,-1,6,0,-4,-7,-3,-2,0,3.225
646,-1,-4,-1,-1,3,0,-3,0,3.23
647,-1,-2,-1,-3,-1,-1,-2,-1,3.235
648,-1,-8,-1,-1,-1,0,-1,-3,3.24
649,-2,-2,1,0,-2,0,0,0,3.245
650,2,10,1,-2,0,-1,0,-2,3.25
651,1,5,1,1,0,1,0,-1,3.255
652,-3,-6,-3,-2,-2,-4,-4,0,3.2600000000000002
653,-2,-2,-2,-1,2,1,0,0,3.265
654,2,8,0,-3,-2,0,-1,1,3.27
655,0,1,-1,-1,-6,-5,1,0,3.275
656,3,2,3,1,-1,1,3,7,3.2800000000000002
657,-1,-2,-1,0,-2,-2,-4,-8,3.285
658,-5,-6,-4,-1,1,-2,-2,-4,3.29
659,-2,2,2,0,2,1,-2,-3,3.295
660,-3,-1,-2,0,-1,0,3,-1,3.3000000000000003
661,2,3,-1,1,2,0,1,3,3.305
662,4,13,0,0,-1,2,-1,-1,3.31
663,-4,-10,-4,-2,-2,-1,-2,-2,3.315
664,0,2,4,1,-1,-2,-2,0,3.3200000000000003
665,-2,-6,-5,-3,-3,-2,-1,2,3.325
666,0,-1,0,1,0,-2,-1,-1,3.33
667,2,5,-2,-1,-1,1,-3,1,3.335
668,2,2,0,-1,4,1,1,-3,3.34
669,-4,-2,1,-1,-4,-2,0,0,3.345
670,-4,-9,-1,-3,-2,-3,-1,1,3.35
671,-1,0,0,-1,-10,-8,-3,0,3.355
672,1,4,0,-1,2,3,0,-2,3.36
673,-2,-3,-2,-1,-1,2,0,-2,3.365
674,0,-3,-2,-2,0,2,3,0,3.37
675,-3,-5,-1,-3,3,0,-2,-2,3.375
676,0,2,-1,-1,-5,-3,-3,-3,3.38
677,2,7,2,1,0,-5,-1,0,3.3850000000000002
678,-4,-8,-2,2,1,4,-1,0,3.39
679,0,2,1,-1,-1,0,1,-1,3.395
680,-5,-8,-5,-3,-2,1,3,-2,3.4
681,-1,-1,0,-1,8,2,-3,-1,3.4050000000000002
682,-2,-3,0,0,-8,-5,0,-2,3.41
683,-1,-1,-1,-1,-2,0,1,-1,3.415
684,-2,-3,-2,-1,1,-1,-5,-3,3.42
685,0,1,-2,-2,-2,-2,-2,1,3.4250000000000003
686,-1,0,0,-1,3,0,0,-1,3.43
687,-2,-2,-3,-1,3,-1,-2,-1,3.435
688,0,1,0,0,0,-3,-1,-2,3.44
689,-1,2,-1,0,-4,0,1,-1,3.4450000000000003
690,3,4,2,0,0,-1,-4,0,3.45
691,-3,-6,-3,0,-1,1,-2,-1,3.455
692,0,0,0,-1,1,0,-1,-1,3.46
693,3,3,0,-1,-1,2,3,-1,3.465
694,0,1,0,-1,-2,-3,-4,0,3.47
695,-2,-1,3,-1,3,2,2,-1,3.475
696,-1,1,-2,1,0,-4,-2,1,3.48
697,-1,-3,-1,1,0,0,-3,-1,3.485
698,0,0,0,-1,-5,-2,3,0,3.49
699,-2,0,-1,1,7,1,0,-1,3.495
700,1,1,0,0,-10,-2,0,-1,3.5
701,-2,-2,-1,-1,-4,0,3,0,3.505
702,-1,1,-2,0,1,-6,-6,-3,3.5100000000000002
703,2,3,2,0,3,0,1,-2,3.515
704,-2,-1,-1,1,2,2,-3,-2,3.52
705,-1,-3,-2,1,-3,-3,-3,2,3.525
706,-2,-1,-3,-1,0,2,6,0,3.5300000000000002
707,1,3,2,0,-2,-3,-1,1,3.535
708,-2,2,1,-2,-1,-1,-2,-1,3.54
709,1,0,-1,-1,-1,-2,-1,-2,3.545
710,-1,-2,0,-3,0,1,2,0,3.5500000000000003
711,-2,-1,-3,-1,-3,-2,-2,-1,3.555
712,-1,0,0,-2,1,2,2,0,3.56
713,-2,-3,-2,-2,-2,-3,-5,-2,3.565
714,-1,-3,0,0,1,1,-3,-1,3.5700000000000003
715,2,-4,0,1,-1,-1,2,0,3.575
716,-1,0,-3,0,-2,-2,-2,-1,3.58
717,1,2,1,-3,-3,0,1,1,3.585
718,-2,-2,-3,1,0,0,-1,-2,3.59
719,-4,-8,-2,-2,1,2,0,1,3.595
720,2,2,-1,0,-2,-4,0,-1,3.6
721,0,0,0,0,-1,-1,0,0,3.605
722,-1,-3,-1,-2,0,-1,-1,-1,3.61
723,-1,-6,0,0,-2,-1,-1,-2,3.615
724,0,-2,2,1,1,1,0,-1,3.62
725,-3,-3,-1,0,-2,-2,0,-2,3.625
726,0,1,-1,-1,-3,1,-2,-1,3.63
727,1,0,-3,-3,2,-2,-2,-2,3.6350000000000002
728,0,0,0,0,-1,1,2,0,3.64
729,1,3,1,0,-5,-2,-1,-1,3.645
730,-1,-1,-3,1,2,-4,-5,0,3.65
731,-1,-4,-4,-4,-4,-2,4,-1,3.6550000000000002
732,-2,-3,-2,-2,5,2,-7,0,3.66
733,-3,-2,-3,-3,1,-1,-1,-1,3.665
734,0,2,2,-1,-6,0,0,0,3.67
735,0,3,1,1,-1,3,-2,1,3.6750000000000003
736,-3,-5,-1,1,-1,-4,1,1,3.68
737,0,-2,-1,-1,2,2,2,-1,3.685
738,-1,-2,-2,-2,2,-1,0,-1,3.69
739,0,3,0,0,-3,-2,0,-3,3.6950000000000003
740,0,-2,-1,-2,3,-3,-1,-2,3.7
741,-2,-2,1,-1,-9,-4,-4,0,3.705
742,1,0,0,-1,1,-4,0,-1,3.71
743,-1,2,0,1,1,2,-1,1,3.715
744,-3,0,0,0,0,1,-1,-1,3.72
745,0,-2,-1,0,4,1,0,0,3.725
746,-1,-4,-3,-1,-4,0,-1,-2,3.73
747,-2,-3,-1,0,0,-2,0,-1,3.735
748,-1,-1,-3,-2,0,-2,-3,-2,3.74
749,-1,0,0,2,5,2,-1,1,3.745
750,1,3,1,-1,-2,-1,2,0,3.75
751,2,4,-1,1,-3,-5,-8,1,3.755
752,-1,-6,-2,-3,-2,2,3,-2,3.7600000000000002
753,-1,-2,-3,-2,-1,0,1,0,3.765
754,0,1,-1,1,1,1,4,1,3.77
755,2,2,-1,-1,0,1,0,0,3.775
756,1,0,-1,0,-1,-7,-2,-1,3.7800000000000002
757,-6,-12,-2,0,-9,0,-3,-2,3.785
758,-1,-1,1,1,2,0,-4,0,3.79
759,-1,-4,-2,1,-2,1,1,-1,3.795
760,-1,1,1,0,0,1,0,1,3.8000000000000003
761,-1,-2,-1,-4,-1,-2,-4,-2,3.805
762,-1,-3,-2,-2,0,-3,-3,0,3.81
763,-1,-1,0,-1,1,-2,0,-2,3.815
764,0,0,-2,-3,-9,-3,0,0,3.8200000000000003
765,1,5,0,-1,2,-5,1,0,3.825
766,-2,-8,-2,1,-1,1,0,0,3.83
767,-1,-2,-3,-1,-1,-2,-1,-1,3.835
768,1,3,-1,-1,1,-1,-1,0,3.84
769,3,1,-5,1,-2,-3,-1,0,3.845
770,0,3,-1,-2,-1,2,-1,0,3.85
771,1,0,-1,-2,0,1,3,1,3.855
772,-3,-2,0,1,-2,1,-4,-1,3.86
773,1,2,4,0,3,1,1,-3,3.865
774,-1,-1,-2,-3,-1,-2,-1,0,3.87
775,-1,-2,-1,0,-1,-6,-2,-1,3.875
776,-1,0,-1,-1,3,4,3,-1,3.88
777,0,-2,-3,0,-3,0,1,-1,3.8850000000000002
778,-1,-2,-2,-1,1,0,2,-1,3.89
779,-3,-1,-1,-2,-4,-1,1,-2,3.895
780,1,-1,-3,-3,1,-2,0,0,3.9
781,-2,-1,2,2,0,-1,-3,-1,3.9050000000000002
782,-2,-5,3,2,-1,-2,-3,-3,3.91
783,-3,-7,-2,0,-2,-1,0,-2,3.915
784,0,-4,-3,0,0,1,-2,-3,3.92
785,-1,-3,-3,-2,1,2,-1,0,3.9250000000000003
786,1,3,2,-1,-1,-2,-3,0,3.93
787,2,3,0,-4,0,-1,-5,0,3.935
788,-1,-4,-1,-2,-3,-3,-2,0,3.94
789,0,2,1,0,1,-1,2,-1,3.9450000000000003
790,-1,0,0,2,2,4,-1,-3,3.95
791,-1,1,-2,0,0,1,-1,-2,3.955
792,-1,0,-3,0,-4,-3,-1,0,3.96
793,0,4,0,-4,0,-4,-1,0,3.9650000000000003
794,-1,0,0,0,-6,-4,-2,-1,3.97
795,-1,-4,1,2,6,2,1,-1,3.975
796,1,5,3,0,-1,-2,0,2,3.98
797,-3,-4,-1,-1,1,-2,-5,-1,3.985
798,-3,-3,-4,-2,-1,1,3,2,3.99
799,0,-1,-1,-4,-5,-1,-2,-3,3.995
800,-1,0,1,1,-2,0,-1,-1,4.0
801,0,-1,-2,0,1,2,0,-1,4.005
802,0,1,-3,-1,0,-1,-3,-1,4.01
803,1,1,3,0,0,1,2,0,4.015
804,-2,0,0,-1,1,-2,0,-1,4.0200000000000005
805,0,-2,-1,-4,-5,-1,-2,-1,4.025
806,1,3,-1,-3,0,-1,-2,-4,4.03
807,2,2,2,0,2,0,0,-1,4.035
808,-2,-3,-2,0,1,2,-1,0,4.04
809,0,-2,-1,0,1,2,2,-2,4.045
810,-2,-1,0,-4,-1,-3,-1,-2,4.05
811,-1,-1,0,-1,-2,-3,-1,1,4.055
812,0,0,0,-2,-1,-1,-2,-2,4.0600000000000005
813,2,5,0,0,-3,-1,2,2,4.065
814,-4,-6,-2,2,8,2,-3,0,4.07
815,-3,-5,-3,-4,-7,-5,-2,-1,4.075
816,0,2,-3,-4,-4,0,-1,-1,4.08
817,-3,-9,0,-1,3,-4,-1,-2,4.085
818,1,3,1,2,-1,1,2,0,4.09
819,-2,1,-1,1,0,-1,-1,-1,4.095
820,2,4,1,1,-4,1,-2,-1,4.1
821,-2,-6,-5,-3,0,2,4,-1,4.105
822,0,-1,2,-1,0,-1,1,1,4.11
823,-1,-1,-1,-3,1,-1,-1,1,4.115
824,-1,2,1,-1,-2,0,2,-2,4.12
825,0,3,1,0,-1,-1,-3,-1,4.125
826,-4,-4,-4,-2,-2,-3,1,-1,4.13
827,0,0,1,1,1,1,-1,0,4.135
828,-2,-4,0,0,0,1,0,-2,4.14
829,2,7,0,-1,-1,0,0,-2,4.1450000000000005
830,2,0,-2,0,0,2,-1,0,4.15
831,1,4,-2,0,-5,-1,-2,-1,4.155
832,-2,-3,-1,-1,-1,-1,1,0,4.16
833,-3,-5,0,1,0,-1,-6,-2,4.165
834,1,1,-2,-1,1,-3,-1,-1,4.17
835,-2,-1,-1,0,-4,1,1,-1,4.175
836,-2,-5,0,0,0,0,1,-2,4.18
837,0,3,-1,0,-1,-1,0,2,4.1850000000000005
838,-1,0,-3,0,0,0,0,0,4.19
839,-4,-6,-4,-3,1,0,0,-1,4.195
840,-1,3,0,-1,-2,-3,-2,0,4.2
841,1,3,1,1,-2,-2,-1,0,4.205
842,-2,-3,1,-3,-1,0,-1,-3,4.21
843,1,1,1,3,1,1,1,0,4.215
844,0,-2,-1,0,-2,-3,1,0,4.22
845,-3,-4,1,0,0,-4,0,0,4.225
846,2,1,-1,-3,-2,1,-2,-1,4.23
847,3,7,0,-1,-1,2,0,1,4.235
848,-2,-9,-4,-1,-3,-1,-1,0,4.24
849,-4,-6,-2,-2,-3,-6,-2,0,4.245
850,1,0,1,1,-1,-1,-1,0,4.25
851,-3,-4,0,-1,3,1,-2,-1,4.255
852,1,2,1,0,-3,0,0,0,4.26
853,0,-1,-2,0,0,2,1,-1,4.265
854,-1,-1,-1,-1,-2,0,4,1,4.2700000000000005
855,-1,1,-1,-1,-1,-2,-2,0,4.275
856,0,0,-2,-1,2,1,-2,0,4.28
857,1,2,-3,-1,-2,0,0,-2,4.285
858,-2,-1,-2,-2,-3,-2,-3,1,4.29
859,0,0,1,1,-1,-1,-2,-1,4.295
860,-2,-5,-3,-2,0,-4,-2,-2,4.3
861,-1,-1,-1,-2,-2,1,2,-2,4.305
862,-1,-5,0,-2,-1,-1,0,-1,4.3100000000000005
863,0,0,-3,-1,0,2,2,2,4.315
864,-1,0,0,0,0,0,-1,0,4.32
865,1,3,-1,1,0,1,0,0,4.325
866,-2,-2,2,2,5,-1,-2,-3,4.33
867,-4,-12,-3,-1,-10,-4,2,0,4.335
868,1,0,-1,-1,2,1,0,-1,4.34
869,-3,-2,0,0,1,-1,-1,1,4.345
870,1,2,-1,-1,-1,0,0,-2,4.3500000000000005
871,1,-4,1,0,3,-3,-3,-2,4.355
872,-1,-1,-3,-3,-1,0,-1,-2,4.36
873,-2,0,0,-1,2,1,-1,-1,4.365
874,-3,-2,-1,1,0,-1,0,-1,4.37
875,0,-1,-2,-2,-2,-1,1,-2,4.375
876,1,7,1,-1,-1,0,-1,2,4.38
877,-1,-3,-1,1,-2,-1,-1,-1,4.385
878,-1,-2,1,-3,-4,1,-3,0,4.39
879,-2,-3,0,-1,1,-3,0,-1,4.3950000000000005
880,-1,-2,2,2,2,0,0,-1,4.4
881,-2,-2,-3,-2,1,0,0,0,4.405
882,-1,-1,-3,0,-3,-1,1,2,4.41
883,-1,1,-2,-1,0,0,-3,0,4.415
884,-3,-7,-2,-2,0,-3,-2,-1,4.42
885,0,3,0,1,3,0,0,0,4.425
886,0,0,-2,0,-1,-2,1,-1,4.43
887,-3,2,3,0,-2,-1,-4,-1,4.4350000000000005
888,-4,-9,-2,-2,-1,2,4,-1,4.44
889,1,-2,-1,-2,-3,-2,-5,-2,4.445
890,3,1,-3,0,-1,0,-3,1,4.45
891,1,-1,1,2,2,-2,-2,-1,4.455
892,0,0,-1,-1,-1,1,0,0,4.46
893,0,-1,0,0,-2,0,3,-2,4.465
894,-1,1,-2,-3,-2,-3,-3,0,4.47
895,1,1,-2,-2,-2,-3,-1,0,4.4750000000000005
896,0,0,0,1,0,0,-3,0,4.48
897,-1,-6,-4,-3,-1,1,2,0,4.485
898,0,2,-1,-1,-1,0,-1,-2,4.49
899,2,7,0,-2,-2,0,-2,-1,4.495
900,-3,-3,-1,0,1,-2,-3,-1,4.5
901,3,6,-1,-1,-2,-2,-3,0,4.505
902,0,-1,0,3,10,3,1,0,4.51
903,-1,-4,-2,1,-3,1,1,0,4.515
904,1,3,-2,-1,-7,-6,-4,-1,4.5200000000000005
905,-2,-3,0,0,-1,-1,0,0,4.525
906,-3,-3,-2,-2,-3,0,4,0,4.53
907,1,-3,-3,2,6,2,-5,-1,4.535
908,-1,2,2,3,1,2,0,-1,4.54
909,-1,-1,-3,-4,-5,-5,-1,-2,4.545
910,0,0,0,0,0,1,2,-1,4.55
911,-2,-4,-3,-2,-3,-1,-1,-1,4.555
912,-1,-3,-1,-1,-1,-2,-2,-1,4.5600000000000005
913,1,2,0,1,1,4,4,0,4.565
914,2,5,2,-1,-2,-2,-3,0,4.57
915,-2,0,-3,-2,-2,-3,1,-2,4.575
916,0,-3,-1,0,-1,-3,-3,0,4.58
917,-1,-2,2,0,1,1,-3,-1,4.585
918,0,-3,-2,-2,-2,-4,1,-1,4.59
919,-3,-1,3,0,1,0,0,-1,4.595
920,0,-1,0,-3,0,0,-1,0,4.6000000000000005
921,0,0,0,2,0,-1,0,1,4.605
922,-3,-4,0,1,-4,-3,-1,-2,4.61
923,0,-2,-1,0,0,1,1,0,4.615
924,0,4,2,2,1,3,2,-2,4.62
925,-4,-8,-4,-4,-4,2,-1,-2,4.625
926,-1,-3,0,-1,-3,-2,-2,0,4.63
927,2,-1,-1,0,1,1,3,0,4.635
928,-1,-5,-2,-3,-1,-2,-1,-2,4.64
929,1,0,2,0,3,-1,-1,0,4.6450000000000005
930,-4,-8,-5,-2,-3,0,-1,-2,4.65
931,0,-1,-1,-1,-3,-1,1,-2,4.655
932,1,5,0,-2,2,0,-1,0,4.66
933,0,1,2,2,0,-1,-1,-1,4.665
934,0,-2,-3,-2,1,-2,0,-2,4.67
935,0,3,2,-1,0,2,0,-1,4.675
936,0,-1,-4,-1,-2,-1,-1,-1,4.68
937,0,5,1,0,-4,-3,-5,0,4.6850000000000005
938,-2,1,0,-1,2,-1,-1,-2,4.69
939,2,5,-2,-1,1,-2,-1,1,4.695
940,-1,-2,-1,-1,1,0,1,-2,4.7
941,-3,-3,-3,-2,1,0,0,1,4.705
942,1,0,2,0,-3,-2,1,1,4.71
943,-2,-8,-2,-2,-3,0,-1,-1,4.715
944,-2,-2,-1,-2,-4,-3,-3,-1,4.72
945,0,-2,-1,1,-1,-3,-1,-3,4.7250000000000005
946,-2,-3,-1,-2,-2,1,-3,-1,4.73
947,-2,-1,0,0,1,1,0,0,4.735
948,-2,-1,-2,-1,-2,1,0,0,4.74
949,-1,-5,-3,0,0,-2,2,-1,4.745
950,-4,-8,-1,0,-5,-1,-2,-4,4.75
951,0,3,-2,-2,-1,-3,1,-2,4.755
952,1,-1,-1,-2,-2,0,-1,0,4.76
953,-2,-3,-2,-3,0,0,-1,-1,4.765
954,2,8,2,-1,2,0,-3,1,4.7700000000000005
955,-1,-2,-2,0,-4,-4,-4,0,4.775
956,0,0,-1,0,-1,-2,0,1,4.78
957,-1,1,-2,-1,1,-1,3,0,4.785
958,-1,-1,1,-1,-1,-1,1,0,4.79
959,-1,0,2,0,-2,-2,0,0,4.795
960,1,-1,-2,0,6,-3,-3,-2,4.8
961,-1,-1,-1,-2,-3,-1,-2,-1,4.805
962,-1,-2,-6,-3,0,-3,0,0,4.8100000000000005
963,1,1,0,0,0,2,-1,-1,4.815
964,-2,0,-1,1,-3,-1,-2,-1,4.82
965,-2,-7,0,-2,-2,-1,-2,-2,4.825
966,-1,0,-1,-3,-5,0,0,0,4.83
967,-1,0,-1,1,1,-3,-2,-1,4.835
968,-1,2,0,0,-3,-1,2,0,4.84
969,1,6,1,-1,1,3,2,-2,4.845
970,-3,-3,0,0,1,-3,-9,0,4.8500000000000005
971,-2,-1,1,-1,1,1,0,-1,4.855
972,-2,-3,-1,-1,1,-3,0,-1,4.86
973,0,3,1,-1,0,-5,-3,0,4.865
974,1,-1,-1,0,-2,2,2,-1,4.87
975,1,-1,-1,0,-2,-1,2,0,4.875
976,-1,0,0,-1,-3,-3,-3,-2,4.88
977,0,2,1,0,0,1,-1,-1,4.885
978,1,0,-3,-1,0,-1,-1,0,4.89
979,-3,-7,0,-1,-1,0,-3,0,4.8950000000000005
980,0,-8,-4,-1,1,-1,1,-1,4.9
981,0,-3,-1,0,2,-1,0,0,4.905
982,-1,-3,-2,-1,0,-1,0,0,4.91
983,-1,-1,-1,-1,-1,-1,-2,0,4.915
984,0,-2,-1,-2,-2,0,-1,-1,4.92
985,0,0,-1,-3,-3,-1,-3,-3,4.925
986,0,-4,2,-1,-2,-3,-1,-1,4.93
987,0,1,-4,-3,-3,0,1,-1,4.9350000000000005
988,0,0,-2,0,5,3,1,-1,4.94
989,-1,-2,-2,-2,-6,-3,0,-1,4.945
990,1,7,1,1,-2,-2,-1,-2,4.95
991,-1,-4,0,0,-1,-4,-2,-2,4.955
992,-2,0,-1,-1,-1,2,0,-1,4.96
993,0,0,-1,2,1,4,0,-1,4.965
994,-2,-4,0,2,2,-2,-1,-1,4.97
995,0,1,-1,-1,0,-2,-4,-1,4.9750000000000005
996,0,1,-2,0,-1,2,7,-1,4.98
997,-3,0,-1,-2,-1,-1,-1,-1,4.985
998,-2,2,-2,-3,0,-1,0,0,4.99
999,-3,-2,0,-1,1,-2,-2,0,4.995
1000,-1,1,2,-1,-2,-2,-3,1,5.0
1001,-2,-3,1,-1,-1,-3,-1,0,5.005
1002,-2,-4,-3,0,0,-1,0,-2,5.01
1003,-1,-2,0,0,0,-1,0,-1,5.015
1004,0,2,3,0,-2,-1,-1,1,5.0200000000000005
1005,0,-1,-2,0,0,-1,-2,-3,5.025
1006,0,1,0,1,0,1,-1,-1,5.03
1007,-2,3,-2,-2,-2,-1,1,-2,5.035
1008,-1,-1,-1,1,0,1,-2,-2,5.04
1009,-1,0,-1,-2,-1,-2,-3,1,5.045
1010,-1,-1,-1,-1,-1,0,1,1,5.05
1011,0,2,0,0,-1,0,3,1,5.055
1012,-2,-5,-4,-1,-2,-3,-3,-2,5.0600000000000005
1013,-1,0,-2,-1,3,0,-3,-2,5.065
1014,-1,-2,-2,-2,-5,-3,0,-1,5.07
1015,0,1,-1,-3,-3,-1,0,-1,5.075
1016,-1,0,-1,0,-1,0,-3,1,5.08
1017,-1,-5,-1,-2,-1,0,1,-1,5.085
1018,-1,1,0,-1,1,1,1,-3,5.09
1019,0,-1,0,-1,1,-1,1,-1,5.095
1020,-3,-4,-1,-3,-3,-3,2,-1,5.1000000000000005
1021,1,3,-2,-2,-1,0,-3,1,5.105
1022,0,0,0,1,0,0,1,-1,5.11
1023,-1,-1,-1,-1,-3,0,-3,-1,5.115
1024,-1,-4,-1,-2,-1,0,-2,-1,5.12
1025,1,4,-2,0,-3,-3,0,-1,5.125
1026,-5,-7,0,1,1,2,-2,2,5.13
1027,2,5,2,1,0,-1,1,0,5.135
1028,-4,-10,-3,-3,-1,1,-3,-1,5.14
1029,-1,-2,-2,0,2,1,1,-1,5.1450000000000005
1030,-1,-2,0,-2,-3,-4,-2,0,5.15
1031,1,2,-2,0,-3,-2,-3,0,5.155
1032,1,2,0,0,-2,-1,1,0,5.16
1033,-1,1,3,1,-1,-2,1,0,5.165
1034,-1,2,0,-3,1,1,0,-4,5.17
1035,-3,-5,0,1,2,3,0,1,5.175
1036,2,-1,-1,-1,-1,-3,-1,-1,5.18
1037,-3,-2,2,-3,-2,-2,-4,-1,5.1850000000000005
1038,3,7,0,0,0,-1,0,1,5.19
1039,-4,-6,-3,-2,-3,-1,3,-3,5.195
1040,0,3,-3,-2,-3,-1,-3,-1,5.2
1041,0,-5,-2,-1,0,0,0,0,5.205
1042,0,-4,1,1,0,-2,-1,-1,5.21
1043,-1,-8,-2,1,0,0,-1,-1,5.215
1044,1,4,2,1,0,-1,0,0,5.22
1045,-4,-8,-3,0,-2,-2,0,-3,5.2250000000000005
1046,0,0,0,-1,0,1,0,0,5.23
1047,-2,-2,-3,0,1,0,-1,-2,5.235
1048,0,2,3,1,-5,-1,-1,1,5.24
1049,-2,-4,-2,-2,0,-2,-1,-1,5.245
1050,0,3,0,-1,-2,0,3,-1,5.25
1051,-3,-4,-1,-1,1,-2,-2,-1,5.255
1052,0,2,1,0,3,-1,-1,0,5.26
1053,1,1,1,-2,-1,0,-2,-1,5.265
1054,-1,-7,-2,-1,-1,-1,-4,-1,5.2700000000000005
1055,-1,3,1,-1,0,1,1,0,5.275
1056,-4,0,-1,0,-3,0,-2,-1,5.28
1057,-3,-6,-1,1,-1,1,1,0,5.285
1058,0,0,-2,-1,1,-2,-2,-1,5.29
1059,1,-1,-1,-2,1,-2,-2,1,5.295
1060,0,1,-3,-3,0,-1,1,-1,5.3
1061,1,2,1,2,3,1,1,-2,5.305
1062,-1,-1,0,0,-4,0,-1,-2,5.3100000000000005
1063,-1,-3,-1,0,3,-3,-1,0,5.315
1064,0,3,-3,-2,-1,-1,-1,0,5.32
1065,1,1,0,-1,-4,-2,-1,0,5.325
1066,-2,-4,-1,-2,-1,0,1,-2,5.33
1067,0,-1,-3,-2,-3,0,1,-1,5.335
1068,0,1,-2,0,1,1,0,-1,5.34
1069,0,2,-1,-2,-2,-4,-3,-1,5.345
1070,1,1,-1,-3,-5,-3,-6,2,5.3500000000000005
1071,1,-1,1,-2,-1,0,3,-1,5.355
1072,0,-1,-2,-1,0,-2,2,1,5.36
1073,0,-1,-2,-1,0,0,-2,0,5.365
1074,-2,-3,-3,-4,1,2,-1,-1,5.37
1075,-2,-2,-2,-3,-1,-2,-4,-1,5.375
1076,-2,-1,1,0,0,0,-3,0,5.38
1077,-1,1,0,-2,-2,0,-1,-3,5.385
1078,1,1,-2,1,0,2,1,0,5.39
1079,-1,-2,-2,-1,-2,-2,-2,-1,5.3950000000000005
1080,-3,-11,1,1,-1,1,0,-2,5.4
1081,-3,-1,-2,0,0,0,-2,0,5.405
1082,2,5,2,2,1,-1,-1,-1,5.41
1083,0,-3,-3,0,-3,1,0,-1,5.415
1084,1,0,-1,-1,-1,-3,0,-1,5.42
1085,2,3,-1,2,-1,-1,1,0,5.425
1086,-1,-2,0,0,0,-1,-1,0,5.43
1087,-1,-3,-1,-1,-3,-2,-6,-2,5.4350000000000005
1088,-2,-1,-1,1,0,2,1,-1,5.44
1089,-1,-2,-2,0,-3,-1,4,-1,5.445
1090,-2,-4,-4,-4,-6,-4,-2,-1,5.45
1091,-2,-2,0,-2,1,1,0,1,5.455
1092,0,4,1,-1,3,-1,-2,0,5.46
1093,1,6,1,-2,-2,-1,-3,-1,5.465
1094,-3,-6,0,2,2,-1,-1,-2,5.47
1095,-1,4,-1,-1,-1,1,2,-1,5.4750000000000005
1096,-1,-2,-1,-3,-2,-2,0,-1,5.48
1097,-1,-4,0,-3,0,1,2,0,5.485
1098,2,2,2,0,-1,-2,-2,-2,5.49
1099,1,0,-2,2,-3,-2,-2,-1,5.495
1100,1,3,-1,-1,1,2,1,-1,5.5
1101,-3,-9,-3,-3,-1,-1,-2,1,5.505
1102,-1,-3,0,-1,1,-1,-2,0,5.51
1103,-1,-1,0,-2,1,0,0,-1,5.515
1104,0,2,-2,0,0,0,-1,0,5.5200000000000005
1105,-1,-7,-2,1,-4,-3,-2,-2,5.525
1106,0,1,-1,0,-4,0,-3,0,5.53
1107,0,3,2,1,0,0,1,0,5.535
1108,0,1,-1,0,-2,1,2,-1,5.54
1109,-7,-11,-4,-2,-1,-2,-3,-2,5.545
1110,-1,-2,-2,-1,0,2,-1,0,5.55
1111,-2,-3,2,-1,1,-1,-2,1,5.555
1112,-1,-5,-4,-2,0,-1,-2,-2,5.5600000000000005
1113,0,7,0,-1,2,1,2,1,5.565
1114,-2,-2,0,0,0,-1,1,-1,5.57
1115,0,-3,1,-1,-2,0,-2,0,5.575
1116,-2,-2,-2,-1,-1,-5,-1,0,5.58
1117,1,4,2,2,0,1,1,-1,5.585
1118,2,7,-3,0,-1,-1,-1,-3,5.59
1119,0,0,-3,-2,-4,-1,0,0,5.595
1120,-1,-1,0,0,-3,-4,-4,0,5.6000000000000005
1121,1,1,0,-1,-2,0,0,-1,5.605
1122,0,0,0,-1,0,0,2,0,5.61
1123,-2,0,-2,0,-2,1,2,0,5.615
1124,-1,-2,-1,0,1,1,-3,-2,5.62
1125,3,2,0,0,-1,-2,-3,-1,5.625
1126,-1,1,0,-3,1,0,0,-3,5.63
1127,0,-1,-2,-1,0,-1,-2,-1,5.635
1128,1,-1,1,-1,-6,0,-2,-2,5.64
1129,-1,-2,-1,0,6,0,0,-1,5.6450000000000005
1130,-2,1,1,2,1,-1,-1,-1,5.65
1131,0,1,-2,1,-1,-1,-2,-1,5.655
1132,-3,-6,-1,-2,0,1,1,-2,5.66
1133,0,1,-1,3,0,-1,-6,-2,5.665
1134,-3,-3,-3,-2,-2,-2,-2,-1,5.67
1135,2,5,0,2,-2,-2,-1,0,5.675
1136,-1,1,0,0,2,1,0,0,5.68
1137,-1,1,-1,-2,-1,0,2,1,5.6850000000000005
1138,1,4,2,-1,-2,-1,2,0,5.69
1139,-1,0,0,-1,0,-2,-2,-1,5.695
1140,-3,-7,-4,-2,-4,0,0,-1,5.7
1141,-3,-4,-1,1,1,2,2,-1,5.705
1142,-2,-1,-4,0,0,-1,-2,-2,5.71
1143,-2,0,0,-2,-6,-1,0,-1,5.715
1144,2,5,2,0,1,-2,0,0,5.72
1145,0,-1,-1,-2,-1,-1,-4,0,5.7250000000000005
1146,-3,-9,-4,-2,0,1,2,-1,5.73
1147,-3,-5,-1,-2,0,-2,-1,-2,5.735
1148,0,1,1,-1,-1,-2,1,0,5.74
1149,2,5,2,0,0,0,-1,-1,5.745
1150,2,0,1,-2,-1,1,-2,-1,5.75
1151,-1,0,0,0,-2,0,-2,0,5.755
1152,-3,-1,-3,-3,-3,-2,-3,-2,5.76
1153,1,3,1,-1,-3,-2,0,-1,5.765
1154,-4,-8,-2,1,-1,-3,-1,-1,5.7700000000000005
1155,1,1,0,0,-1,1,2,-2,5.775
1156,-2,-3,-2,0,3,1,1,1,5.78
1157,-1,5,1,-2,-2,-4,0,1,5.785
1158,-3,-5,-1,0,2,-2,-2,-2,5.79
1159,-1,-3,-2,0,1,2,0,0,5.795
1160,-1,-1,-2,-1,-1,1,4,0,5.8
1161,-2,-6,-1,-2,-2,-3,-5,-3,5.805
1162,0,3,0,-2,-2,-3,-2,1,5.8100000000000005
1163,-1,0,-1,-1,0,-1,-3,-2,5.815
1164,-1,0,1,0,-1,2,1,0,5.82
1165,-2,-2,-1,1,0,1,1,-1,5.825
1166,1,0,-4,1,0,1,0,-1,5.83
1167,-1,-6,-4,-3,-3,-3,-2,-1,5.835
1168,0,-2,1,0,2,-2,-4,-1,5.84
1169,-1,-4,-1,0,-4,-1,2,0,5.845
1170,1,1,0,-1,-2,-5,-2,-1,5.8500000000000005
1171,-1,0,0,0,2,1,1,0,5.855
1172,-2,-2,0,0,2,-1,-1,-2,5.86
1173,-2,-6,-4,-1,1,0,0,1,5.865
1174,-1,-3,-1,-1,-1,-2,-1,1,5.87
1175,0,0,-1,-1,-2,-2,-1,0,5.875
1176,1,4,-1,0,-3,-1,-3,-2,5.88
1177,1,-2,-1,-2,1,2,6,-2,5.885
1178,-4,-3,1,0,-1,-2,-1,0,5.89
1179,-3,-4,-1,-2,1,-2,0,0,5.8950000000000005
1180,0,-2,0,0,2,-1,-5,-2,5.9
1181,1,3,1,0,-3,-1,0,0,5.905
1182,0,2,1,-2,-1,2,1,-1,5.91
1183,-2,0,-1,-2,-1,0,0,-1,5.915
1184,-2,-5,-2,-2,-4,-3,0,-1,5.92
1185,-1,-3,-2,0,-1,-1,-4,-1,5.925
1186,1,1,1,0,0,0,0,-1,5.93
1187,-1,-3,-1,-1,-5,-1,1,0,5.9350000000000005
1188,0,5,0,-3,-1,1,1,-1,5.94
1189,-5,-12,-3,-1,1,-1,0,-1,5.945
1190,1,0,1,2,1,2,1,1,5.95
1191,-1,-1,-2,-1,0,-1,-1,-2,5.955
1192,-2,-5,-1,-4,-2,-2,0,-1,5.96
1193,-1,3,-2,0,1,-2,-2,0,5.965
1194,1,1,-1,0,0,0,1,-2,5.97
1195,-1,-4,-2,2,4,0,-1,-1,5.9750000000000005
1196,0,0,-1,0,0,-1,0,-1,5.98
1197,0,3,0,-2,-1,-2,0,0,5.985
1198,-3,-5,-2,-4,0,0,0,0,5.99
1199,2,1,0,-2,-5,-3,-2,0,5.995
1200,0,3,0,1,3,0,1,-1,6.0
1201,-2,-3,-1,0,0,2,1,-1,6.005
1202,-4,-6,-2,-1,-1,-1,-3,-2,6.01
1203,-2,-4,-1,-1,-2,0,1,-1,6.015000000000001
1204,2,2,-1,1,-3,0,-3,0,6.0200000000000005
1205,-1,-3,-2,-3,1,1,-1,-1,6.025
1206,-1,1,0,-1,1,0,0,0,6.03
1207,-1,-2,-1,-2,-2,-1,-3,-1,6.035
1208,-1,-4,0,1,-1,-1,-2,-1,6.04
1209,0,5,3,1,-2,-1,-2,0,6.045
1210,-1,-3,-3,-1,-1,0,-1,-1,6.05
1211,-1,3,0,0,2,1,-2,-1,6.055
1212,0,3,0,0,0,1,-2,0,6.0600000000000005
1213,-2,-8,-2,-2,0,1,2,0,6.065
1214,0,-2,-1,0,-1,-3,-1,0,6.07
1215,-1,1,1,-1,-2,-3,-1,-1,6.075
1216,-2,-3,-3,-4,-2,-1,-2,0,6.08
1217,0,0,-3,-1,1,1,-3,-3,6.085
1218,0,-3,-1,0,-2,0,-1,0,6.09
1219,1,2,0,-3,-1,-1,1,0,6.095
1220,-2,-4,-1,0,-3,-2,-1,-2,6.1000000000000005
1221,-1,1,1,-2,1,-1,-2,-1,6.105
1222,0,2,1,0,-2,0,1,0,6.11
1223,-1,-2,-3,-1,4,2,-3,-1,6.115
1224,0,1,0,0,-2,-1,1,0,6.12
1225,3,7,-1,-1,-4,-3,-1,0,6.125
1226,0,-3,-3,-3,-4,-3,-1,-1,6.13
1227,0,-2,-1,-1,-2,-2,0,-1,6.135
1228,-1,-2,-1,-3,0,1,-1,-1,6.140000000000001
1229,-1,-2,-1,-1,0,-1,0,-1,6.1450000000000005
1230,-1,-2,0,-1,1,2,-1,0,6.15
1231,1,0,-1,-1,-1,-3,-2,-1,6.155
1232,-1,1,0,0,0,-1,1,0,6.16
1233,-1,-1,2,2,0,-3,0,-2,6.165
1234,-2,1,-1,-1,-1,-1,-2,-3,6.17
1235,-1,2,-3,0,3,2,0,1,6.175
1236,0,-1,-1,-1,-1,-1,0,-1,6.18
1237,1,5,-1,-2,-5,-2,-2,1,6.1850000000000005
1238,-2,-4,-2,0,0,0,3,1,6.19
1239,-2,-7,-2,1,4,1,-3,-2,6.195
1240,0,1,0,0,-3,-1,-1,0,6.2
1241,1,-2,-1,-2,-3,-3,-2,0,6.205
1242,-2,-4,0,1,-1,-3,1,-2,6.21
1243,-2,1,0,0,-3,0,0,-1,6.215
1244,-4,-5,-3,-2,0,1,2,-1,6.22
1245,-2,-8,-4,0,1,-1,-3,-2,6.2250000000000005
1246,2,6,2,1,-1,-2,-4,-1,6.23
1247,1,2,1,1,-2,0,1,-1,6.235
1248,-2,-4,-1,-1,0,-1,1,0,6.24
1249,0,-4,-3,-1,-2,0,0,-2,6.245
1250,1,3,0,-2,-2,0,-3,-1,6.25
1251,-1,-2,-3,-2,-3,-4,0,-2,6.255
1252,-2,-1,-1,-1,-1,-1,-1,0,6.26
1253,0,2,-1,-1,-1,-1,1,-1,6.265000000000001
1254,0,4,-2,2,0,3,0,0,6.2700000000000005
1255,1,1,0,1,5,0,-1,1,6.275
1256,-1,1,-2,1,2,-1,-2,-1,6.28
1257,-2,-3,-1,-2,-5,-2,-2,1,6.285
1258,-2,-3,1,-2,-2,-1,-2,-1,6.29
1259,-2,-1,-1,-4,-4,-2,-2,-2,6.295
1260,0,1,0,-1,-1,0,1,1,6.3
1261,-1,3,-1,0,2,2,3,0,6.305
1262,0,0,-2,-3,-2,-2,-1,0,6.3100000000000005
1263,-1,1,1,0,-1,0,0,-1,6.315
1264,-1,-3,-3,-2,1,-3,-2,-2,6.32
1265,-2,1,0,-1,-1,0,-2,-1,6.325
1266,-2,-1,-3,-2,-1,-1,0,0,6.33
1267,-3,-5,-1,0,-2,-1,0,0,6.335
1268,-2,-4,0,0,-3,-1,0,-2,6.34
1269,1,3,1,-2,0,-2,0,0,6.345
1270,-3,-1,-1,-1,1,0,-1,-1,6.3500000000000005
1271,-1,-2,0,0,0,1,-1,0,6.355
1272,-1,-3,-1,1,-1,-2,-2,-1,6.36
1273,-1,-1,-3,0,1,1,0,0,6.365
1274,-1,-1,0,0,1,-2,-2,-2,6.37
1275,0,1,0,-1,-4,-1,-2,-2,6.375
1276,0,2,0,-1,-1,0,4,1,6.38
1277,-4,-9,-3,0,-1,-1,-5,-2,6.385
1278,-2,-3,-3,1,-1,-1,0,-2,6.390000000000001
1279,1,4,0,0,1,0,2,0,6.3950000000000005
1280,1,4,-2,-4,-2,0,-3,1,6.4
1281,0,1,0,-1,-1,0,-1,0,6.405
1282,2,4,2,-2,0,1,3,0,6.41
1283,0,0,-1,-1,-2,-2,-4,-1,6.415
1284,-1,2,-1,1,-1,0,-2,-1,6.42
1285,-3,-5,-2,-1,2,1,-1,-1,6.425
1286,-1,-4,-3,1,-3,-2,0,-1,6.43
1287,-3,0,-1,0,-2,0,0,-2,6.4350000000000005
1288,0,-2,0,-1,0,1,2,0,6.44
1289,-2,2,-1,0,-1,0,3,0,6.445
1290,0,8,1,-1,1,-1,-2,0,6.45
1291,0,1,-2,0,-1,-1,-1,0,6.455
1292,-1,-5,-6,-2,-2,-2,-3,-1,6.46
1293,0,0,2,-1,-3,0,-3,0,6.465
1294,-2,1,0,-2,-2,-2,1,0,6.47
1295,-1,-4,-4,0,-1,0,3,0,6.4750000000000005
1296,0,3,1,0,0,-4,-6,-3,6.48
1297,0,-3,-2,-1,0,-3,-1,-1,6.485
1298,-1,-4,-4,-1,2,1,1,-1,6.49
1299,-1,3,0,-2,-1,1,-1,-1,6.495
1300,-2,1,0,2,2,-1,-2,-1,6.5
1301,0,2,0,0,-2,-1,0,-2,6.505
1302,1,-2,-1,-2,2,-1,0,-1,6.51
1303,-1,-4,2,0,-3,-3,0,0,6.515000000000001
1304,-1,-2,-1,1,0,3,2,1,6.5200000000000005
1305,-2,-2,-2,-2,-2,-3,-6,-4,6.525
1306,-1,0,-1,0,-1,1,-3,0,6.53
1307,0,3,1,0,1,-1,-1,-1,6.535
1308,0,0,-1,-2,-1,1,2,1,6.54
1309,-2,-2,-1,-2,-2,-1,-1,-3,6.545
1310,-2,-5,-1,0,-4,-2,-1,-1,6.55
1311,-1,2,-2,-3,0,-3,-2,0,6.555
1312,-1,-3,-1,0,0,-1,-2,0,6.5600000000000005
1313,-1,-2,-2,0,-1,-1,2,-1,6.565
1314,0,1,-1,0,2,0,-3,-3,6.57
1315,0,1,-2,-1,-5,-1,-1,-1,6.575
1316,3,9,1,1,3,-1,3,-1,6.58
1317,-3,-3,0,0,1,0,2,-2,6.585
1318,-1,-1,-1,-2,-5,-4,2,-1,6.59
1319,-4,-9,-2,0,3,0,-6,0,6.595
1320,-2,1,0,-1,-2,-3,-2,-1,6.6000000000000005
1321,1,3,1,0,-4,-4,-1,1,6.605
1322,-1,0,0,-2,-1,1,-1,0,6.61
1323,-1,-4,-1,-1,-1,0,2,1,6.615
1324,-2,-4,-1,-3,1,1,-1,0,6.62
1325,1,4,2,-1,2,1,-1,1,6.625
1326,-2,-5,-2,-2,-2,-4,-3,-1,6.63
1327,-1,2,-2,-2,0,4,5,-1,6.635
1328,-3,-11,-2,-1,-2,-1,-2,-3,6.640000000000001
1329,1,6,-1,-2,-1,0,-2,-1,6.6450000000000005
1330,-2,-2,2,2,-1,2,-1,0,6.65
1331,-1,-3,-2,0,-2,-3,2,-1,6.655
1332,-5,-11,-5,-1,-4,0,2,0,6.66
1333,0,-1,0,0,1,-1,0,0,6.665
1334,3,3,-1,1,2,1,0,0,6.67
1335,1,2,-1,-4,-1,-3,0,-3,6.675
1336,-1,-1,0,0,-5,1,-2,-3,6.68
1337,-1,-3,-4,-1,2,-2,0,0,6.6850000000000005
1338,-2,-3,0,-1,-3,0,1,0,6.69
1339,-1,0,1,0,1,0,-2,0,6.695
1340,1,1,0,-1,-2,-2,2,0,6.7
1341,0,2,1,-2,0,-1,-4,-2,6.705
1342,-2,-4,-3,0,0,-1,0,0,6.71
1343,0,-2,0,-1,-5,-3,0,0,6.715
1344,-2,1,0,-2,0,-3,0,-1,6.72
1345,-2,-5,-1,2,-3,-2,-1,-1,6.7250000000000005
1346,1,0,-1,-2,0,-1,4,0,6.73
1347,0,4,0,2,-1,1,-1,-1,6.735
1348,-1,-1,-3,-1,0,1,-2,0,6.74
1349,-2,-2,-2,-2,-2,0,0,0,6.745
1350,0,1,2,0,0,-2,-3,-2,6.75
1351,0,-2,-3,-1,-1,1,-2,-1,6.755
1352,1,-2,1,2,-1,-1,-1,-1,6.76
1353,-1,-3,-1,-1,-2,-1,-1,0,6.765000000000001
1354,1,1,-1,0,0,-2,-1,-1,6.7700000000000005
1355,-1,-1,2,0,1,-2,1,1,6.775
1356,2,1,-2,1,0,0,0,-1,6.78
1357,0,4,0,-1,-2,-2,-1,0,6.785
1358,-3,-3,-2,-1,-1,1,-1,-2,6.79
1359,-3,-3,-1,0,-2,1,-2,-1,6.795
1360,-2,-1,-4,-6,0,-1,-3,-1,6.8
1361,0,-2,2,-1,-4,-1,2,-1,6.805
1362,-1,2,-2,0,-1,-1,-5,-3,6.8100000000000005
1363,-3,-4,-3,-5,-1,-2,-4,-2,6.815
1364,-1,-1,0,0,-1,1,5,0,6.82
1365,0,1,-1,2,2,4,0,0,6.825
1366,0,6,0,-2,-2,-2,0,1,6.83
1367,1,-3,-2,1,-1,0,-2,-1,6.835
1368,0,4,-1,-2,-1,-2,-4,-2,6.84
1369,-2,-6,-2,0,-4,0,0,-1,6.845
1370,-1,-3,-1,-3,1,0,2,1,6.8500000000000005
1371,-1,1,1,-1,2,-2,0,-1,6.855
1372,-1,1,0,2,-1,-1,0,1,6.86
1373,1,1,-1,0,-1,0,-2,-2,6.865
1374,2,6,1,-2,-4,-2,-2,-1,6.87
1375,-2,-6,-2,-1,-1,0,1,1,6.875
1376,-1,-4,-2,0,0,0,-1,-1,6.88
1377,-2,-2,0,-3,1,1,-1,-4,6.885
1378,-2,1,-1,2,1,-1,-4,1,6.890000000000001
1379,2,7,0,-2,-2,1,2,1,6.8950000000000005
1380,-3,0,0,0,-3,-1,-2,-1,6.9
1381,0,4,-1,-3,1,-1,1,3,6.905
1382,-3,-6,-1,1,3,3,0,1,6.91
1383,-2,-4,-1,3,-2,-2,0,0,6.915
1384,-4,-10,-2,-3,-6,-4,-1,-2,6.92
1385,3,5,1,-2,1,-1,1,0,6.925
1386,0,0,-1,-2,-3,-1,-2,-1,6.93
1387,-2,-4,-4,-3,2,1,0,-2,6.9350000000000005
1388,2,3,1,0,1,0,0,1,6.94
1389,-2,-1,-1,0,-1,-3,-3,4,6.945
1390,1,-3,0,-2,1,-2,-3,-9,6.95
1391,0,1,-2,-3,-6,-1,-1,-5,6.955
1392,-2,-2,-3,-1,1,-1,0,-4,6.96
1393,0,1,-1,2,-1,-3,1,1,6.965
1394,0,-5,-3,-3,-4,0,1,3,6.97
1395,-2,-1,0,-2,0,-3,-3,-1,6.9750000000000005
1396,-2,-2,3,1,0,2,2,-1,6.98
1397,-5,-12,-5,-3,-1,2,1,-2,6.985
1398,0,4,1,-1,1,0,3,2,6.99
1399,-2,-8,-6,-5,-3,-3,-7,-1,6.995
1400,0,1,-1,1,-2,-3,-3,0,7.0
1401,0,2,2,3,1,-2,-1,-2,7.005
1402,-1,-3,-1,0,-6,-3,1,0,7.01
1403,-2,-3,0,-1,-2,0,1,0,7.015000000000001
1404,0,2,-2,-1,2,2,0,3,7.0200000000000005
1405,-1,-4,-2,-3,-2,0,-1,-4,7.025
1406,1,1,1,-1,-1,-1,-3,0,7.03
1407,1,-2,1,2,0,2,4,1,7.035
1408,2,3,-1,1,0,0,-3,1,7.04
1409,0,-2,-3,-2,-2,-1,1,-2,7.045
1410,-2,-7,-2,-1,0,-1,-3,-1,7.05
1411,3,10,3,-1,-2,-3,0,-2,7.055
1412,-2,-5,-1,-2,1,1,3,-2,7.0600000000000005
1413,-3,0,0,0,0,1,-1,-2,7.065
1414,-1,-3,-2,-1,0,-1,1,0,7.07
1415,0,1,-2,0,-4,-2,-2,0,7.075
1416,0,0,0,-4,0,-2,-1,-2,7.08
1417,-1,0,-2,1,0,-1,4,-1,7.085
1418,1,6,-4,-3,-1,-1,-3,-1,7.09
1419,-1,-4,4,1,2,2,1,0,7.095
1420,0,0,-1,1,0,-1,-1,0,7.1000000000000005
1421,0,-1,2,0,-1,-1,3,-1,7.105
1422,0,1,-2,1,-1,-1,1,-1,7.11
1423,0,0,-3,-1,2,1,0,-1,7.115
1424,-3,-4,0,-3,-1,1,0,-2,7.12
1425,0,-1,1,0,2,-2,-3,-2,7.125
1426,-5,-4,2,1,-6,-2,0,-1,7.13
1427,-4,-7,-4,-3,0,1,1,8,7.135
1428,0,1,0,-1,-4,0,-2,-9,7.140000000000001
1429,-2,-5,-2,-1,-2,-1,-6,-6,7.1450000000000005
1430,1,4,2,1,4,1,-2,-2,7.15
1431,-3,-7,-4,-1,1,-1,0,-1,7.155
1432,-1,-2,0,-1,2,0,3,2,7.16
1433,0,2,-3,-2,-2,0,0,0,7.165
1434,-2,-4,-1,-3,-1,-1,-1,-2,7.17
1435,1,5,2,0,-1,0,-1,-3,7.175
1436,-2,-3,-4,-2,-2,-3,-2,0,7.18
1437,-1,-1,0,-2,-4,2,1,1,7.1850000000000005
1438,-2,-3,-2,-1,3,-4,-4,3,7.19
1439,-2,-3,1,1,-1,-1,-1,-3,7.195
1440,-1,-2,-2,-2,-3,-2,-5,-2,7.2
1441,-1,3,0,-1,-3,-1,0,1,7.205
1442,-1,1,-2,-2,-1,1,2,-1,7.21
1443,0,-3,-5,-2,-1,0,-2,-3,7.215
1444,1,2,-3,-1,0,2,-1,0,7.22
1445,-2,-5,2,0,-3,-4,-1,7,7.2250000000000005
1446,-1,-4,2,-1,-5,1,0,-7,7.23
1447,-1,4,1,0,-2,-4,-3,-8,7.235
1448,0,-1,-2,2,-2,-1,0,-1,7.24
1449,2,6,-3,0,2,-1,-2,0,7.245
1450,-1,-4,-20,-4,1,-2,2,3,7.25
1451,0,1,4,-3,-1,-1,2,6,7.255
1452,-3,-4,22,7,-1,4,1,-4,7.26
1453,-1,0,-3,0,1,1,-4,-5,7.265000000000001
1454,-1,-2,5,3,-2,-1,-2,-1,7.2700000000000005
1455,3,4,-13,-3,1,-2,-2,0,7.275
1456,-1,-3,-41,-14,-3,-2,3,7,7.28
1457,0,-1,1,-4,-1,-1,-4,-7,7.285
1458,-1,-4,-15,-2,1,2,-1,0,7.29
1459,0,-6,-22,-7,0,-3,1,20,7.295
1460,-4,5,51,9,-1,-7,-16,-25,7.3
1461,-5,-2,59,22,-1,-4,-7,-11,7.305
1462,-1,-7,-53,-9,-1,4,18,5,7.3100000000000005
1463,12,-8,-68,-18,4,8,-2,35,7.315
1464,6,-6,57,-3,-3,4,43,58,7.32
1465,-7,10,11,7,-2,-2,-36,-58,7.325
1466,-6,-13,-61,-45,-2,-9,-26,-36,7.33
1467,4,10,96,9,-5,-3,11,4,7.335
1468,5,23,37,70,3,-11,-35,-11,7.34
1469,3,-19,-80,-27,-1,1,36,51,7.345
1470,-3,-7,22,23,1,10,2,-25,7.3500000000000005
1471,-10,-11,-105,-43,2,3,-17,-23,7.355
1472,4,-14,-27,-39,-7,0,53,25,7.36
1473,-2,20,4,11,-2,-4,-15,0,7.365
1474,-4,2,0,3,4,1,10,21,7.37
1475,-3,-25,88,10,-7,-7,-15,3,7.375
1476,-7,1,37,28,-1,-5,-26,-27,7.38
1477,3,-5,-79,-12,2,-1,3,-13,7.385
1478,1,0,-38,-33,-5,-6,-30,-7,7.390000000000001
1479,-26,-17,70,25,3,5,36,23,7.3950000000000005
1480,21,2,74,32,7,9,-33,39,7.4
1481,16,2,-19,-5,1,-4,6,-16,7.405
1482,16,-7,-22,28,4,0,-3,-15,7.41
1483,8,11,-26,-35,-3,5,17,-7,7.415
1484,-23,-4,-33,-10,-2,0,11,-21,7.42
1485,-8,-3,-44,-35,1,8,25,20,7.425
1486,5,1,-26,12,-1,-1,-1,6,7.43
1487,-8,9,57,39,-4,-11,-31,-22,7.4350000000000005
1488,15,-14,-103,-40,2,6,27,27,7.44
1489,5,16,102,45,0,-2,-35,-37,7.445
1490,-3,-18,-91,-55,1,1,-7,14,7.45
1491,4,22,69,39,-2,5,19,2,7.455
1492,-22,-6,22,5,1,-7,-10,-24,7.46
1493,-3,-15,-40,-18,-1,1,13,22,7.465
1494,3,21,64,16,-6,-6,-9,7,7.47
1495,0,-3,-128,-41,-1,-1,-6,-37,7.4750000000000005
1496,9,6,12,-19,-4,-1,-14,10,7.48
1497,-15,-3,52,41,2,-1,-3,-1,7.485
1498,-3,2,21,-4,0,1,5,3,7.49
1499,0,3,-41,-25,2,7,22,22,7.495
1500,6,15,-33,16,-2,-2,17,-3,7.5
1501,-7,-11,50,0,-5,-3,-20,-25,7.505
1502,-2,15,50,20,3,0,-3,5,7.51
1503,-5,-3,26,18,-1,-5,-14,7,7.515000000000001
1504,-8,-31,-94,-37,-5,-3,2,-19,7.5200000000000005
1505,9,-13,-113,-69,-1,2,-10,32,7.525
1506,-1,8,127,60,-4,-1,6,-23,7.53
1507,1,3,-27,13,-4,-3,9,-5,7.535
1508,-4,-5,-19,-21,-2,-2,-7,-9,7.54
1509,12,0,-48,0,-3,7,26,66,7.545
1510,-1,-5,29,-14,-2,-5,-4,-22,7.55
1511,8,9,16,6,-4,-13,-49,-38,7.555
1512,18,2,-26,-12,0,2,6,8,7.5600000000000005
1513,-1,7,-38,-20,-1,2,-9,-34,7.565
1514,-2,-20,-29,-1,0,0,-6,21,7.57
1515,-4,10,85,45,5,1,14,5,7.575
1516,-12,-2,-27,-26,-3,-1,6,2,7.58
1517,-8,-25,13,2,-4,-2,26,6,7.585
1518,-7,-19,-108,-66,-7,2,3,25,7.59
1519,-13,19,93,79,-1,-9,-28,-32,7.595
1520,-7,-4,-90,-19,3,2,-15,-15,7.6000000000000005
1521,-2,19,71,31,-2,-2,10,9,7.605
1522,-5,3,-71,-13,-1,1,10,-9,7.61
1523,-1,-15,-74,-48,-2,1,-6,-5,7.615
1524,1,10,10,8,0,0,2,6,7.62
1525,-4,-3,27,5,1,-1,-7,9,7.625
1526,15,25,69,32,2,-1,-17,16,7.63
1527,1,-14,-65,-24,-1,1,25,-6,7.635
1528,0,-11,-10,-11,1,5,-18,-24,7.640000000000001
1529,-4,5,30,16,1,-8,-40,-29,7.6450000000000005
1530,-9,15,15,10,3,6,46,9,7.65
1531,7,-35,-44,-27,1,9,25,46,7.655
1532,2,-2,-3,-2,-1,-5,-18,-44,7.66
1533,-3,16,81,27,1,-3,-6,-8,7.665
1534,-1,-5,12,19,0,-9,-23,-9,7.67
1535,5,7,-26,-4,1,2,15,23,7.675
1536,-7,-1,7,-2,-3,1,12,12,7.68
1537,1,-9,-68,-18,0,3,6,14,7.6850000000000005
1538,-7,-2,56,12,-4,-4,-6,-7,7.69
1539,4,5,-54,-17,0,-3,-18,-8,7.695
1540,-4,-1,77,10,-3,-1,17,12,7.7
1541,3,4,-15,6,-3,1,6,-4,7.705
1542,0,0,-5,11,2,-3,-4,15,7.71
1543,-13,-23,-21,-23,-5,-3,-22,-11,7.715
1544,2,5,12,12,-1,0,9,43,7.72
1545,-1,-7,-12,-3,0,-6,-10,-36,7.7250000000000005
1546,8,-6,-31,-17,-1,2,12,-16,7.73
1547,2,15,17,4,0,2,-1,-16,7.735
1548,-29,-14,-2,-2,0,-3,-30,-18,7.74
1549,1,3,-14,-17,-5,2,43,32,7.745
1550,-8,-5,23,13,-4,-6,-26,-24,7.75
1551,12,9,3,3,3,-1,5,7,7.755
1552,2,3,-5,-1,-5,1,14,12,7.76
1553,-6,-2,1,-9,-4,-7,-20,-32,7.765000000000001
1554,0,3,-8,-10,0,1,-6,12,7.7700000000000005
1555,-3,2,10,17,0,-1,0,0,7.775
1556,2,8,-5,-9,1,0,-14,-23,7.78
1557,11,7,18,12,0,-5,-11,17,7.785
1558,0,4,-17,-25,-5,1,43,13,7.79
1559,0,-1,-1,-10,-3,-2,-16,8,7.795
1560,-3,10,51,30,0,3,5,-28,7.8
1561,-9,-13,-46,-19,7,8,4,5,7.805000000000001
1562,-4,0,-23,9,1,1,-8,41,7.8100000000000005
1563,-9,-12,49,4,-9,-4,8,-53,7.815
1564,9,-13,-45,-13,1,-3,-7,-1,7.82
1565,7,7,7,3,5,1,-3,1,7.825
1566,-7,4,33,-2,-7,-3,0,-7,7.83
1567,-1,-6,-27,-10,7,3,-7,12,7.835
1568,8,15,24,12,-4,-3,7,25,7.84
1569,2,3,-17,-1,-2,-3,-5,-14,7.845
1570,-6,-27,-2,-15,-3,-7,-15,-3,7.8500000000000005
1571,6,25,13,3,-3,0,9,6,7.855
1572,-1,11,-6,14,2,-1,-7,-29,7.86
1573,-5,-10,11,-2,-1,1,-1,15,7.865
1574,11,22,4,-2,3,5,21,15,7.87
1575,1,-7,-33,-14,-6,-4,-5,-5,7.875
1576,-4,-2,7,9,1,-2,-5,3,7.88
1577,-7,-5,65,23,-2,-1,0,-7,7.885
1578,-2,-9,-55,-21,-1,-1,-4,-6,7.890000000000001
1579,-18,-10,14,4,-1,-1,-4,-1,7.8950000000000005
1580,10,2,35,29,3,2,2,11,7.9
1581,13,6,-31,-20,-1,-1,-3,3,7.905
1582,-5,4,24,4,2,0,-16,-26,7.91
1583,-5,-14,-41,-13,-3,4,24,39,7.915
1584,8,3,-41,-20,-5,-7,-4,-34,7.92
1585,10,9,42,14,0,-1,5,2,7.925
1586,-6,-3,20,14,1,-1,0,3,7.930000000000001
1587,1,4,-9,4,2,-1,-10,-11,7.9350000000000005
1588,-3,-5,-6,-6,-1,2,15,29,7.94
1589,-6,-3,-10,-8,-6,3,11,0,7.945
1590,-4,-6,-23,-8,-3,-3,-4,-13,7.95
1591,1,-4,-4,4,4,-2,-10,-19,7.955
1592,2,2,36,9,-1,-2,-11,34,7.96
1593,-11,7,22,5,-2,-3,1,-15,7.965
1594,-2,1,-8,-4,-10,-5,1,-4,7.97
1595,3,2,12,-6,0,2,-14,-9,7.9750000000000005
1596,-1,-1,-38,-18,-3,-1,-4,-7,7.98
1597,-7,-23,-16,2,4,-1,2,9,7.985
1598,0,-1,30,11,0,2,4,-5,7.99
1599,-6,-3,-13,3,-1,-7,-14,-2,7.995
1600,1,1,12,-11,-4,-3,5,-5,8.0
1601,8,-7,-35,-6,-1,0,-2,8,8.005
1602,3,5,17,1,3,0,2,1,8.01
1603,3,5,16,6,-2,1,9,-1,8.015
1604,-8,-4,-5,-4,2,-3,-4,5,8.02
1605,-3,-1,-9,-4,-5,4,13,-4,8.025
1606,2,-1,-9,-3,-2,-4,-6,6,8.03
1607,2,3,1,-1,-3,0,-6,-6,8.035
1608,-3,-3,10,1,-1,-2,-7,-7,8.040000000000001
1609,-3,-2,-15,-5,0,-1,-3,-2,8.045
1610,2,-4,-6,1,2,1,2,0,8.05
1611,2,10,22,5,-2,-3,5,7,8.055
1612,-2,-3,-14,-5,-2,1,-3,-3,8.06
1613,-1,1,-4,-1,1,-3,-4,0,8.065
1614,2,-4,4,2,-1,2,9,3,8.07
1615,-2,2,2,2,-1,0,3,5,8.075
1616,-9,-5,-6,-2,-5,-2,-3,-9,8.08
1617,-3,3,-1,-5,-1,-3,-6,1,8.085
1618,4,2,6,8,3,1,-3,-3,8.09
1619,8,-3,-8,-6,-2,1,3,2,8.095
1620,-20,2,-1,1,1,-1,1,-1,8.1
1621,-3,-8,6,4,3,0,-1,-1,8.105
1622,-9,-3,-11,-4,-8,-4,-2,-5,8.11
1623,-9,-5,-1,-2,-3,-2,-2,-1,8.115
1624,-5,1,5,0,2,-1,-1,1,8.120000000000001
1625,-10,5,-4,-1,-3,-1,-1,-1,8.125
1626,-6,-1,-5,-1,1,-1,-1,-2,8.13
1627,-11,-2,1,-2,-1,1,1,3,8.135
1628,12,-6,3,2,-3,1,-2,-3,8.14
1629,5,-4,-7,-4,1,1,-1,-2,8.145
1630,10,1,-3,-2,-3,0,-3,0,8.15
1631,13,1,6,2,0,-1,0,4,8.155
1632,8,0,-5,0,2,-1,-4,-3,8.16
1633,5,2,-2,-2,-1,-1,4,1,8.165000000000001
1634,7,-1,1,1,1,1,2,0,8.17
1635,8,1,1,1,2,2,2,0,8.175
1636,-10,2,1,-1,-1,-2,-1,-3,8.18
1637,-4,-1,-2,-4,-3,-7,-8,-3,8.185
1638,-5,-5,0,0,-4,-4,-2,-2,8.19
1639,4,-1,-4,-3,-1,-4,-1,0,8.195
1640,12,4,-1,-1,0,2,2,3,8.2
1641,-2,3,2,-2,-4,-1,-1,1,8.205
1642,1,-5,-11,-2,-1,2,4,-1,8.21
1643,0,0,5,1,0,4,-1,0,8.215
1644,1,-5,-11,-3,3,-1,1,0,8.22
1645,-2,-3,5,0,0,0,-8,-3,8.225
1646,-1,7,14,7,1,0,6,7,8.23
1647,1,-3,-10,-3,-2,1,11,1,8.235
1648,-4,-8,0,-3,-4,-4,-4,-1,8.24
1649,3,-2,-6,-1,2,2,3,-1,8.245000000000001
1650,-4,-2,-3,-3,0,-3,-6,-4,8.25
1651,-4,-1,2,1,0,-2,-4,-1,8.255
1652,1,0,0,2,1,-1,1,-1,8.26
1653,1,-1,-1,0,-1,-2,-7,-2,8.265
1654,-2,-3,-1,-5,-3,-3,-2,-1,8.27
1655,-2,0,0,0,-1,0,5,3,8.275
1656,0,-5,-2,-1,-3,1,-3,-2,8.28
1657,-2,0,1,-1,-1,0,6,-1,8.285
1658,-2,2,2,-1,1,1,-1,1,8.290000000000001
1659,-3,-2,-7,-5,-3,-3,-8,-5,8.295
1660,3,6,3,1,-1,-2,2,0,8.3
1661,-4,-8,-1,-1,0,1,-3,0,8.305
1662,1,3,0,2,-1,-3,-3,-2,8.31
1663,-2,-5,-4,-2,0,-2,-2,-3,8.315
1664,1,2,1,-1,0,-2,-8,1,8.32
1665,-2,-2,0,0,-1,0,10,1,8.325
1666,-2,-1,-3,-1,1,1,3,-2,8.33
1667,-3,0,-1,-2,-4,-1,-4,-1,8.335
1668,0,2,1,0,2,-4,-6,-3,8.34
1669,-3,-6,2,2,0,1,2,1,8.345
1670,-1,-5,-4,3,1,2,3,-2,8.35
1671,1,-3,1,0,-1,-2,-1,7,8.355
1672,-2,-6,-8,-2,-3,-2,-4,-9,8.36
1673,0,4,-1,-2,-1,-1,-4,-5,8.365
1674,1,8,1,1,0,1,-1,-1,8.370000000000001
1675,-1,-1,1,0,0,1,-2,-1,8.375
1676,0,-2,-3,-3,-3,0,3,3,8.38
1677,1,1,2,0,-2,-1,-4,1,8.385
1678,0,0,-1,-2,-2,-1,0,-1,8.39
1679,2,1,-2,0,1,-2,-1,-3,8.395
1680,1,5,1,0,4,1,3,0,8.4
1681,-4,-8,-2,-1,-4,-5,-2,-2,8.405
1682,-2,-9,2,0,-3,0,1,1,8.41
1683,-2,-3,-2,0,2,1,-1,-4,8.415000000000001
1684,-5,-9,-2,0,-1,0,2,-1,8.42
1685,2,0,-2,-2,-1,0,-4,0,8.425
1686,-2,0,1,1,1,-2,-2,-2,8.43
1687,-2,-2,2,-1,-1,0,2,-1,8.435
1688,0,-1,-1,0,-4,1,-2,1,8.44
1689,1,4,0,1,-1,-1,-1,1,8.445
1690,-1,-2,-3,-4,0,-1,-1,1,8.45
1691,0,3,-1,-1,1,2,1,-2,8.455
1692,1,7,5,0,-3,-1,0,1,8.46
1693,-2,-1,-3,-1,1,-1,-4,-2,8.465
1694,1,-1,-2,2,2,-2,-3,-3,8.47
1695,-1,-2,-2,0,-3,-1,3,1,8.475
1696,-1,-1,1,0,0,2,2,0,8.48
1697,-1,3,-1,-2,-5,-1,-1,-1,8.485
1698,0,3,-3,-2,2,1,-3,-1,8.49
1699,-3,-5,0,-1,-2,0,-3,-2,8.495000000000001
1700,0,-1,-2,1,-3,-4,-3,0,8.5
1701,1,1,1,0,-1,1,0,1,8.505
1702,-1,0,-3,-2,-2,-1,-2,-2,8.51
1703,1,9,1,-3,0,0,0,-1,8.515
1704,-4,-6,-1,-2,-3,-3,-5,-3,8.52
1705,-2,0,0,0,0,-2,-1,1,8.525
1706,0,-4,2,0,0,3,12,4,8.53
1707,0,1,-1,0,0,0,-2,-1,8.535
1708,1,-1,1,0,0,0,0,6,8.540000000000001
1709,3,4,1,-1,-2,-1,0,-5,8.545
1710,-3,-3,-5,1,-2,-2,-10,-6,8.55
1711,-1,-2,5,1,-1,-1,-2,-2,8.555
1712,-2,-1,1,2,1,-1,-1,-3,8.56
1713,0,-2,-2,-1,-1,1,2,2,8.565
1714,0,0,-1,-1,-1,-1,-2,2,8.57
1715,-3,-5,-7,-2,-1,-3,1,-2,8.575000000000001
1716,-1,-3,0,-3,-2,-1,0,8,8.58
1717,2,3,2,3,1,-2,-1,-6,8.585
1718,-3,-7,-4,-2,2,1,-3,-6,8.59
1719,-1,-3,-4,-1,-2,-1,-4,-1,8.595
1720,0,-2,-3,0,-5,-2,3,-3,8.6
1721,1,5,0,-1,1,1,3,3,8.605
1722,1,6,2,-3,-1,-4,-7,2,8.61
1723,-2,1,-3,-1,1,-2,1,-1,8.615
1724,0,-5,1,-1,1,2,3,0,8.620000000000001
1725,0,-1,-2,1,0,-3,-1,-2,8.625
1726,1,1,0,-1,-2,1,0,-2,8.63
1727,-1,-2,-1,-1,-4,-6,-2,-1,8.635
1728,3,6,2,0,0,-1,-1,-3,8.64
1729,-4,-9,-4,-2,-1,0,-3,0,8.645
1730,-1,-5,-1,-1,-2,0,1,1,8.65
1731,-1,-1,1,-2,-1,-4,-7,-1,8.655
1732,1,2,-1,-1,0,1,6,-1,8.66
1733,0,-1,1,1,-2,1,4,2,8.665000000000001
1734,-1,-1,0,-1,2,-1,3,8,8.67
1735,2,7,2,0,0,-1,-5,-6,8.675
1736,-4,-11,-6,-3,-3,-1,-7,-8,8.68
1737,0,1,0,-2,1,0,1,-1,8.685
1738,0,-3,-4,-1,-4,-2,-1,-3,8.69
1739,1,-2,1,1,-2,-1,2,5,8.695
1740,0,3,0,0,-1,0,-1,-1,8.700000000000001
1741,-1,0,-1,-2,-4,0,0,-2,8.705
1742,4,16,-3,-4,-2,-4,-2,7,8.71
1743,-1,-4,5,4,3,1,2,-7,8.715
1744,-4,-5,3,1,-1,1,-2,-2,8.72
1745,-2,-6,-1,-1,-3,-3,-3,-1,8.725
1746,2,4,2,0,-1,-1,-5,0,8.73
1747,1,3,-5,-2,-2,-1,0,2,8.735
1748,-2,1,-2,1,2,0,1,-1,8.74
1749,-1,1,0,-1,0,1,-4,0,8.745000000000001
1750,-1,-3,2,0,1,-2,-1,-4,8.75
1751,-1,-4,-3,-3,-1,-3,-3,0,8.755
1752,-3,-5,-5,-3,1,0,1,-1,8.76
1753,0,-1,-3,-2,0,-1,1,1,8.765
1754,-1,-1,-1,0,-2,0,-1,-3,8.77
1755,-3,-3,-1,-3,-5,3,1,0,8.775
1756,1,3,1,-1,2,1,-2,-1,8.78
1757,0,4,2,-2,-8,-6,-2,-1,8.785
1758,-4,-10,-2,3,3,-1,1,-3,8.790000000000001
1759,-1,-2,2,3,1,-1,-3,-1,8.795
1760,1,6,2,-1,0,0,1,0,8.8
1761,-3,-7,-5,-3,0,0,3,0,8.805
1762,-3,-4,-2,-2,-3,2,0,-1,8.81
1763,-2,-3,-4,-4,-2,-2,0,1,8.815
1764,1,3,2,-1,0,-2,-3,-1,8.82
1765,-1,1,0,0,1,-3,-3,-2,8.825000000000001
1766,-3,-1,-1,-3,-2,-1,2,-2,8.83
1767,-1,-4,-1,-3,-2,0,-1,0,8.835
1768,-1,-6,-5,0,0,2,-3,-2,8.84
1769,1,3,2,1,1,2,0,1,8.845
1770,-2,-5,-1,-2,-4,-3,-6,-5,8.85
1771,-2,0,-2,-1,-1,1,4,0,8.855
1772,-1,-1,-2,-1,-2,-1,-1,0,8.86
1773,-1,-1,-3,-2,0,-1,0,0,8.865
1774,1,3,0,0,-2,-1,1,1,8.870000000000001
1775,0,-1,0,0,0,-3,-3,0,8.875
1776,2,6,1,2,2,-3,0,-1,8.88
1777,0,0,3,2,2,2,-1,0,8.885
1778,-3,-3,-3,-3,-2,1,-2,-2,8.89
1779,3,8,0,0,-1,-1,-2,0,8.895
1780,-4,-5,-1,0,-2,-7,-6,0,8.9
1781,-2,-6,-4,-1,-3,2,9,1,8.905
1782,-1,-3,0,-4,-1,0,-3,-1,8.91
1783,-1,-1,1,2,-1,-1,-3,-2,8.915000000000001
1784,1,3,0,-3,1,2,3,0,8.92
1785,0,2,1,1,-3,-5,-5,-2,8.925
1786,-1,-1,-3,0,-1,0,1,-2,8.93
1787,0,0,-1,2,0,0,1,0,8.935
1788,-1,-4,-2,-1,-3,0,0,1,8.94
1789,-1,-4,-4,-1,0,-1,0,4,8.945
1790,-1,-4,1,1,1,0,-3,-4,8.950000000000001
1791,-1,-2,0,-1,0,-1,-11,-5,8.955
1792,-1,-2,-2,-1,-1,-1,7,-2,8.96
1793,0,3,-1,-3,1,0,2,-1,8.965
1794,-1,1,0,0,-4,0,3,1,8.97
1795,-4,-9,-3,-1,-2,-1,0,1,8.975
1796,-2,-4,0,-1,0,-2,-8,-3,8.98
1797,-3,0,-2,-1,-3,1,-1,0,8.985
1798,2,4,-1,1,1,-3,4,0,8.99
1799,-1,-2,0,-3,-2,0,2,1,8.995000000000001
1800,0,2,-2,-2,-1,-2,1,-1,9.0
1801,-1,-9,-2,-1,0,1,-4,-4,9.005
1802,2,2,0,-1,-1,-2,0,1,9.01
1803,-1,-4,1,2,1,-1,5,6,9.015
1804,-2,1,-1,-1,-1,-2,-3,-10,9.02
1805,0,0,0,-1,-1,0,-1,7,9.025
1806,-2,-2,0,-2,-3,-2,-2,-10,9.03
1807,-3,-2,0,-2,2,-2,-4,-2,9.035
1808,-3,1,-2,-1,1,-1,-1,2,9.040000000000001
1809,-2,-5,-2,-1,-2,0,0,-3,9.045
1810,-2,-1,2,1,-2,-2,1,4,9.05
1811,1,2,-2,-2,-4,-1,1,1,9.055
1812,0,-2,-1,0,0,1,-3,0,9.06
1813,-1,0,-4,-2,-2,-4,-5,-5,9.065
1814,-3,0,-2,-3,0,0,2,2,9.07
1815,-2,-5,-3,-2,-1,0,-2,-5,9.075000000000001
1816,2,2,2,0,-1,0,4,1,9.08
1817,0,0,-1,1,3,0,-2,-1,9.085
1818,-1,-3,-3,-1,-1,-2,-1,0,9.09
1819,0,6,0,0,-3,-3,-5,-4,9.095
1820,-3,-10,-1,-3,-2,2,-1,3,9.1
1821,0,0,-1,2,1,-2,-1,-1,9.105
1822,0,-4,1,0,2,0,-3,-1,9.11
1823,0,0,-1,-2,2,2,0,-6,9.115
1824,-2,-5,-3,-2,-2,-2,0,1,9.120000000000001
1825,1,2,0,0,-4,-1,-7,-5,9.125
1826,0,4,-2,1,3,1,0,0,9.13
1827,0,0,0,2,-1,-1,7,2,9.135
1828,2,1,-1,-1,-1,-1,-1,-2,9.14
1829,0,2,0,-2,-3,-2,-1,1,9.145
1830,-1,-4,-3,-2,-2,-1,-2,-1,9.15
1831,-1,0,-2,-4,1,0,-2,0,9.155
1832,0,0,0,3,-1,-1,1,0,9.16
1833,-1,-2,1,0,-1,-1,-2,-3,9.165000000000001
1834,2,7,1,1,2,2,5,10,9.17
1835,-5,-13,-5,-3,-5,-3,-4,-13,9.175
1836,-6,-11,-5,-3,-1,-3,-3,-2,9.18
1837,-3,-2,-3,-3,1,1,2,-3,9.185
1838,-1,-1,0,2,1,0,-2,-2,9.19
1839,3,3,0,0,-1,3,5,7,9.195
1840,2,4,-2,-1,0,1,3,1,9.200000000000001
1841,-2,0,0,1,0,-1,-3,-2,9.205
1842,-2,-2,0,-1,-1,1,-1,-2,9.21
1843,0,3,0,1,0,-2,1,0,9.215
1844,-1,1,-1,0,-2,-2,-5,-5,9.22
1845,0,-2,-1,-1,0,0,2,1,9.225
1846,-1,-2,-2,-2,-2,0,1,-1,9.23
1847,-1,2,-1,-2,-3,0,-2,1,9.235
1848,-1,1,-1,-1,0,0,-2,-5,9.24
1849,1,3,0,0,-2,-2,-3,-2,9.245000000000001
1850,-3,-7,-4,-5,-6,-4,-5,-4,9.25
1851,-2,-2,1,2,4,2,3,2,9.255
1852,-1,-5,-2,-2,-1,-3,-2,2,9.26
1853,-1,-1,0,1,-1,0,-3,-3,9.265
1854,0,-1,-2,-1,-1,0,4,5,9.27
1855,0,1,0,-1,-2,0,4,-3,9.275
1856,-2,2,1,-1,-1,2,0,-4,9.28
1857,-1,4,2,0,0,0,1,-1,9.285
1858,0,4,2,-1,0,-4,-7,-5,9.290000000000001
1859,0,-2,-2,-2,-1,-1,-4,2,9.295
1860,-4,-6,1,2,-1,0,0,2,9.3
1861,-1,-6,-2,-1,-2,-1,1,-3,9.305
1862,-3,-2,1,1,0,0,-3,-1,9.31
1863,-1,-5,-4,-2,-2,-2,1,1,9.315
1864,1,2,-2,-4,-2,0,-1,3,9.32
1865,-1,-5,-1,-2,-1,0,-2,-3,9.325000000000001
1866,-1,0,1,-1,-1,-1,-5,-8,9.33
1867,3,4,0,0,3,-1,-3,0,9.335
1868,-1,-3,-2,2,3,1,1,0,9.34
1869,-3,-3,0,-1,-2,-1,3,5,9.345
1870,0,0,-3,-2,1,0,1,-1,9.35
1871,-2,-1,0,-2,-2,-2,-3,-5,9.355
1872,2,5,1,0,-5,-1,0,1,9.36
1873,-2,-7,-5,-3,2,1,-2,1,9.365
1874,-1,-3,-1,-1,-1,-2,1,-1,9.370000000000001
1875,-1,2,-1,0,-2,1,0,2,9.375
1876,0,-1,1,1,1,-1,1,0,9.38
1877,3,8,-2,-1,-2,-1,-4,-1,9.385
1878,-3,-8,-2,-2,-2,-1,-3,-1,9.39
1879,1,1,-2,0,2,-2,-1,1,9.395
1880,-1,3,2,-3,-2,0,-1,0,9.4
1881,0,1,2,0,1,0,5,7,9.405
1882,-2,0,1,1,-1,-1,-1,-8,9.41
1883,-2,-1,1,0,-1,-3,-2,-4,9.415000000000001
1884,1,2,0,-1,-4,0,-3,-4,9.42
1885,-1,-3,-2,-1,-1,0,-1,-1,9.425
1886,0,0,-2,-1,0,-1,1,3,9.43
1887,-2,-2,-1,-1,-1,1,1,1,9.435
1888,-1,3,0,-3,-1,-3,1,-3,9.44
1889,-1,4,-2,-2,2,1,-2,2,9.445
1890,-1,-2,-1,1,0,1,2,0,9.450000000000001
1891,-1,-1,-2,-1,-3,-2,-3,-4,9.455
1892,1,-1,-1,-2,2,2,2,0,9.46
1893,1,0,1,0,-1,-1,1,0,9.465
1894,3,1,0,0,-1,1,-1,1,9.47
1895,0,1,0,1,1,-1,-5,-1,9.475
1896,-2,-4,-2,-2,1,2,0,11,9.48
1897,-1,0,-2,-1,-3,-2,-2,-12,9.485
1898,-3,-4,-7,-9,-5,-1,-3,-4,9.49
1899,0,2,-3,0,0,0,2,2,9.495000000000001
1900,1,5,1,4,2,-1,0,-2,9.5
1901,2,4,4,3,1,-1,-1,0,9.505
1902,-1,3,-1,0,0,-1,-1,3,9.51
1903,-2,-5,0,-1,0,-1,1,-1,9.515
1904,-1,-1,-1,-2,-1,-4,-2,-1,9.52
1905,-2,-6,-1,2,-1,1,1,0,9.525
1906,0,-3,0,2,-2,-2,-4,0,9.53
1907,0,3,1,1,-2,0,-2,0,9.535
1908,-2,-7,-3,-1,-2,2,2,-3,9.540000000000001
1909,-3,0,-3,-3,-3,-4,-1,-1,9.545
1910,1,-3,-1,0,3,4,6,10,9.55
1911,-2,-2,-1,-1,-4,-3,-2,-9,9.555
1912,1,6,0,-3,-3,-3,-5,-5,9.56
1913,-1,-2,-1,0,-1,-2,-1,-3,9.565
1914,-1,1,0,-2,0,0,-4,0,9.57
1915,1,-2,-1,1,0,1,7,6,9.575000000000001
1916,0,-2,0,0,-2,0,-4,-4,9.58
1917,-3,-4,0,-2,5,-1,-4,0,9.585
1918,0,3,1,5,-3,-3,-3,-3,9.59
1919,0,-1,-6,-4,0,-1,-6,1,9.595
1920,-4,-8,-6,-11,-5,4,7,-2,9.6
1921,0,2,0,-2,-4,-1,-3,-1,9.605
1922,0,-1,2,3,1,-2,0,-1,9.61
1923,-1,4,2,1,-2,-2,-2,-2,9.615
1924,-1,-3,0,2,1,-2,1,1,9.620000000000001
1925,0,-1,-2,-2,-2,0,-2,0,9.625
1926,-2,-3,-2,0,0,0,5,-4,9.63
1927,1,3,-1,-2,0,1,-1,5,9.635
1928,-2,1,0,-2,1,-2,-5,-3,9.64
1929,-5,-13,-2,-1,-1,-2,-3,-10,9.645
1930,-2,1,1,-1,-1,-1,0,-3,9.65
1931,-1,-6,-4,-5,2,1,-2,-1,9.655
1932,-1,-3,-1,2,-1,3,6,3,9.66
1933,0,3,0,1,-4,-3,1,3,9.665000000000001
1934,1,2,-1,0,-1,-1,3,-2,9.67
1935,-2,-5,1,2,1,0,-2,1,9.675
1936,0,2,-2,1,0,-1,-5,-1,9.68
1937,-1,2,0,0,0,0,-2,0,9.685
1938,0,0,0,2,-3,0,-1,-2,9.69
1939,1,4,-3,-4,2,2,2,0,9.695
1940,1,2,1,0,-6,-2,0,3,9.700000000000001
1941,2,-2,0,2,4,0,-5,-3,9.705
1942,-2,2,0,0,-2,0,0,-4,9.71
1943,-1,-2,0,-1,-1,0,1,-3,9.715
1944,1,4,0,1,2,0,-5,-2,9.72
1945,0,-1,-2,-4,-4,-1,3,6,9.725
1946,-1,-9,-3,-2,0,-3,-2,-2,9.73
1947,-3,-4,-1,1,1,-2,-3,-4,9.735
1948,0,1,-1,1,-2,-3,4,2,9.74
1949,1,2,-2,-3,0,1,6,3,9.745000000000001
1950,-2,-2,0,-1,0,-2,-4,-1,9.75
1951,-2,0,0,-1,-3,-2,3,-1,9.755
1952,-2,-3,-2,-2,-1,-2,-6,-3,9.76
1953,-1,3,-1,-2,-1,-1,3,9,9.765
1954,0,-2,2,0,0,0,-5,-9,9.77
1955,-2,-4,-2,2,-2,-2,2,-5,9.775
1956,-1,-3,-1,-2,1,0,1,0,9.78
1957,0,-1,-4,-2,-4,0,-2,-4,9.785
1958,1,3,0,-4,-2,0,-1,6,9.790000000000001
1959,1,-1,1,-1,-6,-1,-2,2,9.795
1960,0,0,-2,0,4,-1,-2,-5,9.8
1961,-1,0,0,-2,-1,-1,3,-2,9.805
1962,-1,-2,-2,-2,-3,-3,-7,2,9.81
1963,0,2,0,2,1,-1,-1,-1,9.815
1964,-4,-9,-3,-4,-5,-1,2,-4,9.82
1965,-2,-5,-1,-1,3,4,-4,-4,9.825000000000001
1966,-1,-1,-1,0,-1,-1,3,0,9.83
1967,-1,2,1,-3,-1,0,-1,-1,9.835
1968,1,-3,-1,3,1,-1,0,2,9.84
1969,-1,-7,0,1,0,-3,0,-2,9.845
1970,0,2,-3,-1,-1,-1,-1,0,9.85
1971,-2,-5,-4,-2,-1,0,4,9,9.855
1972,1,4,1,0,-1,0,-1,-8,9.86
1973,-3,-9,-5,-2,-1,-2,-5,-6,9.865
1974,-3,-3,0,-1,-1,3,1,1,9.870000000000001
1975,0,-5,-4,-2,1,-3,0,-1,9.875
1976,-2,0,1,-1,1,-3,0,2,9.88
1977,2,8,-1,0,-1,0,-2,0,9.885
1978,-1,2,-2,-2,-3,-2,2,0,9.89
1979,-2,-4,0,1,3,-1,-8,-2,9.895
1980,0,3,-1,1,-2,0,-1,-2,9.9
1981,0,0,0,0,-1,-1,1,-1,9.905
1982,-1,-2,-5,-4,-1,-3,-1,-1,9.91
1983,2,8,3,0,-5,1,7,6,9.915000000000001
1984,-3,-7,-5,-4,-1,-2,-7,-9,9.92
1985,-3,1,1,1,0,1,-2,-3,9.925
1986,0,1,0,2,1,3,3,-1,9.93
1987,1,9,2,0,0,2,-3,-2,9.935
1988,-2,-10,-1,-1,0,-2,-2,4,9.94
1989,-1,-2,-2,-2,-5,-2,-2,0,9.945
1990,-1,1,-1,-1,-1,-1,1,1,9.950000000000001
1991,-2,-6,-2,-2,0,0,0,-6,9.955
1992,-1,1,-2,-1,-2,-1,0,2,9.96
1993,-2,-5,3,-2,1,-2,-1,-2,9.965
1994,1,0,-1,0,0,0,-1,2,9.97
1995,-2,-3,-1,-3,-3,0,0,-1,9.975
1996,-1,-2,-1,1,-2,-2,-6,-1,9.98
1997,-1,-4,-1,1,2,0,-1,0,9.985
1998,-1,2,-1,0,1,-1,5,5,9.99
1999,0,1,-2,1,-2,0,-3,-7,9.995000000000001
2000,-4,-6,-2,0,1,0,2,-5,10.0
2001,2,7,-1,-3,-5,0,-4,1,10.005
2002,-1,-4,-1,-3,-3,-4,-1,-4,10.01
2003,-3,-1,0,-1,3,-2,-2,0,10.015
2004,3,4,0,-2,0,2,1,2,10.02
2005,3,5,1,1,0,-1,-4,-1,10.025
2006,-1,-2,-2,-2,0,0,0,0,10.03
2007,-2,-3,-2,-6,-4,-2,0,-1,10.035
2008,0,0,-2,2,-1,-1,2,0,10.040000000000001
2009,-1,0,-3,-8,1,0,0,-1,10.045
2010,0,4,0,1,0,1,-1,-1,10.05
2011,-1,-1,-1,-1,0,-3,-2,-1,10.055
2012,2,3,2,1,0,-2,-3,1,10.06
2013,-1,-4,0,3,-3,-2,2,-1,10.065
2014,-2,-3,-2,0,1,0,-4,-1,10.07
2015,0,-2,-3,-5,-3,0,1,-2,10.075000000000001
2016,-1,4,1,0,1,0,-3,1,10.08
2017,-1,4,-2,0,-2,0,0,0,10.085
2018,-1,-1,1,-5,-2,-4,3,7,10.09
2019,-1,0,2,7,1,5,1,-9,10.095
2020,0,-2,-7,-12,-2,-1,-2,-5,10.1
2021,-2,-7,-1,2,-3,-3,-1,-2,10.105
2022,-2,-3,-1,0,-1,2,-2,-2,10.11
2023,-1,-1,0,2,0,-3,-3,5,10.115
2024,-2,-2,1,0,0,0,3,1,10.120000000000001
2025,-1,-6,-3,0,2,1,1,-1,10.125
2026,-2,0,-1,-3,-3,-1,-2,-4,10.13
2027,2,10,0,-3,-4,-2,-2,-1,10.135
2028,-2,-2,4,1,1,-1,0,-1,10.14
2029,-2,-2,0,-1,0,-1,1,1,10.145
2030,-3,-8,-6,-2,-1,0,2,-3,10.15
2031,2,6,1,0,-2,-5,-7,-1,10.155
2032,-1,1,-2,1,-3,0,-2,-1,10.16
2033,-1,1,2,-2,0,0,1,-3,10.165000000000001
2034,-2,-3,-2,0,0,-3,-3,-2,10.17
2035,-3,-3,0,-1,0,-1,4,0,10.175
2036,2,-2,-2,-6,-1,-1,1,9,10.18
2037,-2,-1,-2,1,-2,-2,-5,-8,10.185
2038,0,3,-1,1,-2,0,-2,-7,10.19
2039,-2,-3,-1,-2,0,-1,-4,0,10.195
2040,-1,2,3,2,0,1,-3,1,10.200000000000001
2041,0,1,-2,-4,-3,-2,2,1,10.205
2042,1,-3,2,1,-1,-2,-2,0,10.21
2043,1,-3,-3,0,1,-1,2,-1,10.215
2044,-1,1,0,1,0,0,2,0,10.22
2045,0,4,0,-2,-1,1,-2,-1,10.225
2046,-1,1,-1,0,-1,3,2,-2,10.23
2047,-3,-5,-2,-5,-5,-2,-1,0,10.235
2048,-1,-4,-3,-1,1,-3,-4,-4,10.24
2049,0,-1,-1,2,-1,0,1,4,10.245000000000001
2050,1,1,0,2,5,-3,0,0,10.25
2051,0,3,0,1,2,4,0,-5,10.255
2052,-1,1,-1,0,-3,-2,0,-3,10.26
2053,1,0,-3,-1,-1,-2,-3,-4,10.265
2054,0,1,2,1,-1,-1,-1,4,10.27
2055,-2,-4,-4,-4,0,-2,3,3,10.275
2056,-1,3,1,-1,-4,-3,-1,-4,10.28
2057,0,-2,-1,0,-3,1,2,3,10.285
2058,-1,-3,-1,-2,0,-2,-2,-1,10.290000000000001
2059,0,-1,-1,1,0,-3,-2,0,10.295
2060,1,4,0,-1,-1,1,1,-2,10.3
2061,-2,0,0,-2,-5,-3,-1,-2,10.305
2062,-1,1,-2,-2,-3,-1,-1,0,10.31
2063,0,-4,0,0,0,0,-1,-1,10.315
2064,-2,-3,-2,0,-4,-3,0,-5,10.32
2065,-3,-5,1,4,2,0,-2,-2,10.325000000000001
2066,0,0,-1,-5,-3,-1,-1,-2,10.33
2067,0,-4,-3,-2,0,2,5,4,10.335
2068,0,2,2,0,0,3,2,4,10.34
2069,-1,2,1,0,0,-3,-4,-4,10.345
2070,-2,0,0,1,-3,-2,-3,-2,10.35
2071,0,1,-1,-1,-1,-2,1,1,10.355
2072,-2,0,0,2,-1,2,4,-1,10.36
2073,-1,-3,-3,1,-1,-3,-3,0,10.365
2074,0,-1,-4,-5,1,0,1,0,10.370000000000001
2075,0,-2,0,0,2,1,-1,-5,10.375
2076,-2,-2,0,-1,-1,-2,-1,-1,10.38
2077,0,0,0,-3,1,-2,0,0,10.385
2078,1,0,-2,1,0,1,1,3,10.39
2079,-2,-2,-3,-2,1,-2,-3,-5,10.395
2080,-2,-3,1,1,-3,-4,-2,-5,10.4
2081,1,4,0,0,-2,0,-5,-2,10.405
2082,-3,-5,1,0,0,0,-5,-3,10.41
2083,0,6,2,-1,0,0,1,3,10.415000000000001
2084,0,0,-1,0,0,3,2,2,10.42
2085,0,-1,-2,-2,3,2,2,-2,10.425
2086,1,4,1,3,-1,1,0,0,10.43
2087,0,-4,-2,-4,-5,-1,-1,0,10.435
2088,-1,-1,-1,-4,-1,-2,-1,0,10.44
2089,2,5,2,3,-1,-1,-1,0,10.445
2090,-3,-5,-3,-2,2,0,2,7,10.450000000000001
2091,0,5,1,2,-3,0,-3,-10,10.455
2092,-4,-12,-4,0,1,-1,1,-2,10.46
2093,-2,-5,-2,-3,0,-1,1,1,10.465
2094,1,2,0,1,0,0,-2,1,10.47
2095,-1,1,0,-1,-3,1,-3,3,10.475
2096,0,2,-1,-5,-3,-2,-5,-2,10.48
2097,-1,-4,0,1,2,2,5,2,10.485
2098,-1,-3,-3,-2,1,-1,-1,-7,10.49
2099,0,0,-2,-2,-5,-2,-1,2,10.495000000000001
2100,4,6,2,0,-2,-2,-6,-1,10.5
2101,-1,2,3,0,1,0,-1,-1,10.505
2102,-1,1,0,-2,-2,1,2,-5,10.51
2103,-4,-6,0,-2,-5,-3,-4,-1,10.515
2104,0,1,-2,-1,-1,1,-1,1,10.52
2105,-3,-3,-2,-2,1,-2,0,-1,10.525
2106,1,0,1,1,-3,0,-5,-2,10.53
2107,-2,-1,2,5,3,-1,3,0,10.535
2108,3,3,-3,-5,-3,-4,0,7,10.540000000000001
2109,-1,-2,-6,-10,-4,0,0,-6,10.545
2110,-6,-8,-2,-2,-1,-2,-5,-9,10.55
2111,0,-4,0,0,-1,-1,-1,-1,10.555
2112,1,7,1,4,2,-2,0,-2,10.56
2113,-1,-1,-3,-2,-2,1,-1,4,10.565
2114,-1,0,0,-3,-3,-5,2,-2,10.57
2115,-2,-4,-1,1,0,-2,-1,-2,10.575000000000001
2116,-3,-3,0,-2,1,-1,1,-1,10.58
2117,-1,-3,0,1,1,0,-1,-1,10.585
2118,0,2,2,0,-2,-3,-4,-1,10.59
2119,-2,-3,-1,-3,-4,-1,2,0,10.595
2120,-4,-7,-2,4,1,0,-1,-4,10.6
2121,1,1,1,-2,-1,0,-7,-1,10.605
2122,-2,-2,-2,-1,1,1,5,1,10.61
2123,2,5,-1,0,3,1,1,4,10.615
2124,0,-1,-1,-3,-1,1,0,-1,10.620000000000001
2125,-4,-5,-3,-2,-2,-3,-5,-7,10.625
2126,0,2,2,0,0,-2,-4,0,10.63
2127,-1,-2,-1,0,-1,0,-2,0,10.635
2128,-1,-3,-2,-3,-5,1,2,2,10.64
2129,1,3,2,1,-2,-4,-2,1,10.645
2130,1,5,0,0,0,1,2,-1,10.65
2131,0,-2,-2,-4,1,-5,-5,1,10.655
2132,-2,-6,-2,-1,-2,0,1,0,10.66
2133,-2,3,-2,0,-2,1,1,-2,10.665000000000001
2134,0,4,-1,0,-3,-2,-3,-3,10.67
2135,0,-3,-1,1,1,-1,1,-1,10.675
2136,1,4,3,0,1,-1,1,5,10.68
2137,-1,0,-1,-1,-1,1,-7,-9,10.685
2138,-2,-3,-2,-1,-1,-1,5,1,10.69
2139,-2,0,-2,-4,-6,-1,0,-1,10.695
2140,0,0,0,-3,0,-3,-3,-2,10.700000000000001
2141,-1,2,0,1,0,1,5,6,10.705
2142,-2,-5,-1,-1,3,0,-5,-3,10.71
2143,0,-2,0,0,0,2,0,-1,10.715
2144,-2,1,0,0,-5,-2,-1,-2,10.72
2145,-1,-2,0,0,2,1,-4,2,10.725
2146,-1,-4,-1,-1,0,1,4,-1,10.73
2147,-4,0,1,1,-1,0,-1,-2,10.735
2148,1,6,-1,0,-1,3,1,-3,10.74
2149,-4,-9,-5,-2,-3,-3,-1,-2,10.745000000000001
2150,0,-4,-2,-1,-1,-3,-3,2,10.75
2151,2,6,1,-1,-1,1,1,1,10.755
2152,-3,-9,-1,-1,-1,-1,0,-3,10.76
2153,1,7,0,0,2,-2,1,1,10.765
2154,-2,-1,0,2,-4,-1,-6,0,10.77
2155,1,2,-2,-2,-3,1,6,9,10.775
2156,0,-3,0,-1,3,2,-2,-10,10.78
2157,-2,-2,-2,-1,2,-1,-2,-5,10.785
2158,1,-2,-3,-2,-1,-2,-3,-1,10.790000000000001
2159,-5,-4,0,-1,-2,-2,-3,-2,10.795
2160,-2,0,-1,1,1,0,3,3,10.8
2161,2,1,-1,-2,-2,-3,4,4,10.805
2162,-1,4,2,2,2,1,-1,-2,10.81
2163,-1,-8,-4,-4,-2,-2,-2,-2,10.815
2164,-1,-1,-3,-2,-2,-4,-2,-2,10.82
2165,0,-1,1,1,-2,3,0,-2,10.825000000000001
2166,0,2,0,-1,0,0,-1,2,10.83
2167,-1,0,-2,-1,-1,-1,-5,-3,10.835
2168,-2,-5,-2,-3,1,-1,-2,-1,10.84
2169,-1,-6,-3,-1,0,1,0,1,10.845
2170,-2,-4,1,0,-1,0,3,10,10.85
2171,0,0,-1,-1,-2,0,-4,-12,10.855
2172,1,6,1,0,0,-1,-1,-2,10.86
2173,-3,-8,0,-1,-4,0,2,0,10.865
2174,2,-1,-1,-4,-6,-4,-4,-3,10.870000000000001
2175,0,-3,-1,-2,2,-2,-3,3,10.875
2176,-1,-1,-2,1,-4,-1,-3,1,10.88
2177,2,6,2,2,-2,0,1,2,10.885
2178,-1,-4,0,1,0,2,0,-4,10.89
2179,0,3,0,0,0,0,2,-1,10.895
2180,-3,-12,-3,1,0,4,0,-2,10.9
2181,-2,0,-2,-2,-1,-2,-2,1,10.905
2182,0,0,-2,-1,0,-4,-2,-3,10.91
2183,0,-2,-2,0,-1,-1,-2,-2,10.915000000000001
2184,1,4,-1,0,-3,0,-1,1,10.92
2185,0,1,-1,0,-1,-1,4,-2,10.925
2186,-4,-5,-1,-3,-1,0,-6,-3,10.93
2187,1,4,2,1,1,1,-3,-1,10.935
2188,0,1,-3,-2,-1,-2,3,1,10.94
2189,-1,-3,0,2,0,0,1,2,10.945
2190,-1,4,-3,-3,-2,-2,-2,-11,10.950000000000001
2191,-1,-1,-1,1,1,0,-2,-2,10.955
2192,-1,3,2,1,0,-2,-3,1,10.96
2193,-1,-3,-1,-3,-3,-2,-4,2,10.965
2194,-1,1,-1,-1,2,0,2,3,10.97
2195,-1,-3,1,-1,-3,-2,0,0,10.975
2196,1,0,0,-3,-4,-1,0,0,10.98
2197,0,2,0,-1,4,-1,-1,0,10.985
2198,-2,-5,-3,-1,0,2,3,1,10.99
2199,0,-1,0,-1,0,-2,-2,0,10.995000000000001
2200,1,4,0,0,-2,-1,0,-1,11.0
2201,0,5,1,0,-2,-2,2,-3,11.005
2202,0,-3,-2,-1,-2,0,-2,0,11.01
2203,0,1,0,1,1,0,7,1,11.015
2204,-1,-4,-3,-3,0,-3,-8,-3,11.02
2205,-1,4,-2,-3,-2,0,-1,-3,11.025
2206,-1,-1,-3,-4,-1,-2,3,6,11.03
2207,-1,-1,1,-1,-1,-2,-1,-7,11.035
2208,0,1,0,1,0,0,1,0,11.040000000000001
2209,-2,2,1,0,-4,-2,-3,-2,11.045
2210,-4,-11,-2,0,-2,-1,-2,1,11.05
2211,-3,-6,-1,0,-2,1,0,3,11.055
2212,-2,-3,-2,0,0,-1,-2,-3,11.06
2213,-2,-8,-1,0,4,0,-1,1,11.065
2214,0,4,2,1,-3,-5,-4,-2,11.07
2215,-1,-3,-2,1,-1,-3,-1,2,11.075000000000001
2216,-1,-1,-1,-1,1,0,-5,-2,11.08
2217,-1,-1,-1,-2,-1,1,1,0,11.085
2218,0,2,0,-1,0,2,-1,-4,11.09
2219,-4,-6,-2,-3,0,-2,2,-3,11.095
2220,1,-3,-2,1,-1,-2,-3,2,11.1
2221,-1,-2,-3,-1,-3,-2,1,0,11.105
2222,2,4,-2,-1,3,0,-1,2,11.11
2223,-2,4,0,-1,-4,0,-1,-5,11.115
2224,-2,-2,0,-2,1,0,3,0,11.120000000000001
2225,-2,-4,-3,0,0,-2,-2,-2,11.125
2226,-1,4,-2,0,-1,-2,2,-2,11.13
2227,0,3,-1,-1,0,-2,-2,3,11.135
2228,-1,-1,0,-1,0,0,2,-1,11.14
2229,-1,-7,-3,-2,-5,1,0,-1,11.145
2230,0,2,1,-1,-1,2,1,0,11.15
2231,1,-1,1,1,1,0,-3,-1,11.155
2232,1,5,2,1,-2,-1,3,-1,11.16
2233,0,2,-1,-3,-4,-4,-7,1,11.165000000000001
2234,0,1,0,-1,0,3,2,0,11.17
2235,-2,-3,-2,-2,-2,-2,0,0,11.175
2236,-2,-4,-2,-1,1,-1,-2,0,11.18
2237,-3,-3,0,2,0,-1,1,-1,11.185
2238,0,0,-2,-1,-3,-3,0,7,11.19
2239,1,1,1,0,1,1,-5,-6,11.195
2240,-3,-5,-1,-2,0,-1,-1,-4,11.200000000000001
2241,-1,1,-1,-2,-4,1,-2,0,11.205
2242,0,-4,-1,-2,3,-3,-2,-4,11.21
2243,-2,-6,-2,-2,-1,-2,0,3,11.215
2244,0,-1,-1,-1,-1,-2,0,2,11.22
2245,2,3,-1,1,1,-1,-1,-4,11.225
2246,0,-5,-2,-1,-3,1,1,0,11.23
2247,6,3,-1,-2,-3,-1,0,3,11.235
2248,1,0,0,1,-1,-1,-1,-2,11.24
2249,-13,1,-1,-1,2,0,-3,-1,11.245000000000001
2250,-1,-1,-3,-1,1,2,0,-2,11.25
2251,1,-1,-2,0,1,-2,-1,-2,11.255
2252,3,-2,-4,-3,-5,0,-2,1,11.26
2253,6,5,2,-1,1,-4,1,2,11.265
2254,-5,-4,0,-4,-3,2,-2,-1,11.27
2255,-1,1,1,0,-1,2,-1,-1,11.275
2256,-3,-4,-2,-1,0,-1,3,6,11.28
2257,3,2,-2,-2,-2,-4,-6,-10,11.285
2258,1,7,4,0,-1,-2,-4,-5,11.290000000000001
2259,1,0,-6,-2,0,0,1,-1,11.295
2260,-1,4,3,-2,0,-2,-2,2,11.3
2261,0,-4,-1,-1,0,0,1,4,11.305
2262,-2,-2,-7,-3,-3,-2,1,-3,11.31
2263,-1,4,-7,-4,-1,-4,0,10,11.315
2264,1,0,-21,-11,1,3,2,-6,11.32
2265,-1,-4,41,11,-4,-2,-3,-5,11.325000000000001
2266,-2,-2,4,12,0,-2,-3,-1,11.33
2267,-3,-11,-69,-23,0,3,2,1,11.335
2268,-2,-3,43,3,-1,1,-1,7,11.34
2269,1,12,40,13,1,0,-3,-7,11.345
2270,-4,-10,-23,-5,-2,-2,4,4,11.35
2271,-2,1,10,8,0,-1,-5,-10,11.355
2272,3,-12,-87,-27,0,4,3,8,11.36
2273,0,-1,-3,-19,-1,-2,-1,1,11.365
2274,-9,12,64,36,0,-7,-20,-22,11.370000000000001
2275,-1,-13,-72,-48,-1,3,-12,-6,11.375
2276,12,9,112,40,-4,0,22,27,11.38
2277,9,15,-1,8,1,-3,-8,-2,11.385
2278,21,-11,-77,-24,5,8,17,41,11.39
2279,-25,6,85,14,-8,-11,-31,-79,11.395
2280,-10,8,-31,1,3,-1,-7,-44,11.4
2281,6,-19,-41,-15,-2,3,-3,14,11.405
2282,-3,3,77,27,-1,-6,9,14,11.41
2283,-3,2,45,25,2,3,12,39,11.415000000000001
2284,-11,-2,-29,-17,0,1,-1,-27,11.42
2285,-9,-16,-98,-34,-1,0,-17,-1,11.425
2286,-2,-17,-76,-31,-1,3,9,32,11.43
2287,7,18,108,57,1,2,3,-21,11.435
2288,2,11,50,32,0,2,20,-5,11.44
2289,-1,-12,-19,13,5,0,4,13,11.445
2290,11,-19,-128,-63,1,6,1,-11,11.450000000000001
2291,-5,-24,-38,-64,-10,-7,-33,10,11.455
2292,0,23,88,99,0,-11,-2,50,11.46
2293,3,0,-45,-9,1,2,0,-22,11.465
2294,-9,-1,-11,11,0,2,11,-23,11.47
2295,2,-24,-62,-16,0,2,10,0,11.475
2296,-9,10,22,-9,0,-1,-33,-19,11.48
2297,2,10,108,2,-7,-3,16,13,11.485
2298,-6,-7,60,40,-5,-9,21,18,11.49
2299,5,4,-18,4,3,6,9,-19,11.495000000000001
2300,-1,-10,-82,-37,0,4,-6,6,11.5
2301,10,-2,-43,-4,-1,0,-11,1,11.505
2302,-6,18,74,-2,-1,-3,-16,-22,11.51
2303,0,-1,-63,0,5,-2,1,24,11.515
2304,2,-20,21,-21,-6,-2,24,44,11.52
2305,-13,0,56,19,-1,-2,-7,-26,11.525
2306,1,9,11,6,-4,-1,-10,-34,11.53
2307,-5,5,-45,-11,0,-1,-8,-12,11.535
2308,27,-2,-92,-23,0,-2,-12,-16,11.540000000000001
2309,17,1,53,22,-3,1,9,30,11.545
2310,10,2,-58,-9,-1,-1,-7,10,11.55
2311,-2,2,5,7,-4,-3,11,5,11.555
2312,-25,-28,9,-14,-2,-2,-4,-20,11.56
2313,-4,1,-8,-14,-6,-2,6,9,11.565
2314,-3,5,22,17,3,-4,-22,-15,11.57
2315,-14,9,19,1,1,2,20,-15,11.575000000000001
2316,0,1,-61,-20,-1,2,-6,19,11.58
2317,-10,-3,-35,-7,3,3,9,-7,11.585
2318,-11,1,76,8,-4,-2,-7,11,11.59
2319,12,6,7,16,5,3,-8,4,11.595
2320,-5,-13,4,6,1,-4,-12,-12,11.6
2321,-18,-13,22,4,2,2,12,-2,11.605
2322,3,-5,-128,-59,-2,3,6,-13,11.61
2323,10,5,103,49,-2,-3,6,16,11.615
2324,-1,2,-14,-15,-7,-3,-11,-12,11.620000000000001
2325,3,12,1,25,5,-7,-2,11,11.625
2326,-17,-2,14,-4,0,8,-2,-14,11.63
2327,12,-1,-45,-35,-4,-3,15,10,11.635
2328,-2,14,61,42,0,-4,-15,-17,11.64
2329,3,-5,-98,-41,-1,4,24,-5,11.645
2330,-11,-7,67,20,-2,-8,-7,-1,11.65
2331,4,1,-18,2,-2,-1,-2,24,11.655
2332,-9,-14,-18,-7,-1,2,6,10,11.66
2333,4,1,26,1,-5,-4,-4,-3,11.665000000000001
2334,7,8,-5,2,0,-1,0,1,11.67
2335,-10,-8,44,9,0,0,-6,12,11.675
2336,0,-7,-52,-23,-4,-5,1,-6,11.68
2337,-8,-12,-21,-4,-3,-1,-16,-41,11.685
2338,2,9,11,-4,0,1,5,-3,11.69
2339,-2,-19,-37,0,2,-4,-8,12,11.695
2340,7,3,28,0,2,1,2,13,11.700000000000001
2341,-5,3,-26,-12,-2,0,8,1,11.705
2342,6,-10,-6,6,-4,-4,-2,11,11.71
2343,-14,1,52,6,-1,1,8,4,11.715
2344,-1,-1,-51,-6,0,-2,-26,-23,11.72
2345,2,-5,22,4,-4,-1,7,9,11.725
2346,15,18,9,-4,3,1,-9,-14,11.73
2347,1,11,-10,1,0,-6,-15,0,11.735
2348,-2,-16,12,-1,4,2,16,3,11.74
2349,-14,2,-25,-11,-1,-2,-24,6,11.745000000000001
2350,6,-9,-41,-12,-5,-3,13,15,11.75
2351,0,12,52,26,1,3,10,-10,11.755
2352,10,5,2,-5,-1,1,-1,12,11.76
2353,0,8,20,9,-2,-5,-23,-8,11.765
2354,-16,-7,30,4,2,1,4,-12,11.77
2355,1,-5,-23,-6,-1,1,8,1,11.775
2356,-1,9,2,-5,-3,-2,4,16,11.78
2357,4,9,-4,7,1,3,19,-4,11.785
2358,14,-6,-50,-12,2,2,-12,1,11.790000000000001
2359,1,4,18,1,-5,-7,-25,-11,11.795
2360,-2,-4,22,-4,-2,-1,14,-23,11.8
2361,-1,-12,6,1,2,-1,19,43,11.805
2362,6,3,-25,2,5,4,-6,36,11.81
2363,18,15,11,5,-4,-4,2,-9,11.815
2364,-19,-7,-2,-4,-2,-3,-26,-66,11.82
2365,-10,-12,-34,-11,1,2,-11,-25,11.825000000000001
2366,-9,5,74,21,-7,-6,-4,-1,11.83
2367,0,-21,-82,-19,2,5,18,22,11.835
2368,11,0,-35,-14,-4,-2,11,25,11.84
2369,-11,3,21,0,-5,-3,-6,-8,11.845
2370,5,-5,-32,-1,6,2,4,10,11.85
2371,-15,6,83,17,1,0,-5,-7,11.855
2372,-7,1,-5,5,0,-3,1,-16,11.86
2373,24,4,-8,0,5,7,4,8,11.865
2374,14,4,6,0,-4,-2,0,3,11.870000000000001
2375,0,11,-1,-12,-2,-1,-7,-11,11.875
2376,5,-21,-44,-11,1,1,-2,-11,11.88
2377,1,2,20,5,-1,0,6,32,11.885
2378,-4,3,-1,10,3,0,-4,-20,11.89
2379,3,-1,-11,-18,-3,-1,1,3,11.895
2380,-20,14,43,22,3,1,-4,2,11.9
2381,6,1,-29,-7,-5,-5,-5,-6,11.905
2382,2,-3,30,0,0,-2,2,3,11.91
2383,-7,-4,-55,-13,-1,1,-2,6,11.915000000000001
2384,4,10,3,0,-3,-3,-6,0,11.92
2385,-5,-4,72,24,-1,-2,1,-2,11.925
2386,-3,8,-52,-19,0,0,-1,-18,11.93
2387,-7,1,34,20,0,-2,-5,-9,11.935
2388,1,-9,-5,-11,-2,2,8,12,11.94
2389,2,-1,-24,-7,-1,-5,-3,-6,11.945
2390,-16,-16,-5,-6,-5,0,3,2,11.950000000000001
2391,8,-7,-61,-18,-3,0,-2,-3,11.955
2392,3,7,65,22,2,-3,-2,10,11.96
2393,-1,9,-28,-14,0,0,5,-19,11.965
2394,1,-4,19,7,0,-5,-10,10,11.97
2395,1,-2,5,5,-1,-3,7,20,11.975
2396,9,5,-12,-1,-1,3,7,-7,11.98
2397,-11,9,32,14,4,-1,-19,-17,11.985
2398,0,3,9,-2,2,1,-3,-17,11.99
2399,1,-4,-42,-19,-1,0,21,20,11.995000000000001
2400,4,8,2,-10,-3,1,0,3,12.0
2401,4,-11,-2,8,-1,-4,-13,-19,12.005
2402,-12,13,64,30,-2,-4,-12,-11,12.01
2403,-4,-9,-28,-13,-1,0,-8,-1,12.015
2404,-2,4,-12,-6,0,0,11,17,12.02
2405,-4,-6,-21,-9,0,1,-5,4,12.025
2406,7,-1,-22,-7,-5,-2,2,1,12.030000000000001
2407,-7,-4,17,1,0,-1,-2,-10,12.035
2408,-7,-10,-16,-6,-3,-4,3,4,12.040000000000001
2409,2,0,-14,-6,1,1,-3,-13,12.045
2410,-3,0,21,-1,-5,-2,-8,9,12.05
2411,2,-1,-4,1,-1,-2,-3,-9,12.055
2412,2,3,-1,-4,-1,1,7,5,12.06
2413,-2,-4,2,1,-1,0,5,10,12.065
2414,-10,-8,1,0,-1,-2,7,-7,12.07
2415,-1,-2,-3,1,0,-1,-19,-23,12.075000000000001
2416,0,-4,-17,-12,2,0,3,8,12.08
2417,2,1,8,5,-2,0,5,12,12.085
2418,0,2,-19,-4,1,1,-3,-6,12.09
2419,0,6,3,-7,-1,0,16,-2,12.095
2420,-5,-2,26,19,2,-1,-12,-4,12.1
2421,-3,-5,5,0,-4,-5,-2,4,12.105
2422,0,-9,-28,-4,0,1,1,-4,12.11
2423,-3,1,6,1,0,0,-8,-2,12.115
2424,-1,5,-1,-4,-2,-3,-6,-4,12.120000000000001
2425,-3,4,6,-1,1,2,2,5,12.125
2426,-4,-5,-20,-7,-4,-3,1,-1,12.13
2427,1,2,4,-1,-4,-2,0,-6,12.135
2428,0,1,4,3,2,1,-4,-6,12.14
2429,-2,-3,-4,2,1,-2,-7,-5,12.145
2430,-3,7,4,-3,2,0,16,4,12.15
2431,-11,-4,-9,0,-1,-2,0,6,12.155000000000001
2432,-11,-13,13,4,-4,-3,-5,2,12.16
2433,6,11,-10,-8,-1,0,-9,-6,12.165000000000001
2434,1,-6,18,1,-2,-2,-4,-4,12.17
2435,5,-1,-1,4,-1,-3,3,0,12.175
2436,8,2,-9,-3,1,-1,-1,2,12.18
2437,4,-4,-8,-7,-1,2,0,1,12.185
2438,5,0,-2,0,1,-1,1,1,12.19
2439,-2,-5,10,6,-3,-1,-4,-5,12.195
2440,2,-2,-14,-6,0,2,-3,1,12.200000000000001
2441,-6,0,8,1,-1,-1,1,-2,12.205
2442,-14,2,0,0,-1,-1,0,-3,12.21
2443,-2,-8,-8,-5,-3,0,-5,0,12.215
2444,1,2,0,1,-2,-2,-1,-3,12.22
2445,0,-7,3,1,0,-1,7,9,12.225
2446,5,1,1,-2,1,0,-2,-7,12.23
2447,2,5,-1,-1,0,-4,-8,-7,12.235
2448,-10,0,3,0,-3,0,1,0,12.24
2449,-9,-2,-1,0,0,0,0,-1,12.245000000000001
2450,-9,0,-9,-4,-4,-1,-2,6,12.25
2451,1,1,7,3,2,0,3,0,12.255
2452,7,0,1,1,0,1,-1,-2,12.26
2453,9,2,-2,-3,-2,-2,-3,0,12.265
2454,-3,-4,-2,1,1,2,0,-1,12.27
2455,4,-12,-4,-2,-3,0,-1,-4,12.275
2456,7,1,-1,0,-1,-1,-1,0,12.280000000000001
2457,2,0,-2,-1,1,-1,0,-2,12.285
2458,15,3,-1,-2,-2,-1,-1,0,12.290000000000001
2459,3,3,2,3,4,0,1,1,12.295
2460,-7,-8,-6,-3,-3,-2,0,-2,12.3
2461,0,3,4,1,-1,-2,0,-3,12.305
2462,1,-4,-6,-2,-2,-3,-2,0,12.31
2463,0,0,2,1,0,1,-1,-1,12.315
2464,2,1,0,-3,-2,0,1,-9,12.32
2465,-1,6,12,2,-1,-2,0,2,12.325000000000001
2466,-1,-3,-6,0,1,0,0,6,12.33
2467,0,1,-5,-1,-2,1,4,4,12.335
2468,1,5,7,-1,-1,-2,-2,-2,12.34
2469,-5,-4,-3,-2,-1,-2,-4,-12,12.345
2470,1,4,3,-2,-1,-2,-5,-3,12.35
2471,2,1,1,0,2,1,-1,-1,12.355
2472,-1,-5,-5,-1,-3,-3,-2,1,12.36
2473,-1,-3,-1,1,-1,-1,0,2,12.365
2474,0,1,-5,-3,-2,-1,0,-2,12.370000000000001
2475,-2,3,2,0,0,0,-1,0,12.375
2476,-7,-14,-4,0,-2,0,-1,1,12.38
2477,0,2,-4,-1,-1,-1,1,-1,12.385
2478,-1,-3,-1,0,-1,0,-1,-1,12.39
2479,-14,-2,1,0,0,-2,2,-1,12.395
2480,12,6,5,1,0,0,0,3,12.4
2481,0,-2,-2,-2,-2,-1,-4,0,12.405000000000001
2482,-2,-1,-3,-3,-3,0,7,9,12.41
2483,2,0,0,-2,-2,-2,-4,-11,12.415000000000001
2484,-4,0,-2,-1,2,-3,-7,-6,12.42
2485,-2,-4,-2,-1,1,2,-3,1,12.425
2486,3,1,-2,0,0,1,1,-1,12.43
2487,1,-2,3,0,-2,-2,3,-7,12.435
2488,-3,-3,-6,-4,-4,-1,1,7,12.44
2489,2,-1,-1,1,-1,-2,1,1,12.445
2490,-4,0,0,0,2,0,-4,-2,12.450000000000001
2491,-1,1,-2,-3,-1,-1,-1,2,12.455
2492,-1,-2,-2,1,-2,-1,0,-4,12.46
2493,-3,-3,-3,-2,-1,-2,0,-1,12.465
2494,-2,0,-1,-1,-3,-2,-1,-2,12.47
2495,2,-1,1,1,-1,1,-3,0,12.475
2496,-2,0,0,-1,4,-1,-1,0,12.48
2497,0,-3,-4,-1,-1,0,0,-1,12.485
2498,4,2,2,0,-2,-3,-3,-4,12.49
2499,0,-1,-1,-1,2,-1,-2,1,12.495000000000001
2500,-2,6,2,1,-1,2,2,3,12.5
2501,-1,-1,-1,-2,0,0,0,-2,12.505
2502,-2,-4,-1,1,0,-2,-4,-4,12.51
2503,-1,-2,-3,-1,-4,-3,2,1,12.515
2504,6,3,0,-2,-1,-1,-1,0,12.52
2505,-2,0,-1,-1,1,-1,1,-2,12.525
2506,-3,-9,-1,-3,-4,-4,-3,-2,12.530000000000001
2507,1,1,0,2,1,2,-2,2,12.535
2508,-3,-2,-1,-1,-2,-3,-1,-1,12.540000000000001
2509,0,0,-1,-2,-3,2,1,-2,12.545
2510,-1,1,1,-1,2,-1,-2,-2,12.55
2511,-2,-1,-3,2,-2,-2,-3,-1,12.555
2512,0,-3,-2,-1,1,1,-2,-4,12.56
2513,-1,-1,-2,0,-3,-2,0,1,12.565
2514,0,-2,-8,-2,0,0,1,5,12.57
2515,-1,-2,8,1,1,-1,0,-6,12.575000000000001
2516,-1,3,2,2,0,0,-3,-4,12.58
2517,-1,-1,3,0,-2,-4,-6,-1,12.585
2518,-3,-2,-7,-2,-1,0,0,0,12.59
2519,-4,-13,-8,-4,-6,-2,2,3,12.595
2520,-2,-3,0,0,-1,-2,0,0,12.6
2521,-2,-4,-1,0,-2,0,3,0,12.605
2522,1,3,4,3,5,1,-1,-1,12.61
2523,0,0,-5,-4,-4,-4,-3,1,12.615
2524,0,0,-1,-2,-3,-4,0,-1,12.620000000000001
2525,-1,0,-2,0,-1,-2,0,0,12.625
2526,-1,0,0,0,0,1,-2,-3,12.63
2527,0,2,-2,-2,0,2,-3,-1,12.635
2528,2,0,-2,-2,-2,1,2,3,12.64
2529,1,4,0,0,2,0,-1,1,12.645
2530,-2,-5,3,-2,-7,-3,0,-2,12.65
2531,1,0,-1,-1,2,2,1,0,12.655000000000001
2532,-2,1,-2,-1,0,0,0,0,12.66
2533,-3,-1,1,-1,-2,-2,-4,-3,12.665000000000001
2534,-1,-2,-2,-1,0,-4,-2,-3,12.67
2535,-2,0,-2,-2,-1,1,2,0,12.675
2536,-1,-2,-1,1,1,1,0,0,12.68
2537,1,2,0,-1,-2,-2,-2,-1,12.685
2538,0,2,4,1,-2,1,2,-1,12.69
2539,4,8,-1,-2,1,2,-2,0,12.695
2540,-2,-4,-5,-2,-2,-3,-4,-1,12.700000000000001
2541,1,1,-3,-1,-6,0,3,0,12.705
2542,-1,-1,9,2,1,0,1,-1,12.71
2543,-1,-1,-1,0,-2,-3,-3,0,12.715
2544,-2,0,1,0,1,0,-1,0,12.72
2545,-2,0,-4,-4,-2,-1,-2,0,12.725
2546,2,6,-6,2,1,1,-2,-1,12.73
2547,-1,-3,4,1,0,0,5,0,12.735
2548,-4,-8,-3,-3,-1,-2,-3,0,12.74
2549,-1,-4,-2,-3,2,0,1,0,12.745000000000001
2550,-1,0,0,0,-1,3,0,0,12.75
2551,-2,1,-1,-2,-1,-2,0,-1,12.755
2552,0,2,1,-3,-5,-2,0,-1,12.76
2553,1,-3,1,2,1,0,-1,0,12.765
2554,-1,-3,-1,-3,-1,-2,4,8,12.77
2555,3,7,-1,-1,0,2,-4,-10,12.775
2556,-1,-3,1,1,0,0,0,-3,12.780000000000001
2557,-1,-1,-3,-1,-1,-3,-2,-3,12.785
2558,-2,0,-6,-4,-1,1,-3,-3,12.790000000000001
2559,-1,-4,8,0,-5,-1,-1,2,12.795
2560,3,6,-5,1,2,0,-1,1,12.8
2561,-3,-8,-2,-1,1,0,9,4,12.805
2562,-3,-2,-4,-1,-3,-2,-1,-5,12.81
2563,-3,-2,-3,-1,-2,-1,-1,-5,12.815
2564,-1,6,3,0,4,1,-6,-4,12.82
2565,-3,-5,-4,0,0,0,-3,-2,12.825000000000001
2566,1,1,0,-3,-3,-1,1,3,12.83
2567,-1,-2,-2,0,0,-1,4,1,12.835
2568,0,-3,0,-1,-3,-1,0,-2,12.84
2569,1,5,-2,-5,-2,-3,-4,-1,12.845
2570,-2,-6,2,2,2,-1,0,-2,12.85
2571,-3,-8,-4,0,-3,-2,-2,2,12.855
2572,0,0,-1,-2,-2,-3,1,1,12.86
2573,-2,1,0,0,2,2,-1,-1,12.865
2574,-1,3,1,-3,-2,-1,-4,-3,12.870000000000001
2575,0,1,-2,1,1,-2,-2,5,12.875
2576,0,0,-2,-1,-4,0,-5,-5,12.88
2577,-4,-9,3,-2,-2,0,0,-5,12.885
2578,-1,0,0,-1,0,-2,1,-3,12.89
2579,1,1,-1,-2,-2,1,-1,3,12.895
2580,-2,-3,-3,-4,-1,-1,3,2,12.9
2581,1,3,-2,0,2,0,-3,0,12.905000000000001
2582,1,4,0,0,-5,-3,-1,-1,12.91
2583,-2,-3,0,1,3,-2,-3,-1,12.915000000000001
2584,0,-7,-5,0,-4,-4,3,-1,12.92
2585,0,0,2,0,0,-3,-2,-2,12.925
2586,0,-3,1,0,-3,0,1,0,12.93
2587,0,2,0,-2,-1,1,-1,-1,12.935
2588,0,2,2,0,3,3,-2,1,12.94
2589,0,1,-2,0,-5,-3,0,-1,12.945
2590,2,4,-2,-2,1,-2,-1,0,12.950000000000001
2591,-2,-1,-1,-2,-1,-1,-1,-1,12.955
2592,-4,-7,4,2,0,4,1,-3,12.96
2593,-1,-3,-4,0,-2,-6,-7,-2,12.965
2594,0,-1,-3,-2,-1,0,6,8,12.97
2595,0,-2,-1,-1,-1,-2,-2,-8,12.975
2596,-1,1,-2,-1,0,0,1,0,12.98
2597,-2,2,0,-1,0,-1,-1,-1,12.985
2598,-2,-1,-1,1,-2,-1,-6,-1,12.99
2599,0,0,-2,-1,4,1,2,3,12.995000000000001
2600,-1,1,0,-2,-3,0,3,0,13.0
2601,-2,-5,-1,0,0,-1,-3,0,13.005
2602,-1,2,-2,0,-1,1,1,-3,13.01
2603,-2,-3,-3,-2,-2,-2,-1,1,13.015
2604,0,-1,-2,-2,-1,-2,-5,-1,13.02
2605,2,0,-1,0,2,4,3,3,13.025
2606,0,-3,-2,0,-1,0,-4,-1,13.030000000000001
2607,2,7,1,0,-5,-3,-2,-3,13.035
2608,-1,-1,0,0,-2,-3,0,1,13.040000000000001
2609,0,3,-1,1,-1,0,2,-1,13.045
2610,-2,-1,-1,0,2,0,-1,-1,13.05
2611,-1,-5,-5,1,1,1,-2,0,13.055
2612,0,1,-2,-2,-1,-1,-3,-2,13.06
2613,-2,-5,-1,-1,-1,0,-1,-2,13.065
2614,-2,-8,-3,-1,1,-2,-1,-4,13.07
2615,1,1,2,-2,-1,-1,-1,1,13.075000000000001
2616,-2,-1,-4,-2,-2,-1,0,-2,13.08
2617,0,1,1,2,-3,0,-1,-1,13.085
2618,1,2,-2,0,-2,0,0,6,13.09
2619,-2,-3,0,-2,0,0,-1,-2,13.095
2620,0,1,-1,1,-2,-1,-4,-4,13.1
2621,1,3,3,-1,2,-1,-3,-3,13.105
2622,-1,-1,0,1,-1,-1,-2,-4,13.11
2623,3,4,1,-1,-7,0,2,5,13.115
2624,-2,-4,-1,-2,-2,0,0,2,13.120000000000001
2625,-1,1,-2,1,1,0,2,-2,13.125
2626,-2,-2,-2,-3,0,-2,-5,1,13.13
2627,-3,-5,-1,2,1,-2,1,-1,13.135
2628,0,6,1,1,0,-4,-5,-1,13.14
2629,-1,-2,3,0,0,2,2,1,13.145
2630,0,-3,-2,2,0,1,7,-3,13.15
2631,0,-3,0,-2,0,-1,-1,-1,13.155000000000001
2632,2,2,1,-1,1,0,-2,-1,13.16
2633,-2,0,-1,-2,-1,-1,-1,1,13.165000000000001
2634,-1,-2,0,1,1,0,-3,0,13.17
2635,1,9,-1,-2,-4,-4,-2,-3,13.175
2636,-1,-3,2,1,1,-1,2,2,13.18
2637,-2,-5,-7,-3,2,-1,0,0,13.185
2638,1,2,3,1,-3,1,4,-1,13.19
2639,-3,-5,-3,0,2,-1,0,8,13.195
2640,-3,-7,-1,-3,-5,-2,-2,-7,13.200000000000001
2641,-3,0,-1,-3,-6,-1,-5,-6,13.205
2642,0,-1,-1,1,2,0,-3,-3,13.21
2643,-2,2,0,-2,0,1,1,-3,13.215
2644,2,5,2,2,2,0,-3,2,13.22
2645,-1,-7,-4,-1,-5,-1,1,0,13.225
2646,-2,-4,-2,-3,0,0,1,-4,13.23
2647,-1,-2,-4,-1,1,0,-1,0,13.235
2648,-2,0,-3,-2,1,-1,3,1,13.24
2649,1,5,1,-1,-2,-2,-2,-2,13.245000000000001
2650,2,3,2,-1,-1,-2,-4,0,13.25
2651,0,0,0,1,0,2,0,-2,13.255
2652,1,-2,-2,0,2,2,1,0,13.26
2653,2,1,-1,-1,-5,1,7,8,13.265
2654,-4,-5,-2,-1,3,-2,-4,-6,13.27
2655,-4,-8,0,0,-3,-2,-1,-7,13.275
2656,1,-1,0,1,1,0,-2,-1,13.280000000000001
2657,-1,0,2,0,-1,-1,0,1,13.285
2658,-1,0,-4,-1,-6,-3,0,4,13.290000000000001
2659,1,4,0,2,-3,-1,-2,-1,13.295
2660,-3,-7,1,1,-2,-1,-2,0,13.3
2661,-4,-4,-4,-1,1,-1,-3,1,13.305
2662,0,0,-1,-1,1,0,-4,-1,13.31
2663,1,2,-2,-2,1,-4,1,-2,13.315
2664,-2,-4,3,-2,-1,-2,-2,-1,13.32
2665,2,0,0,-2,2,1,1,-1,13.325000000000001
2666,0,0,-1,-3,0,-1,-7,-3,13.33
2667,-3,-2,-4,-2,-1,0,-4,-4,13.335
2668,1,5,9,4,-1,-1,6,2,13.34
2669,0,-2,-11,0,1,-3,0,-1,13.345
2670,-2,-3,-10,-2,-2,-1,0,-3,13.35
2671,0,-2,2,-1,0,2,-3,2,13.355
2672,1,0,-3,-4,2,3,1,-1,13.36
2673,-5,-5,4,1,-2,-3,-3,-3,13.365
2674,2,3,3,0,-1,-2,4,8,13.370000000000001
2675,-2,-3,-2,0,0,-1,-6,-8,13.375
2676,0,-2,-2,1,2,0,-3,-4,13.38
2677,-1,4,1,1,0,2,-3,-2,13.385
2678,0,-2,-3,-2,-4,-2,1,0,13.39
2679,0,-2,0,0,-2,-2,2,4,13.395
2680,-1,-2,-4,-2,-2,-4,-2,-1,13.4
2681,1,-2,-3,-3,-2,0,-2,-2,13.405000000000001
2682,-1,2,3,3,-2,1,-4,-1,13.41
2683,-1,-2,1,0,-1,2,-1,1,13.415000000000001
2684,-1,0,-4,-1,-3,-3,0,0,13.42
2685,1,0,3,0,2,0,-2,1,13.425
2686,-2,-3,2,-3,-5,0,0,-5,13.43
2687,-1,0,-2,1,5,-1,-2,-1,13.435
2688,0,3,-5,-1,-6,-1,-2,-1,13.44
2689,-1,0,2,1,-1,-1,-2,0,13.445
2690,-3,-2,1,-1,-1,-2,-2,-2,13.450000000000001
2691,0,-5,-4,-1,1,2,0,1,13.455
2692,-2,-7,-6,-4,-1,-1,1,0,13.46
2693,3,3,3,2,1,-2,6,6,13.465
2694,-2,3,0,-1,1,0,-5,-9,13.47
2695,-2,3,-1,-3,-3,0,-2,-5,13.475
2696,-2,-5,0,-1,0,-2,1,-3,13.48
2697,0,0,0,-2,-3,-1,-3,0,13.485
2698,0,3,1,3,1,1,3,5,13.49
2699,-2,-3,-1,-1,-1,-3,1,1,13.495000000000001
2700,1,2,0,2,1,1,1,2,13.5
2701,-1,1,-1,-2,-1,-3,-3,-2,13.505
2702,0,-1,1,2,0,-1,2,-1,13.51
2703,-3,-5,-6,-1,6,0,2,0,13.515
2704,-1,0,-2,-1,-3,-2,3,2,13.52
2705,-1,1,1,-1,-2,-3,-3,-3,13.525
2706,-3,-9,-4,-5,-3,-2,-4,-1,13.530000000000001
2707,0,4,5,0,-5,0,0,1,13.535
2708,-2,0,1,-1,1,1,-2,0,13.540000000000001
2709,-2,-2,-1,0,0,2,-2,-1,13.545
2710,-1,0,-1,-1,-1,1,0,0,13.55
2711,1,1,-1,0,-1,1,5,0,13.555
2712,-3,-4,-3,-2,1,-3,-1,-1,13.56
2713,-1,-1,-1,-1,-2,0,-4,-5,13.565
2714,0,2,0,1,1,0,-2,-1,13.57
2715,1,1,0,-1,-3,-2,0,1,13.575000000000001
2716,1,-3,1,-1,0,2,-1,1,13.58
2717,-2,-2,-1,-5,-4,1,-1,1,13.585
2718,0,-2,1,1,1,0,0,-4,13.59
2719,-2,-2,-1,-1,-1,-5,-7,-3,13.595
2720,-2,1,0,-3,-2,-2,-2,-1,13.6
2721,-2,-5,-6,0,-5,-4,4,3,13.605
2722,-3,-2,-2,-3,-3,1,5,3,13.61
2723,0,0,0,1,-2,-1,-1,-3,13.615
2724,-1,5,0,-1,2,0,-1,0,13.620000000000001
2725,0,1,0,2,1,0,-2,0,13.625
2726,0,2,1,0,-3,1,-5,0,13.63
2727,-3,-7,-6,0,0,1,1,-1,13.635
2728,0,2,-2,0,-2,-1,1,-1,13.64
2729,1,-2,0,-1,1,0,0,-3,13.645
2730,-3,-3,-3,-2,0,-3,-2,-1,13.65
2731,1,4,1,-2,0,-2,-2,-1,13.655000000000001
2732,0,1,-1,1,-2,1,0,0,13.66
2733,-1,0,0,-3,3,0,0,-2,13.665000000000001
2734,-3,-9,-1,0,4,-3,-3,0,13.67
2735,-2,0,-1,-2,-8,-4,0,-6,13.675
2736,1,4,3,1,-3,-2,0,0,13.68
2737,-1,-2,0,2,-2,2,1,-3,13.685
2738,1,6,-1,-1,1,0,-2,3,13.69
2739,-1,2,1,1,-1,-3,0,3,13.695
2740,-1,-3,-3,0,-2,-2,-2,-3,13.700000000000001
2741,-2,-1,-4,-4,-1,-1,-3,0,13.705
2742,0,-1,-1,-1,-2,1,4,-2,13.71
2743,-1,-2,0,0,0,0,-2,1,13.715
2744,-1,3,1,-2,0,-1,0,-1,13.72
2745,-1,-1,-1,-1,3,-2,0,-1,13.725
2746,-1,-5,-2,0,-1,-4,-5,-2,13.73
2747,0,0,0,-2,1,0,1,-1,13.735
2748,-1,-6,0,-2,0,-2,-5,1,13.74
2749,1,-1,-2,0,-3,0,0,-1,13.745000000000001
2750,-1,0,-1,-1,-1,-2,0,-1,13.75
2751,1,2,-1,0,5,4,0,0,13.755
2752,-1,-4,-1,-1,-7,0,-1,-1,13.76
2753,-3,-2,0,-2,-3,-3,0,-2,13.765
2754,-2,-2,-2,1,-1,-2,-4,-2,13.77
2755,-1,-3,-3,-1,0,2,1,1,13.775
2756,0,5,0,-1,3,1,3,7,13.780000000000001
2757,-3,-9,-2,-2,-1,-3,0,-9,13.785
2758,1,2,1,0,-1,-2,-7,-4,13.790000000000001
2759,0,-1,-1,-1,0,-2,0,-3,13.795
2760,-2,-4,-2,-2,-3,-2,-4,-2,13.8
2761,1,0,-1,1,1,1,0,3,13.805
2762,2,10,3,1,-2,0,4,1,13.81
2763,2,2,-1,-2,-3,-4,-4,-1,13.815
2764,-1,-3,-2,-2,0,1,-1,-2,13.82
2765,1,0,1,2,-2,-1,3,2,13.825000000000001
2766,-2,1,-1,-1,3,-1,-2,-2,13.83
2767,-2,-4,-2,-2,-3,-2,0,1,13.835
2768,1,1,-2,-1,-2,-2,-1,-2,13.84
2769,-1,2,1,0,5,3,2,-1,13.845
2770,-1,-2,-3,-2,-5,-1,6,13,13.85
2771,0,1,2,3,-2,0,-2,-7,13.855
2772,-4,-5,-1,1,2,-2,-6,-9,13.86
2773,-3,-4,1,-3,-1,-2,-5,-1,13.865
2774,1,-1,-1,1,1,2,3,0,13.870000000000001
2775,-3,-10,-2,-3,1,0,3,2,13.875
2776,0,-6,-2,0,0,-1,-2,-1,13.88
2777,2,5,0,1,-1,-4,-2,-1,13.885
2778,-2,-3,0,0,0,0,2,-2,13.89
2779,0,-1,-3,-1,-3,-2,-2,-1,13.895
2780,0,2,0,-1,-2,-3,1,-1,13.9
2781,0,1,-1,-1,-2,1,-1,1,13.905000000000001
2782,1,0,-2,-1,5,-2,-3,-5,13.91
2783,1,0,-2,0,1,-1,0,-1,13.915000000000001
2784,-2,0,-3,-3,-1,0,1,0,13.92
2785,0,-1,-1,-2,0,-1,-3,-2,13.925
2786,-1,0,2,-2,-6,-4,-3,-3,13.93
2787,0,3,-1,-1,-4,-2,1,2,13.935
2788,0,-2,-1,0,-1,1,-1,3,13.94
2789,0,7,-2,-3,-2,-2,-1,-7,13.945
2790,0,-1,-2,1,0,-1,-3,-2,13.950000000000001
2791,-1,-1,0,0,1,1,-3,-2,13.955
2792,0,0,0,-1,-2,-2,4,2,13.96
2793,0,0,-2,-2,-1,0,0,1,13.965
2794,-1,-3,-1,-2,-1,1,0,-3,13.97
2795,-1,-1,-2,2,-2,-2,-1,0,13.975
2796,1,-2,1,-1,-3,0,-1,2,13.98
2797,1,-1,0,1,3,1,2,1,13.985
2798,-2,-3,-4,-1,1,-3,-4,-4,13.99
2799,1,5,2,3,0,0,-2,0,13.995000000000001
2800,0,1,-1,0,1,2,0,-3,14.0
2801,-1,-4,-1,0,-4,-2,0,0,14.005
2802,-1,-4,0,-1,-1,0,0,-1,14.01
2803,-2,1,-3,-3,1,-1,2,0,14.015
2804,-1,0,-4,-1,2,-1,0,-1,14.02
2805,-1,0,0,-1,-3,-1,-1,0,14.025
2806,0,-2,-1,1,-2,-1,2,6,14.030000000000001
2807,-1,2,0,-3,-2,-1,-4,-10,14.035
2808,0,-2,2,4,2,-2,-4,-3,14.040000000000001
2809,-3,-3,-1,-1,1,0,-3,0,14.045
2810,1,2,1,0,-3,-2,-4,1,14.05
2811,-3,-5,-2,-1,0,-2,2,2,14.055
2812,1,3,-3,-2,-3,-3,-1,-2,14.06
2813,1,-2,-1,2,-3,1,0,2,14.065
2814,2,7,0,1,2,1,-1,-3,14.07
2815,-2,-3,1,-1,-1,1,-2,1,14.075000000000001
2816,-3,-1,-1,-3,-2,2,1,-2,14.08
2817,0,4,1,-2,-1,-3,-2,-2,14.085
2818,-2,-1,-1,-3,0,0,0,-2,14.09
2819,0,-4,1,2,-1,0,-2,-1,14.095
2820,-4,-8,-4,-3,-2,0,-1,-3,14.1
2821,0,-1,-2,-3,-1,1,5,2,14.105
2822,-1,-2,0,-2,0,-2,0,0,14.11
2823,-1,0,0,-2,1,0,-6,-1,14.115
2824,-1,0,-2,0,-2,-5,3,-1,14.120000000000001
2825,-2,-4,0,-2,0,-1,-3,-2,14.125
2826,0,1,-3,-2,-1,0,-1,-2,14.13
2827,-2,-5,1,0,-2,2,1,2,14.135
2828,1,-1,1,1,1,0,-4,-2,14.14
2829,-1,0,-2,-2,1,-3,3,-3,14.145
2830,-2,-5,-3,0,-4,-2,0,-1,14.15
2831,-1,-3,-1,0,-3,-1,0,1,14.155000000000001
2832,0,0,-2,-2,1,1,-1,1,14.16
2833,0,-1,-1,2,0,-2,-2,-2,14.165000000000001
2834,-1,-3,1,0,-3,-2,0,-1,14.17
2835,3,5,0,1,-1,-2,-2,0,14.175
2836,-1,-4,2,-3,-3,-2,4,6,14.18
2837,0,4,-1,-1,-1,1,-4,-9,14.185
2838,-1,-2,-1,-2,1,1,0,2,14.19
2839,1,4,0,-1,2,-3,-1,-9,14.195
2840,-1,0,-3,-2,-5,-4,1,1,14.200000000000001
2841,0,-1,-2,-1,-1,0,1,1,14.205
2842,0,-1,0,-2,-3,1,1,0,14.21
2843,-1,0,-2,-3,-3,1,0,4,14.215
2844,1,2,-1,-2,-2,-2,-4,-2,14.22
2845,1,1,0,2,0,0,-3,2,14.225
2846,-2,1,-1,0,-1,1,1,-2,14.23
2847,-1,-1,2,-1,0,0,1,1,14.235
2848,0,-2,-2,-2,-1,0,-4,-3,14.24
2849,-3,-3,-1,-1,-2,0,-1,2,14.245000000000001
2850,-3,-7,-2,-1,-2,-1,1,-1,14.25
2851,0,0,1,0,0,-1,-2,0,14.255
2852,-1,5,-1,1,1,-1,1,-1,14.26
2853,0,-2,2,1,2,0,-2,-1,14.265
2854,1,1,-3,-1,1,-2,-3,-1,14.27
2855,-1,-7,-5,0,-1,3,1,1,14.275
2856,2,0,1,0,2,2,4,-2,14.280000000000001
2857,0,-3,-1,-2,-3,-3,-4,-1,14.285
2858,-1,3,2,0,-5,0,-2,0,14.290000000000001
2859,-1,0,-1,-2,-2,-1,0,0,14.295
2860,-3,-6,-2,-1,-1,1,-2,0,14.3
2861,0,1,-1,1,0,1,2,-1,14.305
2862,-1,0,1,1,1,-2,-5,-1,14.31
2863,-3,-5,-2,-3,-1,-4,1,-1,14.315
2864,-1,-4,-2,-1,-1,-2,-3,-2,14.32
2865,-2,-5,-4,-3,-4,0,3,0,14.325000000000001
2866,-1,-3,-1,-1,5,0,4,4,14.33
2867,1,0,1,2,-1,-1,-5,-5,14.335
2868,-2,4,2,3,1,0,-6,-7,14.34
2869,-2,-4,-3,-1,-1,-1,-7,-3,14.345
2870,-1,-1,-4,-3,-2,-1,6,0,14.35
2871,-2,1,-1,-2,-3,-2,1,2,14.355
2872,-1,-7,-3,-2,-3,-3,3,2,14.36
2873,-1,-2,0,-1,0,-2,-7,-3,14.365
2874,1,2,2,3,1,1,1,-4,14.370000000000001
2875,-1,1,-2,-4,-2,-3,0,0,14.375
2876,2,5,-1,1,-3,1,0,-1,14.38
2877,-2,-1,-4,-3,-2,0,0,1,14.385
2878,-1,1,-1,-3,0,-2,-2,-1,14.39
2879,-2,-4,-2,-4,-2,-1,-1,-1,14.395
2880,2,8,1,0,-2,-1,-1,-1,14.4
2881,1,3,3,1,4,1,10,12,14.405000000000001
2882,-3,-3,-1,0,0,-3,-9,-12,14.41
2883,-1,-3,-2,-1,0,-1,-2,-5,14.415000000000001
2884,0,0,1,0,-1,-1,-4,0,14.42
2885,-1,-2,-1,-1,-1,1,3,1,14.425
2886,-2,-2,0,0,-3,1,3,2,14.43
2887,0,-2,-3,1,-1,-1,0,1,14.435
2888,-3,-3,-2,-1,-1,-3,-2,-4,14.44
2889,3,9,1,0,-1,-1,-4,-1,14.445
2890,-1,2,-1,-2,0,2,1,0,14.450000000000001
2891,-1,-3,-3,0,-2,0,0,-1,14.455
2892,-2,-5,0,1,0,1,2,4,14.46
2893,1,4,-3,0,-5,-5,-5,-7,14.465
2894,0,1,-1,-1,0,2,-2,0,14.47
2895,-2,0,0,-1,-3,-3,-1,0,14.475
2896,-1,1,-2,-2,-3,-1,3,-1,14.48
2897,-3,-2,-2,0,2,-1,4,-1,14.485
2898,0,-3,-1,-1,0,-2,-3,9,14.49
2899,2,1,-3,-2,0,-2,-1,-8,14.495000000000001
2900,-2,-1,2,0,-1,1,-1,-4,14.5
2901,-1,-1,0,0,-2,1,-2,-3,14.505
2902,-2,-3,-4,-1,-1,1,1,-2,14.51
2903,0,5,2,1,-1,0,2,6,14.515
2904,1,3,0,-2,0,-1,-2,1,14.52
2905,-1,-4,-1,-2,1,3,2,-2,14.525
2906,0,-3,-2,0,-3,-2,0,0,14.530000000000001
2907,1,5,0,0,1,0,-1,-1,14.535
2908,-4,-12,-4,1,-2,-2,-7,-6,14.540000000000001
2909,-2,-4,-2,0,2,-1,-1,-1,14.545
2910,0,1,-1,0,1,-2,-2,0,14.55
2911,0,2,1,-2,-2,-1,-2,1,14.555
2912,0,1,1,-1,1,0,5,1,14.56
2913,-1,-2,-2,-2,-4,-4,-4,-1,14.565
2914,-3,-8,-1,0,0,-2,0,-3,14.57
2915,-2,0,1,1,-1,0,0,-1,14.575000000000001
2916,-1,-1,-1,0,1,0,-2,0,14.58
2917,0,3,0,-2,-4,-1,2,0,14.585
2918,1,2,1,-2,-1,-4,0,6,14.59
2919,-1,-6,-2,1,3,0,-3,-10,14.595
2920,0,-1,-2,-1,0,4,0,-3,14.6
2921,0,-1,0,2,-1,-1,-2,-3,14.605
2922,-2,-1,-2,0,-4,-2,1,-3,14.61
2923,1,-1,-1,-2,0,-2,0,5,14.615
2924,0,0,0,-2,-6,-3,-2,2,14.620000000000001
2925,1,4,1,2,4,0,-1,-2,14.625
2926,-2,-1,1,1,-1,-2,-7,-4,14.63
2927,-3,-2,-1,0,0,-1,1,1,14.635
2928,3,3,-4,-2,2,2,-1,-2,14.64
2929,-3,-5,-2,-2,-2,-1,1,1,14.645
2930,0,-1,-1,-3,-3,-1,0,-2,14.65
2931,-2,0,-1,-1,-1,0,-1,-1,14.655000000000001
2932,0,3,2,0,0,-1,-1,1,14.66
2933,-3,-7,-1,-2,-1,3,3,1,14.665000000000001
2934,0,-1,-4,-1,0,-1,-8,-11,14.67
2935,0,-5,0,3,-2,-1,-1,-2,14.675
2936,-1,-1,1,0,-3,-3,0,0,14.68
2937,-1,-1,-1,-1,1,0,-1,2,14.685
2938,-1,2,-1,0,0,-1,3,1,14.69
2939,2,6,3,1,3,0,-2,0,14.695
2940,-4,-6,-3,-2,0,-2,-4,-1,14.700000000000001
2941,-1,1,1,-1,-1,0,3,-2,14.705
2942,3,3,-3,-1,-1,0,3,0,14.71
2943,0,0,-2,-3,0,0,2,-1,14.715
2944,-1,-1,-3,-3,-2,-3,1,0,14.72
2945,-3,-4,-2,-3,-7,-3,-4,-2,14.725
2946,-2,1,0,0,4,-1,-2,-1,14.73
2947,-2,-3,-3,-2,-3,0,-1,1,14.735
2948,-3,-6,-3,0,1,-1,4,7,14.74
2949,0,1,-2,-1,-3,-3,-6,-9,14.745000000000001
2950,-1,-1,0,-3,-2,1,-1,-5,14.75
2951,1,0,0,-2,1,0,-1,0,14.755
2952,0,1,0,0,-3,-1,-1,-2,14.76
2953,0,0,2,2,2,-1,0,2,14.765
2954,-4,-10,0,1,-1,-1,2,0,14.77
2955,0,2,-1,-3,0,0,-1,1,14.775
2956,-2,-5,-1,1,-1,0,1,-4,14.780000000000001
2957,-1,-3,-4,-2,0,-1,-2,0,14.785
2958,-1,3,0,-1,0,-1,-2,-4,14.790000000000001
2959,-4,-7,-3,-5,-4,-3,-3,-1,14.795
2960,3,7,2,1,0,0,-3,0,14.8
2961,1,3,-1,-1,2,-5,-6,-1,14.805
2962,-3,-4,-1,0,-2,5,6,2,14.81
2963,-1,-1,-2,-1,-2,-2,0,-3,14.815
2964,0,3,1,0,1,-1,-1,-1,14.82
2965,-3,-3,0,0,-1,2,2,2,14.825000000000001
2966,2,5,2,-1,-3,-5,-5,-2,14.83
2967,-5,-8,-3,-1,-1,1,-1,-4,14.835
2968,0,-4,-3,-2,-1,-2,-6,-2,14.84
2969,-3,-8,-3,-2,2,1,5,-1,14.845
2970,-1,-2,-1,-1,-4,-2,3,2,14.85
2971,1,3,1,1,-1,0,0,2,14.855
2972,-2,-2,-3,0,0,1,0,-4,14.86
2973,-1,0,0,-2,-3,0,-6,0,14.865
2974,0,4,-1,-2,1,-1,-1,0,14.870000000000001
2975,0,-1,-1,1,0,-1,1,0,14.875
2976,-2,1,-3,-3,0,-1,-1,-1,14.88
2977,1,-1,-2,-1,-2,-1,1,1,14.885
2978,1,1,0,-1,-1,-2,-2,-2,14.89
2979,-2,0,-1,0,2,2,3,0,14.895
2980,-2,-6,-2,-1,-3,-1,2,0,14.9
2981,-2,0,-1,-1,-3,-2,-2,-4,14.905000000000001
2982,0,3,-3,-2,-2,1,-2,0,14.91
2983,1,2,1,-1,-1,-4,-1,0,14.915000000000001
2984,0,0,0,-1,1,1,0,-2,14.92
2985,-1,-2,-2,0,-3,-4,0,-2,14.925
2986,2,-1,0,-1,2,5,1,9,14.93
2987,1,-1,-1,0,-3,-2,0,-7,14.935
2988,-2,0,0,-2,-5,-4,-2,-5,14.94
2989,0,2,1,0,0,0,-2,-2,14.945
2990,-3,-5,0,1,-1,-2,-1,-3,14.950000000000001
2991,-1,-4,-3,-2,-1,0,0,3,14.955
2992,1,2,0,0,1,1,-1,3,14.96
2993,0,3,1,1,0,1,1,1,14.965
2994,-2,-2,-2,-3,-2,-4,-8,-3,14.97
2995,1,8,0,2,-2,-4,2,1,14.975
2996,-3,-6,-4,-1,2,-2,-3,-5,14.98
2997,0,3,2,2,-2,1,-1,1,14.985
2998,-2,-5,0,-1,-1,-1,2,-1,14.99
2999,0,0,0,-2,-3,1,-5,-1,14.995000000000001
3000,-1,2,-2,1,0,-3,-3,2,15.0
3001,0,-1,-1,1,1,0,8,8,15.005
3002,-1,-1,1,0,-2,-1,-4,-11,15.01
3003,-2,-9,-1,-1,-1,0,0,-2,15.015
3004,0,1,0,0,-3,0,0,-2,15.02
3005,-1,-2,-1,0,2,2,-2,2,15.025
3006,0,0,-3,-1,-4,-3,0,1,15.030000000000001
3007,-1,-2,0,1,-2,0,1,-1,15.035
3008,0,0,-1,1,0,1,0,-1,15.040000000000001
3009,-3,-9,-3,-1,-2,-3,-4,-5,15.045
3010,2,-2,-1,0,0,2,1,-1,15.05
3011,-3,-4,-4,-1,1,-1,0,-1,15.055
3012,-1,-1,2,-2,-1,0,2,0,15.06
3013,-1,1,0,-1,2,-2,-7,-4,15.065
3014,-3,-5,-2,-1,-3,-2,-1,-1,15.07
3015,-2,0,0,0,2,-2,-2,2,15.075000000000001
3016,-2,-5,0,-1,-2,0,-3,0,15.08
3017,-2,-6,-4,-1,1,-1,2,-2,15.085
3018,0,1,-1,-3,0,0,0,1,15.09
3019,2,4,1,-1,-3,0,2,-1,15.095
3020,-1,-4,-4,-3,-1,-2,4,10,15.1
3021,0,4,1,2,2,1,-4,-9,15.105
3022,0,-2,-3,1,-2,-1,-4,-6,15.11
3023,-4,-4,-2,-2,-4,-3,0,0,15.115
3024,-1,2,2,1,2,1,-1,-2,15.120000000000001
3025,0,-1,-2,-2,-4,0,2,4,15.125
3026,0,2,0,0,0,0,-1,2,15.13
3027,-1,-5,0,0,-1,0,-1,-1,15.135
3028,-1,-3,-1,0,2,0,-2,-2,15.14
3029,0,1,0,0,-1,-3,-3,0,15.145
3030,-1,2,0,0,-1,3,4,-3,15.15
3031,-1,0,-2,0,1,-2,-2,0,15.155000000000001
3032,0,1,1,1,-2,-1,-3,-1,15.16
3033,0,1,-2,-5,-1,-1,3,-1,15.165000000000001
3034,-3,-7,-3,-3,-1,0,0,0,15.17
3035,0,-3,-1,-1,-2,-1,0,-2,15.175
3036,0,1,-2,-2,0,0,-1,-3,15.18
3037,1,4,0,-2,-3,0,-2,-2,15.185
3038,-1,3,1,0,0,-2,-1,4,15.19
3039,0,1,0,0,2,1,-4,-9,15.195
3040,0,2,0,0,-2,0,0,-1,15.200000000000001
3041,2,2,0,-2,-1,-1,-3,0,15.205
3042,-3,-8,-2,0,-3,-4,3,1,15.21
3043,0,0,0,1,0,-1,1,3,15.215
3044,0,3,1,1,1,-1,-1,-2,15.22
3045,-1,-2,-3,1,0,-4,1,1,15.225
3046,1,-1,-1,0,1,1,1,-1,15.23
3047,-1,1,-1,-2,0,-2,-3,0,15.235
3048,1,-1,-2,-2,-3,1,-1,-2,15.24
3049,0,0,-2,0,-2,0,1,0,15.245000000000001
3050,-2,-6,-1,0,0,-2,-3,-2,15.25
3051,-1,0,-2,-1,0,1,-1,-1,15.255
3052,-2,-1,-2,-2,0,-3,-1,-1,15.26
3053,-2,-3,-1,-1,-1,1,1,-2,15.265
3054,2,8,2,1,-1,0,-1,-1,15.27
3055,-2,-2,-3,-3,-1,-2,-2,1,15.275
3056,-6,-12,-4,-2,-2,-3,-1,-2,15.280000000000001
3057,-3,-4,1,-1,0,0,1,2,15.285
3058,-3,0,2,0,2,-5,-4,-8,15.290000000000001
3059,1,3,0,1,0,0,-1,0,15.295
3060,1,6,2,-2,-1,-4,-1,-1,15.3
3061,-1,1,-2,0,-2,0,0,1,15.305
3062,0,0,1,0,-2,1,0,5,15.31
3063,-1,3,-3,-3,-1,-1,5,-3,15.315
3064,0,-1,-1,-1,-6,-3,-1,1,15.32
3065,0,-3,-2,-1,1,-1,2,-1,15.325000000000001
3066,0,2,-3,-2,2,-2,-3,-1,15.33
3067,1,1,-2,-2,0,-1,-1,-1,15.335
3068,-1,-2,0,-1,1,3,0,0,15.34
3069,1,1,-1,-2,-4,-4,0,-3,15.345
3070,0,1,1,-1,-3,-2,-3,-3,15.35
3071,0,0,1,0,-1,0,2,2,15.355
3072,-1,0,-1,-1,2,0,-1,-1,15.36
3073,-1,-3,-2,-1,-1,-2,-6,0,15.365
3074,-1,-2,-1,1,-3,2,8,9,15.370000000000001
3075,-1,-3,0,1,-2,-2,-2,-7,15.375
3076,-2,-2,-1,-1,-1,-3,2,-7,15.38
3077,-1,-2,0,-3,-1,-1,-6,-3,15.385
3078,-2,-4,-2,-1,4,-2,-2,0,15.39
3079,-2,-2,0,-1,-1,1,-2,4,15.395
3080,2,2,-1,-2,-1,2,-2,2,15.4
3081,0,7,3,0,-1,1,3,-2,15.405000000000001
3082,-1,-5,-4,-3,-3,-2,-2,-2,15.41
3083,0,0,0,-1,-5,-2,0,1,15.415000000000001
3084,0,-2,-1,2,1,-1,-3,-2,15.42
3085,-2,-3,0,0,-3,0,1,2,15.425
3086,-1,-3,2,-1,0,0,-2,0,15.43
3087,-1,-1,0,-3,3,0,-1,-2,15.435
3088,1,3,-1,-3,-2,0,-2,-5,15.44
3089,-2,0,1,-1,1,-2,-4,-1,15.445
3090,1,-3,-2,0,0,0,4,-1,15.450000000000001
3091,-2,-5,-3,0,-2,-2,-2,1,15.455
3092,-1,-5,-2,0,-1,0,0,1,15.46
3093,-1,-2,-1,-1,-2,0,0,-2,15.465
3094,1,5,1,-3,1,1,-1,-2,15.47
3095,1,3,-1,1,0,-1,-1,0,15.475
3096,-1,-1,-1,-3,-1,0,-1,1,15.48
3097,-1,-4,-1,1,-2,-2,0,-1,15.485000000000001
3098,0,-1,-3,-2,-2,0,1,2,15.49
3099,0,3,0,-2,-3,0,-1,-2,15.495000000000001
3100,-2,1,-1,-1,2,1,-2,-6,15.5
3101,-1,0,-3,-3,0,2,-3,-3,15.505
3102,-1,-1,-1,-1,-4,-2,-2,-2,15.51
3103,0,-5,-1,2,-2,-2,1,1,15.515
3104,-1,1,-1,1,-1,1,4,3,15.52
3105,1,1,-1,-1,0,0,-2,-1,15.525
3106,0,-1,-2,-1,2,1,3,-2,15.530000000000001
3107,1,4,0,-1,-1,-3,-3,1,15.535
3108,-1,-6,-2,-1,-6,-1,0,0,15.540000000000001
3109,0,0,0,1,-1,0,-1,-2,15.545
3110,-2,-2,-2,-1,-2,1,-4,-2,15.55
3111,-2,-4,-1,-4,-2,1,4,-1,15.555
3112,1,7,1,-1,0,-3,-3,0,15.56
3113,0,-1,-2,0,0,-1,-2,0,15.565
3114,0,0,0,-1,-2,-2,-4,-2,15.57
3115,-3,0,0,2,-4,-1,-4,-3,15.575000000000001
3116,-1,-5,-2,0,-5,-2,3,2,15.58
3117,0,2,-1,-1,1,-3,-5,3,15.585
3118,0,0,0,0,-1,-2,-1,-3,15.59
3119,-4,-3,-2,-2,-1,2,-4,-7,15.595
3120,1,3,3,2,0,2,3,-1,15.6
3121,-1,-2,-5,-2,-2,-3,-2,-1,15.605
3122,-1,-1,-2,0,-3,-5,-3,0,15.610000000000001
3123,0,-1,0,1,2,1,1,2,15.615
3124,-1,-5,-2,1,-1,0,-2,-1,15.620000000000001
3125,-1,-1,1,-2,1,1,-2,-2,15.625
3126,-1,3,-2,-4,1,-2,-5,-1,15.63
3127,-1,-4,0,-1,-1,-3,-3,7,15.635
3128,-1,-6,-3,1,1,1,6,-3,15.64
3129,0,-4,-74,-26,-1,-1,-4,-4,15.645
3130,5,0,-2,1,3,3,9,15,15.65
3131,-11,-12,29,8,-7,-5,-2,-9,15.655000000000001
3132,0,-3,1,-17,2,-1,-11,-10,15.66
3133,-8,1,85,27,-6,-2,25,41,15.665000000000001
3134,-3,7,91,40,-4,-2,-15,-2,15.67
3135,4,-2,-106,-43,-1,-1,-1,-30,15.675
3136,12,12,59,3,3,4,-16,-11,15.68
3137,-1,10,78,49,-3,-7,-18,-30,15.685
3138,-17,7,50,19,1,-3,0,-2,15.69
3139,4,-11,-27,-5,2,-2,15,65,15.695
3140,-8,-10,-119,-27,0,-5,-4,-30,15.700000000000001
3141,11,-2,-59,-29,0,14,11,64,15.705
3142,-2,-8,-59,-9,-2,-9,-2,-54,15.71
3143,-1,6,25,3,3,12,35,-11,15.715
3144,1,-12,-59,-27,1,2,21,6,15.72
3145,-10,-1,35,14,0,-7,-27,-25,15.725
3146,4,7,44,13,0,0,-6,15,15.73
3147,-11,-6,16,3,3,-3,-7,8,15.735000000000001
3148,7,-4,-65,-35,-1,0,-2,15,15.74
3149,-7,-1,95,64,-2,-4,4,-3,15.745000000000001
3150,1,11,16,18,-2,-4,-13,-10,15.75
3151,-2,-11,-72,-14,3,0,-7,-13,15.755
3152,-1,-15,-66,-39,-2,4,8,19,15.76
3153,2,-17,-80,-54,-9,-1,-2,-16,15.765
3154,2,21,54,40,3,3,0,18,15.77
3155,7,25,-18,7,0,-2,-4,17,15.775
3156,-18,-16,42,17,-9,-4,-10,-41,15.780000000000001
3157,-12,1,36,1,3,3,11,-20,15.785
3158,8,-10,-128,-48,-2,0,-9,-15,15.790000000000001
3159,22,-5,-2,-16,-8,-5,-6,7,15.795
3160,-5,13,74,25,1,-2,9,23,15.8
3161,5,-6,-61,-16,-1,-2,-16,-30,15.805
3162,-5,-5,13,2,-1,4,22,21,15.81
3163,-4,-14,-16,0,3,2,-9,-18,15.815
3164,3,0,-69,-29,-2,0,9,39,15.82
3165,7,-11,89,39,-4,-5,6,-19,15.825000000000001
3166,15,-6,-71,-27,2,2,0,7,15.83
3167,-3,-15,19,-14,-7,-5,-18,-9,15.835
3168,3,22,127,79,8,3,10,11,15.84
3169,2,13,-62,-33,0,2,2,18,15.845
3170,-15,-38,-117,-53,-5,-2,-14,-21,15.85
3171,-8,26,110,42,-2,-4,-4,-21,15.855
3172,-1,10,44,35,2,-1,-8,-2,15.860000000000001
3173,1,-9,-50,-13,2,5,25,24,15.865
3174,-7,10,-37,-27,0,-1,-5,-12,15.870000000000001
3175,0,2,65,43,2,1,-7,14,15.875
3176,-24,10,76,17,-9,-7,-5,-36,15.88
3177,-6,-13,-106,-30,0,2,0,-5,15.885
3178,28,11,51,-13,-1,1,18,21,15.89
3179,-12,-12,-63,-8,-2,-5,-23,3,15.895
3180,14,4,6,-4,3,5,19,5,15.9
3181,-6,16,63,30,-4,-6,-10,47,15.905000000000001
3182,-6,-16,-1,4,-2,0,-2,-64,15.91
3183,12,11,11,-12,-7,-2,-10,2,15.915000000000001
3184,1,-17,-82,-20,-2,-5,10,17,15.92
3185,7,8,4,-14,1,1,-23,-20,15.925
3186,1,-7,-1,7,-2,4,24,24,15.93
3187,-16,5,15,0,0,-5,-9,-29,15.935
3188,-12,-18,-50,-12,-1,0,-10,-24,15.94
3189,-3,7,52,23,-1,0,11,24,15.945
3190,12,10,34,17,-3,-4,-2,30,15.950000000000001
3191,-3,-17,-108,-36,-4,-2,12,-6,15.955
3192,-1,12,79,16,-4,-5,-33,-12,15.96
3193,14,-5,-63,-23,0,-1,5,-19,15.965
3194,-14,-14,-40,-4,3,2,10,11,15.97
3195,0,1,65,32,2,4,23,8,15.975
3196,1,4,26,9,-7,-8,-20,3,15.98
3197,-11,-4,-9,-7,1,0,8,-11,15.985000000000001
3198,-8,-4,-53,-28,0,3,-6,-5,15.99
3199,7,-3,-10,-13,1,0,4,15,15.995000000000001
3200,8,-6,19,22,-3,-2,2,14,16.0
3201,-8,-9,-19,-10,0,1,-13,-62,16.005
3202,-7,9,7,6,-2,-5,-24,-11,16.01
3203,7,-5,-22,-17,-2,2,27,39,16.015
3204,-6,-7,-19,-6,-3,-1,3,-16,16.02
3205,17,-3,-37,-25,3,2,2,-9,16.025
3206,-18,13,43,31,1,2,-13,19,16.03
3207,8,4,21,-7,-4,-1,7,-10,16.035
3208,-4,-3,46,36,5,1,-3,2,16.04
3209,-5,-10,-35,-15,-2,-2,-22,19,16.045
3210,0,5,-5,-1,-2,-3,18,4,16.05
3211,-2,14,-6,-2,1,1,-3,-7,16.055
3212,6,-8,-102,-65,-1,5,12,10,16.06
3213,-2,-9,61,32,-4,-2,-5,5,16.065
3214,-7,29,110,67,3,-3,-3,5,16.07
3215,-24,8,-22,6,0,0,-6,-33,16.075
3216,21,-8,-103,-31,-3,-3,-9,-1,16.080000000000002
3217,17,6,6,-17,0,0,4,-7,16.085
3218,5,-11,8,-17,-3,1,7,-9,16.09
3219,2,3,-48,4,4,6,10,7,16.095
3220,-7,11,89,31,0,-8,-28,-22,16.1
3221,-8,1,-4,0,0,0,11,24,16.105
3222,-1,-7,-2,-7,-3,-1,-2,-9,16.11
3223,-7,-19,-21,-12,-1,-1,-3,9,16.115000000000002
3224,-3,-11,-72,-32,-4,1,-2,1,16.12
3225,-5,23,108,40,-5,-7,-1,1,16.125
3226,-4,-6,7,-3,-1,-1,-2,6,16.13
3227,3,-6,22,1,-1,-1,-13,-7,16.135
3228,20,-4,-98,-17,2,4,14,3,16.14
3229,-13,-8,26,-5,0,-4,-6,-8,16.145
3230,-11,-22,-115,-25,-1,1,-5,4,16.15
3231,7,15,119,36,-6,-5,0,-24,16.155
3232,3,0,-25,-4,0,1,7,20,16.16
3233,-10,17,-10,15,7,0,1,-14,16.165
3234,7,-16,-26,-16,0,2,1,-7,16.17
3235,-1,-7,-11,-3,3,-1,-3,18,16.175
3236,-3,14,32,14,-2,-3,18,-1,16.18
3237,-5,-3,-41,-17,-1,1,-5,-9,16.185
3238,4,6,8,-11,-2,1,-2,-2,16.19
3239,-2,-8,-17,0,-4,-2,-2,-31,16.195
3240,-9,-3,11,-11,-1,-5,-20,10,16.2
3241,13,-2,-30,2,-3,1,8,6,16.205000000000002
3242,8,1,37,-15,1,1,7,3,16.21
3243,-5,11,70,46,-1,-3,-46,0,16.215
3244,-6,-11,-10,3,1,2,38,-23,16.22
3245,3,-6,-34,3,3,1,-6,13,16.225
3246,5,-6,-56,-30,-4,-1,0,-1,16.23
3247,7,11,-33,-18,-3,5,6,9,16.235
3248,-2,7,101,27,-2,-5,-22,0,16.240000000000002
3249,0,-14,-84,-38,-4,-1,-1,6,16.245
3250,4,-10,42,15,0,1,12,-4,16.25
3251,-15,1,1,-5,4,-3,1,2,16.255
3252,-3,-5,-9,11,1,0,-11,6,16.26
3253,9,1,-29,-10,1,-2,11,6,16.265
3254,-10,7,24,19,-1,-1,-20,-11,16.27
3255,-2,-19,-45,-30,-6,-2,9,2,16.275
3256,-4,12,64,36,4,1,3,18,16.28
3257,14,-1,-13,-15,-3,1,14,10,16.285
3258,-11,15,21,8,-2,-5,-22,-22,16.29
3259,-4,-9,-22,-3,0,0,22,-10,16.295
3260,-10,-6,0,-3,0,0,-16,4,16.3
3261,0,-1,-10,-3,-2,-2,6,-9,16.305
3262,0,-11,-17,-7,-3,-1,3,11,16.31
3263,12,13,41,16,2,0,-7,-8,16.315
3264,4,-6,-90,-42,-4,2,-4,12,16.32
3265,-11,1,77,36,-4,-3,-4,-6,16.325
3266,-6,-1,0,1,-3,-4,3,5,16.330000000000002
3267,4,4,12,5,2,-3,-8,-8,16.335
3268,10,-6,-18,-33,-2,3,11,0,16.34
3269,-17,0,3,-5,-1,-4,-21,-18,16.345
3270,8,6,-13,1,-5,-3,3,6,16.35
3271,-3,-18,-26,-6,-1,-3,-17,16,16.355
3272,1,6,14,19,5,5,19,-23,16.36
3273,0,4,-2,-9,-5,-2,-4,-1,16.365000000000002
3274,3,-2,-10,-15,-3,-2,7,5,16.37
3275,1,-1,0,-4,-2,2,1,2,16.375
3276,-13,-1,17,14,-1,-1,-1,-16,16.38
3277,13,0,-6,2,0,-3,-13,7,16.385
3278,-3,-3,-14,4,1,-1,9,4,16.39
3279,5,2,6,-7,0,3,2,3,16.395
3280,-5,6,11,12,-2,-2,1,-6,16.4
3281,-6,-3,15,-3,-1,1,5,0,16.405
3282,7,2,-26,0,0,-2,-10,1,16.41
3283,-2,-4,-3,-2,4,0,4,-2,16.415
3284,0,8,8,6,-3,-3,-2,1,16.42
3285,2,2,6,0,4,1,1,1,16.425
3286,-14,-11,5,4,0,-3,-9,-7,16.43
3287,-3,0,-23,-12,0,2,17,3,16.435
3288,-4,-12,-2,9,-4,-1,-4,1,16.44
3289,1,-1,-4,-1,-4,-4,-2,0,16.445
3290,0,-9,3,-19,-4,-1,-2,-5,16.45
3291,-1,0,2,7,-1,-2,-7,-3,16.455000000000002
3292,5,4,3,-4,-1,0,-6,6,16.46
3293,-7,-7,-3,-1,3,4,11,-1,16.465
3294,-2,3,17,12,0,-1,-13,-3,16.47
3295,1,4,-18,-8,-4,0,9,0,16.475
3296,3,2,4,-4,0,2,-1,3,16.48
3297,-1,7,-5,3,4,3,3,0,16.485
3298,-1,-1,15,-2,0,-1,3,-7,16.490000000000002
3299,0,-8,-33,0,-2,-2,-7,2,16.495
3300,-3,3,13,-1,0,-3,0,-6,16.5
3301,-5,3,8,9,0,-2,0,-3,16.505
3302,7,-7,7,0,1,1,2,12,16.51
3303,-2,-1,7,-3,0,-3,-2,0,16.515
3304,-2,2,-20,-6,-2,-2,0,-3,16.52
3305,-5,-4,-4,-7,-4,-4,-10,1,16.525
3306,-5,1,-6,-1,0,-3,1,-4,16.53
3307,-4,1,-5,-1,2,1,-14,2,16.535
3308,-6,-4,9,0,-3,-2,12,-5,16.54
3309,-1,4,-1,0,-3,-1,-5,-2,16.545
3310,-2,-3,-4,-4,1,0,5,-2,16.55
3311,-4,6,7,0,-2,-1,13,-1,16.555
3312,-4,1,1,-1,0,-2,-9,1,16.56
3313,-1,-7,0,0,-3,0,9,1,16.565
3314,7,5,-1,2,1,2,0,-3,16.57
3315,4,-4,7,3,1,-2,-4,-10,16.575
3316,0,0,-1,-6,-3,-4,-4,9,16.580000000000002
3317,-16,-8,-3,-2,-2,-3,-4,-2,16.585
3318,-9,-2,4,2,0,-1,-3,2,16.59
3319,-3,-1,0,-1,-1,0,3,-2,16.595
3320,-18,-1,0,2,-1,0,-5,-5,16.6
3321,-6,-4,-2,1,-1,1,-3,-4,16.605
3322,-3,1,-1,2,-4,0,0,3,16.61
3323,5,-2,-2,-3,-2,-1,-2,0,16.615000000000002
3324,14,-2,-6,-7,-1,1,1,-1,16.62
3325,10,-4,5,2,-2,-1,-1,1,16.625
3326,9,-2,-3,0,1,0,0,-3,16.63
3327,9,0,0,3,-1,0,-3,2,16.635
3328,9,-1,0,-1,-2,1,-1,2,16.64
3329,3,0,-1,0,1,0,2,-2,16.645
3330,5,1,-4,2,-2,1,0,0,16.65
3331,0,2,0,-5,-4,-3,-2,-1,16.655
3332,0,-3,-2,1,2,-2,-1,-3,16.66
3333,2,-4,-1,-2,-2,-1,-1,-2,16.665
3334,2,1,1,2,-2,-1,1,-1,16.67
3335,0,2,2,2,0,0,-4,0,16.675
3336,0,0,1,-1,3,3,3,0,16.68
3337,-1,-3,-4,-1,-1,-4,-2,-2,16.685
3338,-3,-1,2,-2,-2,-1,0,-1,16.69
3339,-3,0,-4,-2,-2,0,-1,-2,16.695
3340,1,-1,1,0,0,-1,0,0,16.7
3341,2,-2,-2,0,2,1,-7,0,16.705000000000002
3342,-3,-5,-2,4,1,-3,1,-7,16.71
3343,-1,-1,-6,-14,-5,1,5,6,16.715
3344,-1,0,6,0,-2,-1,-7,1,16.72
3345,-1,0,2,1,-1,-1,5,1,16.725
3346,2,5,4,2,1,-3,-9,-2,16.73
3347,-3,-3,-7,3,0,0,6,4,16.735
3348,-3,-3,-5,-2,-2,-3,-2,-12,16.740000000000002
3349,-3,-3,-2,-9,-3,-3,-9,-3,16.745
3350,0,-1,-2,4,4,2,-1,0,16.75
3351,0,2,8,2,2,-1,0,0,16.755
3352,1,1,-2,0,0,1,6,4,16.76
3353,-1,0,2,1,-1,0,0,0,16.765
3354,-3,1,-2,-3,-2,-2,-1,-1,16.77
3355,2,0,-1,-1,-2,1,0,-1,16.775
3356,-2,-2,-3,-4,0,-1,-7,-1,16.78
3357,3,7,3,0,-1,-4,-2,-3,16.785
3358,-5,-13,-3,-2,-3,-1,3,2,16.79
3359,-2,0,2,1,1,0,0,-1,16.795
3360,-2,-5,-3,-1,-2,-4,-8,-5,16.8
3361,-1,-1,-3,-2,-1,2,7,4,16.805
3362,1,4,0,-2,-1,-2,-3,3,16.81
3363,0,2,3,2,-1,-2,-4,-4,16.815
3364,-4,-7,-6,-4,-4,-2,-2,-2,16.82
3365,-1,-4,-1,-2,-1,2,7,2,16.825
3366,0,-1,0,0,-2,1,1,-1,16.830000000000002
3367,-3,-3,-1,0,0,-2,-10,-3,16.835
3368,0,1,0,0,0,0,-2,6,16.84
3369,-1,-1,-2,-1,1,0,2,3,16.845
3370,-1,1,-1,-2,0,0,5,2,16.85
3371,-3,-2,-1,-2,1,0,-3,-4,16.855
3372,-1,0,1,-1,-2,0,1,-2,16.86
3373,-2,0,0,3,1,0,-3,-1,16.865000000000002
3374,0,1,-2,-2,-5,-4,-2,-2,16.87
3375,-1,1,-4,-3,-3,-3,-3,-2,16.875
3376,-2,-1,-1,-1,0,0,6,1,16.88
3377,-2,-3,-1,1,1,0,0,-2,16.885
3378,0,0,-3,0,2,0,-4,0,16.89
3379,-1,0,-4,-8,-3,-1,1,-2,16.895
3380,2,4,2,0,-2,0,2,1,16.9
3381,-3,-1,-1,-1,-3,-3,-6,-4,16.905
3382,-1,-5,1,-1,0,-1,-2,-1,16.91
3383,0,-5,-2,0,-1,-2,0,-1,16.915
3384,-2,-3,-2,0,2,-3,-1,-1,16.92
3385,-1,0,1,1,-1,2,5,-1,16.925
3386,-3,2,-1,-6,-1,-2,-2,-2,16.93
3387,1,-2,-3,-2,0,1,4,1,16.935
3388,-3,-1,-1,-1,-2,-2,-4,-2,16.94
3389,0,2,5,4,1,1,-1,-1,16.945
3390,0,2,1,-2,0,5,3,1,16.95
3391,-1,-1,0,0,0,-1,-1,-1,16.955000000000002
3392,-1,1,-1,-1,-2,-5,-4,1,16.96
3393,0,0,-3,-2,-3,-3,-3,-2,16.965
3394,0,0,0,0,-1,0,3,0,16.97
3395,-4,0,0,1,2,3,1,0,16.975
3396,-2,-2,-1,1,1,4,4,-3,16.98
3397,0,-1,-2,-1,-2,-5,-5,-1,16.985
3398,-3,-4,-4,-1,-1,-1,3,-1,16.990000000000002
3399,0,2,0,1,-1,-2,1,0,16.995
3400,-1,-1,0,0,0,-1,-2,0,17.0
3401,2,0,-6,-4,0,4,0,-2,17.005
3402,1,-3,-3,-2,-3,-4,-2,-1,17.01
3403,-2,1,2,1,-1,-3,-6,-2,17.015
3404,-3,-5,-1,1,0,0,4,0,17.02
3405,-2,-3,-2,-1,0,-3,-2,-6,17.025
3406,-2,2,-2,-2,1,-2,-3,6,17.03
3407,-1,0,0,0,-1,1,4,1,17.035
3408,3,0,-3,-2,0,0,1,10,17.04
3409,1,0,-1,1,0,-1,-2,-9,17.045
3410,-3,-2,0,-1,-2,-1,-2,-8,17.05
3411,-2,-2,0,1,0,-2,-8,-3,17.055
3412,-1,0,-1,-2,-5,-1,-2,-5,17.06
3413,-1,-1,-2,-3,-1,1,1,4,17.065
3414,2,3,2,2,2,-2,-3,0,17.07
3415,-2,-2,-2,-3,0,0,0,-5,17.075
3416,1,-4,-3,0,0,0,-1,-2,17.080000000000002
3417,0,-2,-2,-2,-1,0,1,12,17.085
3418,-1,0,0,1,1,0,-4,-7,17.09
3419,0,-2,-2,-3,-1,-2,-1,-1,17.095
3420,-2,2,8,-1,-3,-1,-3,-3,17.1
3421,-3,-2,0,-1,-3,-1,3,-2,17.105
3422,-2,-6,-7,-3,-1,0,-4,3,17.11
3423,3,3,0,1,0,3,11,6,17.115000000000002
3424,-1,1,-4,-2,-1,-2,-6,-6,17.12
3425,-1,-2,10,1,-1,-2,-4,-1,17.125
3426,-1,2,-1,-1,0,0,0,1,17.13
3427,1,-2,-5,-3,-3,-4,-2,-1,17.135
3428,2,-1,-6,-4,-1,1,2,2,17.14
3429,0,5,4,2,1,0,-5,-1,17.145
3430,-1,1,0,1,-3,-1,2,-1,17.150000000000002
3431,0,-3,2,0,-5,-3,-1,2,17.155
3432,0,-3,-5,0,2,0,-5,-4,17.16
3433,-1,-3,-7,-2,1,-1,4,7,17.165
3434,2,1,3,0,1,0,3,-2,17.17
3435,-2,2,-1,-2,-1,0,-6,-2,17.175
3436,-3,-4,1,-1,-4,-4,2,0,17.18
3437,-1,-2,-3,-4,1,0,-1,-4,17.185
3438,0,-1,0,0,1,0,2,2,17.19
3439,-3,-1,0,1,-2,-3,-3,0,17.195
3440,-2,-1,-2,-2,-4,1,6,-3,17.2
3441,0,-1,-5,-1,-1,-3,-4,-2,17.205000000000002
3442,0,-1,-1,-3,-1,0,-1,1,17.21
3443,0,-1,2,1,0,1,1,-2,17.215
3444,-1,2,4,1,1,0,-3,0,17.22
3445,-1,0,-3,0,-4,-1,1,-1,17.225
3446,-2,-3,-5,-2,-3,-1,0,-1,17.23
3447,-1,-4,1,1,1,-1,0,-1,17.235
3448,1,-1,-1,0,-1,-2,1,-1,17.240000000000002
3449,-2,-4,-7,-3,0,0,-4,-1,17.245
3450,1,3,2,0,-5,0,1,-1,17.25
3451,-1,0,1,-1,-2,0,-1,0,17.255
3452,1,3,0,0,1,-2,-2,0,17.26
3453,1,2,-5,-2,-1,-2,-4,-3,17.265
3454,-2,-3,1,2,1,1,0,-4,17.27
3455,-2,0,3,-2,0,-2,2,5,17.275000000000002
3456,1,0,-1,0,0,0,2,5,17.28
3457,1,2,2,1,0,0,-1,-3,17.285
3458,-3,-3,-3,-4,-2,0,1,0,17.29
3459,-1,-2,-4,-1,0,1,3,-1,17.295
3460,-2,1,0,-1,1,-6,-5,-6,17.3
3461,-2,-1,-2,-3,-2,-2,-7,0,17.305
3462,1,-2,-2,0,1,1,3,-1,17.31
3463,0,-1,-1,0,0,1,-3,-2,17.315
3464,0,1,0,0,0,1,0,3,17.32
3465,0,0,0,0,-2,1,0,-1,17.325
3466,-2,-3,1,-1,-3,-4,-3,-2,17.330000000000002
3467,-1,-3,-9,-3,0,-3,-3,0,17.335
3468,0,1,6,0,1,1,-3,0,17.34
3469,-1,-2,-1,1,2,3,3,0,17.345
3470,0,1,-1,-1,-3,-2,-4,1,17.35
3471,-1,0,-1,-1,-2,-3,2,7,17.355
3472,-3,-1,-3,-3,-3,-1,-1,-9,17.36
3473,-1,-1,1,2,2,0,-5,-6,17.365000000000002
3474,0,-1,-1,-1,-2,0,-2,-1,17.37
3475,0,0,0,-1,-2,-1,2,-2,17.375
3476,1,1,-1,0,-1,-2,0,3,17.38
3477,-1,-2,1,-2,-2,1,2,0,17.385
3478,-1,-1,-1,0,0,0,-2,0,17.39
3479,-1,-1,-2,-2,-3,0,-2,-3,17.395
3480,0,0,1,0,-3,-1,1,0,17.400000000000002
3481,0,0,-4,-5,-2,-2,0,-2,17.405
3482,-1,0,-1,2,0,-2,-2,0,17.41
3483,2,1,2,-1,0,-2,-2,-2,17.415
3484,0,-5,-6,-2,0,1,-1,-1,17.42
3485,-2,-4,-3,-2,-1,-2,0,1,17.425
3486,-1,1,0,0,-2,-1,-1,0,17.43
3487,1,0,1,1,1,1,-3,-2,17.435
3488,0,1,0,-3,0,-3,1,1,17.44
3489,0,-1,0,2,1,-1,-2,-1,17.445
3490,0,-1,-1,-1,-3,-3,-3,1,17.45
3491,-1,0,0,2,0,2,4,0,17.455000000000002
3492,-1,0,-1,-2,-2,0,-1,0,17.46
3493,-1,0,0,-2,-2,0,1,-1,17.465
3494,-1,-1,-2,-1,-1,0,2,0,17.47
3495,-1,-1,-1,-1,-3,-3,-1,-2,17.475
3496,0,-1,0,-3,0,-1,0,0,17.48
3497,-1,-2,2,1,0,0,2,-1,17.485
3498,-1,-1,0,-1,0,0,-3,-1,17.490000000000002
3499,-2,-3,0,-1,-2,0,-3,-1,17.495
3500,-3,-3,-5,-3,1,-2,-1,0,17.5
3501,0,2,-3,-1,-2,-1,4,1,17.505
3502,0,0,1,-1,-1,-1,1,0,17.51
3503,-2,-3,-3,-3,-1,0,0,-2,17.515
3504,-1,-6,0,1,-3,-1,-2,-2,17.52
3505,-1,0,0,0,-3,0,2,1,17.525000000000002
3506,0,0,-1,0,1,-1,-6,3,17.53
3507,0,-2,-4,-1,-1,0,-7,-6,17.535
