slno,emg1,emg2,emg3,emg4,emg5,emg6,emg7,emg8,Time
0,0,-3,-4,-39,-7,-5,-4,-3,0.0
1,0,-1,-17,-1,5,5,11,3,0.005
2,-1,1,30,62,8,2,-2,-2,0.01
3,2,-2,-17,-1,0,1,0,0,0.015
4,0,1,9,3,-2,-3,-3,-2,0.02
5,2,2,8,19,1,1,-2,-1,0.025
6,-1,-1,-27,-59,-11,-1,-2,-1,0.03
7,-4,1,6,4,-9,-5,0,-1,0.035
8,1,1,-9,-12,-3,-4,-2,0,0.04
9,-2,-2,2,11,-10,-1,1,0,0.045
10,0,-1,-10,5,25,9,3,0,0.05
11,1,-1,5,17,3,-1,-2,0,0.055
12,-3,-2,-14,-33,-5,-1,-2,-2,0.06
13,0,0,6,-10,-19,-7,-2,1,0.065
14,-1,-1,2,-5,-11,-5,-2,-2,0.07
15,0,-1,0,-14,-1,1,-1,-1,0.075
16,-2,-2,7,19,-9,-3,-1,-2,0.08
17,-1,-1,-3,-5,8,2,-2,-1,0.085
18,0,-1,3,11,-2,-1,-1,0,0.09
19,0,1,2,-9,3,1,0,-2,0.095
20,1,0,-2,15,2,1,0,1,0.1
21,-1,1,7,9,5,2,-2,-1,0.105
22,-3,-3,-14,-34,-13,-7,-2,-1,0.11
23,-2,-1,3,3,5,2,-1,-1,0.115
24,-1,3,7,-3,1,-6,-4,-1,0.12
25,-1,-2,-7,-47,-43,-16,-4,-1,0.125
26,0,0,8,61,3,12,3,1,0.13
27,1,1,1,17,34,9,3,1,0.135
28,-1,-3,-8,-6,5,4,0,0,0.14
29,-2,1,1,10,7,-2,-1,-2,0.145
30,-4,-1,-1,-42,-25,-14,-8,-4,0.15
31,-3,-2,-5,2,-23,-6,-3,-3,0.155
32,-3,-4,15,8,19,2,-1,-1,0.16
33,-1,0,8,7,-6,-4,-1,-1,0.165
34,1,-1,-17,-20,5,0,4,1,0.17
35,-2,0,4,-10,4,0,-2,-1,0.17500000000000002
36,-3,-1,-11,-1,-7,-7,-2,-1,0.18
37,-1,-1,2,5,2,2,4,0,0.185
38,0,-1,-2,-25,-6,3,-1,1,0.19
39,1,-1,9,24,20,5,1,0,0.195
40,1,0,-5,9,40,17,6,2,0.2
41,-3,-7,-25,15,-11,0,0,-4,0.20500000000000002
42,1,9,36,18,44,18,6,4,0.21
43,-2,-8,-26,-51,-24,-9,-4,-1,0.215
44,-6,-14,-3,54,-16,-3,-5,-4,0.22
45,1,2,-6,-5,8,-1,-1,0,0.225
46,-1,-3,-3,-18,-13,-9,-4,-1,0.23
47,1,4,-11,20,-7,-2,-3,-3,0.23500000000000001
48,3,1,0,-28,-6,-6,-1,-1,0.24
49,1,0,-1,-6,-2,4,2,2,0.245
50,0,-2,-10,33,2,0,1,-1,0.25
51,0,4,14,-8,-10,-2,-2,0,0.255
52,0,-2,-3,-7,-5,-4,-1,-2,0.26
53,-5,3,3,-5,16,-3,-8,-5,0.265
54,6,9,7,9,-38,-9,0,2,0.27
55,-1,-11,2,-2,40,19,6,1,0.275
56,-6,6,1,7,-13,-2,-1,-3,0.28
57,-2,-18,-6,14,1,3,1,2,0.28500000000000003
58,-2,4,-6,-15,5,-7,-4,-2,0.29
59,-1,6,-8,-9,-20,-7,-4,-2,0.295
60,2,-1,24,0,-11,-1,-1,1,0.3
61,-1,2,-15,-15,8,-1,-1,-1,0.305
62,-5,-12,-2,0,-1,-2,-2,-3,0.31
63,3,9,-1,8,-11,-5,-1,1,0.315
64,13,16,-7,-13,1,0,-2,0,0.32
65,-9,-3,25,6,0,0,-1,0,0.325
66,-5,-5,-7,-3,4,3,1,-2,0.33
67,-10,-26,-3,0,0,-1,-1,-4,0.335
68,-2,10,-10,-13,-7,-6,-3,-1,0.34
69,5,3,1,1,-8,-4,-4,-2,0.34500000000000003
70,6,13,2,12,22,9,5,3,0.35000000000000003
71,-2,5,10,-4,0,0,0,1,0.355
72,3,-5,-1,-2,-5,1,2,2,0.36
73,6,-4,4,5,2,3,2,4,0.365
74,-5,2,-2,-9,-6,-7,-5,-7,0.37
75,-9,-3,-16,-5,-10,-8,-4,-1,0.375
76,2,-2,-5,-4,0,2,-1,-2,0.38
77,-10,-28,1,2,4,0,1,0,0.385
78,2,6,-1,-5,-6,-4,-1,-1,0.39
79,1,-1,5,5,1,-1,0,0,0.395
80,1,4,-1,-2,-5,-1,-1,2,0.4
81,4,15,8,0,4,1,-1,1,0.405
82,1,-3,-5,1,1,1,0,1,0.41000000000000003
83,3,1,5,-1,-8,-2,1,1,0.41500000000000004
84,-9,-24,-6,-6,-5,-3,-3,-3,0.42
85,5,17,0,1,3,2,0,-3,0.425
86,-7,-24,-4,-1,-1,-1,-3,-2,0.43
87,2,10,4,-1,3,-2,-3,-1,0.435
88,-1,-3,-1,2,-14,0,3,1,0.44
89,0,-1,-2,0,1,3,2,1,0.445
90,-4,3,-4,-5,-7,-7,-2,-3,0.45
91,5,6,5,4,13,5,1,0,0.455
92,-7,-17,-9,-4,2,-1,-2,-2,0.46
93,-2,3,-5,-2,-4,-1,-3,0,0.465
94,1,1,1,1,3,-1,-2,0,0.47000000000000003
95,-1,-8,-1,-1,-6,-3,-1,-1,0.47500000000000003
96,3,17,4,-3,0,-1,1,-1,0.48
97,-2,-7,-1,0,0,0,-2,-2,0.485
98,-1,-6,-8,-3,-4,-3,-3,-2,0.49
99,0,-4,-2,0,-6,-1,0,-1,0.495
100,0,3,2,1,5,1,0,0,0.5
101,1,4,-1,-3,-4,-4,-3,3,0.505
102,5,6,2,0,-2,-1,-1,2,0.51
103,-4,-3,-2,1,-2,1,1,2,0.515
104,-3,-1,-1,-1,1,0,-1,-2,0.52
105,-1,4,0,0,2,0,0,-3,0.525
106,-1,-4,-2,0,-1,-1,-1,-2,0.53
107,4,6,2,1,-3,-3,-1,0,0.535
108,-1,18,3,-1,1,-2,-1,-1,0.54
109,-6,-8,-8,-3,-1,-4,-4,-4,0.545
110,1,8,-1,0,0,4,7,2,0.55
111,-1,-1,1,-3,-2,0,1,0,0.555
112,0,-2,1,-1,1,0,-6,2,0.56
113,1,5,0,0,0,-1,3,-1,0.5650000000000001
114,-3,3,2,-1,2,1,-2,-1,0.5700000000000001
115,-2,-9,-2,-1,-2,-4,-4,-2,0.5750000000000001
116,-3,-7,-3,-3,-2,1,5,-1,0.58
117,0,-3,-1,0,-2,-1,-8,0,0.585
118,0,-5,-1,-2,-2,-6,-10,1,0.59
119,0,1,0,0,-1,-1,0,-1,0.595
120,7,8,3,-1,-1,-7,0,-7,0.6
121,15,11,10,9,8,13,-10,14,0.605
122,-9,2,5,-3,-2,4,10,0,0.61
123,8,21,-14,0,3,-6,-13,-9,0.615
124,-14,-40,-4,-2,-8,-5,1,-4,0.62
125,-14,-15,-13,-11,-10,-6,-7,-11,0.625
126,-4,-41,-12,-5,-6,-7,-16,-20,0.63
127,-1,-5,1,0,1,4,-10,27,0.635
128,-12,-5,-11,-6,-2,-12,10,4,0.64
129,15,18,13,10,12,18,34,21,0.645
130,4,10,9,-1,-2,1,-2,-15,0.65
131,-2,-3,-2,3,0,-2,-9,-15,0.655
132,8,2,5,3,2,3,22,8,0.66
133,-10,-8,-2,-3,-4,-7,-2,-4,0.665
134,-3,2,-7,0,-1,0,2,9,0.67
135,5,2,2,-3,-6,-3,-3,-10,0.675
136,-10,8,1,0,-2,0,-23,-11,0.68
137,3,-6,-4,-1,-1,0,0,-9,0.685
138,5,7,-1,1,2,-1,-7,-1,0.6900000000000001
139,-1,-5,2,-2,-3,2,12,6,0.6950000000000001
140,4,-4,-2,-1,1,2,5,1,0.7000000000000001
141,5,2,-2,-1,1,1,-15,-5,0.705
142,-29,-6,-1,-1,1,-2,-1,6,0.71
143,15,2,1,-2,-1,-4,5,6,0.715
144,-29,-1,-3,-3,0,4,-8,-9,0.72
145,-1,3,-1,0,-2,-4,-5,-2,0.725
146,-1,2,0,-1,0,3,25,7,0.73
147,-5,-2,-3,-2,-1,1,13,-3,0.735
148,11,5,-1,-1,-3,0,-1,4,0.74
149,-4,-3,0,-3,-4,-8,-12,-5,0.745
150,7,0,0,1,-2,1,3,0,0.75
151,-16,-4,-1,-4,-5,-5,-6,-7,0.755
152,10,3,2,1,1,5,-1,2,0.76
153,-4,-2,-2,0,-1,3,32,3,0.765
154,4,1,0,1,2,0,-21,0,0.77
155,-2,1,0,0,-1,-1,-2,-5,0.775
156,4,1,1,-1,0,-1,-4,0,0.78
157,-4,-3,-1,-5,-6,-13,-24,-8,0.785
158,7,2,2,2,3,13,34,16,0.79
159,-4,-2,-1,-2,-1,-2,10,-1,0.795
160,6,0,-1,0,1,0,-24,1,0.8
161,-4,-1,0,-1,0,-2,5,-1,0.805
162,4,-3,-1,-1,-2,-9,-12,-6,0.81
163,-1,-4,-1,0,-2,-1,-4,-5,0.8150000000000001
164,2,0,-2,-1,-1,-4,6,2,0.8200000000000001
165,1,0,-1,1,1,7,1,-1,0.8250000000000001
166,1,1,-3,0,-1,-3,-9,-1,0.8300000000000001
167,-3,-2,0,0,1,4,9,0,0.835
168,0,-1,0,-2,-1,-1,-11,-6,0.84
169,-1,-1,-1,-1,-1,-4,-3,-3,0.845
170,-1,-1,-5,-1,0,-3,1,-2,0.85
171,-5,2,5,-1,1,-1,-7,-3,0.855
172,2,1,-1,1,-1,-3,1,-1,0.86
173,-1,-4,-3,0,-2,0,2,2,0.865
174,1,-1,-1,-2,0,0,-1,-1,0.87
175,0,-4,-1,0,-3,-7,-11,-3,0.875
176,-2,2,0,-1,-1,-4,-9,1,0.88
177,-3,1,1,2,0,-14,-26,-21,0.885
178,2,2,-1,-1,-1,6,-14,11,0.89
179,-1,0,-3,1,2,18,50,7,0.895
180,-1,0,-3,-1,-1,8,26,1,0.9
181,-1,0,-2,-2,0,1,21,2,0.905
182,-1,-1,-1,-1,-4,-14,-25,-15,0.91
183,-1,-2,-2,-2,-1,-7,-25,-4,0.915
184,1,-2,0,-1,-1,0,3,1,0.92
185,-1,-2,-2,-2,-4,-6,-14,-3,0.925
186,-2,-1,1,-1,-1,-3,-3,-2,0.93
187,0,-1,0,1,0,0,-4,5,0.935
188,-1,-4,-1,-1,0,0,-3,-3,0.9400000000000001
189,0,1,-1,-1,0,2,0,6,0.9450000000000001
190,0,-1,-1,0,0,2,11,0,0.9500000000000001
191,1,1,-1,-1,0,0,1,-2,0.9550000000000001
192,0,1,-1,-2,0,-2,-9,-3,0.96
193,-1,0,-1,-2,0,4,5,5,0.965
194,-1,1,-1,1,0,2,9,-1,0.97
195,-3,-1,-3,-3,0,-4,-11,-4,0.975
196,0,1,0,-1,-1,-2,-2,-1,0.98
197,-1,-2,1,1,1,3,6,3,0.985
198,-3,-1,-1,0,0,1,2,-2,0.99
199,1,-3,1,-1,-1,-2,-5,1,0.995
200,1,-2,-1,0,-1,0,2,-1,1.0
201,-2,-2,-1,0,0,0,4,-3,1.0050000000000001
202,0,-3,-1,-1,0,-2,-4,-3,1.01
203,-1,-3,0,0,-1,0,-5,-1,1.0150000000000001
204,-2,1,0,-1,-1,-1,1,1,1.02
205,-6,0,-1,-2,-2,-2,-4,-3,1.025
206,-6,-3,0,0,0,-1,0,-5,1.03
207,-4,-5,-1,-1,0,2,2,-2,1.035
208,-4,-5,-2,-2,1,0,-1,-2,1.04
209,-1,-17,-1,0,0,0,-1,1,1.045
210,-2,-16,-3,0,-2,-1,-1,0,1.05
211,-1,-17,0,-1,-3,-1,-1,0,1.055
212,2,-8,-2,1,-1,0,-3,0,1.06
213,2,3,0,-1,0,1,-2,2,1.065
214,4,6,0,0,-2,0,0,3,1.07
215,4,9,1,1,1,-1,-6,0,1.075
216,1,10,0,-1,-2,-1,-2,-1,1.08
217,0,12,2,-1,0,0,5,1,1.085
218,-3,15,-1,-3,-2,-3,-1,-1,1.09
219,-3,16,-1,-1,-2,-1,-13,-3,1.095
220,1,15,2,0,-2,4,38,4,1.1
221,2,11,-1,-1,1,0,0,0,1.105
222,2,5,0,-1,-3,0,3,-1,1.11
223,4,2,-1,-1,-2,-1,1,-1,1.115
224,2,-4,-1,-1,0,-4,-12,-3,1.12
225,3,-5,0,0,-1,0,2,0,1.125
226,3,-4,0,0,-1,0,2,0,1.1300000000000001
227,1,-7,-1,-1,0,-3,0,-1,1.135
228,1,-11,-1,-2,2,-1,-7,0,1.1400000000000001
229,-2,-11,0,-1,0,0,4,1,1.145
230,-1,-10,0,-1,-1,-3,-6,0,1.1500000000000001
231,-2,-7,-2,1,-2,0,0,0,1.155
232,-3,-8,0,1,-1,-1,-3,-1,1.16
233,0,-4,-1,-3,-2,-2,-1,-1,1.165
234,-2,-4,-2,-1,1,-1,-12,-3,1.17
235,0,1,-1,-1,-1,0,12,3,1.175
236,2,0,0,-1,-1,-2,-4,-2,1.18
237,1,3,-2,-1,0,-1,-1,1,1.185
238,4,5,-1,0,-1,-1,-2,-3,1.19
239,4,8,-1,-1,-1,0,-2,1,1.195
240,3,1,0,-1,-2,0,-8,1,1.2
241,-1,0,0,0,-3,-1,-2,2,1.205
242,-1,-1,0,-1,0,0,1,1,1.21
243,-2,0,0,0,-1,1,0,0,1.215
244,-4,0,0,-1,-1,-1,-2,-2,1.22
245,-4,-1,-2,0,-1,0,-1,0,1.225
246,-3,1,-1,-1,-1,-2,1,0,1.23
247,-2,-2,-2,-1,-2,-2,-1,-3,1.235
248,-4,2,-1,1,0,-2,-5,-2,1.24
249,-2,0,0,-2,-1,0,-4,-4,1.245
250,-2,-3,0,-1,0,1,1,0,1.25
251,-3,-2,0,1,1,-1,1,-2,1.2550000000000001
252,-2,-1,0,0,-1,0,-4,-1,1.26
253,-1,1,-2,0,0,-1,-1,-2,1.2650000000000001
254,-4,-2,-2,0,0,-1,1,-2,1.27
255,-2,-3,0,-9,-7,-5,-3,-2,1.2750000000000001
256,-3,-2,-3,0,-9,-4,-1,-2,1.28
257,0,0,1,13,25,8,2,1,1.285
258,-1,-1,-1,-1,0,-2,-3,0,1.29
259,-3,-1,-1,1,2,-1,-1,-2,1.295
260,-2,-1,-2,-6,-6,-1,-1,0,1.3
261,-3,-1,-2,-3,-2,-2,-1,-2,1.305
262,-1,-1,-2,1,-3,1,1,0,1.31
263,0,0,-1,-2,0,1,1,0,1.315
264,-1,1,0,0,1,0,0,-1,1.32
265,0,-2,1,-3,-6,-3,-3,0,1.325
266,-3,-3,0,0,1,-1,0,-2,1.33
267,-2,-1,-2,0,-1,0,0,0,1.335
268,-1,0,-1,-1,-1,0,-1,-2,1.34
269,-1,0,-2,-3,-5,-1,-1,-1,1.345
270,0,0,0,0,-3,-2,-1,-1,1.35
271,-2,0,0,1,-1,-2,-2,-1,1.355
272,0,-1,0,1,3,1,2,0,1.36
273,-1,-2,-1,0,-4,-2,-3,-1,1.365
274,1,-1,-2,-3,-1,-1,-1,-1,1.37
275,-1,-1,-2,1,3,0,0,0,1.375
276,1,1,-1,0,1,-1,-1,0,1.3800000000000001
277,-1,-2,-1,-3,-4,-2,0,-1,1.385
278,-1,-2,-1,-2,-4,-2,0,1,1.3900000000000001
279,1,0,1,0,2,0,1,1,1.395
280,-1,-1,-1,0,1,1,0,1,1.4000000000000001
281,1,-1,1,-1,-1,0,2,1,1.405
282,0,0,-1,1,0,-2,0,0,1.41
283,-1,-3,1,-2,-2,-2,-4,-1,1.415
284,-1,-2,-2,-2,-2,0,-2,-2,1.42
285,-1,-1,-1,-3,-3,-2,-2,-2,1.425
286,-2,-2,0,-1,-1,1,0,0,1.43
287,0,-1,1,-1,-2,-2,0,-1,1.435
288,0,-1,0,0,1,0,0,-2,1.44
289,1,-2,-1,-3,-3,-2,-2,-1,1.445
290,0,-2,0,-2,1,1,-2,-3,1.45
291,0,1,-1,1,0,1,-2,0,1.455
292,0,0,0,-1,1,-1,0,0,1.46
293,0,0,-2,0,0,-1,-1,-1,1.465
294,-1,0,-2,-2,1,-1,0,-2,1.47
295,0,0,-2,0,-2,-1,-1,1,1.475
296,0,-1,1,-2,1,-2,-1,1,1.48
297,-3,-1,0,-1,-2,-3,-2,-3,1.485
298,0,1,-2,0,-2,-1,1,2,1.49
299,-1,-2,0,-1,1,1,0,-1,1.495
300,1,-2,-1,-1,-1,-2,-3,-2,1.5
301,-1,-3,-1,-2,-1,1,-1,-3,1.5050000000000001
302,1,0,1,0,0,-2,1,-1,1.51
303,-2,0,-1,-1,-2,-1,-2,0,1.5150000000000001
304,-1,0,-1,-1,-1,-1,1,-2,1.52
305,0,0,-1,-1,-3,-1,0,0,1.5250000000000001
306,-1,-2,0,-2,1,-1,-1,-1,1.53
307,-1,-2,0,-3,-2,0,2,1,1.5350000000000001
308,0,-1,-2,0,0,-1,0,0,1.54
309,-2,-2,0,-1,-1,0,0,0,1.545
310,0,0,-2,-1,-1,-2,-1,0,1.55
311,-2,-2,-1,0,-1,-2,-3,0,1.555
312,-2,-8,-2,-2,-2,0,0,-1,1.56
313,0,-5,-1,-1,-2,0,0,0,1.565
314,-1,-4,-2,-1,-3,1,-3,-4,1.57
315,-1,-1,-2,-1,0,-1,-1,-3,1.575
316,-1,1,1,2,1,0,0,0,1.58
317,-4,-2,-1,0,1,0,1,-1,1.585
318,-5,-3,-2,-2,-1,-3,-1,-1,1.59
319,-2,-4,0,1,-1,-1,0,-1,1.595
320,-4,-5,-1,1,-1,-2,-1,0,1.6
321,-4,-4,-1,-4,-1,-3,-1,-1,1.605
322,-4,-5,0,-1,-1,0,0,-1,1.61
323,-5,-7,-2,-1,0,-3,0,-1,1.615
324,-4,-8,-3,-2,-2,-1,-4,-1,1.62
325,-4,-4,-1,2,-1,0,-3,0,1.625
326,-5,-5,0,2,-1,-1,-2,0,1.6300000000000001
327,0,-10,0,0,2,2,-2,0,1.635
328,-3,-14,-1,0,0,1,3,1,1.6400000000000001
329,-3,-12,-1,-1,-3,-3,1,-1,1.645
330,0,-5,0,-1,-3,0,1,-1,1.6500000000000001
331,1,2,0,-1,-1,-2,0,-1,1.655
332,4,5,1,-1,0,-1,-1,0,1.6600000000000001
333,4,9,0,-2,-1,-1,1,0,1.665
334,6,12,0,0,-1,-2,1,2,1.67
335,7,17,0,-4,-1,0,-1,-1,1.675
336,5,19,1,-1,2,-1,-1,0,1.68
337,7,20,-1,-3,-2,-1,2,0,1.685
338,2,19,-1,-2,0,-1,-1,-1,1.69
339,5,15,0,1,2,3,3,0,1.695
340,2,14,1,-2,-1,-1,-1,-1,1.7
341,1,8,0,0,0,-2,-2,-2,1.705
342,-1,3,-1,-1,-2,-3,0,-2,1.71
343,-2,-1,-2,1,-1,-3,-2,-2,1.715
344,-2,0,-2,-1,0,2,-1,-2,1.72
345,-3,-3,-1,0,0,0,-2,0,1.725
346,-1,-4,-1,-2,-2,-2,1,-1,1.73
347,-4,-3,-1,-3,-4,-4,-2,-1,1.735
348,-3,-3,1,-1,-1,-2,-1,-1,1.74
349,-3,-5,1,0,1,2,1,1,1.745
350,-2,-3,0,2,4,2,0,-1,1.75
351,-1,-5,0,-1,-2,1,-1,1,1.7550000000000001
352,-1,-3,0,-1,-2,-1,0,0,1.76
353,0,-4,-1,-2,-8,-2,-2,-1,1.7650000000000001
354,1,-3,-1,0,5,2,-1,0,1.77
355,-2,0,0,0,-3,-2,-1,-3,1.7750000000000001
356,0,-3,-3,-1,-3,-1,-1,-1,1.78
357,-3,-2,-2,-1,0,-2,-1,-1,1.7850000000000001
358,-1,-5,0,1,-2,-1,0,0,1.79
359,-2,-3,-2,-1,0,-2,-1,-1,1.795
360,-1,-4,-1,-1,-1,-1,-1,-1,1.8
361,1,-3,0,-1,0,-1,-1,0,1.805
362,0,-4,-2,-1,-1,0,-1,2,1.81
363,0,-3,-2,0,0,0,-1,0,1.815
364,1,-2,0,-1,-3,-3,-2,0,1.82
365,-1,-1,-2,-3,-3,-4,-3,-2,1.825
366,-1,0,-1,0,-1,0,0,-2,1.83
367,-1,-3,1,3,2,0,0,-1,1.835
368,-1,-1,0,1,1,0,0,1,1.84
369,-1,0,1,1,3,4,2,-1,1.845
370,-1,-2,-2,-2,-3,-2,-2,-1,1.85
371,1,-1,-2,-3,-2,-1,-2,-2,1.855
372,-1,0,0,-1,0,-2,-1,-2,1.86
373,-1,-1,-2,-1,-1,-2,-2,-1,1.865
374,-2,-1,0,-2,-2,-2,-3,-1,1.87
375,-1,-2,0,-1,-2,-1,-3,-1,1.875
376,-2,-2,-2,-2,1,-3,-2,0,1.8800000000000001
377,-1,-1,0,0,0,2,1,0,1.885
378,0,2,0,-1,1,3,2,0,1.8900000000000001
379,-2,0,-2,-2,-4,-3,1,0,1.895
380,-1,-1,-2,-2,-4,1,1,1,1.9000000000000001
381,-1,-1,-1,1,0,-2,-2,-1,1.905
382,-1,1,-2,1,-1,-2,-1,0,1.9100000000000001
383,-1,0,0,-1,0,1,0,0,1.915
384,0,0,-1,-2,-2,0,-2,-2,1.92
385,-1,-1,-2,-1,-2,-1,-2,-2,1.925
386,0,-4,0,-3,-2,-2,-1,-2,1.93
387,0,-3,-2,0,-2,-2,-1,-1,1.935
388,-2,-2,-1,0,-1,-1,-2,-2,1.94
389,-1,-2,-1,0,0,1,-2,0,1.945
390,-1,-5,-2,0,-2,-1,1,-2,1.95
391,-3,-2,-4,-1,2,0,1,0,1.955
392,0,-2,4,0,0,-1,1,1,1.96
393,-4,-2,-2,-2,1,-2,0,-2,1.965
394,0,4,3,0,-1,-2,-2,-1,1.97
395,-1,2,0,-1,-2,-1,0,0,1.975
396,-1,1,-2,-2,-2,-1,-2,-3,1.98
397,2,2,-1,-1,-2,-3,-1,0,1.985
398,0,-1,0,-1,-6,-2,1,-2,1.99
399,1,-3,0,2,6,3,1,-1,1.995
400,-1,-1,-1,-1,0,2,-1,1,2.0
401,0,-2,-2,-1,-1,-1,-1,1,2.005
402,0,-2,-1,-1,-1,-3,0,-1,2.0100000000000002
403,0,-1,0,-2,-2,-3,-2,-1,2.015
404,-1,1,-2,0,1,0,1,0,2.02
405,1,2,-1,-1,2,-2,1,-1,2.025
406,-1,1,-2,-2,0,0,-2,0,2.0300000000000002
407,-2,2,0,0,-2,-1,-3,0,2.035
408,-1,2,-2,-1,0,-3,0,0,2.04
409,-2,3,-2,0,-1,1,-1,-1,2.045
410,0,5,0,-2,1,-1,0,0,2.05
411,1,2,1,-1,0,1,0,-1,2.055
412,0,0,-3,-1,-2,1,-2,-1,2.06
413,0,1,-1,-1,-3,0,-1,-2,2.065
414,-1,-1,-1,0,2,0,-1,0,2.07
415,-1,-1,-3,-1,-2,-1,-2,0,2.075
416,-1,-3,-1,0,-1,-2,-2,0,2.08
417,-2,-3,-2,-2,-1,-2,-1,0,2.085
418,-1,-3,-1,0,-1,0,0,0,2.09
419,-1,-4,0,-1,-2,0,0,-1,2.095
420,-1,-2,1,0,1,-1,-1,-2,2.1
421,-2,-5,-1,0,-1,1,-1,-1,2.105
422,0,-4,-1,0,1,-1,-1,-2,2.11
423,-2,-3,-1,0,0,0,-1,-1,2.115
424,0,-3,-2,-3,-3,0,0,0,2.12
425,0,-3,1,0,1,0,-1,-1,2.125
426,0,-2,-1,-1,0,-1,-2,0,2.13
427,-1,-3,0,-1,-3,-1,0,-1,2.1350000000000002
428,-1,-2,-2,-2,-2,-1,-1,-1,2.14
429,-3,-1,-1,-2,-2,-1,-3,-1,2.145
430,-2,-1,1,1,3,3,1,0,2.15
431,0,-1,0,-1,-1,-2,-3,0,2.1550000000000002
432,-1,-1,-1,-2,0,-1,-1,0,2.16
433,0,-2,-1,-1,-5,-3,-1,0,2.165
434,-2,-4,1,-1,-1,0,0,-1,2.17
435,0,-3,0,-1,0,-2,0,-1,2.1750000000000003
436,-2,-1,-4,0,0,-1,-1,-2,2.18
437,0,1,2,-1,0,0,1,0,2.185
438,0,1,-1,0,-1,-2,-3,-1,2.19
439,0,5,2,0,0,0,0,0,2.195
440,1,5,-2,-1,-1,-1,2,0,2.2
441,0,4,-2,0,0,1,1,1,2.205
442,0,8,-1,-1,-3,-3,-1,-3,2.21
443,0,10,-4,-2,0,0,-1,-1,2.215
444,-2,11,0,0,1,1,-1,0,2.22
445,-3,8,0,0,0,-1,-1,0,2.225
446,-1,2,-2,-3,-1,-1,0,0,2.23
447,-3,-3,-2,0,-2,-1,-1,0,2.235
448,-3,-6,-1,-1,-2,-1,-1,-1,2.24
449,-2,-9,-5,-1,-2,-1,-1,-2,2.245
450,-1,-7,2,0,-2,0,-2,0,2.25
451,0,-8,-3,-1,0,-2,-1,-2,2.255
452,0,-8,-1,-1,0,-1,-1,-2,2.2600000000000002
453,1,-6,-5,-1,0,-1,-2,0,2.265
454,-2,-6,-1,-1,-2,1,1,0,2.27
455,-1,-6,1,-2,-2,-2,-1,1,2.275
456,0,-6,0,0,-2,-1,-1,-2,2.2800000000000002
457,0,-3,1,-1,2,3,1,0,2.285
458,0,-1,-1,1,4,1,3,0,2.29
459,1,0,0,-1,0,-1,0,-1,2.295
460,0,-1,0,0,0,-1,1,-2,2.3000000000000003
461,0,3,0,-2,-4,-1,-2,-3,2.305
462,-1,3,-2,-3,-1,-2,-2,-1,2.31
463,0,2,-1,0,0,-2,-1,-1,2.315
464,0,-2,0,-1,0,-2,-1,-1,2.32
465,-1,-4,0,-1,0,-3,1,-2,2.325
466,-1,-5,1,-1,-1,-1,-2,-1,2.33
467,0,-3,-1,-1,-1,-2,-2,-2,2.335
468,-2,-3,0,-1,-1,0,-2,1,2.34
469,0,-5,-2,0,-1,-2,0,0,2.345
470,1,-4,-1,-1,-2,1,-1,-1,2.35
471,-2,-1,-1,-1,-1,0,0,-1,2.355
472,-1,-1,0,0,-3,-1,0,0,2.36
473,0,1,2,-1,-1,0,-2,-1,2.365
474,1,0,-1,-1,0,-1,1,-1,2.37
475,0,0,0,0,1,2,0,0,2.375
476,0,1,0,2,2,2,-1,-1,2.38
477,-1,3,0,-1,0,-1,-2,-2,2.3850000000000002
478,-1,3,-1,-3,-3,-4,-2,0,2.39
479,0,2,-2,-2,-1,-2,-1,1,2.395
480,0,2,0,-2,-2,-2,-1,0,2.4
481,0,2,0,0,0,1,-1,0,2.4050000000000002
482,0,0,0,1,2,0,-1,0,2.41
483,-1,0,-1,-1,0,-2,1,-1,2.415
484,-1,0,0,-1,-1,-2,-1,0,2.42
485,1,-3,-2,-2,-3,-2,-1,-3,2.4250000000000003
486,0,1,-1,-2,-2,-1,-2,-1,2.43
487,-1,-1,0,1,-1,0,0,-1,2.435
488,-1,-1,-1,-1,2,0,1,0,2.44
489,-2,-1,-1,-1,0,0,0,0,2.445
490,0,0,-2,0,0,0,1,-2,2.45
491,0,-3,-1,0,-3,-1,-1,-1,2.455
492,-1,-2,-2,-2,-2,-1,-2,-2,2.46
493,-1,-1,-1,-1,-1,-1,0,0,2.465
494,-2,-4,-2,-2,-1,1,0,-2,2.47
495,-1,0,-1,-1,0,-1,-1,0,2.475
496,-2,-2,-1,1,-2,-1,-1,-2,2.48
497,-1,-1,-1,-2,-1,-2,0,0,2.485
498,-1,-2,0,-2,0,0,-1,-1,2.49
499,-1,-2,-1,0,0,0,-1,-1,2.495
500,-1,-3,-1,-1,-1,0,-1,-1,2.5
501,-1,-1,-1,-1,-2,-1,-1,-2,2.505
502,-2,-1,1,0,-2,-4,-1,-1,2.5100000000000002
503,-2,-1,-2,-2,-2,-2,-1,-1,2.515
504,-1,1,-1,-1,1,0,-3,-1,2.52
505,-1,0,-2,-1,-2,0,-3,0,2.525
506,0,-2,-4,-1,-2,-1,0,0,2.5300000000000002
507,1,-1,3,0,1,0,0,0,2.535
508,0,-2,-1,1,0,0,-1,0,2.54
509,1,-2,-1,1,0,-1,-1,-2,2.545
510,0,-1,-2,-1,-1,-1,-2,-1,2.5500000000000003
511,0,0,-8,-4,-1,-2,-1,-1,2.555
512,-1,-1,7,5,-1,1,0,0,2.56
513,0,1,14,9,1,-1,0,1,2.565
514,-1,0,-4,-6,-2,-1,-2,0,2.57
515,0,0,2,-2,-2,0,0,0,2.575
516,-3,0,-9,-5,-1,1,-2,-3,2.58
517,-2,0,-2,0,0,0,-2,-1,2.585
518,1,1,4,3,-1,-1,1,-1,2.59
519,-2,0,-4,-2,0,-2,0,-1,2.595
520,1,1,4,2,-1,0,0,-1,2.6
521,-1,1,-3,-3,-1,0,0,-2,2.605
522,-1,1,-3,-2,-1,-1,0,-1,2.61
523,-1,0,-1,1,-2,0,-2,-1,2.615
524,0,-1,-2,-1,0,0,-1,-1,2.62
525,1,-2,-2,-2,0,-1,1,1,2.625
526,-1,0,-5,-3,-1,2,-1,-1,2.63
527,-1,1,2,-1,-1,1,1,-1,2.6350000000000002
528,0,1,-1,-1,-2,-2,0,-2,2.64
529,-1,-1,-5,-3,-2,0,-3,-1,2.645
530,-1,0,4,3,-1,1,0,-1,2.65
531,-1,-1,0,-1,-3,-1,0,-2,2.6550000000000002
532,0,-1,-2,-3,-2,0,-3,0,2.66
533,-2,-1,-3,-3,-2,-1,-1,-1,2.665
534,-1,-1,-1,-1,-1,-3,-2,0,2.67
535,-2,-2,1,2,-1,0,1,-1,2.6750000000000003
536,1,0,-3,-2,-1,-1,0,-1,2.68
537,1,-2,-1,0,-2,-2,-1,-2,2.685
538,-2,-1,-1,-3,-1,0,0,0,2.69
539,-1,-2,-2,-3,-1,-2,-2,0,2.695
540,-2,-2,-1,0,0,0,0,0,2.7
541,1,1,0,-1,-1,0,-1,-1,2.705
542,1,-1,0,1,-1,-2,0,-2,2.71
543,0,-1,-2,-1,0,0,-1,-1,2.715
544,0,-1,-1,-1,-2,-3,-2,-1,2.72
545,1,0,-3,-1,0,-2,-1,0,2.725
546,-2,-1,-2,0,0,0,0,-1,2.73
547,-1,0,0,-2,0,-2,-1,-2,2.735
548,-1,-1,0,-2,-1,0,2,-1,2.74
549,-1,1,-2,-2,-1,0,0,-1,2.745
550,1,-2,-1,0,-2,-3,1,0,2.75
551,1,0,0,0,0,0,-3,-1,2.755
552,0,1,0,0,-2,-2,0,1,2.7600000000000002
553,-3,-2,-2,-1,-1,1,0,1,2.765
554,-1,0,-2,0,-2,-1,-1,0,2.77
555,1,-3,-1,-2,-1,-1,-2,-1,2.775
556,-3,0,-1,-1,-1,-1,-3,-1,2.7800000000000002
557,-1,-1,1,-2,-1,-2,0,-3,2.785
558,-1,-1,1,1,2,3,1,2,2.79
559,0,0,0,-1,0,0,1,-1,2.795
560,1,1,-2,-2,0,-3,-1,-1,2.8000000000000003
561,0,1,-2,-2,-1,-1,-1,0,2.805
562,-1,0,-2,-1,-2,-1,0,-1,2.81
563,-1,0,-1,0,-2,-2,0,-1,2.815
564,-2,0,-2,-2,-1,-1,0,-1,2.82
565,-1,-1,0,-1,-1,-1,-2,-1,2.825
566,1,1,1,0,0,-1,-1,-1,2.83
567,-3,1,-1,0,0,1,-1,-3,2.835
568,-2,-3,-1,0,-2,-2,-1,0,2.84
569,0,1,-4,-1,1,-1,1,-1,2.845
570,-1,1,2,-1,0,-1,1,-1,2.85
571,-1,-2,-1,0,-3,-2,0,0,2.855
572,-1,-1,0,-1,-1,-1,-3,-2,2.86
573,-1,-2,-1,0,0,-1,0,-1,2.865
574,-3,-2,0,-1,-1,-1,0,0,2.87
575,0,-1,-2,-2,-2,-1,-2,-1,2.875
576,0,-3,-2,0,-2,1,0,0,2.88
577,-1,-1,1,1,0,2,-1,0,2.8850000000000002
578,-1,-2,-3,0,-2,-2,-2,-1,2.89
579,-2,-1,0,-2,-1,-2,-1,0,2.895
580,0,0,-2,1,2,1,1,0,2.9
581,-2,0,0,-1,-1,0,-2,0,2.9050000000000002
582,-2,-1,-1,-1,-1,0,-1,-2,2.91
583,-2,0,-1,-1,-3,2,-1,-1,2.915
584,-1,-2,-2,0,-3,-1,-1,-1,2.92
585,-1,-2,-2,0,-1,-2,1,-1,2.9250000000000003
586,0,-1,-2,-2,-1,-1,-2,0,2.93
587,0,-2,-1,0,0,-3,-1,0,2.935
588,-1,-1,1,-2,0,0,0,-1,2.94
589,-1,0,-1,0,0,1,1,1,2.945
590,-1,0,-1,-2,-2,1,-1,-1,2.95
591,1,-1,-1,0,0,-1,-2,-1,2.955
592,-1,-1,1,-2,-1,-1,-2,-1,2.96
593,0,-2,-2,0,-1,-1,-2,-1,2.965
594,-1,0,-1,-3,-2,-2,0,-1,2.97
595,0,1,1,0,0,0,0,-1,2.975
596,0,0,0,0,-1,-1,1,-1,2.98
597,-1,-1,0,-1,-1,-2,-2,-1,2.985
598,-2,1,-1,-1,1,0,-1,0,2.99
599,0,0,-1,1,1,2,0,0,2.995
600,-2,1,-2,-1,-2,1,-1,-1,3.0
601,-2,-1,0,-2,-1,-2,0,0,3.005
602,2,-2,-1,0,-1,0,-2,-2,3.0100000000000002
603,-2,-1,-1,1,-3,-2,-1,0,3.015
604,0,0,-3,-1,-1,-1,1,0,3.02
605,-1,-2,-3,0,-1,-1,-1,-1,3.025
606,-1,-2,-1,-1,0,-1,-1,-1,3.0300000000000002
607,-2,-1,0,-1,-1,1,0,-1,3.035
608,1,0,-1,-1,-1,-1,0,-1,3.04
609,0,0,-1,-1,-1,-1,-2,-3,3.045
610,0,-1,-1,0,-2,-2,0,-1,3.0500000000000003
611,1,-1,-2,0,0,0,-1,2,3.055
612,-2,-1,-1,-1,-1,0,0,-1,3.06
613,0,-2,-1,0,-2,0,0,-1,3.065
614,0,-1,-1,0,-1,-2,-1,-2,3.0700000000000003
615,0,-1,-1,-3,-2,-3,-1,-3,3.075
616,-2,1,0,-1,-2,-3,0,-2,3.08
617,1,-1,0,-1,-1,0,-1,-4,3.085
618,-2,-2,-1,-2,0,1,0,-1,3.09
619,0,-1,0,0,-2,-1,0,1,3.095
620,0,-1,-2,-2,1,-1,-3,0,3.1
621,-2,1,-2,0,-2,-2,-2,-1,3.105
622,-3,-2,0,-2,-1,-1,0,0,3.11
623,-1,-1,-1,-1,1,0,-1,-2,3.115
624,-2,-2,-1,0,-1,-1,-1,0,3.12
625,0,0,-1,0,-1,0,-2,-1,3.125
626,0,-1,-1,-1,-3,-1,1,-1,3.13
627,-1,-1,-2,0,-3,0,0,0,3.1350000000000002
628,0,-1,-1,-1,-2,-2,-1,-3,3.14
629,1,-1,-1,-1,0,0,0,0,3.145
630,-1,0,-1,-1,1,-1,0,0,3.15
631,-1,0,-3,0,0,-1,0,0,3.1550000000000002
632,0,-2,0,0,-2,-2,-1,-1,3.16
633,-1,-1,1,-2,0,-2,-1,-1,3.165
634,0,0,0,0,2,-1,-1,0,3.17
635,0,0,-1,-1,1,0,0,0,3.1750000000000003
636,0,0,-1,-3,0,-2,-1,0,3.18
637,-2,1,-2,0,0,-2,-1,0,3.185
638,-1,-1,-1,0,-1,0,0,-1,3.19
639,-2,1,-1,-2,-1,-1,-4,-3,3.1950000000000003
640,-1,-1,-3,1,-1,-1,-1,-1,3.2
641,-2,-1,0,-1,1,0,2,-1,3.205
642,0,-1,-1,0,-1,-1,-2,0,3.21
643,-2,0,-1,-1,-2,-1,0,-2,3.215
644,-1,-1,0,0,2,1,0,0,3.22
645,0,-1,0,0,-2,-2,-1,0,3.225
646,-1,-1,0,1,-1,0,0,0,3.23
647,0,-2,1,-2,-1,-2,0,0,3.235
648,0,0,1,0,-1,-2,-2,-1,3.24
649,-1,-2,-1,-2,-1,-2,0,-2,3.245
650,-1,-2,0,0,-1,-1,0,0,3.25
651,0,1,-2,0,-2,0,-1,-2,3.255
652,-2,-3,-1,0,0,0,-1,-2,3.2600000000000002
653,1,-1,0,2,1,-1,0,1,3.265
654,1,0,-1,0,-1,-3,-3,1,3.27
655,-1,-2,-1,0,0,0,1,-1,3.275
656,0,0,-1,0,-1,-2,0,0,3.2800000000000002
657,0,0,-1,0,-1,0,-3,0,3.285
658,-1,-1,0,-2,-1,1,-2,-2,3.29
659,0,-2,0,0,-1,-1,-2,0,3.295
660,1,-1,-2,-1,0,0,0,-1,3.3000000000000003
661,-2,-1,-1,1,-1,-1,0,-1,3.305
662,0,-1,-1,0,-2,-3,-3,-2,3.31
663,0,-1,1,0,0,-1,1,-2,3.315
664,0,-2,0,0,-1,0,-1,-2,3.3200000000000003
665,0,-2,-1,-2,-1,1,-1,0,3.325
666,0,-1,1,-2,0,0,-1,0,3.33
667,1,0,-1,-2,-1,-1,-1,0,3.335
668,-1,0,-1,0,-2,-1,-1,-1,3.34
669,0,-1,-2,-1,-1,-1,0,-1,3.345
670,0,-1,-1,-1,-1,-2,-1,-1,3.35
671,-2,-1,0,-1,0,-1,-3,1,3.355
672,-2,0,-2,0,-1,-2,-2,0,3.36
673,-1,0,-1,-1,0,0,-1,0,3.365
674,-2,-2,-2,0,0,0,1,0,3.37
675,1,-2,-1,0,0,0,0,-2,3.375
676,0,0,1,-2,0,1,-2,-1,3.38
677,0,-1,1,-1,-1,0,1,-1,3.3850000000000002
678,2,-1,0,-2,-1,-1,0,-1,3.39
679,1,-1,-2,-6,-2,-2,-1,-2,3.395
680,0,1,-1,1,-2,-1,0,0,3.4
681,-2,-1,0,1,0,-2,-2,-2,3.4050000000000002
682,-1,-1,-1,-1,-1,0,-1,0,3.41
683,0,-1,-4,-9,1,0,0,0,3.415
684,-1,-1,2,15,2,1,-1,1,3.42
685,0,2,-3,-8,-2,-1,0,-2,3.4250000000000003
686,-4,-2,6,29,-1,-3,-3,-1,3.43
687,-2,-1,-2,-3,-3,-2,-2,0,3.435
688,-2,0,-4,-14,-3,0,-1,-1,3.44
689,-2,-3,-1,4,-1,0,-1,1,3.4450000000000003
690,1,-1,-3,-12,-1,1,2,-1,3.45
691,1,0,-2,5,0,-2,-1,0,3.455
692,1,-1,0,-8,-1,-3,0,-2,3.46
693,0,0,-2,-5,-2,-1,0,-1,3.465
694,0,2,-5,-8,-2,-1,-2,0,3.47
695,-1,-1,2,3,1,0,-2,-1,3.475
696,0,-1,-1,-1,2,1,2,-1,3.48
697,0,-1,-2,-1,0,0,-1,-1,3.485
698,0,-1,-1,2,0,0,-1,1,3.49
699,0,-1,-2,-2,-4,-1,0,0,3.495
700,-1,1,-1,1,-3,-1,-2,-1,3.5
701,-1,0,-1,3,0,1,-1,0,3.505
702,0,-1,-1,-3,0,0,0,-1,3.5100000000000002
703,0,0,-1,-1,-1,-1,1,-1,3.515
704,0,0,-1,0,-1,-1,0,0,3.52
705,-1,-1,0,0,1,-1,0,-1,3.525
706,0,1,-1,-5,-4,-3,-2,-1,3.5300000000000002
707,-2,1,0,0,-1,-2,0,-1,3.535
708,-1,0,-1,2,-1,-1,-1,-1,3.54
709,-1,-1,-1,-2,-1,-2,-1,-1,3.545
710,-1,0,0,-2,-2,1,-1,-1,3.5500000000000003
711,-1,0,1,2,-1,1,-1,0,3.555
712,0,-4,-1,-1,-2,-1,0,0,3.56
713,0,-1,-1,0,-1,-2,-2,-1,3.565
714,-2,-1,-2,-4,0,-1,1,0,3.5700000000000003
715,-2,-1,0,1,-1,-1,-1,0,3.575
716,-1,2,-1,-2,-1,0,-1,-1,3.58
717,0,-1,-1,0,0,-1,-1,0,3.585
718,-1,0,-1,-1,-2,-3,-2,-2,3.59
719,-1,0,-3,-3,-1,-1,-2,-1,3.595
720,-1,0,-1,-3,-1,0,0,0,3.6
721,-1,1,0,-1,-1,0,1,-1,3.605
722,-2,0,-1,-2,1,0,1,0,3.61
723,-1,0,-1,2,0,1,-2,-1,3.615
724,-1,-1,-1,-1,-1,-1,0,0,3.62
725,0,0,1,-2,0,-1,1,1,3.625
726,-1,-1,1,0,1,0,0,0,3.63
727,1,0,1,0,-1,-1,0,-2,3.6350000000000002
728,-1,-1,-1,0,-1,-2,-1,-1,3.64
729,-1,0,-2,1,0,1,-3,-1,3.645
730,-2,-1,-2,-1,0,1,0,-1,3.65
731,0,-2,0,0,-1,0,0,0,3.6550000000000002
732,-2,-1,-1,0,-2,-1,-1,-1,3.66
733,0,-2,0,0,-2,-1,-1,-1,3.665
734,0,-2,-1,-1,-1,-1,-1,0,3.67
735,-1,-2,1,0,0,-2,-1,-1,3.6750000000000003
736,-1,-3,-1,-2,-1,-1,-1,-1,3.68
737,-2,-3,0,1,0,0,0,0,3.685
738,1,-3,1,-1,-1,0,-2,-1,3.69
739,-2,-4,-1,-2,-1,-2,0,-1,3.6950000000000003
740,0,-2,0,0,0,-3,0,-1,3.7
741,-1,-2,-1,-2,0,-1,-1,-1,3.705
742,-1,-1,-2,-1,0,1,-2,-1,3.71
743,0,0,0,-2,0,-2,-1,-1,3.715
744,-1,-2,-2,-2,0,0,-2,-2,3.72
745,0,-1,-2,-1,-1,-1,-1,-1,3.725
746,-1,0,-1,0,0,-1,0,-2,3.73
747,0,1,0,-2,0,1,1,1,3.735
748,0,1,0,0,0,0,0,-1,3.74
749,0,0,0,0,-1,-1,0,-1,3.745
750,1,0,-1,-2,-1,-2,-1,-1,3.75
751,-2,-1,-1,1,-1,-1,-1,-1,3.755
752,0,-4,-1,0,0,-1,0,0,3.7600000000000002
753,0,-2,0,-1,0,0,-1,0,3.765
754,-1,-2,-1,-1,-1,-2,0,0,3.77
755,-1,-4,0,-2,0,0,-1,0,3.775
756,-2,-4,-1,0,0,0,0,0,3.7800000000000002
757,-1,-3,0,1,0,-1,0,0,3.785
758,-2,-6,-2,1,-1,-3,-1,-2,3.79
759,-1,-6,-2,-1,0,-2,-2,-2,3.795
760,-1,-4,0,-1,-1,0,-3,-1,3.8000000000000003
761,-1,-2,0,-1,0,-2,0,-1,3.805
762,0,-2,-1,-2,-1,0,0,-2,3.81
763,-2,1,-1,0,0,-3,0,-1,3.815
764,0,0,-2,-1,-2,-1,-1,-1,3.8200000000000003
765,-1,0,-2,-2,-1,-2,0,-2,3.825
766,-1,2,-1,-1,-1,-1,0,0,3.83
767,0,2,-2,0,0,1,-1,-1,3.835
768,2,4,-1,-1,1,0,0,1,3.84
769,0,2,-2,-1,-1,-1,-1,-1,3.845
770,-1,3,0,-2,-2,0,0,-1,3.85
771,0,3,1,-1,-1,1,-1,0,3.855
772,-1,2,-2,0,-2,-2,-1,-1,3.86
773,-1,4,-1,-2,-1,0,-1,-1,3.865
774,-2,1,1,-2,0,-1,-1,0,3.87
775,-2,2,-1,-1,-1,-1,-1,0,3.875
776,-2,3,0,2,-2,0,-1,0,3.88
777,0,3,0,0,-2,-1,-2,-1,3.8850000000000002
778,-2,2,-1,1,-2,0,0,0,3.89
779,-1,2,0,-3,-1,0,0,-1,3.895
780,1,2,0,-1,-2,-1,-1,-1,3.9
781,-2,1,-1,0,-1,0,-1,1,3.9050000000000002
782,-3,2,0,-1,1,-1,-2,0,3.91
783,2,0,0,-1,-2,0,0,-1,3.915
784,-2,1,-2,-2,-1,-1,0,0,3.92
785,-2,0,0,0,-1,0,-1,-2,3.9250000000000003
786,0,0,-3,-1,-1,0,-1,1,3.93
787,0,-1,-2,0,0,0,1,-1,3.935
788,-1,0,-2,-1,-1,0,-1,-1,3.94
789,-2,-2,0,-1,-1,1,0,0,3.9450000000000003
790,-1,-4,0,-3,-1,-1,-3,-1,3.95
791,-1,-3,0,0,-2,1,0,-1,3.955
792,-1,-3,-2,-2,-2,-3,0,0,3.96
793,0,-3,-2,1,-2,-2,-1,-2,3.9650000000000003
794,0,-2,0,0,-1,0,0,-2,3.97
795,-2,-4,-2,0,0,-1,0,-1,3.975
796,-1,-4,0,-1,-1,0,-1,-2,3.98
797,0,-4,0,-2,-1,-3,1,1,3.985
798,0,-4,-2,-2,-1,-2,-1,-1,3.99
799,-1,-4,-1,-1,-2,-2,-2,0,3.995
800,-3,-5,-1,-2,-1,0,-1,-1,4.0
801,0,-5,-1,-1,-1,-1,0,-1,4.005
802,-1,-4,0,-1,0,0,-1,0,4.01
803,2,-3,-1,0,0,0,1,0,4.015
804,-1,-3,-1,0,0,-1,-1,-1,4.0200000000000005
805,-1,-4,-2,0,0,0,-1,-1,4.025
806,1,-4,-1,0,-2,0,-1,-1,4.03
807,-3,-3,-2,-1,-2,-1,-2,-2,4.035
808,-1,-3,-1,-2,1,0,0,0,4.04
809,0,-2,-1,0,-1,-1,1,-1,4.045
810,0,-3,0,1,0,-1,0,0,4.05
811,1,-3,-2,-2,0,-1,-1,-1,4.055
812,0,0,0,1,-2,-3,-2,-1,4.0600000000000005
813,-1,-2,-2,-2,1,0,0,0,4.065
814,-1,-2,0,-1,-1,0,0,-2,4.07
815,0,-2,0,-1,-1,-1,-1,-1,4.075
816,-1,-2,-1,0,-1,0,-1,-1,4.08
817,1,-1,-2,0,0,0,0,1,4.085
818,-1,-3,-1,0,0,-1,-2,0,4.09
819,-1,-1,0,-2,1,0,2,-1,4.095
820,-1,-1,0,1,-1,0,-1,-1,4.1
821,0,-1,0,-1,-1,-2,-1,-1,4.105
822,1,1,-1,-1,1,0,0,-2,4.11
823,-1,0,-1,1,-1,-1,-2,-1,4.115
824,0,1,-1,-2,-1,0,-1,1,4.12
825,-2,2,0,-2,-2,-1,-3,-1,4.125
826,-1,4,-1,-1,-3,-1,-2,0,4.13
827,1,3,-2,1,-1,0,0,0,4.135
828,-1,3,-2,0,-2,-1,0,1,4.14
829,-2,2,1,-1,0,0,0,-1,4.1450000000000005
830,0,0,-2,-1,0,-2,-1,-1,4.15
831,-2,2,0,1,-1,-2,-1,-1,4.155
832,1,0,-1,-2,0,-1,-1,0,4.16
833,0,3,0,0,0,0,-1,-1,4.165
834,-2,2,0,-2,-1,0,0,-1,4.17
835,-1,2,0,-2,-3,-2,-1,0,4.175
836,0,2,-1,-2,1,0,0,-1,4.18
837,0,1,-1,-1,-2,0,0,0,4.1850000000000005
838,-2,2,-1,1,-1,-2,1,0,4.19
839,-1,2,-2,0,-1,2,-2,0,4.195
840,-1,2,-1,-1,-2,0,-1,-1,4.2
841,-1,4,-1,-2,-1,-2,-2,-1,4.205
842,0,3,-1,-1,-1,-1,-2,0,4.21
843,-1,2,-2,-2,-2,-3,-1,-2,4.215
844,-1,0,-1,0,-1,0,-1,-1,4.22
845,0,1,-2,1,-1,0,0,-1,4.225
846,-1,0,-1,2,-1,-1,-1,-1,4.23
847,-2,0,-1,-1,-2,0,-1,-2,4.235
848,-1,-1,-3,0,-3,-2,0,1,4.24
849,-1,-2,-1,-1,-1,-1,-1,0,4.245
850,-1,3,0,0,-2,0,-2,-1,4.25
851,0,1,-1,-1,-1,0,-1,0,4.255
852,-1,2,-1,0,-1,-2,-2,-2,4.26
853,0,-2,-1,-2,-1,-1,-1,-1,4.265
854,-3,1,-2,-2,0,0,0,-1,4.2700000000000005
855,-1,0,-1,-2,-1,0,-1,-1,4.275
856,-1,-2,-2,-2,0,-1,0,0,4.28
857,-2,-2,0,-1,-1,0,0,-2,4.285
858,0,-2,-3,1,0,-1,-1,0,4.29
859,0,-4,1,-1,0,-2,-2,0,4.295
860,0,-4,0,0,0,-2,-1,-1,4.3
861,-2,-5,-1,-1,-1,-1,0,0,4.305
862,0,-4,0,-1,-2,-1,0,1,4.3100000000000005
863,0,-5,0,0,0,0,-1,-1,4.315
864,1,-6,1,-1,-1,0,-1,-1,4.32
865,0,-8,-1,0,-1,-1,0,-1,4.325
866,-2,-7,1,-1,0,0,0,-1,4.33
867,1,-6,-2,-2,-1,-1,-1,1,4.335
868,0,-3,1,-1,-1,0,-1,-2,4.34
869,-1,-4,0,1,-2,-1,-2,0,4.345
870,2,-5,1,-3,-1,0,-1,-2,4.3500000000000005
871,-1,-5,-1,1,-1,-2,0,-1,4.355
872,-1,-3,-1,0,-1,0,0,1,4.36
873,-1,-2,-1,-1,-1,0,-3,-1,4.365
874,-1,-2,-1,-1,0,0,0,-2,4.37
875,-2,-3,0,-1,0,-1,-2,0,4.375
876,-2,-3,-1,-2,-2,-1,0,-1,4.38
877,-1,0,0,-1,0,-2,-2,-2,4.385
878,-1,-2,-2,0,-1,-1,-1,0,4.39
879,-1,-1,-1,-1,0,0,-1,-1,4.3950000000000005
880,-2,2,-1,1,-2,0,-1,-1,4.4
881,-1,4,0,-1,-1,-1,0,0,4.405
882,-1,2,0,-2,-1,-1,0,0,4.41
883,-1,4,0,-2,-1,0,0,-1,4.415
884,0,3,1,-1,-1,0,-1,0,4.42
885,-2,3,-1,0,-1,-1,-1,0,4.425
886,-3,2,-1,0,0,-1,0,0,4.43
887,-2,1,-1,0,-1,0,0,-1,4.4350000000000005
888,-1,2,-2,-1,0,0,-1,-1,4.44
889,1,-1,0,-2,-1,-1,-2,-2,4.445
890,1,-3,0,-1,-2,-1,-1,-1,4.45
891,-1,-3,-2,0,-1,0,1,-2,4.455
892,1,-5,-1,-2,-1,-2,-2,-1,4.46
893,0,-5,-1,-1,1,0,-1,-2,4.465
894,-1,-5,-2,-1,0,1,0,-1,4.47
895,-1,-7,0,-1,-2,0,-1,0,4.4750000000000005
896,-1,-7,-1,2,-1,-2,-1,-1,4.48
897,0,-8,0,0,-1,0,-1,0,4.485
898,0,-8,0,0,-1,-2,-3,-1,4.49
899,-1,-6,-1,-2,-1,-2,-1,-1,4.495
900,-1,-7,-2,0,-1,0,-1,0,4.5
901,-1,-5,0,-2,-1,-1,0,-1,4.505
902,-2,-5,-1,0,-2,0,-1,0,4.51
903,-1,-3,0,0,1,0,-2,0,4.515
904,-2,0,-1,-2,-1,0,-1,0,4.5200000000000005
905,0,2,0,-1,-1,1,0,1,4.525
906,-2,2,0,0,-1,-1,0,-1,4.53
907,0,2,-1,-2,1,0,-1,0,4.535
908,0,4,0,-1,-1,0,0,0,4.54
909,-3,4,-1,0,0,-2,-1,-1,4.545
910,-2,7,-2,-1,-1,-1,0,0,4.55
911,-1,6,-1,0,-1,-1,-2,-1,4.555
912,-3,6,-1,-1,0,-1,0,-1,4.5600000000000005
913,0,5,0,-1,-1,-2,-1,2,4.565
914,-1,6,0,-1,-1,0,-1,0,4.57
915,-1,7,-2,1,0,-2,-2,0,4.575
916,0,6,-2,0,-1,-2,-2,-1,4.58
917,-3,8,-2,1,0,-1,1,-1,4.585
918,-1,6,-1,-2,0,0,0,0,4.59
919,-1,6,-1,-1,0,-2,1,0,4.595
920,0,6,0,-1,-2,-1,-2,-2,4.6000000000000005
921,-1,5,-2,0,0,-3,-3,1,4.605
922,0,4,-1,-2,-1,0,-1,-1,4.61
923,-1,6,-1,-1,-1,0,0,0,4.615
924,0,6,-1,-1,-1,0,2,-1,4.62
925,0,7,0,-1,-2,-1,0,0,4.625
926,-3,6,-1,0,-1,-1,0,0,4.63
927,0,3,-3,-1,-2,0,-1,0,4.635
928,-2,5,0,-2,0,-1,-1,-2,4.64
929,-1,3,-3,0,0,-1,-2,-1,4.6450000000000005
930,0,3,-1,-2,0,-1,-2,-1,4.65
931,0,3,-1,-1,0,-2,-1,-2,4.655
932,-1,0,-1,-1,-1,0,0,0,4.66
933,0,-1,-1,-1,-1,0,-2,-2,4.665
934,0,-3,0,1,1,-2,-1,0,4.67
935,0,-7,0,-2,-2,1,0,1,4.675
936,-1,-7,-1,1,-1,0,-1,-1,4.68
937,0,-8,0,-1,0,0,2,-1,4.6850000000000005
938,0,-10,1,-1,-1,-2,0,0,4.69
939,-1,-10,0,-1,-1,-2,-1,-1,4.695
940,0,-10,-1,-1,0,-2,-1,-1,4.7
941,0,-9,-1,0,-1,-1,0,-1,4.705
942,0,-5,-3,-1,-1,0,0,-1,4.71
943,-1,-6,-2,0,-1,0,0,-2,4.715
944,-1,-7,0,-2,0,-2,1,1,4.72
945,-1,-4,-1,-2,0,-1,0,-2,4.7250000000000005
946,0,-5,0,-1,0,-1,-1,0,4.73
947,-2,-5,-1,0,1,-2,-1,-1,4.735
948,-1,-4,-2,0,-1,0,-1,-1,4.74
949,0,-5,1,0,-2,0,-1,-1,4.745
950,0,-6,-1,-1,-2,-1,0,1,4.75
951,-2,-3,-1,-1,-2,0,1,-2,4.755
952,-1,-2,0,-1,-2,0,0,-1,4.76
953,0,-2,-2,-1,-1,-2,-2,-1,4.765
954,0,-4,-2,0,2,-2,0,-1,4.7700000000000005
955,0,-3,-1,0,-2,-1,0,-1,4.775
956,-1,-5,-1,0,-2,0,-1,0,4.78
957,-1,-5,-1,-2,0,0,-1,-1,4.785
958,-2,-4,-2,1,-1,-1,-1,-3,4.79
959,0,-2,-1,-1,-1,0,-3,1,4.795
960,0,-2,0,0,0,-1,0,-1,4.8
961,-1,-2,1,-1,0,-2,-1,-2,4.805
962,-2,0,-1,-3,-1,-1,-1,-1,4.8100000000000005
963,-2,-2,-1,0,0,0,-1,-2,4.815
964,0,-1,-1,-1,-1,0,0,0,4.82
965,0,-3,-2,-1,-1,0,0,1,4.825
966,-1,-5,0,2,-1,1,-1,-1,4.83
967,-1,-5,-1,-1,0,-2,0,-1,4.835
968,0,-4,-1,-2,0,1,-1,0,4.84
969,0,-2,-1,-1,-1,-1,0,-2,4.845
970,-3,-2,-2,0,0,-1,-2,0,4.8500000000000005
971,0,-1,-2,0,-2,0,-2,-1,4.855
972,-3,-3,-1,-1,-1,-1,-1,-2,4.86
973,0,-1,-2,0,-1,-1,-3,0,4.865
974,0,0,-2,-1,-2,0,0,-2,4.87
975,0,1,-2,-1,-1,-1,-2,-1,4.875
976,0,-1,-1,-1,0,-3,0,-1,4.88
977,-3,0,0,0,-3,0,-1,0,4.885
978,0,0,0,0,-2,0,0,-1,4.89
979,-2,0,-1,-1,1,-2,0,-1,4.8950000000000005
980,1,2,-1,0,0,-1,-2,-1,4.9
981,-2,4,-1,-1,-1,0,0,0,4.905
982,-1,5,0,0,-1,-3,1,1,4.91
983,-1,2,0,-2,-1,2,1,-1,4.915
984,0,2,0,-2,0,-1,-1,-2,4.92
985,0,1,0,2,-1,0,-2,-2,4.925
986,0,2,-3,-1,-1,-2,-2,-2,4.93
987,-2,2,0,-1,0,-1,0,0,4.9350000000000005
988,-1,3,-1,0,0,-1,-3,0,4.94
989,0,2,-1,-2,0,-1,0,0,4.945
990,-1,4,0,1,-2,-1,-2,0,4.95
991,-1,5,-1,-1,-3,-1,-2,0,4.955
992,-1,3,-2,0,-2,0,1,-1,4.96
993,0,1,0,-1,-1,-2,-1,-1,4.965
994,-1,0,-1,-2,-1,-1,-1,-2,4.97
995,-2,2,0,0,-2,0,-1,-2,4.9750000000000005
996,-3,2,-1,0,0,0,-1,0,4.98
997,-1,1,0,0,0,-1,0,0,4.985
998,0,0,-1,0,-1,-1,-1,0,4.99
999,2,-1,0,0,-2,-1,-1,0,4.995
1000,0,-1,0,0,0,-1,-1,-2,5.0
1001,-2,0,0,-2,-1,0,0,1,5.005
1002,0,-2,-1,0,1,0,-2,-2,5.01
1003,0,-2,-2,0,-2,-1,-1,-1,5.015
1004,-1,-3,-2,-1,-2,-2,0,-1,5.0200000000000005
1005,-1,-2,-2,-2,-2,-2,-1,-2,5.025
1006,0,-2,1,-1,-1,-1,1,1,5.03
1007,-1,-2,-1,-1,1,0,-1,-1,5.035
1008,-2,-5,0,-3,-1,0,0,-1,5.04
1009,0,-5,0,-1,-2,-1,-1,0,5.045
1010,-3,-3,0,-1,1,-1,-2,-1,5.05
1011,-1,-2,-1,0,1,-1,-2,-1,5.055
1012,-1,-3,0,-1,-1,-1,0,1,5.0600000000000005
1013,0,-2,-1,-1,-2,-1,-2,-2,5.065
1014,-1,-3,-1,-1,-2,0,0,-1,5.07
1015,-1,-3,-1,0,-1,-1,0,-1,5.075
1016,0,-2,0,1,-2,0,-1,1,5.08
1017,-1,-2,-1,0,0,-1,-2,-2,5.085
1018,-2,0,-2,-2,-1,0,-1,0,5.09
1019,-2,-1,-1,0,-1,-3,1,0,5.095
1020,0,-1,0,0,-2,0,-2,-1,5.1000000000000005
1021,0,-1,0,-1,1,0,0,0,5.105
1022,-2,-2,1,0,-1,-1,0,-2,5.11
1023,-1,-1,0,-1,-1,-1,-1,0,5.115
1024,-1,-2,-2,-1,0,-1,-2,-2,5.12
1025,-1,0,-1,-2,-1,0,0,-1,5.125
1026,0,0,0,-2,-1,1,-1,-1,5.13
1027,-1,-1,-1,-2,-1,0,-1,-2,5.135
1028,-1,0,-1,-1,-2,-1,-1,1,5.14
1029,0,-3,-1,-1,-1,-1,-1,-2,5.1450000000000005
1030,1,-1,-1,-2,-1,-3,-2,1,5.15
1031,0,-1,0,-1,-1,0,0,-1,5.155
1032,0,-1,0,0,-2,-1,-1,-2,5.16
1033,0,0,-2,-1,0,-1,-2,-1,5.165
1034,-1,1,-2,-1,-1,-2,-2,1,5.17
1035,1,-3,0,-1,0,-1,-1,-1,5.175
1036,-1,-1,-2,-1,1,0,-1,0,5.18
1037,0,0,-1,0,-2,-1,1,-2,5.1850000000000005
1038,-3,0,-1,0,-1,0,0,-2,5.19
1039,0,2,-1,-2,-1,-2,1,1,5.195
1040,-1,0,-1,-2,-2,-1,1,0,5.2
1041,-2,-1,0,-1,0,-1,-2,0,5.205
1042,1,0,-1,0,0,1,-1,-2,5.21
1043,0,0,-1,-2,-2,-1,0,0,5.215
1044,0,-2,-1,0,-2,-2,-2,-1,5.22
1045,-1,0,-1,0,-1,-2,0,1,5.2250000000000005
1046,0,-3,-1,-1,-3,-2,0,0,5.23
1047,-1,-3,-1,0,0,-1,-2,0,5.235
1048,-1,0,-1,-2,-2,-1,0,-2,5.24
1049,-1,-1,-2,0,-1,1,-2,-2,5.245
1050,-1,1,-2,-1,0,0,0,-2,5.25
1051,-3,-3,-1,-1,-1,0,-2,1,5.255
1052,0,0,-3,1,1,-1,-1,-1,5.26
1053,0,0,0,-1,-1,0,0,0,5.265
1054,-2,-2,-1,-1,1,0,-3,-2,5.2700000000000005
1055,-1,-4,-2,0,-1,1,-1,0,5.275
1056,-1,-1,-2,-1,0,0,0,0,5.28
1057,0,-1,-1,0,1,-1,0,-1,5.285
1058,-1,-1,0,-1,0,1,-1,0,5.29
1059,0,0,-2,0,-1,-1,0,0,5.295
1060,0,-1,-1,0,-1,-1,-2,2,5.3
1061,-1,0,0,0,0,-2,-1,0,5.305
1062,0,-3,-1,-1,-1,-1,0,2,5.3100000000000005
1063,-3,1,-1,0,-1,-1,-1,-1,5.315
1064,0,0,0,-4,0,-1,0,0,5.32
1065,-1,0,-1,0,0,0,0,1,5.325
1066,0,0,-1,-2,-2,0,0,-1,5.33
1067,-1,0,0,-1,-1,-2,-2,-1,5.335
1068,-1,1,-2,-1,-1,-1,-2,0,5.34
1069,-3,0,-1,-1,-1,-1,-1,-1,5.345
1070,1,0,0,-1,-2,-1,0,-1,5.3500000000000005
1071,0,0,0,0,-2,-1,-1,-1,5.355
1072,-1,0,0,-2,-2,-2,1,-3,5.36
1073,-1,-1,-1,-1,-1,1,-1,0,5.365
1074,-2,0,-1,1,-1,-2,0,-1,5.37
1075,0,0,0,-1,-2,-1,-1,0,5.375
1076,-2,1,-1,0,-1,0,0,-1,5.38
1077,-1,2,-2,-1,-2,0,0,-1,5.385
1078,0,0,0,0,-1,0,-1,-3,5.39
1079,-1,-2,-2,-2,-1,-1,0,-1,5.3950000000000005
1080,0,-3,-1,0,0,0,-1,-1,5.4
1081,2,-3,-1,-2,0,-1,0,-2,5.405
1082,-1,-3,-1,-1,-1,0,-2,1,5.41
1083,0,0,-1,0,1,1,1,-1,5.415
1084,0,-1,-1,0,-2,0,0,-1,5.42
1085,-2,1,-1,-2,1,-1,-2,-1,5.425
1086,-1,0,-1,-1,-1,-2,0,0,5.43
1087,0,-2,-2,1,-1,-1,-1,-3,5.4350000000000005
1088,-3,-2,0,-1,0,-1,-1,-1,5.44
1089,0,-2,-2,2,-1,-1,-1,0,5.445
1090,0,-2,-1,-1,-1,-1,0,-1,5.45
1091,-1,3,1,0,1,-1,0,0,5.455
1092,-2,0,0,-2,-1,1,0,-1,5.46
1093,-1,-1,0,-1,-2,-1,-2,0,5.465
1094,-2,-2,-1,0,0,0,0,0,5.47
1095,-1,-1,0,-1,-1,-2,-1,-1,5.4750000000000005
1096,0,-1,-2,0,-1,-1,-1,0,5.48
1097,-3,0,-1,0,-2,-2,0,-1,5.485
1098,0,-1,-1,0,0,0,-1,0,5.49
1099,-1,-1,0,-1,-1,-1,0,0,5.495
1100,1,0,0,-2,-1,-1,0,0,5.5
1101,1,2,0,0,0,0,-1,0,5.505
1102,0,1,-1,0,-1,-1,-1,0,5.51
1103,0,-3,-3,0,-1,0,-2,0,5.515
1104,0,-3,0,0,-2,-1,-1,-1,5.5200000000000005
1105,-2,-5,-2,-1,0,0,-1,-1,5.525
1106,-1,-3,-3,-2,0,1,0,-1,5.53
1107,1,-1,0,-2,-1,-1,-2,-1,5.535
1108,-2,-1,-1,-1,-1,-1,-1,-1,5.54
1109,-2,0,0,0,-1,-1,0,1,5.545
1110,-1,1,0,0,-2,-1,-2,-2,5.55
1111,0,-1,-2,0,0,-1,-1,-1,5.555
1112,1,0,-2,1,-2,0,0,-1,5.5600000000000005
1113,-1,1,-1,-2,0,-1,0,-1,5.565
1114,-2,-1,-1,-1,-1,0,-1,-2,5.57
1115,0,0,-1,-1,-2,-2,0,0,5.575
1116,0,-1,-1,0,0,-2,-2,0,5.58
1117,-1,-2,-2,-2,-1,0,-1,0,5.585
1118,-1,0,-1,0,0,0,0,-1,5.59
1119,0,-2,0,-1,0,0,-1,-1,5.595
1120,0,-1,-1,-1,-1,0,0,-1,5.6000000000000005
1121,0,-1,0,-1,-3,0,0,-1,5.605
1122,0,-1,-1,0,-2,-1,0,0,5.61
1123,-2,0,-1,-3,-1,-1,0,-1,5.615
1124,-1,0,-1,0,-1,-1,-2,-1,5.62
1125,0,0,-1,1,-1,0,0,0,5.625
1126,0,0,0,-1,0,-1,-1,-1,5.63
1127,-2,0,-1,1,-3,-1,0,-2,5.635
1128,0,0,-2,-1,-2,0,0,-1,5.64
1129,1,-2,-1,1,-2,-1,1,-3,5.6450000000000005
1130,0,-5,-1,0,0,-1,-1,0,5.65
1131,0,-3,-1,-2,0,-1,0,0,5.655
1132,-1,-1,0,-1,1,1,-1,-1,5.66
1133,0,-1,-1,-1,-1,0,-1,-1,5.665
1134,-2,-1,-1,0,-1,1,1,-1,5.67
1135,0,0,0,-2,0,0,-1,-1,5.675
1136,-1,1,-2,0,-1,-1,-1,-2,5.68
1137,0,-2,0,-3,0,-2,-1,0,5.6850000000000005
1138,-2,0,-1,0,-3,-1,-2,0,5.69
1139,-1,-2,0,-1,-2,-1,-1,0,5.695
1140,-2,-2,-1,-1,-1,-1,-1,0,5.7
1141,-2,0,0,0,-1,-1,-3,-1,5.705
1142,0,-1,1,-1,0,-1,0,0,5.71
1143,-2,0,-2,0,-3,0,-1,-2,5.715
1144,-1,-1,1,-1,0,-3,0,0,5.72
1145,-1,-1,-2,0,1,0,0,-1,5.7250000000000005
1146,-1,-1,0,-1,-2,-2,-1,0,5.73
1147,-2,0,1,0,1,1,-1,0,5.735
1148,-3,-1,-1,-1,1,0,-1,-1,5.74
1149,-3,-2,0,-1,-1,-2,-2,-1,5.745
1150,0,1,-2,-3,-1,1,-1,-1,5.75
1151,-2,-1,0,-2,0,0,0,0,5.755
1152,-1,-1,-2,-2,0,-1,2,-1,5.76
1153,-1,0,0,-1,0,-1,-1,0,5.765
1154,0,-1,-1,-1,-2,-1,0,-2,5.7700000000000005
1155,-1,-1,-1,0,-1,-1,-3,0,5.775
1156,1,-1,-1,1,-2,1,0,-1,5.78
1157,0,0,-1,0,-2,2,0,1,5.785
1158,-1,-1,-1,0,0,-2,1,-1,5.79
1159,-1,0,0,0,-1,0,-2,0,5.795
1160,0,-1,0,0,0,-1,-1,-1,5.8
1161,-1,-1,-2,-1,-1,-2,-2,-1,5.805
1162,-2,0,-2,-1,-2,1,-2,2,5.8100000000000005
1163,0,0,-3,0,-1,-1,-1,0,5.815
1164,-2,-1,-1,0,-1,1,-1,-2,5.82
1165,1,-2,-2,-1,-2,-1,0,0,5.825
1166,-2,0,-1,0,1,-1,0,-2,5.83
1167,0,0,-3,-1,0,-1,0,-1,5.835
1168,-1,-1,0,-1,-2,-2,1,-2,5.84
1169,0,0,-1,0,-1,1,0,-1,5.845
1170,1,-1,-2,-1,1,0,-1,-1,5.8500000000000005
1171,0,-2,0,-1,-1,-2,1,-1,5.855
1172,0,0,-1,-1,-1,-1,0,1,5.86
1173,-1,0,-1,-3,-2,-1,-1,-3,5.865
1174,-2,-1,-1,-1,-1,-1,1,0,5.87
1175,-2,0,2,-1,0,-2,-2,-1,5.875
1176,0,-1,-1,-1,-2,-1,-1,-1,5.88
1177,-2,0,-1,-1,-1,0,-1,-2,5.885
1178,-1,-1,-1,-1,-2,0,-1,-1,5.89
1179,-1,-2,-2,0,0,-1,0,-1,5.8950000000000005
1180,0,-2,-2,0,1,0,-2,-2,5.9
1181,-1,-3,-1,-1,-1,-1,-1,0,5.905
1182,0,-1,-1,0,0,-3,1,-2,5.91
1183,-2,0,-1,-2,-2,-1,-2,-1,5.915
1184,0,-2,0,-1,-2,-1,0,0,5.92
1185,0,0,0,0,1,-1,-2,-1,5.925
1186,-1,-1,-1,-2,0,-1,-2,-1,5.93
1187,-1,0,0,0,-1,-1,0,0,5.9350000000000005
1188,-2,-1,-1,-1,0,-2,-2,-1,5.94
1189,-1,-1,-1,-1,-2,0,-1,0,5.945
1190,0,-2,-1,0,-3,-2,-2,-1,5.95
1191,0,-1,-1,-1,-2,-1,0,0,5.955
1192,-2,1,-1,-1,-1,-1,-1,-1,5.96
1193,-1,-1,-1,-1,-1,-1,0,-1,5.965
1194,-2,-2,0,-2,0,-2,-2,0,5.97
1195,0,-1,-1,-1,-2,-2,0,0,5.9750000000000005
1196,0,0,-2,0,0,0,0,0,5.98
1197,-1,-2,0,-2,1,-1,-2,1,5.985
1198,-1,0,-1,-1,0,0,-1,0,5.99
1199,0,0,0,-1,0,-2,-1,-1,5.995
1200,0,-1,0,0,-2,0,0,0,6.0
1201,0,1,-1,0,-2,-2,0,-1,6.005
1202,-1,-2,-1,0,-1,0,-1,-1,6.01
1203,-2,0,-2,-2,0,0,0,-1,6.015000000000001
1204,0,-3,-1,-1,1,0,0,0,6.0200000000000005
1205,-3,-3,0,0,0,-1,1,-2,6.025
1206,0,0,0,-1,0,0,-1,0,6.03
1207,-2,0,-2,0,-2,1,-1,0,6.035
1208,0,0,0,-1,0,-2,-2,-2,6.04
1209,0,0,-1,-1,-2,-1,-2,0,6.045
1210,0,-1,-1,-1,0,-1,0,-1,6.05
1211,-1,-2,-1,0,-2,0,-1,-2,6.055
1212,-3,0,-1,0,0,0,0,0,6.0600000000000005
1213,0,-2,-1,-1,-1,-2,-2,-2,6.065
1214,-2,2,-1,-1,-2,-1,-2,-2,6.07
1215,0,-1,-2,-1,1,-1,-1,0,6.075
1216,-1,-2,-1,-1,-1,-1,0,0,6.08
1217,1,-2,0,0,-1,0,-1,-1,6.085
1218,-2,-3,-1,-2,-2,-2,0,-1,6.09
1219,0,-1,0,0,-1,-1,2,0,6.095
1220,1,-1,-2,-1,-1,0,0,-1,6.1000000000000005
1221,0,0,-1,-1,1,-1,-1,0,6.105
1222,0,-1,0,0,0,-1,-1,-3,6.11
1223,-1,0,-1,-2,0,0,-1,-1,6.115
1224,1,-1,0,0,-2,-2,-2,1,6.12
1225,0,-1,-2,-1,0,0,0,0,6.125
1226,-1,0,-1,0,-1,0,0,0,6.13
1227,1,-1,-1,1,0,0,-2,-1,6.135
1228,-1,0,0,-2,-1,0,0,-3,6.140000000000001
1229,-1,-1,0,-1,0,1,-1,0,6.1450000000000005
1230,-1,0,0,-2,0,-1,1,0,6.15
1231,-2,0,-1,0,-1,-2,0,-1,6.155
1232,-1,-2,0,0,-1,-1,-1,-2,6.16
1233,-2,0,-1,0,-2,0,1,-2,6.165
1234,-1,-1,0,-1,-2,0,-3,-1,6.17
1235,1,-1,-1,-1,-1,-1,-1,-1,6.175
1236,-4,1,0,-3,0,-2,1,1,6.18
1237,-1,-1,-2,0,0,-2,-1,0,6.1850000000000005
1238,-2,0,-2,1,-1,0,0,1,6.19
1239,-2,-2,-1,-3,-1,-1,-1,-2,6.195
1240,-2,-1,-1,-1,-2,-2,0,1,6.2
1241,-1,-2,-2,0,-1,0,-2,-1,6.205
1242,-1,-1,-2,2,0,0,-2,-1,6.21
1243,1,0,-1,0,0,0,0,-1,6.215
1244,-1,-3,-1,-1,0,-1,-1,-1,6.22
1245,1,0,1,-1,-1,-1,0,2,6.2250000000000005
1246,-1,-1,0,0,-1,0,-1,0,6.23
1247,-1,-1,-1,0,-2,-2,1,1,6.235
1248,0,1,-1,-1,-2,-1,-1,-1,6.24
1249,0,1,0,0,0,-2,0,-2,6.245
1250,1,-1,-1,0,0,-2,-1,0,6.25
1251,-1,-1,-1,-2,-1,0,-1,-1,6.255
1252,-1,-1,-1,0,0,0,1,-2,6.26
1253,-1,-2,0,0,-1,-1,0,-1,6.265000000000001
1254,-2,-3,-1,-1,1,-1,-1,-1,6.2700000000000005
1255,-1,0,-3,0,-1,-1,-1,-3,6.275
1256,1,-2,-2,0,-1,-1,-2,-1,6.28
1257,-1,-2,-1,-1,-1,-1,-2,-2,6.285
1258,0,-1,-1,-2,-1,1,1,-1,6.29
1259,-1,0,1,0,-1,-1,-1,-1,6.295
1260,-1,-1,-1,-1,-1,0,-1,-1,6.3
1261,-1,0,-1,0,-2,-1,0,-1,6.305
1262,0,0,1,-1,1,-1,-1,0,6.3100000000000005
1263,-1,-1,0,1,-1,0,-1,0,6.315
1264,-1,-1,-2,-1,-2,-1,-1,-1,6.32
1265,0,1,-2,-2,-1,0,-1,0,6.325
1266,1,-2,-1,0,0,-3,-1,-1,6.33
1267,0,0,-1,-1,-1,0,-3,-1,6.335
1268,-1,0,-1,1,0,-2,-2,-1,6.34
1269,-1,-1,0,0,-2,-1,0,-1,6.345
1270,0,-2,0,-1,-3,-1,0,0,6.3500000000000005
1271,1,-2,-1,-1,-1,0,-1,-1,6.355
1272,-1,0,0,-1,1,-1,-1,0,6.36
1273,-1,-1,-3,0,1,0,0,-1,6.365
1274,0,-1,0,-1,-2,-1,0,-1,6.37
1275,-2,0,-2,-1,-2,0,-1,0,6.375
1276,0,0,-1,-1,0,0,0,-1,6.38
1277,-1,-1,1,-1,-1,-2,1,0,6.385
1278,-1,-1,-1,0,-1,1,-1,0,6.390000000000001
1279,-1,-1,-1,-1,-2,0,-1,-1,6.3950000000000005
1280,1,-1,-1,-1,-1,1,0,0,6.4
1281,-1,-1,0,0,0,-1,1,-1,6.405
1282,-1,-1,-2,-1,0,1,0,-1,6.41
1283,-2,-2,-2,0,-1,-1,-2,1,6.415
1284,-2,-1,-1,0,-2,-1,1,0,6.42
1285,0,-1,-1,-1,-1,-1,-1,-1,6.425
1286,-2,0,0,0,-1,-1,0,-2,6.43
1287,0,-1,-2,-1,0,-1,-1,-1,6.4350000000000005
1288,-1,-2,-1,-1,-1,-1,-1,0,6.44
1289,0,-1,-2,0,-2,-2,-1,0,6.445
1290,-1,-1,0,0,-1,-1,-1,-1,6.45
1291,-1,-1,0,0,-1,-2,0,-1,6.455
1292,-1,1,-1,-1,-2,0,-2,-1,6.46
1293,0,-1,-1,-2,-1,-1,0,-1,6.465
1294,0,0,-1,-1,-2,-2,-2,-2,6.47
1295,0,-2,-1,-1,0,-1,0,-1,6.4750000000000005
1296,0,-3,0,-2,1,-1,0,-2,6.48
1297,-1,-1,-2,-2,-1,-1,-2,-1,6.485
1298,0,0,0,-1,-3,-2,-1,0,6.49
1299,-1,-2,-2,-1,-1,0,-1,-1,6.495
1300,-2,-1,-1,-1,0,0,-1,-2,6.5
1301,-1,-2,0,1,-1,1,-2,-1,6.505
1302,-1,-1,-2,-2,-1,-1,-1,-1,6.51
1303,-1,-1,0,0,0,-1,1,1,6.515000000000001
1304,-1,-1,-1,0,-2,-1,-1,-1,6.5200000000000005
1305,-1,-1,-2,-1,0,-2,-1,-1,6.525
1306,-1,0,-1,-1,-1,1,-2,0,6.53
1307,-2,0,-1,0,-1,1,2,0,6.535
1308,0,0,0,-1,-2,0,-2,0,6.54
1309,-2,1,-2,0,-1,-1,0,-1,6.545
1310,-2,-1,-1,-1,0,-1,0,0,6.55
1311,-2,0,-1,-1,0,-1,0,-1,6.555
1312,0,-1,0,0,-1,1,0,-2,6.5600000000000005
1313,-1,0,-1,0,-1,-1,-1,0,6.565
1314,0,-1,-1,0,-1,-2,-1,-2,6.57
1315,1,0,0,-2,-1,1,-2,0,6.575
1316,-1,-1,-1,0,-1,-2,-1,-1,6.58
1317,2,-3,-1,-1,1,-1,1,-1,6.585
1318,0,-2,0,-2,0,0,-1,-2,6.59
1319,1,-1,0,-1,-1,-1,0,0,6.595
1320,-2,0,-1,-1,0,-1,-1,0,6.6000000000000005
1321,-2,-1,0,-2,-2,-1,-2,-1,6.605
1322,-1,-1,-1,-1,0,0,-2,-1,6.61
1323,1,0,0,-1,-1,-2,0,-2,6.615
1324,0,-1,-1,-1,-1,-1,0,0,6.62
1325,-2,-1,-2,-1,0,-1,-1,-1,6.625
1326,-3,0,0,-1,-2,0,0,-1,6.63
1327,-1,-1,-1,1,0,-2,-2,0,6.635
1328,0,0,-1,-1,-1,-1,-2,0,6.640000000000001
1329,0,-1,1,0,-2,0,-1,0,6.6450000000000005
1330,2,1,-1,-1,-1,1,-1,-1,6.65
1331,-1,0,0,-2,-1,-1,-1,-1,6.655
1332,0,-1,-1,-1,-1,-1,-2,-1,6.66
1333,-2,0,-1,0,0,-2,0,0,6.665
1334,0,0,-2,-1,-2,0,-1,-1,6.67
1335,-2,-1,0,0,0,0,-1,0,6.675
1336,-1,-3,-1,-1,-1,-1,-2,-1,6.68
1337,-1,-1,1,-2,0,0,0,-1,6.6850000000000005
1338,-2,-1,-2,-1,-2,-1,-2,0,6.69
1339,-2,0,0,-1,0,-1,0,-2,6.695
1340,-2,-1,-1,-1,-1,-2,0,-2,6.7
1341,0,-1,1,-1,-1,-1,0,-1,6.705
1342,0,-1,-1,0,1,-1,-1,-1,6.71
1343,-1,-1,-3,-1,-3,1,-2,-1,6.715
1344,1,0,0,1,0,1,0,1,6.72
1345,-1,-1,-2,0,-2,-1,-2,-1,6.7250000000000005
1346,0,0,-1,-2,0,-1,0,-1,6.73
1347,0,-2,-1,-1,0,-1,1,-2,6.735
1348,-1,-2,0,-1,-2,0,0,0,6.74
1349,0,-1,-2,-1,0,0,-1,-1,6.745
1350,0,0,-2,0,-1,-2,-1,0,6.75
1351,-1,-2,-1,0,-1,-2,-2,1,6.755
1352,-1,-1,-2,-2,-1,-1,-1,1,6.76
1353,0,-1,-1,0,-1,0,-1,-1,6.765000000000001
1354,1,-1,0,-1,-2,-1,0,-1,6.7700000000000005
1355,-1,-1,0,0,-1,0,-1,-1,6.775
1356,-1,0,-1,-2,-1,-1,-1,-3,6.78
1357,-1,0,0,-1,0,0,-1,0,6.785
1358,-1,0,-1,0,1,0,0,0,6.79
1359,-1,-1,0,-3,-1,0,-1,1,6.795
1360,-1,0,-1,-2,-1,-2,-2,-2,6.8
1361,1,0,-1,0,0,0,-1,-1,6.805
1362,-2,-3,0,0,0,-2,1,0,6.8100000000000005
1363,0,-1,-1,0,-2,-1,1,-1,6.815
1364,-1,-1,-1,-1,-1,-1,0,0,6.82
1365,-2,-1,-1,-1,-3,-2,-2,-1,6.825
1366,1,-1,-1,-2,-1,0,-1,-1,6.83
1367,-1,0,-1,0,-1,-1,-2,-1,6.835
1368,-2,-1,0,0,0,0,1,1,6.84
1369,1,-1,0,-1,0,-1,-2,-1,6.845
1370,-2,-1,-2,0,-2,0,-1,-1,6.8500000000000005
1371,-2,0,-1,-1,0,-1,0,-1,6.855
1372,-1,0,0,0,-1,0,-1,-1,6.86
1373,-1,0,1,0,-1,-1,0,-1,6.865
1374,-2,-1,-2,0,-2,-2,0,0,6.87
1375,-1,0,-1,0,0,-2,-1,-2,6.875
1376,-2,2,-2,-1,-1,-1,0,-1,6.88
1377,-1,-1,-1,-1,-1,-1,1,1,6.885
1378,-1,-1,0,-2,-2,0,-3,0,6.890000000000001
1379,0,-1,0,0,-1,-1,-1,0,6.8950000000000005
1380,0,-3,0,0,-1,-1,-1,0,6.9
1381,-1,-2,-1,-1,0,-1,-1,-2,6.905
1382,0,-2,-1,-1,1,0,-2,-2,6.91
1383,-1,-2,-1,-1,0,1,-1,-1,6.915
1384,0,-1,-2,-1,-1,-2,-1,-2,6.92
1385,0,0,-1,-2,-2,0,0,-2,6.925
1386,0,0,-3,-2,0,-2,0,0,6.93
1387,0,1,0,-2,0,0,-1,-1,6.9350000000000005
1388,0,0,-1,-1,-1,0,-1,-1,6.94
1389,-2,-1,-2,1,-1,1,-1,-2,6.945
1390,-1,0,-1,0,-1,1,-1,-1,6.95
1391,-1,-1,-1,-1,-2,-1,-1,-1,6.955
1392,0,-2,0,0,-2,-1,-1,-1,6.96
1393,-1,-1,-1,-1,-2,-2,-1,-2,6.965
1394,1,0,0,0,-1,0,0,-3,6.97
1395,-1,1,-2,-1,1,-1,-2,0,6.9750000000000005
1396,-1,0,-1,-2,-1,0,-1,0,6.98
1397,0,-1,-1,0,-2,0,-2,-1,6.985
1398,0,0,0,0,-3,-2,-1,1,6.99
1399,1,-3,0,0,0,-1,0,0,6.995
1400,-2,-1,-1,-2,-3,-1,-1,-3,7.0
1401,1,0,0,-1,-1,-2,-1,-2,7.005
1402,-2,-1,-1,-1,0,-1,-1,-2,7.01
1403,-1,-1,0,-1,-2,-1,-1,-1,7.015000000000001
1404,0,0,0,0,0,-1,0,0,7.0200000000000005
1405,-3,-1,0,-1,-1,0,-1,1,7.025
1406,-1,-1,0,-1,-1,-1,0,-2,7.03
1407,-1,-1,-1,-1,-2,-1,0,0,7.035
1408,-1,-2,-1,0,0,-1,-2,0,7.04
1409,-1,-1,0,-1,-1,-1,-2,0,7.045
1410,-1,-1,0,0,-2,-1,0,-2,7.05
1411,-1,0,0,-1,-1,0,0,-2,7.055
1412,-1,0,-1,0,0,1,-1,-1,7.0600000000000005
1413,-1,0,-1,-1,0,1,2,1,7.065
1414,-2,-2,-2,-3,-1,0,-1,0,7.07
1415,0,-1,0,0,-2,-1,-1,-2,7.075
1416,-2,0,-1,-2,-2,1,1,0,7.08
1417,-1,-2,-2,-1,-1,-1,-1,-1,7.085
1418,0,0,-1,-1,0,0,-1,-1,7.09
1419,-1,-2,-2,-1,0,0,-1,-2,7.095
1420,-1,0,0,-2,0,0,-2,0,7.1000000000000005
1421,-1,-1,0,-1,-1,-2,-1,1,7.105
1422,0,-1,-1,0,-2,-1,-2,0,7.11
1423,0,-1,1,-1,1,-2,0,0,7.115
1424,1,-1,-2,-1,-2,-1,0,-1,7.12
1425,0,-2,-1,-1,0,-1,-1,-2,7.125
1426,-1,1,0,-1,-4,-2,0,-1,7.13
1427,0,-1,0,-1,-3,-1,-2,-1,7.135
1428,0,-2,-1,0,-2,-1,-1,0,7.140000000000001
1429,-2,0,-1,-2,-1,-1,0,-1,7.1450000000000005
1430,1,-1,0,0,0,-1,0,-1,7.15
1431,-2,-1,0,-2,-1,-1,0,-1,7.155
1432,-1,-1,0,-1,1,-2,1,-2,7.16
1433,-1,-1,-2,-1,-3,-1,-1,-1,7.165
1434,0,0,-1,-1,0,-2,0,0,7.17
1435,-2,-1,-1,0,-1,-1,-2,-1,7.175
1436,-1,-1,-2,0,-2,-2,-2,0,7.18
1437,-2,-2,-2,0,1,0,-1,-1,7.1850000000000005
1438,-2,-1,0,-2,-1,0,-2,-1,7.19
1439,-2,-1,0,-1,0,0,-1,0,7.195
1440,-1,-1,-2,0,-1,0,-1,-2,7.2
1441,-1,0,0,-1,-1,-2,-1,-1,7.205
1442,-1,0,0,-2,-1,1,-2,-1,7.21
1443,-1,0,-2,1,-1,-3,-1,0,7.215
1444,-1,-2,1,0,-1,0,-1,-1,7.22
1445,-1,0,-1,0,0,-1,1,0,7.2250000000000005
1446,0,-2,-1,0,-1,0,1,-1,7.23
1447,-1,2,-3,-1,-2,1,1,-1,7.235
1448,-1,-1,-1,-1,-1,-1,-1,-1,7.24
1449,0,0,-1,0,0,1,-1,-2,7.245
1450,-1,-1,0,0,-1,0,-1,-1,7.25
1451,2,-2,-1,0,-1,-1,-1,0,7.255
1452,0,-2,-1,-1,-1,-1,-1,-1,7.26
1453,-1,-1,0,0,-2,0,-2,0,7.265000000000001
1454,-3,0,-1,-1,-1,-2,-1,-1,7.2700000000000005
1455,0,0,0,-1,0,0,0,-2,7.275
1456,-1,2,-2,0,0,-1,-1,-1,7.28
1457,0,-1,0,0,-3,0,-1,-1,7.285
1458,-1,-1,-1,-1,1,0,0,0,7.29
1459,-2,-2,0,0,-2,0,-1,0,7.295
1460,-2,-1,-1,0,-3,-4,-2,-2,7.3
1461,0,-1,-2,-1,0,0,1,-1,7.305
1462,-1,-3,-2,1,-2,-1,0,-1,7.3100000000000005
1463,-1,0,0,-2,-1,-2,-1,0,7.315
1464,-1,-2,-1,-1,-2,-1,1,-1,7.32
1465,0,-1,-2,-1,-1,-2,-1,1,7.325
1466,0,-1,-1,1,-1,-1,-3,-1,7.33
1467,-2,-2,0,0,-1,-1,0,-2,7.335
1468,0,-1,0,0,-1,-2,0,-1,7.34
1469,-1,-2,-2,0,0,-1,-2,-2,7.345
1470,-2,-1,-3,-1,-1,0,-1,-1,7.3500000000000005
1471,-1,-1,-2,-2,0,-2,-1,0,7.355
1472,0,0,-2,0,1,1,-1,-2,7.36
1473,1,-2,-2,-1,-2,-2,0,-1,7.365
1474,-1,0,1,-1,-1,-1,-1,0,7.37
1475,-3,-1,-1,-1,-1,-1,0,-1,7.375
1476,0,0,1,-1,0,0,-1,0,7.38
1477,-1,0,0,-1,0,-1,-1,-1,7.385
1478,2,-1,-1,0,-1,-2,0,-1,7.390000000000001
1479,0,-1,-1,-1,-3,-1,-2,-1,7.3950000000000005
1480,-1,0,-1,2,0,1,-3,1,7.4
1481,-1,-1,-1,0,-2,-1,-1,0,7.405
1482,0,-1,-2,-1,-2,0,-1,0,7.41
1483,-1,-1,-1,-1,-1,0,-1,-2,7.415
1484,-1,0,-2,0,-2,-1,0,-1,7.42
1485,-1,0,0,0,-1,-2,-2,-1,7.425
1486,0,-1,0,-2,0,0,-1,-1,7.43
1487,1,-1,-1,-1,-1,-1,0,-1,7.4350000000000005
1488,0,0,0,-2,1,0,0,0,7.44
1489,-2,0,-1,0,-1,0,0,-1,7.445
1490,-1,-1,0,-2,-1,0,0,0,7.45
1491,0,-2,-1,1,-1,0,-2,-2,7.455
1492,-1,-1,-2,-1,0,0,-2,0,7.46
1493,-1,-1,0,1,-2,0,-2,0,7.465
1494,-1,1,-1,1,1,-2,0,-1,7.47
1495,1,1,1,0,-1,0,1,0,7.4750000000000005
1496,-1,-3,-1,-1,-1,-1,-1,-1,7.48
1497,0,-2,-1,-1,-2,-1,-1,-2,7.485
1498,-2,1,0,0,0,-1,-1,0,7.49
1499,-2,-1,-1,-2,0,-1,-1,-1,7.495
1500,0,0,-2,-1,0,-2,0,-2,7.5
1501,-1,-1,0,-2,-1,-1,1,-1,7.505
1502,0,0,0,-1,-2,-2,-1,0,7.51
1503,0,-1,-1,0,0,0,-1,-1,7.515000000000001
1504,-2,-2,0,-1,-2,1,-2,-1,7.5200000000000005
1505,-1,-1,-2,-1,-1,-1,-1,-1,7.525
1506,0,0,-3,-1,0,0,0,-2,7.53
1507,-1,1,0,-1,-1,1,0,0,7.535
1508,-2,0,-1,-1,-1,-1,-1,-3,7.54
1509,-2,-1,-2,-1,-1,-2,0,-2,7.545
1510,0,0,0,0,0,-1,-2,1,7.55
1511,-1,-1,0,-1,-1,-1,-1,0,7.555
1512,-1,-1,-1,1,-2,-2,0,0,7.5600000000000005
1513,-1,-1,0,-1,-1,0,-1,-1,7.565
1514,2,0,0,-1,-1,0,-1,0,7.57
1515,-2,-1,-2,-1,-1,-1,-2,-1,7.575
1516,2,0,0,-1,0,0,0,0,7.58
1517,0,-1,-3,-2,0,0,-2,0,7.585
1518,-1,-1,-1,0,-1,-2,-2,-1,7.59
1519,-1,-1,-1,0,-2,-1,-1,-1,7.595
1520,-1,-1,-1,-2,1,-2,-1,0,7.6000000000000005
1521,0,0,-1,0,0,-1,-2,-1,7.605
1522,-4,-2,0,0,-1,1,0,0,7.61
1523,0,-1,-1,-1,1,-2,1,-3,7.615
1524,0,-1,0,-1,-1,0,-1,0,7.62
1525,0,-1,0,-2,1,-1,-1,-1,7.625
1526,0,-4,-1,1,-2,-2,-1,0,7.63
1527,0,-2,-1,-1,-2,-2,-2,-1,7.635
1528,0,-2,-1,-1,0,0,0,-1,7.640000000000001
1529,-3,-1,-1,-1,-1,-2,-2,-1,7.6450000000000005
1530,-1,-2,0,-1,-1,0,-1,-1,7.65
1531,-1,-1,-2,0,-1,0,1,-2,7.655
1532,0,0,0,0,-1,-2,-2,-2,7.66
1533,1,-2,-1,-1,-1,0,1,0,7.665
1534,-1,0,-1,-1,0,0,0,-2,7.67
1535,0,-2,0,-3,0,-1,-1,1,7.675
1536,0,-2,-1,0,-1,0,0,1,7.68
1537,-1,0,-1,0,-1,-1,0,-1,7.6850000000000005
1538,0,-1,0,-2,-2,0,-2,-1,7.69
1539,-1,0,-1,-2,1,-1,-1,-1,7.695
1540,0,-1,-1,-2,-2,-1,0,-3,7.7
1541,0,-2,-1,0,-1,-1,0,1,7.705
1542,-1,-1,-1,0,1,-1,0,-1,7.71
1543,-2,-1,-1,0,-1,-1,-2,1,7.715
1544,-2,-2,0,-1,-1,-2,-1,-2,7.72
1545,-1,-1,-1,-2,-2,-1,0,-2,7.7250000000000005
1546,-1,-2,-2,-2,0,-3,0,-2,7.73
1547,-2,1,-1,-1,-1,0,-1,2,7.735
1548,0,0,-1,-1,1,0,-1,0,7.74
1549,-1,-1,-2,-1,0,1,0,-1,7.745
1550,0,-1,-1,-2,-1,-2,-1,0,7.75
1551,0,-3,-1,-1,-1,-1,-1,-3,7.755
1552,-1,-1,-1,-1,0,0,0,-1,7.76
1553,1,0,0,0,0,0,0,-1,7.765000000000001
1554,-2,0,-2,0,0,-1,-2,-2,7.7700000000000005
1555,1,0,-2,1,-1,-1,-2,-1,7.775
1556,-2,-1,0,-1,-1,0,-1,0,7.78
1557,0,0,-1,-2,-1,-1,-1,-2,7.785
1558,-2,0,-1,2,-3,-1,0,0,7.79
1559,0,-1,1,-1,0,0,-2,0,7.795
1560,-1,-1,-1,-2,-1,-1,-2,0,7.8
1561,-1,-1,1,-1,-2,-1,0,0,7.805000000000001
1562,0,-2,-2,-1,-2,1,-2,1,7.8100000000000005
1563,0,-1,-1,-1,1,-2,1,-1,7.815
1564,-1,1,0,0,0,-1,-1,1,7.82
1565,-1,-1,-3,0,0,-1,-1,-1,7.825
1566,-1,-2,-1,-3,0,0,-1,0,7.83
1567,1,0,0,0,-1,-1,-1,-2,7.835
1568,-2,-1,0,-2,-1,-2,-1,0,7.84
1569,-1,-2,-1,-1,1,-1,-2,0,7.845
1570,-1,0,-1,0,-2,-2,0,-1,7.8500000000000005
1571,-2,-2,-2,-2,0,0,0,-1,7.855
1572,0,-1,0,-1,0,0,1,-1,7.86
1573,0,-1,0,-1,1,-2,0,-1,7.865
1574,-1,-1,-1,-2,0,-1,1,-1,7.87
1575,-2,-2,-1,-1,0,0,0,-1,7.875
1576,0,0,-2,-1,0,-1,0,-2,7.88
1577,-2,1,0,-1,-1,0,-1,-3,7.885
1578,-1,-1,-1,0,-1,-1,-1,0,7.890000000000001
1579,2,-1,1,0,0,0,-1,-1,7.8950000000000005
1580,-1,-2,0,0,-1,0,-1,0,7.9
1581,0,0,-2,0,-1,0,-2,-1,7.905
1582,0,0,-1,0,0,-1,0,-2,7.91
1583,-2,0,-1,-1,-2,-1,0,0,7.915
1584,-1,-2,-1,0,-1,-1,-2,-2,7.92
1585,1,-4,0,-1,0,0,-1,-1,7.925
1586,-1,0,-1,-2,-2,-1,-3,-1,7.930000000000001
1587,-2,-1,-1,0,-1,0,-1,0,7.9350000000000005
1588,-1,0,-1,-1,-3,-2,0,-1,7.94
1589,-2,0,-1,-1,-1,-1,-2,-1,7.945
1590,-1,-2,-2,-1,1,0,-1,0,7.95
1591,0,-1,-1,0,-3,-2,-1,-1,7.955
1592,0,-2,-1,-1,0,1,0,-1,7.96
1593,0,-2,-2,-1,-1,-3,0,-2,7.965
1594,1,0,-1,-2,0,-1,0,-2,7.97
1595,-1,-1,-1,0,0,-2,-1,-1,7.9750000000000005
1596,-1,0,-1,0,-2,-1,-1,-1,7.98
1597,0,1,-1,-1,-1,0,0,0,7.985
1598,0,-2,0,0,-1,-3,-2,0,7.99
1599,0,-3,-2,-2,0,1,1,0,7.995
1600,0,0,-1,-1,0,0,-1,0,8.0
1601,-2,-2,0,-1,-2,0,-1,1,8.005
1602,0,-1,-1,-1,-2,0,1,0,8.01
1603,-2,-1,0,-2,0,0,0,-1,8.015
1604,0,-2,-1,-1,1,-1,-1,0,8.02
1605,-2,1,-1,-1,-2,0,-1,0,8.025
1606,0,-1,-1,-1,-1,-1,-1,0,8.03
1607,-2,-2,0,0,-1,1,-2,-1,8.035
1608,0,0,-3,-2,0,0,0,0,8.040000000000001
1609,-1,-1,-1,-1,-1,0,-1,0,8.045
1610,-1,0,0,-1,0,0,0,-1,8.05
1611,-1,0,-1,-2,-2,-2,0,0,8.055
1612,-1,-1,1,-2,-2,-2,-2,-2,8.06
1613,-2,-1,0,0,-2,-1,0,0,8.065
1614,0,0,-1,0,0,0,-1,-1,8.07
1615,-1,0,-1,0,0,-1,-1,-1,8.075
1616,0,9,0,0,0,0,0,-2,8.08
1617,-2,9,-2,-3,-1,-1,-1,-1,8.085
1618,-2,-1,1,0,0,-1,0,-1,8.09
1619,-2,-7,-3,0,0,-2,0,0,8.095
1620,-2,-10,-2,-1,-1,-1,-1,0,8.1
1621,0,-9,-1,0,0,-1,-1,-2,8.105
1622,1,-4,-1,-2,-1,-1,-1,0,8.11
1623,-2,-3,0,-1,-1,-1,0,-1,8.115
1624,-1,-3,2,0,-2,-2,0,0,8.120000000000001
1625,-1,-1,-1,-1,0,0,-1,0,8.125
1626,-2,-1,0,-1,-2,0,-1,0,8.13
1627,0,2,0,-2,0,0,-2,-1,8.135
1628,0,-1,0,-1,-2,1,-1,0,8.14
1629,-1,0,0,0,1,-1,-2,-1,8.145
1630,0,-1,-1,-1,0,-1,-1,-1,8.15
1631,-1,2,0,1,0,0,0,-2,8.155
1632,-2,-1,-1,-1,-1,-1,-2,1,8.16
1633,0,-2,-2,0,-2,0,0,0,8.165000000000001
1634,-2,0,-3,0,-3,1,0,-1,8.17
1635,-3,0,0,-1,-1,-1,-2,-2,8.175
1636,0,0,-1,-1,-1,-1,-1,-3,8.18
1637,1,-2,-1,-2,-1,-1,-1,-1,8.185
1638,-1,1,0,0,0,-1,0,1,8.19
1639,-2,-1,-2,0,0,-1,-1,-1,8.195
1640,-1,-3,-2,-2,-1,-2,-1,-2,8.2
1641,-2,-2,0,-1,-2,0,0,0,8.205
1642,0,-1,1,-1,-2,-1,0,-1,8.21
1643,1,0,-1,-1,1,-1,0,-1,8.215
1644,0,0,-1,-1,0,0,-1,-1,8.22
1645,-1,1,-1,0,0,-1,-1,-1,8.225
1646,0,2,-2,-1,-2,1,-2,0,8.23
1647,-1,-2,1,0,-1,1,0,0,8.235
1648,-1,-1,-1,0,-1,-1,0,-1,8.24
1649,0,-1,-1,-1,-1,-2,1,0,8.245000000000001
1650,-1,-2,-1,-1,0,1,-1,-1,8.25
1651,1,0,-1,-2,-1,-2,0,-1,8.255
1652,1,0,-1,1,-2,0,-2,-2,8.26
1653,-1,0,-1,-2,1,-1,0,0,8.265
1654,-3,-1,-1,0,0,-2,-1,0,8.27
1655,-1,-2,-3,-2,-2,0,-1,-2,8.275
1656,-1,-2,-1,0,0,-2,1,0,8.28
1657,0,-1,-1,-1,-1,-2,-1,-2,8.285
1658,0,-1,-1,-2,-1,0,-1,-1,8.290000000000001
1659,0,-1,-2,-1,0,-1,-1,1,8.295
1660,-2,-2,-2,1,-1,-2,-2,0,8.3
1661,-2,-1,-1,1,-1,-1,-2,0,8.305
1662,-1,-1,-2,0,-1,-2,-2,-2,8.31
1663,0,-1,-1,-1,-1,0,-1,-2,8.315
1664,-1,-1,-1,0,0,-1,0,-1,8.32
1665,-1,-1,-1,0,-2,-1,0,0,8.325
1666,-1,0,-1,-1,0,0,-1,-1,8.33
1667,-2,-2,-1,0,-2,-1,-2,0,8.335
1668,-3,-1,-1,0,-2,0,-1,-2,8.34
1669,0,-2,0,-2,0,-2,-2,-2,8.345
1670,0,-1,-1,1,0,-1,1,0,8.35
1671,-2,1,0,-1,0,-1,-2,-1,8.355
1672,0,0,0,-2,0,-1,-1,1,8.36
1673,-3,-2,-3,1,-1,-1,-2,-1,8.365
1674,0,-1,0,-1,-1,0,0,1,8.370000000000001
1675,-1,-1,0,0,-2,-1,-2,1,8.375
1676,0,0,0,-1,-1,-1,-1,-1,8.38
1677,1,-1,0,0,0,0,0,-2,8.385
1678,0,-1,-1,-1,-2,-2,-1,-1,8.39
1679,0,-1,-1,-1,0,0,0,-1,8.395
1680,-1,-3,-2,-1,-1,0,-1,0,8.4
1681,-1,-1,0,-1,-1,-1,0,-1,8.405
1682,-1,-1,-1,-1,-2,0,-1,-1,8.41
1683,-1,-1,-1,0,0,1,0,-1,8.415000000000001
1684,-2,-1,-1,-2,0,-1,-1,0,8.42
1685,-1,0,-1,1,-2,-2,0,-1,8.425
1686,-1,-2,1,0,-1,0,0,-1,8.43
1687,0,0,-2,-1,0,-1,0,-1,8.435
1688,0,0,-2,-1,-1,-1,0,-2,8.44
1689,0,-1,-2,0,-1,-1,-2,1,8.445
1690,-2,-1,-1,0,0,-3,0,-2,8.45
1691,-1,1,-1,-1,-1,0,-2,-2,8.455
1692,0,0,0,0,0,-1,0,-1,8.46
1693,-2,0,-1,0,-2,-1,0,0,8.465
1694,-2,0,-1,-2,0,-1,-2,-1,8.47
1695,0,0,-1,-1,-2,-1,0,-1,8.475
1696,-1,-1,0,0,-1,-1,-2,-1,8.48
1697,-1,0,-2,0,0,0,1,-1,8.485
1698,-1,1,-2,1,0,0,0,-1,8.49
1699,-2,-1,-1,0,0,-1,2,0,8.495000000000001
1700,1,-1,-2,-1,-1,-1,-1,0,8.5
1701,-1,-1,-1,-1,0,-1,0,-2,8.505
1702,-1,-1,-2,0,-2,-1,0,0,8.51
1703,0,0,-1,-1,-2,0,1,-1,8.515
1704,-1,-1,-1,-1,-1,-1,0,-2,8.52
1705,0,0,-1,-1,-1,0,-3,0,8.525
1706,-2,1,0,0,1,-3,-1,-2,8.53
1707,0,-2,-1,-1,-2,-2,-1,-1,8.535
1708,-1,-1,-1,0,1,0,1,0,8.540000000000001
1709,0,0,-2,0,-1,0,-1,-1,8.545
1710,-1,-1,-1,-1,-2,-2,-1,-1,8.55
1711,0,0,0,0,-2,-1,-1,1,8.555
1712,-1,0,-1,0,-2,-1,-2,-1,8.56
1713,-1,-1,0,-1,1,0,1,0,8.565
1714,2,0,0,-2,-2,0,0,0,8.57
1715,0,-1,1,0,0,-1,-1,-1,8.575000000000001
1716,-2,-2,1,-1,-2,-1,0,0,8.58
1717,-2,-1,-1,-1,-1,-1,-2,0,8.585
1718,0,-2,-3,0,-1,-2,-1,-1,8.59
1719,-1,-1,-1,0,0,-2,-1,-1,8.595
1720,-1,-1,-1,0,0,-1,-1,-2,8.6
1721,1,0,-1,-1,1,-2,1,-1,8.605
1722,-1,-2,1,-2,0,0,-1,0,8.61
1723,-2,-1,-1,-2,0,-1,-2,0,8.615
1724,-1,-1,0,1,-1,-1,2,0,8.620000000000001
1725,-1,-2,-1,-1,-1,0,-2,-1,8.625
1726,0,1,1,-1,0,-1,0,0,8.63
1727,-1,-1,-2,1,-1,-2,-1,-1,8.635
1728,-1,1,-1,0,-1,0,-1,1,8.64
1729,-1,0,-2,-1,-2,-2,1,-1,8.645
1730,-1,-1,-1,-1,-1,-1,-1,-1,8.65
1731,0,-1,-1,-1,-2,1,-1,0,8.655
1732,-1,-1,-1,-1,-1,-1,2,0,8.66
1733,0,0,-1,-1,-1,-2,-2,-2,8.665000000000001
1734,-1,-1,-1,0,0,1,-3,-2,8.67
1735,0,0,-1,-1,0,-2,-2,0,8.675
1736,-1,-1,-1,0,-1,-1,-3,-2,8.68
1737,-1,0,1,0,0,0,-1,-2,8.685
1738,0,-2,-1,-2,-1,-1,1,0,8.69
1739,-2,-2,-1,0,0,-1,0,0,8.695
1740,1,-1,-2,-2,-1,-1,-1,0,8.700000000000001
1741,0,-1,-3,0,-2,0,-1,-1,8.705
1742,-1,-1,-1,-1,-1,0,-1,0,8.71
1743,-1,0,-1,-1,-1,-1,-2,-1,8.715
1744,0,0,-1,0,-1,0,-2,-2,8.72
1745,-1,0,0,0,-2,-1,-1,0,8.725
1746,0,0,0,-1,1,-1,0,0,8.73
1747,-1,-1,-1,-1,-2,0,0,-2,8.735
1748,0,0,-1,0,0,-1,-1,-2,8.74
1749,-1,0,-2,0,-1,-1,0,0,8.745000000000001
1750,-1,0,-1,0,-1,0,0,0,8.75
1751,-1,0,-1,-1,-1,0,-1,0,8.755
1752,-1,-2,0,-1,0,-2,-1,0,8.76
1753,1,-3,-1,0,-1,-1,-2,-1,8.765
1754,0,-2,-1,-1,-1,-2,-1,-1,8.77
1755,0,-2,-1,0,1,0,-1,-1,8.775
1756,0,0,-2,0,-2,0,-2,1,8.78
1757,0,-1,0,-1,1,-2,0,0,8.785
1758,-1,0,-1,-3,-2,-1,-1,-2,8.790000000000001
1759,-1,-1,0,-2,-1,-1,0,0,8.795
1760,0,0,-2,-1,0,1,-1,-2,8.8
1761,-2,-1,0,-2,-2,-1,0,0,8.805
1762,-1,0,-3,1,-1,-1,0,0,8.81
1763,-1,0,0,-1,0,0,-2,1,8.815
1764,0,1,0,-1,0,0,2,2,8.82
1765,-1,-2,0,-1,-1,-1,1,-1,8.825000000000001
1766,-1,-1,-1,-1,-3,-3,-2,-2,8.83
1767,-1,-2,0,0,0,-1,1,0,8.835
1768,0,-1,-1,-2,0,-1,-1,-2,8.84
1769,0,-2,-1,0,-1,0,1,0,8.845
1770,0,-2,-1,1,-1,-1,-1,-1,8.85
1771,-1,0,-1,0,-2,-3,-1,-2,8.855
1772,-1,-2,-1,-2,0,-1,-1,-1,8.86
1773,0,-1,0,-1,1,0,-2,0,8.865
1774,0,-2,-2,-2,0,0,0,0,8.870000000000001
1775,0,0,-1,0,0,-1,-1,-1,8.875
1776,-2,-1,0,1,-2,-1,-1,0,8.88
1777,-3,1,-1,0,0,-1,0,-2,8.885
1778,-1,-1,0,1,0,-1,1,0,8.89
1779,-1,1,-1,-1,1,0,-1,0,8.895
1780,-2,-3,-1,-1,0,-2,-1,0,8.9
1781,0,0,0,0,0,0,0,-1,8.905
1782,1,0,-1,-1,0,-1,-2,0,8.91
1783,0,-1,-1,-1,-2,-2,-1,-1,8.915000000000001
1784,-2,-3,0,-1,-2,-3,-1,-1,8.92
1785,-1,-1,-3,-1,0,0,-1,-1,8.925
1786,1,-1,-1,0,-1,0,-2,-3,8.93
1787,0,1,-2,-2,-1,0,0,-1,8.935
1788,-1,1,0,-2,-3,-1,-1,-2,8.94
1789,-1,0,0,-3,0,-1,0,0,8.945
1790,-2,0,-1,-1,0,-1,1,-1,8.950000000000001
1791,-1,-1,-3,-1,-1,0,-1,-1,8.955
1792,0,0,-1,-1,-1,0,-1,0,8.96
1793,0,0,-1,-1,-1,0,-1,0,8.965
1794,0,0,0,-1,0,0,-1,-2,8.97
1795,-3,-1,-1,-2,-2,-1,0,0,8.975
1796,-1,-1,0,-1,0,-1,0,0,8.98
1797,-1,0,-1,-1,0,-1,-3,0,8.985
1798,0,-1,0,-1,0,0,-1,1,8.99
1799,1,-1,-2,-1,-2,-2,-1,-1,8.995000000000001
1800,1,-1,-1,0,-1,1,0,-2,9.0
1801,-1,0,-3,0,-3,0,0,-2,9.005
1802,-3,-3,-1,0,-2,2,-2,-1,9.01
1803,-2,-2,0,-2,0,-1,0,-1,9.015
1804,-2,-2,-2,-1,-1,-2,0,0,9.02
1805,0,-2,0,-1,-1,-1,-2,0,9.025
1806,0,-1,-1,-1,0,-1,0,2,9.03
1807,-1,-1,-2,-1,-1,-1,0,0,9.035
1808,0,-1,-1,-1,0,-2,0,-1,9.040000000000001
1809,-2,-2,-1,0,1,0,0,0,9.045
1810,-2,0,0,-1,-1,-1,-3,-1,9.05
1811,0,0,-1,0,-2,-1,0,-2,9.055
1812,-1,-1,-1,-1,-2,-1,-3,-1,9.06
1813,0,0,0,-2,-1,-1,1,0,9.065
1814,0,-1,-1,-1,-1,-1,-2,-2,9.07
1815,-1,-1,0,-2,0,0,-1,-3,9.075000000000001
1816,-2,0,-1,-2,-1,1,-2,1,9.08
1817,-2,-1,-1,0,-1,-1,-1,-1,9.085
1818,0,-1,0,-2,0,0,0,-2,9.09
1819,-1,-1,0,-1,0,-1,0,-2,9.095
1820,1,-1,-1,0,0,-2,-1,0,9.1
1821,-1,1,0,-1,0,-1,-1,0,9.105
1822,-2,-1,-1,1,-2,-2,0,0,9.11
1823,-1,0,0,0,-1,0,-1,-1,9.115
1824,-1,-1,-1,0,0,-2,-1,-1,9.120000000000001
1825,-1,-1,-2,0,-2,-1,-1,0,9.125
1826,0,-1,-1,-1,-1,-2,-1,-1,9.13
1827,0,-1,-1,-1,-1,-1,0,0,9.135
1828,-1,-1,-1,-1,0,-2,-1,0,9.14
1829,-2,0,1,0,-2,-1,-2,0,9.145
1830,-1,-1,-2,0,-1,-1,1,1,9.15
1831,0,-2,-1,1,-1,-2,0,0,9.155
1832,-3,0,-2,-1,-1,0,0,-2,9.16
1833,0,-1,-1,-1,-1,-2,-1,-2,9.165000000000001
1834,-1,0,1,-1,-3,0,-1,-1,9.17
1835,-1,0,-2,-1,1,0,-2,0,9.175
1836,0,-1,0,0,-2,1,1,-1,9.18
1837,0,-1,-1,0,0,0,-2,-1,9.185
1838,0,1,-3,0,0,-1,0,-1,9.19
1839,0,-1,1,0,2,-1,-1,1,9.195
1840,1,-2,-1,0,-1,0,0,0,9.200000000000001
1841,0,0,-2,0,-2,0,0,-1,9.205
1842,0,-1,0,0,0,1,0,-3,9.21
1843,0,-2,-2,-1,-3,1,0,-1,9.215
1844,-1,1,1,-1,0,-2,-2,1,9.22
1845,1,-2,-1,-2,-1,-2,0,-2,9.225
1846,-1,1,-2,-1,-1,-1,0,0,9.23
1847,-1,-1,-1,-1,-2,0,-1,0,9.235
1848,0,-2,-1,-1,0,0,0,-1,9.24
1849,-1,-2,0,-1,0,-1,-1,-1,9.245000000000001
1850,-2,-1,0,1,-2,0,-2,-1,9.25
1851,0,0,-1,-2,1,0,1,0,9.255
1852,-1,-1,-2,-3,-2,1,-1,-1,9.26
1853,-2,-1,-1,-1,-1,0,-1,0,9.265
1854,-1,-2,-1,-1,1,-1,-2,0,9.27
1855,0,-3,-1,-1,0,3,-1,-1,9.275
1856,0,0,-1,0,0,-1,-1,-1,9.28
1857,0,0,0,-1,-2,0,0,-1,9.285
1858,-1,-1,1,-1,-1,-1,-1,-1,9.290000000000001
1859,0,-1,-1,0,-1,-1,0,-2,9.295
1860,-1,-1,-2,1,-1,-1,0,-1,9.3
1861,-1,-1,-1,-3,0,2,-2,-2,9.305
1862,0,0,-1,-1,0,-1,0,0,9.31
1863,-2,0,-1,-1,-2,0,-4,-1,9.315
1864,-2,-2,-1,0,-1,0,-2,-2,9.32
1865,-2,-1,-2,-1,1,-4,0,0,9.325000000000001
1866,-1,-1,-1,0,-1,-2,-1,1,9.33
1867,-1,0,1,0,-2,-1,-2,0,9.335
1868,0,-1,-1,1,-1,1,-1,-1,9.34
1869,1,-1,0,-1,-1,0,0,0,9.345
1870,-1,0,0,0,-1,-1,-1,-3,9.35
1871,-2,-1,-2,0,-1,-1,0,-1,9.355
1872,1,-1,0,0,0,0,-1,-1,9.36
1873,0,-1,0,-1,-1,0,0,-1,9.365
1874,-1,0,0,0,0,-2,-1,-1,9.370000000000001
1875,-2,-2,-2,-1,-3,-1,0,0,9.375
1876,-1,1,-1,-2,-3,-1,-1,-2,9.38
1877,-1,-1,0,-1,0,-1,0,0,9.385
1878,-1,0,-1,-2,0,2,0,-2,9.39
1879,0,-1,-1,1,1,-1,0,-2,9.395
1880,-2,-1,0,0,-1,-2,1,0,9.4
1881,-2,0,-1,-1,-2,0,-3,0,9.405
1882,-1,-2,-2,-1,-1,0,0,0,9.41
1883,0,1,-1,-2,-1,-3,-1,-1,9.415000000000001
1884,0,1,-1,-1,-1,0,-1,0,9.42
1885,0,-1,0,-1,0,-2,0,1,9.425
1886,0,-1,-1,-1,2,0,1,1,9.43
1887,-1,0,-2,-3,0,1,0,0,9.435
1888,0,-1,-2,1,-1,0,-1,-1,9.44
1889,-2,0,0,-1,-1,0,-2,-2,9.445
1890,-2,0,-2,0,-3,1,0,-1,9.450000000000001
1891,2,0,0,0,-1,-1,0,-2,9.455
1892,-2,0,0,-2,0,0,-2,0,9.46
1893,-2,0,-1,-1,-2,0,-1,-1,9.465
1894,0,-3,-1,-2,-1,-1,-1,-1,9.47
1895,-1,1,0,-1,-1,0,-2,-1,9.475
1896,-1,0,0,0,-2,-1,0,-2,9.48
1897,0,1,-1,1,-1,0,0,0,9.485
1898,0,-1,-2,-2,-1,-1,0,-1,9.49
1899,-1,-1,-1,0,-2,-1,0,-2,9.495000000000001
1900,-1,0,0,-1,1,0,0,-1,9.5
1901,-1,0,-1,-1,0,-1,0,-1,9.505
1902,-1,1,0,0,-2,-1,-4,-1,9.51
1903,-1,-1,0,-1,1,1,-1,-1,9.515
1904,0,-4,-2,-2,0,-2,0,0,9.52
1905,-1,1,-2,-1,-2,-1,2,-3,9.525
1906,-1,0,-1,0,-1,0,0,0,9.53
1907,0,0,0,-1,-1,-1,0,0,9.535
1908,-1,-1,-2,-3,-1,-1,-2,0,9.540000000000001
1909,0,-1,-1,-1,-1,0,-1,0,9.545
1910,-1,-2,0,-2,-1,-2,-1,-2,9.55
1911,-1,0,-1,0,-1,0,-2,-2,9.555
1912,0,0,-1,1,-1,1,-1,0,9.56
1913,-1,-2,-1,0,-1,0,0,-1,9.565
1914,0,-2,-1,1,0,1,2,-1,9.57
1915,-2,-1,-1,0,-1,-2,-1,-1,9.575000000000001
1916,0,0,0,-2,-1,-1,-2,-1,9.58
1917,-1,-1,-2,-2,0,-1,-1,0,9.585
1918,1,0,1,1,0,0,0,-1,9.59
1919,-1,-1,0,0,0,0,-1,0,9.595
1920,-1,-1,-2,-1,-1,-1,0,1,9.6
1921,-1,-1,-1,0,-1,-1,-2,-1,9.605
1922,0,0,-1,-1,0,-1,0,0,9.61
1923,-1,-2,-1,-1,0,0,0,0,9.615
1924,-2,1,0,0,-1,-1,-2,-2,9.620000000000001
1925,-1,0,0,-1,0,0,1,-1,9.625
1926,-1,-2,-2,1,-1,0,-1,-2,9.63
1927,0,-1,-1,-2,-3,-2,-1,-1,9.635
1928,-1,-1,-1,0,-1,0,-1,0,9.64
1929,-2,0,0,-2,-2,0,-2,-1,9.645
1930,0,0,0,1,0,0,-1,0,9.65
1931,0,0,0,-2,1,0,0,0,9.655
1932,0,-2,0,0,-1,-1,1,-1,9.66
1933,-1,-1,0,-2,-1,-2,-1,-1,9.665000000000001
1934,-1,0,-1,-1,-1,-1,1,0,9.67
1935,-1,-2,-1,-1,-1,1,-1,1,9.675
1936,-1,-1,-1,-2,-2,0,1,-2,9.68
1937,-1,-2,0,-1,0,0,-2,-1,9.685
1938,-1,-2,-1,-2,-1,-3,-1,-1,9.69
1939,-2,-2,-1,2,0,0,1,-1,9.695
1940,0,-1,0,-1,-1,0,-3,-1,9.700000000000001
1941,1,-1,-1,-1,-1,0,-1,-2,9.705
1942,-2,-1,-1,-1,-2,-3,0,0,9.71
1943,-1,0,0,-3,-2,-1,-3,-1,9.715
1944,-3,-1,-2,1,0,0,-2,-1,9.72
1945,0,-1,-2,1,-1,-2,-1,0,9.725
1946,0,-1,-1,-2,2,2,-1,0,9.73
1947,0,0,-1,-2,1,-2,0,-2,9.735
1948,-2,-2,-2,0,-1,-1,0,-1,9.74
1949,-1,0,0,0,-1,0,-2,-1,9.745000000000001
1950,0,-1,-2,0,-1,-1,-2,0,9.75
1951,0,0,-1,-1,-2,-1,0,0,9.755
1952,0,0,-2,-1,-1,-1,0,-1,9.76
1953,-1,-1,1,-2,-1,-1,0,-1,9.765
1954,-2,-2,-1,0,-2,-2,-1,-1,9.77
1955,-1,-2,-1,-2,-1,0,-1,-2,9.775
1956,0,1,-1,-1,0,-1,-1,0,9.78
1957,-1,0,-1,0,-1,1,0,-1,9.785
1958,0,-2,0,-1,-1,0,0,-1,9.790000000000001
1959,-1,-1,-1,0,0,-1,1,0,9.795
1960,-1,0,0,-1,0,-1,0,-1,9.8
1961,-1,-1,-2,-1,0,0,-1,-1,9.805
1962,-1,-1,-2,-1,-2,-1,-1,-1,9.81
1963,0,-1,-1,1,-1,-1,-1,-1,9.815
1964,0,-1,1,-2,0,0,0,1,9.82
1965,2,-1,-2,0,-1,-3,1,0,9.825000000000001
1966,0,2,2,1,-1,-2,-2,-3,9.83
1967,-2,-1,-1,-1,0,0,0,-1,9.835
1968,0,-1,0,-1,-2,-1,-2,-1,9.84
1969,0,0,-1,-1,0,-1,-1,-1,9.845
1970,-2,-1,0,0,-1,0,-1,0,9.85
1971,0,0,-2,-1,-1,-2,0,-1,9.855
1972,-2,-1,-1,0,-1,-1,0,-1,9.86
1973,-2,-3,-2,-1,1,-1,-2,1,9.865
1974,-1,-2,-1,-3,0,0,0,0,9.870000000000001
1975,-2,-1,-2,-1,-1,0,0,0,9.875
1976,0,-1,-2,-1,-1,-1,-1,-2,9.88
1977,-1,0,-2,-1,-2,-1,0,-1,9.885
1978,0,0,-1,-1,0,-1,-2,-2,9.89
1979,-1,-1,-1,0,-2,0,0,-1,9.895
1980,-1,-1,0,0,0,-1,-1,-2,9.9
1981,-2,-2,-1,-1,0,0,1,-2,9.905
1982,-1,-1,-1,-1,-1,-3,-3,0,9.91
1983,1,-1,-2,0,0,-2,-1,-1,9.915000000000001
1984,-1,-3,-1,0,-1,0,0,-1,9.92
1985,0,-1,0,-2,0,-2,-2,1,9.925
1986,-1,2,-3,-1,-1,1,1,1,9.93
1987,-2,-1,2,0,0,0,-2,-1,9.935
1988,-1,-1,-1,0,0,-2,1,-1,9.94
1989,-1,0,-1,0,-1,-2,0,-1,9.945
1990,1,-2,0,-1,-1,0,-1,-1,9.950000000000001
1991,-1,-1,-1,1,-2,-2,-1,0,9.955
1992,-2,1,-2,-1,0,-1,-1,-1,9.96
1993,-1,-2,0,-1,0,0,0,-1,9.965
1994,0,1,0,0,-1,-1,0,-2,9.97
1995,1,-1,0,-2,-1,-1,-1,0,9.975
1996,1,-1,-1,-2,-1,-1,-1,-1,9.98
1997,-1,0,0,-1,-2,0,0,1,9.985
1998,-1,1,-1,0,1,1,0,0,9.99
1999,-1,0,-1,-1,0,-1,-1,-2,9.995000000000001
2000,0,-2,0,0,1,-1,-2,1,10.0
2001,-2,-1,-2,1,0,0,-2,0,10.005
2002,-1,-2,-2,-1,-1,-1,0,-1,10.01
2003,-1,-2,0,0,1,-1,1,0,10.015
2004,0,-2,-1,-1,-1,1,-1,-2,10.02
2005,-1,-2,0,-1,-2,-1,-1,-2,10.025
2006,-1,-1,-1,-1,0,-1,-2,-2,10.03
2007,0,-1,0,0,1,0,-2,1,10.035
2008,-2,-2,-2,-1,-1,-1,0,0,10.040000000000001
2009,0,-1,0,1,0,0,-1,0,10.045
2010,0,-1,-1,-1,-1,2,0,0,10.05
2011,0,-2,-1,-2,0,-1,1,-3,10.055
2012,-2,1,0,1,1,0,0,-1,10.06
2013,-1,-2,-1,-1,-3,0,0,0,10.065
2014,-3,0,-1,-1,-2,-3,-1,-1,10.07
2015,-1,-1,-1,-2,-1,0,-2,0,10.075000000000001
2016,-1,-2,-1,0,-1,0,0,-1,10.08
2017,0,0,0,-1,0,0,-1,0,10.085
2018,0,0,-1,-1,-1,0,1,-1,10.09
2019,-2,-1,-2,-1,-1,0,0,0,10.095
2020,-1,-2,-3,-1,0,0,-1,-3,10.1
2021,-1,0,0,-1,-1,-1,-1,-1,10.105
2022,-1,-2,1,-1,-1,-1,0,-1,10.11
2023,-2,-1,-3,0,-1,0,-2,-3,10.115
2024,-1,0,-2,-1,-2,1,0,0,10.120000000000001
2025,1,0,-1,1,-1,0,0,-2,10.125
2026,-2,-1,-2,-1,1,-1,-1,-1,10.13
2027,-3,-1,0,-1,-2,-1,-1,-1,10.135
2028,0,-1,-1,-1,1,0,-1,0,10.14
2029,0,0,-1,-2,0,-1,0,-1,10.145
2030,0,-2,1,-1,0,-1,-1,0,10.15
2031,-1,0,-2,-2,0,-1,0,1,10.155
2032,-1,0,-2,-1,-1,0,-1,-1,10.16
2033,0,-1,-1,-1,0,0,1,-2,10.165000000000001
2034,1,-2,-2,0,1,0,-1,-1,10.17
2035,-2,-1,0,0,0,-1,-2,-1,10.175
2036,0,0,-1,-1,-3,-2,-1,0,10.18
2037,-1,-2,-1,-1,-2,-2,-2,0,10.185
2038,-1,0,0,-1,-1,0,-1,-1,10.19
2039,0,-1,-2,0,-2,0,-2,-1,10.195
2040,-1,0,-2,-1,-1,0,-1,1,10.200000000000001
2041,-1,-1,-1,-1,-1,-2,0,-1,10.205
2042,0,-2,-1,-1,-1,-1,0,-1,10.21
2043,0,0,0,0,-2,-1,-1,-1,10.215
2044,-2,0,0,0,-1,-1,0,0,10.22
2045,-1,-1,-1,0,-1,-1,-1,0,10.225
2046,-1,-1,-1,-1,0,-2,0,0,10.23
2047,0,0,-2,0,-2,-1,1,0,10.235
2048,0,-1,-3,-1,-2,-1,0,0,10.24
2049,-2,-1,-1,0,-1,1,-1,-1,10.245000000000001
2050,-2,0,0,0,-2,-3,-1,-2,10.25
2051,-1,-1,-1,0,-1,-2,-1,0,10.255
2052,0,-1,-1,-1,1,-2,-1,-2,10.26
2053,-1,-1,0,-1,-1,-1,-2,-1,10.265
2054,0,-1,0,-1,-1,0,-2,1,10.27
2055,-2,-1,1,-2,-1,1,0,-1,10.275
2056,0,-2,-1,-2,-1,0,-1,-2,10.28
2057,-1,-2,-2,-1,0,-1,-1,-1,10.285
2058,1,-2,-1,0,0,0,0,-1,10.290000000000001
2059,1,-2,0,0,-1,-1,-1,0,10.295
2060,1,1,0,-1,0,-1,0,-1,10.3
2061,1,-1,-1,0,0,0,0,0,10.305
2062,1,-1,-1,0,-2,-2,0,-1,10.31
2063,1,-1,0,-1,0,0,-1,0,10.315
2064,-1,-2,1,1,-2,-1,-1,-1,10.32
2065,-1,-1,-2,-2,-1,-1,1,-1,10.325000000000001
2066,-1,-1,-1,-2,-1,0,-1,1,10.33
2067,-2,-1,0,-2,-1,-2,0,-1,10.335
2068,0,-1,-1,0,-2,-1,-1,0,10.34
2069,-2,-1,0,1,0,-1,-1,0,10.345
2070,-1,-1,0,-1,-1,0,-1,-1,10.35
2071,-1,-1,-2,-1,0,0,-2,-3,10.355
2072,-1,-1,0,0,-1,-1,2,1,10.36
2073,-1,-1,0,0,-1,0,-1,0,10.365
2074,-1,0,-2,-2,-2,-1,-1,-1,10.370000000000001
2075,-1,-1,-2,-1,0,-1,0,0,10.375
2076,0,0,-1,0,0,0,-2,-2,10.38
2077,1,0,-1,-2,-1,-1,-3,-2,10.385
2078,-1,0,-2,0,0,1,1,-2,10.39
2079,-2,-1,-1,0,-2,-1,1,-2,10.395
2080,-2,-1,0,-2,0,0,-2,1,10.4
2081,-1,-1,-1,1,-1,-2,-1,0,10.405
2082,0,-1,-1,0,0,0,-1,-1,10.41
2083,1,-2,-1,-1,0,-2,0,-2,10.415000000000001
2084,-1,-2,-1,-1,-2,0,-2,-1,10.42
2085,0,0,0,0,-3,0,-1,-1,10.425
2086,-1,-1,-2,0,-2,0,1,1,10.43
2087,-1,-2,-1,-2,-1,0,0,-1,10.435
2088,0,-2,-1,0,1,-3,-1,-1,10.44
2089,-1,-2,-1,-2,-1,1,0,0,10.445
2090,-1,1,1,-2,0,-3,-2,-1,10.450000000000001
2091,0,0,0,2,0,1,0,0,10.455
2092,-1,0,-1,-2,-1,0,1,-1,10.46
2093,-1,-1,-1,0,0,-2,-1,-2,10.465
2094,-1,-1,-1,-1,-1,1,-1,-1,10.47
2095,1,-1,-1,0,-1,-1,-2,1,10.475
2096,-1,-1,-1,2,0,-1,-1,-1,10.48
2097,0,0,-1,-1,-2,-1,-1,0,10.485
2098,-1,-3,1,0,0,-2,-1,-1,10.49
2099,2,-1,0,0,-1,-2,-2,-1,10.495000000000001
2100,1,-2,-1,0,0,0,-1,-2,10.5
2101,0,-1,-2,0,-2,0,-2,0,10.505
2102,-2,0,0,-1,-2,0,2,-1,10.51
2103,-1,-1,-1,-1,-1,-1,-1,0,10.515
2104,1,-1,0,-1,-2,-2,-1,0,10.52
2105,-2,-1,-1,-1,0,-1,-1,-1,10.525
2106,-1,-2,-1,-2,0,0,-3,0,10.53
2107,-2,0,-1,0,-1,1,-1,-1,10.535
2108,-1,1,-1,0,-2,0,1,-1,10.540000000000001
2109,0,-1,-1,-1,0,-2,0,-1,10.545
2110,0,-1,-2,0,0,0,0,-1,10.55
2111,-1,-3,0,-2,-1,-3,0,1,10.555
2112,-1,-1,0,-1,-1,-1,-1,-1,10.56
2113,0,0,-1,0,0,-1,1,0,10.565
2114,-1,-1,-1,-2,-1,-2,-1,-1,10.57
2115,1,-1,0,-1,-2,-1,-1,-2,10.575000000000001
2116,-2,-1,-2,-2,-1,1,-1,0,10.58
2117,-1,0,-2,-2,0,0,-1,-1,10.585
2118,1,0,-1,0,-1,-1,1,0,10.59
2119,-1,1,-2,0,-2,-1,-1,0,10.595
2120,0,0,0,-1,0,-1,0,-2,10.6
2121,1,-1,0,0,0,-1,0,-2,10.605
2122,-1,0,-2,-1,-1,0,-1,0,10.61
2123,-1,-1,1,-2,-1,-1,-1,-1,10.615
2124,0,-1,-1,1,0,0,0,0,10.620000000000001
2125,-1,-1,-1,-2,-1,-2,-1,-1,10.625
2126,0,0,0,0,-1,-1,-2,-1,10.63
2127,-1,-1,0,-1,-1,1,0,0,10.635
2128,-1,-1,-2,-1,-2,-2,-3,-2,10.64
2129,-1,-2,0,-1,-1,-1,0,-1,10.645
2130,2,-1,-2,-2,-1,1,1,0,10.65
2131,-1,-2,-2,-2,1,0,-1,0,10.655
2132,-2,-1,-1,0,-1,-1,-1,1,10.66
2133,0,-2,0,-1,0,0,0,0,10.665000000000001
2134,-1,-1,0,-1,-1,-1,0,-1,10.67
2135,0,-1,-2,-1,1,-1,-2,0,10.675
2136,0,-1,-1,-1,0,-3,-1,-1,10.68
2137,0,-1,-1,0,-1,-1,0,-2,10.685
2138,-2,0,-1,0,0,-2,-2,0,10.69
2139,-1,-2,-2,-1,-2,-1,0,1,10.695
2140,-1,0,0,-2,-1,0,0,0,10.700000000000001
2141,1,-1,0,-2,-1,0,-2,0,10.705
2142,-1,-1,0,0,0,0,-2,-1,10.71
2143,-1,0,-1,-3,1,-2,1,-2,10.715
2144,0,-1,-1,-1,0,1,0,0,10.72
2145,0,0,-1,-1,0,1,-1,0,10.725
2146,-2,-1,0,-2,-1,0,-1,-1,10.73
2147,0,-2,0,-1,-2,-3,-2,-2,10.735
2148,-1,-2,-1,-1,-2,0,-1,0,10.74
2149,-1,0,-3,-1,0,1,-2,0,10.745000000000001
2150,0,-2,-1,0,0,0,-1,0,10.75
2151,-2,0,-1,0,-1,-1,1,-1,10.755
2152,-1,-1,-1,0,0,-2,-1,0,10.76
2153,0,-1,0,0,-1,-2,-2,-1,10.765
2154,-1,-1,0,-1,-2,0,-1,-1,10.77
2155,-1,0,-1,-1,-2,0,-1,-2,10.775
2156,2,1,0,0,0,0,-1,0,10.78
2157,-1,-1,0,-1,0,-1,-1,0,10.785
2158,0,-1,0,0,-1,-1,1,-1,10.790000000000001
2159,-2,0,0,-2,-1,-1,-1,-1,10.795
2160,-1,0,0,-1,-1,-1,-2,-2,10.8
2161,0,-1,0,-2,-1,-1,1,-1,10.805
2162,-1,-1,0,0,-2,-3,-1,-3,10.81
2163,0,-1,-2,1,-1,-1,0,-2,10.815
2164,-1,-2,-1,-1,-1,0,-1,-1,10.82
2165,-1,-2,0,0,-1,-1,0,0,10.825000000000001
2166,0,-1,-2,-1,0,-2,-1,0,10.83
2167,-2,0,-1,-2,0,-2,-2,0,10.835
2168,-1,-2,-1,-1,0,-1,0,-1,10.84
2169,-1,-1,-2,-1,-1,0,-1,-1,10.845
2170,0,-2,-2,-3,-1,-1,-1,2,10.85
2171,-1,-1,-1,0,0,-1,-2,1,10.855
2172,0,0,-2,-1,-2,-2,-1,-1,10.86
2173,-2,-1,1,-2,-1,-1,1,-1,10.865
2174,-2,-1,-3,0,-2,-1,-2,-3,10.870000000000001
2175,0,-2,-2,0,0,0,0,-1,10.875
2176,-1,-1,0,0,-1,-2,0,-1,10.88
2177,0,0,-1,-1,-2,0,0,1,10.885
2178,-1,-1,0,-1,-1,-1,0,0,10.89
2179,1,-2,-1,0,-1,-2,-1,0,10.895
2180,-2,-3,-2,-2,0,0,0,0,10.9
2181,0,-1,0,0,0,0,0,-2,10.905
2182,-1,-1,-1,-2,-1,-1,1,-1,10.91
2183,-1,1,-1,-1,0,1,-1,0,10.915000000000001
2184,-1,-1,-1,-1,0,0,-2,-1,10.92
2185,-1,-2,-2,-1,0,-2,0,-2,10.925
2186,0,0,-1,2,0,-1,0,0,10.93
2187,-1,-1,-1,-2,-1,-1,1,-1,10.935
2188,0,-1,-2,-2,-1,-2,0,0,10.94
2189,0,0,1,-1,0,-1,0,0,10.945
2190,1,-2,-1,0,-2,1,-1,-1,10.950000000000001
2191,-2,0,-2,-1,1,-1,-1,-2,10.955
2192,0,0,-2,-1,-1,0,-2,0,10.96
2193,-2,-3,-1,-2,-2,-1,-1,-2,10.965
2194,0,0,0,-1,-2,-2,-2,0,10.97
2195,-1,1,-1,-1,-2,-1,-1,0,10.975
2196,-2,-2,-1,-2,-1,-1,-1,-3,10.98
2197,-1,0,-2,1,-2,-2,-2,0,10.985
2198,-2,-3,-2,-2,-1,0,-1,-3,10.99
2199,-2,-3,1,-1,-2,0,-1,-1,10.995000000000001
2200,-2,0,-1,0,-1,0,-1,0,11.0
2201,1,-2,-1,0,-2,-1,-1,0,11.005
2202,0,1,-1,0,-1,-1,1,0,11.01
2203,0,-2,0,-1,0,0,-1,-1,11.015
2204,0,-1,-2,-1,-3,0,-1,-2,11.02
2205,-2,-1,-1,1,1,-1,-1,0,11.025
2206,0,0,0,0,0,1,-1,-1,11.03
2207,-1,-1,-1,1,-1,-1,0,-1,11.035
2208,-1,-1,-1,1,0,-2,0,0,11.040000000000001
2209,-1,0,-1,-1,-1,-1,-1,0,11.045
2210,-1,-2,0,-1,-1,-2,-1,-2,11.05
2211,-2,-1,1,-1,0,0,0,0,11.055
2212,1,0,-1,1,1,0,1,-1,11.06
2213,-1,-1,-1,-1,0,0,-1,-1,11.065
2214,-1,0,-1,-1,0,0,-2,0,11.07
2215,-1,-1,0,-1,-2,0,-3,-1,11.075000000000001
2216,-3,0,0,-1,-1,-1,0,-1,11.08
2217,-1,-2,0,-1,-2,-1,-2,0,11.085
2218,-1,0,-2,-1,0,-1,1,2,11.09
2219,0,0,-1,0,-1,-1,0,-2,11.095
2220,-1,-1,0,-2,0,0,0,0,11.1
2221,-1,-1,-1,0,0,0,-1,-1,11.105
2222,-1,0,-1,1,0,-2,1,-1,11.11
2223,0,-2,-2,-1,0,1,0,-1,11.115
2224,0,0,0,-1,-1,-2,1,1,11.120000000000001
2225,1,0,0,0,0,-1,-1,-2,11.125
2226,0,-2,-2,-1,-2,-1,0,-1,11.13
2227,-1,0,-2,0,1,-3,-1,-1,11.135
2228,0,-1,0,0,-1,-1,-1,-1,11.14
2229,-2,2,-1,-2,0,-2,0,0,11.145
2230,-1,0,1,0,-2,0,0,-1,11.15
2231,0,-1,-1,-2,-2,-1,0,0,11.155
2232,0,-1,-1,1,0,1,-1,-1,11.16
2233,-4,-2,0,-2,-1,-1,0,-1,11.165000000000001
2234,-1,0,0,-1,0,-1,-2,-2,11.17
2235,0,-1,0,-1,-1,-1,1,-1,11.175
2236,-1,0,-2,0,-1,-1,-1,-1,11.18
2237,-1,-2,1,0,1,0,0,-1,11.185
2238,-1,-1,-1,-1,0,-1,-1,0,11.19
2239,-3,-1,-1,-1,0,-2,-1,-1,11.195
2240,-1,-1,-1,-1,1,0,-1,-2,11.200000000000001
2241,1,0,-1,1,-2,-2,1,-2,11.205
2242,-3,0,0,0,0,0,0,0,11.21
2243,0,0,0,-1,-1,-1,-3,0,11.215
2244,-1,-2,0,-2,0,0,-1,-1,11.22
2245,-1,-2,-1,-2,0,0,-1,-1,11.225
2246,1,-2,-1,-1,0,-3,-1,-2,11.23
2247,-2,0,-2,1,-2,-1,0,0,11.235
2248,-1,-1,-1,-1,-3,-1,-1,-1,11.24
2249,0,1,0,0,-1,0,0,0,11.245000000000001
2250,0,-1,-1,0,0,-1,0,-1,11.25
2251,0,0,1,-1,-1,-1,1,0,11.255
2252,1,-1,-1,-2,-1,-3,0,-2,11.26
2253,-2,-1,-1,-2,0,0,-1,-2,11.265
2254,0,0,1,-1,-1,-1,-1,-1,11.27
2255,-1,0,-1,0,0,0,-1,-1,11.275
2256,-1,0,0,1,-2,-1,-1,0,11.28
2257,-2,0,-2,-2,-1,-1,-1,2,11.285
2258,-1,-2,-2,-1,-1,0,0,-1,11.290000000000001
2259,-1,-2,-2,0,0,0,-1,-1,11.295
2260,0,-1,-2,-1,1,0,-1,0,11.3
2261,0,-1,-1,1,0,-1,-2,-1,11.305
2262,0,-2,0,-1,0,0,-1,-1,11.31
2263,-1,-1,-2,-3,-2,-1,-1,-1,11.315
2264,-1,0,-2,-1,0,1,0,0,11.32
2265,-1,-1,-2,-1,-1,-1,1,-1,11.325000000000001
2266,-1,-2,-2,-1,0,-2,0,0,11.33
2267,-2,0,-1,-2,0,0,0,-2,11.335
2268,0,-1,-1,-1,-1,0,-1,-2,11.34
2269,0,0,0,-2,-1,0,-2,0,11.345
2270,-1,0,-3,-1,0,0,-1,0,11.35
2271,1,-1,-1,-1,-1,0,-1,1,11.355
2272,-1,-1,1,0,0,0,-1,0,11.36
2273,1,0,0,0,-1,-1,1,1,11.365
2274,-1,1,-2,0,-2,0,0,-2,11.370000000000001
2275,-1,1,-2,0,-2,-2,-2,-1,11.375
2276,-1,0,-2,-1,-2,0,-1,-1,11.38
2277,-2,-3,-1,1,1,0,-1,0,11.385
2278,-1,-2,0,-1,-2,0,-1,0,11.39
2279,-1,-1,-1,-2,-1,-1,-1,0,11.395
2280,0,-1,2,-1,-3,-1,-1,-2,11.4
2281,0,0,-1,0,-2,-1,-2,-1,11.405
2282,-1,0,-1,-1,-1,-1,0,0,11.41
2283,-1,-1,-1,0,1,1,0,-2,11.415000000000001
2284,-2,-1,-1,0,-1,-3,1,-1,11.42
2285,0,0,-1,-1,-1,-2,-1,0,11.425
2286,-1,-1,-1,-2,0,-2,-3,0,11.43
2287,0,-1,-2,-2,-2,0,0,-2,11.435
2288,0,0,-3,-1,0,0,-1,1,11.44
2289,-1,-2,-2,-1,-1,1,-1,-1,11.445
2290,-1,0,-1,0,-1,0,0,-2,11.450000000000001
2291,1,-2,0,-2,-1,0,0,0,11.455
2292,-1,0,-1,-2,-1,0,-1,1,11.46
2293,-1,0,0,-1,-1,0,-2,0,11.465
2294,0,0,-1,-1,0,-1,-1,-2,11.47
2295,-3,0,-1,0,-1,-2,1,0,11.475
2296,0,1,0,0,0,0,-1,-1,11.48
2297,-1,0,-2,-1,-1,0,0,-1,11.485
2298,0,-1,-1,-2,-2,-1,2,-1,11.49
2299,0,0,-2,-1,0,-1,-2,-1,11.495000000000001
2300,0,-2,0,0,0,1,1,0,11.5
2301,-1,0,1,0,-1,-1,0,-2,11.505
2302,-1,0,-2,-2,-1,0,-1,-1,11.51
2303,-1,0,-1,0,-2,-2,-2,-1,11.515
2304,-1,-1,-1,-1,-2,-2,-2,-2,11.52
2305,1,0,-2,-1,-1,0,-1,0,11.525
2306,-1,-1,-1,-1,-1,0,-1,-2,11.53
2307,0,0,-1,0,-1,-1,-1,-1,11.535
2308,-2,-1,-1,-1,0,-1,-2,-1,11.540000000000001
2309,-1,-1,-1,0,-1,-2,0,-1,11.545
2310,-2,-1,-1,0,-2,0,-1,1,11.55
2311,-1,0,-2,0,-3,-2,-1,-1,11.555
2312,0,-3,-2,0,-3,0,0,-1,11.56
2313,-1,0,-1,-2,-1,-1,1,-1,11.565
2314,0,0,0,-1,-1,-2,0,0,11.57
2315,0,-1,0,-2,0,-1,0,-1,11.575000000000001
2316,-1,-1,-2,-1,-1,-2,0,-1,11.58
2317,0,0,-1,-2,-2,-1,-1,-1,11.585
2318,-1,-1,-2,-2,0,-1,-1,0,11.59
2319,-1,0,-2,-1,0,0,-2,0,11.595
2320,0,1,-2,-2,-1,0,0,0,11.6
2321,0,-1,-2,-2,1,0,-1,0,11.605
2322,0,-1,1,-1,0,-1,-2,-1,11.61
2323,-1,-1,-1,1,0,-2,0,-1,11.615
2324,-1,-1,-1,0,-1,0,-3,-3,11.620000000000001
2325,-1,-2,1,-1,-1,-2,0,-2,11.625
2326,-1,0,-1,-2,0,0,0,-2,11.63
2327,-1,-1,-1,-1,0,0,-2,0,11.635
2328,0,-1,-2,-1,0,-1,-1,-1,11.64
2329,-1,-1,0,-2,-2,0,1,-1,11.645
2330,-1,-2,0,-1,-2,-1,-1,-1,11.65
2331,0,-1,1,-1,-1,-1,2,-1,11.655
2332,-1,-2,0,1,0,0,1,0,11.66
2333,-1,-2,-1,0,0,0,-1,0,11.665000000000001
2334,-1,0,-1,-2,-1,0,0,0,11.67
2335,-1,-1,-1,-2,-1,-2,-1,-1,11.675
2336,0,-2,0,-2,-3,1,-1,-2,11.68
2337,-2,-2,-1,-1,0,-1,-1,-1,11.685
2338,-2,0,-1,-1,-2,-1,0,-1,11.69
2339,0,-2,0,-1,-1,1,0,-1,11.695
2340,-2,0,-1,-1,-1,0,-1,-1,11.700000000000001
2341,0,-1,0,1,-1,0,0,0,11.705
2342,-2,-2,-2,0,0,0,0,-1,11.71
2343,-2,0,0,-1,-1,1,-2,-2,11.715
2344,-1,0,-1,0,-1,-1,-1,-1,11.72
2345,0,-1,-1,-1,-2,0,-2,-2,11.725
2346,-2,-3,-1,-2,-2,-1,-2,0,11.73
2347,0,-2,0,-3,0,-2,0,-1,11.735
2348,0,-1,-2,-1,-1,-2,-1,1,11.74
2349,-1,1,0,0,-1,0,0,-2,11.745000000000001
2350,0,-3,-2,1,0,-3,1,-1,11.75
2351,-1,0,-1,0,0,-1,-1,-1,11.755
2352,-1,2,-1,-2,1,0,-1,-2,11.76
2353,-1,-2,-2,-1,-1,-2,-1,-2,11.765
2354,0,-1,-2,0,-3,-1,-1,-1,11.77
2355,0,-1,-2,0,-2,-1,0,0,11.775
2356,-1,0,-1,0,-1,-1,0,-1,11.78
2357,1,0,-1,0,-1,-2,-1,0,11.785
2358,1,1,-1,-1,-1,-1,0,0,11.790000000000001
2359,1,0,-1,-1,-1,0,-1,0,11.795
2360,-1,0,-1,-1,-1,1,0,0,11.8
2361,0,-1,-1,-1,-2,-1,-1,-2,11.805
2362,0,0,-1,0,0,-2,-3,-1,11.81
2363,-1,-1,-1,0,0,-1,0,-2,11.815
2364,-1,-1,-2,-3,-1,-1,1,0,11.82
2365,-1,-2,0,-1,-1,1,0,0,11.825000000000001
2366,-1,-1,-1,0,-2,0,0,0,11.83
2367,-1,-2,-2,-1,-2,-1,-1,-1,11.835
2368,-1,-2,0,-1,-1,-1,-2,0,11.84
2369,-1,0,-1,0,-1,-2,-3,-1,11.845
2370,-2,-1,0,-1,0,-1,-1,0,11.85
2371,-2,-1,0,-2,-1,0,0,-1,11.855
2372,0,-1,-1,0,0,0,-2,0,11.86
2373,-2,0,-1,-1,-1,0,-1,0,11.865
2374,-1,-1,-1,-1,1,1,-1,-2,11.870000000000001
2375,-1,-1,0,-2,-2,0,-3,-1,11.875
2376,-1,-1,-2,-2,0,-3,0,-2,11.88
2377,-2,-2,-1,0,0,0,-1,-1,11.885
2378,-1,-2,-2,0,0,0,1,-2,11.89
2379,1,-2,-1,0,0,-1,-1,1,11.895
2380,1,-2,-1,0,0,-1,0,-1,11.9
2381,-1,-1,-2,0,-2,-1,0,0,11.905
2382,-2,1,-1,0,-2,-1,-1,-1,11.91
2383,-2,-1,-2,0,-1,-1,0,-1,11.915000000000001
2384,-1,-1,1,0,-3,0,-1,-1,11.92
2385,-1,0,0,-2,1,-1,0,-1,11.925
2386,0,-2,-2,-2,-1,0,-2,-1,11.93
2387,-2,-1,-2,1,-2,-1,0,1,11.935
2388,-1,0,-1,-2,-1,-1,-1,-2,11.94
2389,-2,0,-2,0,-2,-2,-1,-1,11.945
2390,-2,0,1,0,1,0,-1,-1,11.950000000000001
2391,1,0,0,-1,0,0,-2,-1,11.955
2392,-2,0,0,-1,0,-2,1,-1,11.96
2393,-1,-2,0,0,0,1,1,-1,11.965
2394,-1,0,-1,-1,-1,0,0,-2,11.97
2395,-1,-2,0,0,1,2,-2,-1,11.975
2396,-3,0,0,-1,-2,0,-1,1,11.98
2397,-2,0,-2,-1,-2,-1,-1,-1,11.985
2398,0,-1,0,0,-1,-1,-1,0,11.99
2399,0,1,-1,0,-1,-2,-1,-1,11.995000000000001
2400,0,-1,0,-2,-1,-2,-1,0,12.0
2401,0,0,0,0,-1,-1,0,-1,12.005
2402,-1,-2,-1,-2,-1,0,-2,0,12.01
2403,0,-1,1,-2,-1,0,1,-2,12.015
2404,-1,-1,0,1,1,-1,0,-1,12.02
2405,-1,0,-2,-1,-1,-1,0,-1,12.025
2406,-1,0,-1,-1,1,-1,1,-2,12.030000000000001
2407,-2,0,-1,-1,-1,0,-2,0,12.035
2408,0,-2,-1,-1,0,0,-2,0,12.040000000000001
2409,0,-1,0,0,0,0,0,0,12.045
2410,0,-1,0,-1,-1,-3,-1,-1,12.05
2411,-2,-1,-1,0,-3,-1,-2,0,12.055
2412,-1,-2,-1,-1,0,-2,0,-2,12.06
2413,-1,-2,-1,0,0,-1,-4,-1,12.065
2414,0,-2,-1,-2,-2,-1,-1,0,12.07
2415,-1,0,-1,-2,-2,-1,-1,0,12.075000000000001
2416,-1,0,-1,-2,-2,-1,0,0,12.08
2417,0,-1,-1,-2,-1,-1,-1,0,12.085
2418,0,-2,-1,0,-2,-1,0,0,12.09
2419,0,0,-1,-1,0,-2,-1,-2,12.095
2420,-2,0,-1,0,-2,-1,-1,-2,12.1
2421,-1,-1,0,0,0,0,0,0,12.105
2422,-1,1,0,-1,-1,-2,-1,-1,12.11
2423,0,0,-1,-1,0,-2,0,-1,12.115
2424,0,-2,0,0,-1,0,0,-1,12.120000000000001
2425,-1,-1,0,-2,-1,-2,-1,-2,12.125
2426,-3,-1,-2,-1,0,0,-1,0,12.13
2427,0,-1,0,0,-1,-1,-1,-2,12.135
2428,0,0,-3,-1,-2,0,-1,-1,12.14
2429,0,-1,-1,1,-2,1,-1,-2,12.145
2430,-1,0,-1,0,-1,-2,-1,-1,12.15
2431,-2,-1,-1,-1,0,-1,0,0,12.155000000000001
2432,-1,-1,-2,-1,0,0,-1,-1,12.16
2433,0,-1,-2,0,0,-3,0,-1,12.165000000000001
2434,-3,-1,-1,0,1,-1,-2,0,12.17
2435,0,-2,1,0,0,1,0,-1,12.175
2436,-1,-1,-1,-1,-1,1,-2,0,12.18
2437,-1,0,0,-1,-2,-2,-1,0,12.185
2438,0,-1,1,0,0,-2,-1,-1,12.19
2439,-2,-2,-2,0,-1,-1,1,-1,12.195
2440,-1,-1,0,0,-1,0,-2,-1,12.200000000000001
2441,0,0,-1,0,0,0,1,-1,12.205
2442,1,1,-1,-1,-1,-2,-1,1,12.21
2443,-1,-2,0,0,-1,-1,-1,0,12.215
2444,-1,0,0,-1,-2,-2,-1,-2,12.22
2445,-1,-1,0,-1,-3,-1,-1,-1,12.225
2446,-1,-1,0,-1,-3,0,-1,-2,12.23
2447,-2,-1,-1,0,0,0,-1,-1,12.235
2448,-1,-2,0,-1,0,-1,0,-2,12.24
2449,0,-1,-1,-2,0,-1,-1,-2,12.245000000000001
2450,-1,0,-2,0,-1,0,0,0,12.25
2451,0,-1,-1,-1,-1,-1,-1,-1,12.255
2452,0,0,-2,0,-1,-3,0,0,12.26
2453,0,0,-1,-2,0,0,-1,-1,12.265
2454,-1,0,-1,0,-2,-2,-1,-2,12.27
2455,0,0,-2,-1,0,-1,-1,-1,12.275
2456,-2,-1,-1,-1,0,-2,-1,0,12.280000000000001
2457,-2,0,0,1,0,-1,0,0,12.285
2458,-1,0,-2,-2,-1,1,0,-1,12.290000000000001
2459,0,-1,-1,-2,0,-1,0,-1,12.295
2460,0,2,-1,-1,-1,-1,0,-1,12.3
2461,0,9,-1,-2,-1,-1,-1,-1,12.305
2462,-1,7,-1,-1,0,0,-1,-1,12.31
2463,-1,2,0,-1,-1,-1,-2,1,12.315
2464,1,-3,-1,-2,0,0,0,-1,12.32
2465,-1,-6,0,0,-2,-1,-1,0,12.325000000000001
2466,0,-6,-1,-1,-1,-1,0,-1,12.33
2467,-2,-5,-1,-2,-2,2,0,0,12.335
2468,-2,-6,-1,0,1,0,0,-1,12.34
2469,-2,-7,-2,-1,-1,-2,0,-1,12.345
2470,0,-4,-3,-1,-1,-2,-2,0,12.35
2471,-1,-3,-1,-1,0,0,-1,-1,12.355
2472,-1,-2,-1,-3,1,-1,0,0,12.36
2473,0,-2,-1,-3,1,0,-3,-1,12.365
2474,0,-1,0,-1,-1,0,0,-1,12.370000000000001
2475,-1,1,0,-2,0,-1,-2,-2,12.375
2476,-2,1,-1,1,-2,0,-3,-1,12.38
2477,-1,-3,1,0,-1,0,-1,0,12.385
2478,-1,-1,0,-1,-1,1,0,-2,12.39
2479,-1,0,-1,0,0,0,0,-2,12.395
2480,-1,1,0,-1,-2,-1,0,-2,12.4
2481,1,-1,-2,0,-1,-1,0,-1,12.405000000000001
2482,-1,-1,-1,-1,-2,0,0,-1,12.41
2483,0,2,-3,-1,1,0,0,-1,12.415000000000001
2484,-1,0,-1,0,-1,-3,1,-1,12.42
2485,-1,-1,0,-1,-1,0,0,-1,12.425
2486,-1,-2,-2,-2,-1,-3,-1,0,12.43
2487,0,0,-1,-2,-1,-2,-1,-1,12.435
2488,-1,-1,0,0,-1,0,-1,0,12.44
2489,-2,-1,-1,-1,-1,-1,-2,-1,12.445
2490,0,-1,-1,-1,-1,0,0,-1,12.450000000000001
2491,0,-2,-2,-1,0,-1,0,-1,12.455
2492,0,-1,0,-1,-1,0,-1,0,12.46
2493,-1,-1,-1,-1,-1,-1,0,0,12.465
2494,-1,-1,0,0,-1,0,-1,-1,12.47
2495,0,0,-1,-1,-2,-1,0,-1,12.475
2496,-2,1,-2,0,-1,0,-2,0,12.48
2497,-1,-1,1,-1,-2,-2,-2,-1,12.485
2498,-2,-1,-2,-1,-1,0,-1,0,12.49
2499,-3,-1,0,-1,-1,-1,1,0,12.495000000000001
2500,-1,-1,-2,1,1,1,-2,-1,12.5
2501,-2,0,1,0,-1,-2,0,-1,12.505
2502,-1,-2,-2,0,-1,0,-2,-2,12.51
2503,-1,-1,0,-1,-1,-1,-2,0,12.515
2504,1,-2,-2,-2,0,-1,-2,-1,12.52
2505,0,-1,-2,-1,-1,0,-1,0,12.525
2506,0,-3,-2,0,-1,-1,-2,-1,12.530000000000001
2507,-1,-1,0,1,-2,-2,-1,-1,12.535
2508,0,0,-1,-2,-2,-1,1,0,12.540000000000001
2509,-1,-1,1,-2,-1,0,-1,-1,12.545
2510,-1,1,-1,-1,1,-2,1,0,12.55
2511,-1,-1,-4,-1,0,-1,-1,0,12.555
2512,0,0,-2,0,-2,-1,0,-1,12.56
2513,0,0,-1,-1,1,-1,1,2,12.565
2514,0,0,-1,-2,0,0,0,-1,12.57
2515,-1,0,-2,-2,1,0,-1,0,12.575000000000001
2516,0,0,1,0,-2,0,-2,-1,12.58
2517,-2,-1,-1,-2,-1,-1,-2,-1,12.585
2518,-1,0,-1,0,0,0,-2,-1,12.59
2519,-1,0,0,-1,2,-1,-1,-1,12.595
2520,0,-1,-2,-1,1,-2,0,-1,12.6
2521,-1,-2,-2,0,-1,1,-1,-2,12.605
2522,1,1,-1,-1,0,-1,1,-2,12.61
2523,0,-1,0,0,-2,0,0,-2,12.615
2524,0,0,-2,-2,1,0,0,0,12.620000000000001
2525,2,0,0,-1,-2,0,-1,-1,12.625
2526,0,0,-1,-1,-1,0,0,-1,12.63
2527,-2,-1,-1,-1,-2,-1,-1,0,12.635
2528,0,0,-1,-1,0,-1,-1,-1,12.64
2529,0,1,-1,-1,0,-1,-1,0,12.645
2530,-2,-2,-1,-1,-1,0,-2,0,12.65
2531,-1,-1,-1,0,-1,-2,1,-1,12.655000000000001
2532,-2,0,0,0,-1,0,-1,-1,12.66
2533,-1,0,-1,-1,-2,-1,2,0,12.665000000000001
2534,-1,0,1,-1,0,1,1,1,12.67
2535,-1,-1,-1,0,-2,0,-1,-2,12.675
2536,-2,-2,-1,-1,0,-2,0,0,12.68
2537,-1,-2,-2,0,0,-1,-3,-1,12.685
2538,-3,0,-1,0,-2,-1,0,0,12.69
2539,-1,-2,-1,1,-1,-1,-2,0,12.695
2540,0,0,-1,-1,-1,-1,-1,-1,12.700000000000001
2541,-1,-2,-1,-1,0,0,-1,-1,12.705
2542,1,0,1,1,-3,-2,-2,-2,12.71
2543,0,-2,0,-2,0,0,-2,-2,12.715
2544,-1,0,-1,2,-1,0,0,0,12.72
2545,-1,-1,-1,0,-1,0,0,-1,12.725
2546,-1,-2,-1,-2,-1,-1,0,-1,12.73
2547,0,-1,0,-3,-1,-1,1,-2,12.735
2548,-1,-2,0,0,-2,-1,-1,-2,12.74
2549,1,-1,-2,-1,-1,-1,-3,-1,12.745000000000001
2550,-1,-1,1,-2,-1,1,0,-1,12.75
2551,0,0,-1,-1,-1,0,-1,1,12.755
2552,-1,-1,-2,-1,0,0,1,0,12.76
2553,1,0,-1,0,-1,-1,0,-2,12.765
2554,-1,0,-2,-2,-2,-3,-2,0,12.77
2555,-1,-2,-1,-2,-1,-1,-2,-1,12.775
2556,0,-1,-2,0,-2,0,-1,0,12.780000000000001
2557,0,0,0,0,-1,-1,0,-1,12.785
2558,0,0,-1,1,-2,-1,-1,0,12.790000000000001
2559,-2,1,1,1,0,1,-2,-2,12.795
2560,0,-1,-1,-3,0,0,-2,-1,12.8
2561,-2,-1,-2,-1,-3,-2,0,0,12.805
2562,-1,-1,-2,-1,1,0,-2,1,12.81
2563,-1,-1,0,0,-1,-2,0,-1,12.815
2564,1,0,0,0,-1,-1,-1,-1,12.82
2565,-1,-2,-2,-1,0,-1,-1,-3,12.825000000000001
2566,0,0,-1,0,0,-3,-2,-3,12.83
2567,0,-2,-2,-1,-2,-1,-1,0,12.835
2568,-2,-1,0,-1,-2,-2,-1,-1,12.84
2569,-1,0,-1,-2,-2,0,1,-2,12.845
2570,-2,0,-1,-1,-1,0,-1,-2,12.85
2571,0,0,-1,-1,-1,1,-1,-1,12.855
2572,-1,-3,-1,0,-2,-1,-2,-1,12.86
2573,0,0,-1,-2,-1,-1,0,-1,12.865
2574,-1,-1,0,-1,-1,-3,-1,-1,12.870000000000001
2575,0,-1,-2,0,1,-2,1,0,12.875
2576,-1,-1,0,-2,-1,-1,-1,0,12.88
2577,0,0,-1,-2,-1,-1,-1,-1,12.885
2578,-1,-2,0,0,-1,0,-1,1,12.89
2579,-1,-1,-2,-1,-1,-2,0,-1,12.895
2580,0,-1,-2,0,0,-1,-1,-2,12.9
2581,-1,-2,0,0,1,1,0,0,12.905000000000001
2582,-2,-1,-2,0,-1,0,0,0,12.91
2583,0,0,-2,-2,-1,0,0,-2,12.915000000000001
2584,0,-1,1,-1,-1,0,-2,-1,12.92
2585,-1,-1,-1,-2,0,0,0,-1,12.925
2586,-1,-2,-1,-1,-2,-1,-1,0,12.93
2587,-1,-1,0,0,-1,-1,-1,0,12.935
2588,0,-1,0,-1,-1,0,0,-1,12.94
2589,0,0,-2,0,0,-2,-2,0,12.945
2590,-1,-2,0,-2,-2,0,-1,-1,12.950000000000001
2591,0,0,0,-1,-1,-1,-2,-1,12.955
2592,0,-1,0,-2,-1,0,0,0,12.96
2593,-2,0,0,0,-1,-1,0,0,12.965
2594,0,0,0,-1,0,0,-1,0,12.97
2595,0,-1,-2,-1,-1,0,-3,1,12.975
2596,-3,0,-1,0,-2,0,-1,0,12.98
2597,-1,0,0,-1,0,0,-1,0,12.985
2598,1,-1,0,-2,-1,-1,-1,-2,12.99
2599,1,-1,-1,-1,-1,0,0,-2,12.995000000000001
2600,-1,0,-1,-1,-1,-2,-2,0,13.0
2601,-2,-2,-2,0,0,0,-1,0,13.005
2602,-2,0,-1,0,0,1,-2,-1,13.01
2603,0,-1,-1,-1,-1,-1,1,-2,13.015
2604,0,-1,-1,1,0,0,0,-1,13.02
2605,0,-1,-1,0,-1,-2,-1,-1,13.025
2606,-2,1,-1,-1,-2,0,1,0,13.030000000000001
2607,0,0,0,0,-2,0,-1,-1,13.035
2608,2,0,-1,-1,0,-1,1,-1,13.040000000000001
2609,-1,-1,-1,0,-1,-1,-2,-1,13.045
2610,0,-1,-1,-1,0,-2,0,-2,13.05
2611,-2,0,-1,-2,-1,0,-2,0,13.055
2612,-1,-2,1,0,-1,0,0,-1,13.06
2613,-1,0,-1,0,0,-1,-1,-1,13.065
2614,-1,1,-2,-2,-2,-2,-1,-3,13.07
2615,0,-1,-1,0,0,-1,-1,-1,13.075000000000001
2616,0,-1,-2,0,-2,-1,-1,-1,13.08
2617,-2,0,-2,-1,-1,-1,-2,1,13.085
2618,0,0,-2,-2,-1,-3,-1,0,13.09
2619,-1,0,0,1,-1,0,1,-1,13.095
2620,-1,0,0,-2,-1,1,-1,0,13.1
2621,0,-1,-1,-1,0,-1,1,-3,13.105
2622,0,0,-2,0,-2,0,0,0,13.11
2623,-1,0,-1,0,0,-1,-3,-1,13.115
2624,-2,-1,-2,-3,0,-2,0,-1,13.120000000000001
2625,-2,1,0,-2,-1,-1,-1,-1,13.125
2626,-1,-1,0,-1,-1,1,-1,0,13.13
2627,-2,-1,0,-1,-1,0,0,-1,13.135
2628,0,0,-2,0,-1,1,-1,0,13.14
2629,0,0,1,0,-1,0,0,-1,13.145
2630,1,-1,-1,0,1,-1,-3,-1,13.15
2631,-1,-1,0,-1,-1,0,1,-2,13.155000000000001
2632,-1,0,-1,-1,-1,-1,-1,-2,13.16
2633,-1,0,-3,-2,-1,0,-1,0,13.165000000000001
2634,-1,-1,0,1,-1,0,-1,-2,13.17
2635,0,-2,-1,-1,0,-2,-1,-2,13.175
2636,1,-2,-1,0,-2,-2,0,-2,13.18
2637,-1,-3,-1,0,-1,-1,-1,0,13.185
2638,-2,-1,-1,1,-1,-2,-1,0,13.19
2639,0,1,0,-1,-1,-1,-1,-1,13.195
2640,-2,-1,0,-2,0,0,-1,0,13.200000000000001
2641,0,-2,0,1,-2,1,-2,-1,13.205
2642,1,-1,-1,0,1,-2,-2,2,13.21
2643,-2,0,-2,0,-1,-1,-2,-1,13.215
2644,-1,0,-1,-1,1,-2,0,0,13.22
2645,0,1,0,0,-1,-1,-1,-1,13.225
2646,-2,-1,-2,-2,0,2,1,-1,13.23
2647,-1,-1,-1,0,0,-1,-2,0,13.235
2648,-2,0,-1,-1,-1,0,-1,-1,13.24
2649,-2,-2,-2,-2,1,-1,-1,-1,13.245000000000001
2650,1,-1,-1,-1,-1,0,-1,-2,13.25
2651,0,-1,-1,-1,-1,0,1,-1,13.255
2652,-1,0,0,1,-1,0,0,-1,13.26
2653,0,-1,0,-1,-2,0,-2,0,13.265
2654,-1,-1,0,-1,0,-2,-2,-2,13.27
2655,0,-1,-1,1,1,-1,1,0,13.275
2656,-2,-2,-1,-1,-1,-2,0,0,13.280000000000001
2657,0,0,-1,-2,0,0,-1,-2,13.285
2658,0,-1,-1,0,-1,-1,1,0,13.290000000000001
2659,-1,-2,-1,-3,-2,-1,-2,1,13.295
2660,-1,-2,0,-1,-1,-1,-2,-2,13.3
2661,0,0,-1,-1,0,0,0,0,13.305
2662,-2,0,0,-1,-1,-1,0,-1,13.31
2663,2,0,0,0,0,-1,-1,1,13.315
2664,-1,-1,-2,0,0,-1,-2,0,13.32
2665,-1,0,-2,-1,-1,-2,0,-1,13.325000000000001
2666,0,-1,-1,0,0,-1,-1,-1,13.33
2667,-1,-1,-1,0,-1,0,-1,-2,13.335
2668,0,0,-1,0,-1,0,0,0,13.34
2669,-2,-1,-1,0,-1,-1,0,-1,13.345
2670,0,0,0,-1,-1,-1,0,-1,13.35
2671,-3,-1,-1,-3,-1,-2,0,-1,13.355
2672,-1,-1,-1,0,-1,-1,-1,-1,13.36
2673,-1,-1,-1,0,-2,-1,-3,-1,13.365
2674,-1,0,-1,-2,-1,0,0,-1,13.370000000000001
2675,-1,-1,0,0,0,-1,0,-1,13.375
2676,0,-1,0,-1,0,-1,-3,-2,13.38
2677,0,-2,0,1,-1,-2,-1,0,13.385
2678,-2,-1,0,-1,-3,-1,-2,0,13.39
2679,-3,0,0,0,-1,-1,1,1,13.395
2680,-2,-1,0,0,0,1,0,-1,13.4
2681,-2,0,0,-1,-1,-1,0,-2,13.405000000000001
2682,0,-1,-2,0,-1,-1,0,-1,13.41
2683,1,0,-2,0,-1,-2,-3,-2,13.415000000000001
2684,1,-2,-2,0,-2,-1,0,0,13.42
2685,0,0,-1,-1,-1,1,0,0,13.425
2686,0,0,1,0,-1,-1,-1,-1,13.43
2687,0,-1,-2,-1,-1,-2,-1,0,13.435
2688,0,1,0,-1,0,-2,-2,0,13.44
2689,-1,-1,0,-1,1,-1,0,0,13.445
2690,0,-1,-2,-1,0,-2,1,-2,13.450000000000001
2691,-1,0,0,0,0,0,0,-1,13.455
2692,-2,-1,-2,0,0,0,0,-1,13.46
2693,-1,-3,0,-3,-2,-2,-1,0,13.465
2694,-1,-1,-2,-2,0,0,-3,0,13.47
2695,-1,0,-1,-2,-3,-1,-2,-2,13.475
2696,1,-2,-2,-1,-2,-1,0,0,13.48
2697,1,0,0,-1,0,0,-1,-1,13.485
2698,-1,-2,-1,0,1,-1,-1,-2,13.49
2699,-1,0,-2,0,-1,-1,-1,0,13.495000000000001
2700,-2,0,0,-2,-1,0,0,0,13.5
2701,0,0,-1,1,-1,0,-2,1,13.505
2702,-1,-1,-1,-1,-2,-2,-3,-2,13.51
2703,0,0,-1,-1,-2,-1,0,-1,13.515
2704,0,-1,0,-1,0,0,1,0,13.52
2705,1,-1,1,0,-1,-3,0,-2,13.525
2706,-2,0,-1,-1,0,-1,-2,-1,13.530000000000001
2707,-1,-1,0,0,-1,0,-1,1,13.535
2708,0,1,0,-1,0,-1,-2,-1,13.540000000000001
2709,-1,-1,-2,-2,-1,0,-1,-2,13.545
2710,1,0,-1,0,-1,0,1,1,13.55
2711,0,-2,0,-3,-1,-2,-2,0,13.555
2712,0,-2,-1,-1,-1,0,0,0,13.56
2713,-1,-2,-1,-2,0,-1,-1,-1,13.565
2714,-1,0,-1,-1,-1,0,0,-1,13.57
2715,-1,-2,0,-1,-1,-1,-1,-2,13.575000000000001
2716,-2,0,-3,0,0,-1,0,-2,13.58
2717,1,-2,-2,-1,-3,0,0,2,13.585
2718,-2,-1,-1,-1,-2,1,-2,-1,13.59
2719,-1,-3,0,-1,0,-2,0,-1,13.595
2720,-2,-1,-2,-1,-2,-1,-2,-1,13.6
2721,-1,1,-1,0,-3,0,-1,-2,13.605
2722,1,-1,1,-1,0,-2,-1,-1,13.61
2723,1,-1,-1,-2,0,1,-1,-1,13.615
2724,0,-1,-1,-1,-1,0,0,0,13.620000000000001
2725,-1,-1,0,0,1,-1,-1,0,13.625
2726,0,-2,-1,0,-1,0,-1,0,13.63
2727,-1,-1,0,1,0,0,-1,-2,13.635
2728,-1,-1,0,-1,0,-1,-1,-1,13.64
2729,-1,-1,0,0,0,-1,0,-1,13.645
2730,-1,1,-1,-1,0,1,0,-2,13.65
2731,-2,-1,-2,-1,-1,-1,-2,0,13.655000000000001
2732,0,-1,-2,-2,0,1,1,0,13.66
2733,-3,-2,-2,-1,-1,-2,0,0,13.665000000000001
2734,-1,-1,0,1,-2,-1,-1,-1,13.67
2735,0,-1,-1,-1,0,0,1,-1,13.675
2736,0,0,1,-1,-2,-1,-2,0,13.68
2737,-1,0,-2,1,-1,-1,-1,0,13.685
2738,0,-1,-1,-2,-1,0,0,-1,13.69
2739,-1,-1,0,-1,-2,-2,0,-1,13.695
2740,-1,-1,-1,1,0,-1,-1,-3,13.700000000000001
2741,-1,-1,-1,0,0,0,-2,-2,13.705
2742,0,0,0,-2,-1,-1,-1,0,13.71
2743,-2,-1,-1,-2,0,0,0,0,13.715
2744,0,-2,-2,-2,-1,-1,-1,-1,13.72
2745,-1,0,1,-1,-1,1,-1,0,13.725
2746,0,-1,-1,-1,1,-1,0,-1,13.73
2747,0,1,-2,0,0,0,0,0,13.735
2748,-1,-2,1,-2,-1,-2,-1,-1,13.74
2749,-1,-1,-1,-2,-1,0,0,0,13.745000000000001
2750,-3,0,-2,-1,-1,0,0,-1,13.75
2751,0,-2,0,-1,-1,0,0,-2,13.755
2752,-1,1,0,-1,0,0,0,0,13.76
2753,1,0,-2,-1,-1,0,0,-1,13.765
2754,0,-1,0,-2,-2,1,0,0,13.77
2755,-2,0,-1,-1,-1,0,0,1,13.775
2756,-1,-1,-2,0,-1,-1,-1,1,13.780000000000001
2757,-1,0,-1,-1,-1,-1,-1,-1,13.785
2758,-1,-1,-1,0,-1,-1,-1,-2,13.790000000000001
2759,-2,0,0,1,0,-1,-2,-2,13.795
2760,-1,-1,0,0,1,1,1,-3,13.8
2761,0,0,-1,0,0,-1,1,-2,13.805
2762,0,-1,-1,-1,0,-1,0,0,13.81
2763,0,-2,-2,-1,-1,-1,0,0,13.815
2764,0,-1,0,0,-1,0,-2,-2,13.82
2765,-1,-2,0,-1,-1,-2,-2,-2,13.825000000000001
2766,0,-1,0,-2,1,-2,0,0,13.83
2767,-1,0,-1,0,0,1,0,-1,13.835
2768,0,-1,-1,-1,-2,-1,-1,1,13.84
2769,-1,-1,-1,0,-1,0,-1,1,13.845
2770,-1,-1,-1,-1,-1,-2,-2,-1,13.85
2771,0,0,0,0,-1,0,1,0,13.855
2772,-1,0,0,-2,-1,-3,-1,0,13.86
2773,0,0,-1,-1,0,0,-1,-1,13.865
2774,-2,0,-1,-2,0,-2,0,-1,13.870000000000001
2775,0,-1,-1,-1,-1,-3,-1,-1,13.875
2776,-2,-1,-2,0,-2,-1,-2,-1,13.88
2777,-1,-1,0,-1,0,0,-1,-1,13.885
2778,0,-2,-2,-1,-1,0,1,-1,13.89
2779,-2,-2,-1,-2,-2,1,-1,-1,13.895
2780,0,-1,-1,-1,0,-3,0,1,13.9
2781,-2,0,-2,0,0,-2,-1,-1,13.905000000000001
2782,0,-1,-1,2,-2,0,-1,0,13.91
2783,-2,-1,-1,0,-1,-2,-1,0,13.915000000000001
2784,0,-2,-1,-2,0,1,-1,0,13.92
2785,0,-1,0,-1,-2,-1,0,-1,13.925
2786,-1,0,-1,-1,-1,0,-1,0,13.93
2787,-1,-1,0,0,-2,-2,-1,-1,13.935
2788,-1,-2,-1,-1,-2,-1,-1,-1,13.94
2789,-1,-1,-3,0,-1,-1,-4,0,13.945
2790,1,0,-1,-1,0,-1,-1,0,13.950000000000001
2791,0,0,-2,-1,1,0,1,0,13.955
2792,-1,1,0,-1,-1,-1,0,-1,13.96
2793,-2,1,0,-1,-2,-1,-1,-1,13.965
2794,0,-2,-1,-2,0,1,-1,-1,13.97
2795,-1,-2,-2,-1,0,-1,-1,0,13.975
2796,0,-1,-1,-1,0,0,0,-2,13.98
2797,0,-1,-2,-1,-1,0,-1,-2,13.985
2798,0,-1,0,-1,-1,-1,-1,0,13.99
2799,-1,0,-1,-3,-1,1,-1,-2,13.995000000000001
2800,-1,-1,0,-1,1,-1,-1,-1,14.0
2801,0,-1,0,-2,-1,0,1,0,14.005
2802,-1,1,0,-1,-2,0,-1,0,14.01
2803,0,-2,-1,-1,-1,0,0,-1,14.015
2804,0,-1,-3,2,-1,0,0,0,14.02
2805,0,-1,-2,1,0,-1,-1,-1,14.025
2806,0,0,0,0,1,-1,-1,-2,14.030000000000001
2807,0,-2,-1,-1,0,0,-2,0,14.035
2808,-2,0,-1,-1,0,-1,-1,-1,14.040000000000001
2809,-1,-2,0,-1,-2,-1,-1,0,14.045
2810,-3,-1,-1,0,-2,-2,0,-1,14.05
2811,0,0,0,0,-3,-1,-3,0,14.055
2812,0,-2,-1,-1,-1,0,2,-1,14.06
2813,-1,-2,-1,-1,-2,-1,-1,-2,14.065
2814,-1,-1,1,-1,0,-1,-2,0,14.07
2815,-2,0,1,0,-1,0,-1,0,14.075000000000001
2816,-2,-2,0,0,-2,-1,-1,-2,14.08
2817,-1,0,-1,-1,0,-1,0,-1,14.085
2818,0,-2,-1,-2,-1,0,-1,0,14.09
2819,-2,1,-1,-1,1,-1,1,-1,14.095
2820,-3,0,-1,1,-2,0,-1,1,14.1
2821,-1,-1,0,0,-1,-2,0,-1,14.105
2822,-2,0,-1,0,-1,-2,-1,-1,14.11
2823,-1,1,0,0,-1,-1,-1,-2,14.115
2824,-1,-1,0,-1,-1,0,-1,-1,14.120000000000001
2825,0,1,0,-1,0,0,-1,-1,14.125
2826,-1,-2,-1,1,-2,0,-1,-2,14.13
2827,1,-1,-1,-2,-1,-1,0,0,14.135
2828,0,-1,-2,-1,-1,-2,0,-1,14.14
2829,-2,1,0,-1,-2,-1,-1,-1,14.145
2830,-1,1,-1,-1,0,-1,1,-1,14.15
2831,2,-2,0,-2,-2,-1,-2,0,14.155000000000001
2832,1,-1,-2,-1,-2,0,-3,0,14.16
2833,0,1,-1,-1,0,0,-3,0,14.165000000000001
2834,0,-1,-2,-1,-1,-2,0,1,14.17
2835,-2,-1,-1,1,-1,-1,0,0,14.175
2836,-1,0,0,-1,0,-1,-2,-1,14.18
2837,0,-1,-2,-1,0,0,1,-2,14.185
2838,-3,0,-1,0,-1,1,-1,-1,14.19
2839,0,0,-1,0,-1,-1,1,-2,14.195
2840,-1,-2,-1,-2,-1,-1,-1,-1,14.200000000000001
2841,-1,-5,0,0,-1,-1,-1,1,14.205
2842,1,-2,-1,-3,0,0,0,-2,14.21
2843,-1,-1,-1,0,0,-1,-1,-1,14.215
2844,0,0,-2,1,-2,-2,-1,-1,14.22
2845,-1,0,0,-1,-1,-2,0,-1,14.225
2846,-1,0,-2,-2,0,-2,-2,0,14.23
2847,-1,0,-2,-1,0,-1,-1,-1,14.235
2848,0,-1,-1,-2,-1,0,-2,-1,14.24
2849,-1,0,-1,0,0,-1,-1,0,14.245000000000001
2850,-1,-2,-1,-1,-1,-1,-3,0,14.25
2851,-1,-3,-3,-2,-1,0,-1,-1,14.255
2852,-1,-1,0,-1,-1,-1,-1,-1,14.26
2853,0,-2,-1,-1,-1,1,0,0,14.265
2854,-2,-1,1,0,-1,-1,-3,-2,14.27
2855,-1,-2,-1,-2,-1,-2,0,0,14.275
2856,-1,-1,-1,-1,-1,-1,-1,-2,14.280000000000001
2857,-2,-1,-2,-1,0,-1,-1,-1,14.285
2858,0,1,-2,-2,0,1,0,-1,14.290000000000001
2859,-1,0,1,0,-1,2,-2,0,14.295
2860,-1,-2,-1,1,0,-1,-1,-1,14.3
2861,-1,0,0,-1,-3,0,0,-1,14.305
2862,-1,-2,0,0,-1,0,1,-1,14.31
2863,-2,-2,-1,0,-1,-1,0,0,14.315
2864,-1,-2,-1,-3,0,0,0,-1,14.32
2865,-1,-1,-2,-1,1,-2,-2,-2,14.325000000000001
2866,-1,-1,-2,-3,-1,-1,2,-2,14.33
2867,-2,-1,0,-2,-2,-1,-1,0,14.335
2868,-1,-1,-1,2,0,-1,-1,-2,14.34
2869,-2,-1,-2,-1,-1,-1,0,0,14.345
2870,-2,-1,0,0,-2,0,0,0,14.35
2871,1,-2,-2,-2,0,-1,-1,-1,14.355
2872,-1,-1,-1,-2,-1,-2,-1,-1,14.36
2873,0,-1,-1,-1,0,-1,-1,-1,14.365
2874,-1,-1,-2,-1,-1,-1,-3,-1,14.370000000000001
2875,-1,-1,0,1,-1,-1,0,-1,14.375
2876,1,1,0,-1,0,1,0,0,14.38
2877,-1,-1,0,0,-3,1,0,-2,14.385
2878,0,-2,0,0,-1,-1,0,0,14.39
2879,1,-1,-1,-1,0,-2,-1,0,14.395
2880,0,1,-2,-1,-1,0,-1,-1,14.4
2881,-1,-1,0,-1,-2,0,-3,0,14.405000000000001
2882,0,0,-1,0,0,0,-1,0,14.41
2883,-2,-1,-1,1,-1,0,-1,0,14.415000000000001
2884,0,-2,-1,-1,1,-1,-1,-2,14.42
2885,0,-1,-1,-2,-1,-1,0,0,14.425
2886,-1,-1,-2,0,-1,0,-1,0,14.43
2887,0,1,-2,0,-1,0,0,-2,14.435
2888,-1,-1,-1,-3,-1,-1,0,1,14.44
2889,-2,0,-2,-1,-1,-1,-2,0,14.445
2890,0,0,-1,-1,-2,-2,-1,-1,14.450000000000001
2891,-1,-2,0,-2,0,-1,-2,0,14.455
2892,-2,0,-2,1,0,0,-1,-1,14.46
2893,0,-1,-1,0,-1,1,-1,-2,14.465
2894,-1,-1,0,0,-1,-2,-1,0,14.47
2895,-1,-1,-2,-2,0,0,1,-2,14.475
2896,-2,-1,0,-1,-1,-1,0,0,14.48
2897,-1,0,-2,0,-2,-1,0,0,14.485
2898,0,-1,0,0,-1,1,-1,-3,14.49
2899,-3,0,-2,0,0,0,-1,0,14.495000000000001
2900,-1,0,1,-2,-2,0,-1,0,14.5
2901,-1,0,-2,0,0,0,0,-1,14.505
2902,-1,-1,0,-2,-1,-2,0,-1,14.51
2903,2,-1,0,0,-2,-1,-1,0,14.515
2904,-2,-2,-2,-1,-1,0,-1,0,14.52
2905,0,0,0,-1,-2,-1,0,-1,14.525
2906,1,-2,-1,1,-1,-2,-2,0,14.530000000000001
2907,0,-1,0,-2,-2,0,0,0,14.535
2908,1,-2,0,-1,-1,-1,-1,-1,14.540000000000001
2909,0,-1,0,-2,0,-2,0,0,14.545
2910,-1,-3,-1,-1,0,0,0,-1,14.55
2911,-1,-1,-1,-2,-2,-2,-1,-2,14.555
2912,0,-1,-2,0,0,0,-1,-1,14.56
2913,1,-1,0,-1,-1,-1,-2,-1,14.565
2914,-2,1,-1,-1,0,2,0,0,14.57
2915,0,-2,0,0,-1,-2,-2,-1,14.575000000000001
2916,-1,0,-1,-2,-2,-1,0,0,14.58
2917,0,-2,0,-1,0,-1,0,-1,14.585
2918,-2,-1,-1,-1,0,-1,0,1,14.59
2919,-1,-2,1,0,0,-1,-1,0,14.595
2920,-2,0,0,-1,-1,-1,0,1,14.6
2921,-1,-1,-1,-2,-2,-2,-1,-1,14.605
2922,0,-1,-1,-2,-1,-1,0,-1,14.61
2923,-3,-1,-1,-1,1,-1,0,0,14.615
2924,0,-2,-2,0,-1,0,-1,0,14.620000000000001
2925,0,-1,-1,-1,0,0,0,-2,14.625
2926,-1,0,-1,-2,1,1,-1,1,14.63
2927,-1,-1,-1,-2,-1,-1,0,0,14.635
2928,-1,0,-1,0,0,0,-2,-2,14.64
2929,-1,-1,0,-2,0,-2,-1,-1,14.645
2930,0,-1,-1,1,0,-1,0,-2,14.65
2931,1,0,-1,-2,-1,-2,-1,0,14.655000000000001
2932,0,-3,-2,-2,1,-1,-1,-2,14.66
2933,-1,1,0,0,1,-1,2,0,14.665000000000001
2934,0,0,-1,0,-1,-1,-2,-2,14.67
2935,0,0,0,-2,0,1,0,-2,14.675
2936,0,0,-1,-1,-1,-2,-2,0,14.68
2937,-1,-1,0,0,1,1,0,-1,14.685
2938,-2,-1,1,-2,-2,-1,1,2,14.69
2939,-2,-1,-2,0,-1,0,-1,-1,14.695
2940,1,-1,-1,-1,-1,0,1,-2,14.700000000000001
2941,-1,-2,-2,-2,0,-2,-1,0,14.705
2942,-1,-1,-1,1,0,0,-2,-1,14.71
2943,-2,-1,0,-1,-2,-1,-1,-1,14.715
2944,-1,-1,0,-1,0,0,0,-1,14.72
2945,-2,-1,-1,-1,-2,0,0,0,14.725
2946,0,1,0,-2,-3,0,-2,-3,14.73
2947,-1,-2,-2,1,0,-2,-1,0,14.735
2948,-1,-1,0,-1,0,-1,0,0,14.74
2949,0,-2,-1,-1,-1,0,0,1,14.745000000000001
2950,0,-1,-2,-1,1,-1,0,-1,14.75
2951,1,-1,-1,-2,0,-1,-1,-2,14.755
2952,-2,-2,-1,-1,-2,0,0,-1,14.76
2953,0,0,0,-2,-2,-2,-1,0,14.765
2954,-1,-2,-1,1,-1,-2,1,0,14.77
2955,1,0,-1,-1,-1,-1,0,0,14.775
2956,-3,0,0,0,0,-1,-2,-1,14.780000000000001
2957,0,0,-1,-1,0,1,-1,-2,14.785
2958,-1,-2,-1,-2,-2,0,0,0,14.790000000000001
2959,0,-1,1,-1,-1,0,0,-1,14.795
2960,0,-1,-1,-2,-1,-1,-1,-1,14.8
2961,-1,1,-1,0,0,-1,-2,-1,14.805
2962,0,0,-1,-2,-2,-2,-3,0,14.81
2963,1,0,-1,0,-1,0,0,-1,14.815
2964,-2,-1,-2,-1,1,0,0,0,14.82
2965,0,0,-1,1,0,0,0,-2,14.825000000000001
2966,0,-1,-1,-1,1,-1,1,0,14.83
2967,-2,0,-1,0,-1,0,-1,-1,14.835
2968,0,0,0,0,-3,-2,-1,-1,14.84
2969,-1,0,-2,-1,-1,0,-3,-2,14.845
2970,1,-1,-1,-1,0,-3,-1,0,14.85
2971,-1,1,-1,-2,-1,-1,-3,-1,14.855
2972,0,-1,-1,-2,-1,-2,-1,-1,14.86
2973,-1,-1,0,1,1,-1,-1,0,14.865
2974,-2,-1,1,-1,-1,0,-1,-2,14.870000000000001
2975,1,-1,-1,0,-1,-2,2,0,14.875
2976,0,-1,-1,-1,0,-1,0,0,14.88
2977,1,0,-2,-1,-3,-1,-1,0,14.885
2978,-1,0,-1,-3,0,-1,-1,0,14.89
2979,-1,-1,-1,-1,-1,1,0,-1,14.895
2980,-1,-1,-1,-1,-1,2,-2,-2,14.9
2981,-3,-1,-1,-2,-1,-1,1,0,14.905000000000001
2982,-1,0,-1,-2,0,-1,-2,-1,14.91
2983,-3,-1,0,0,-2,-2,-2,0,14.915000000000001
2984,0,0,0,0,-2,0,0,-1,14.92
2985,-1,-1,1,-1,0,-2,0,-3,14.925
2986,0,0,-2,0,-2,-2,0,0,14.93
2987,0,-2,0,-1,0,0,0,-1,14.935
2988,0,0,-1,-1,-1,0,0,-1,14.94
2989,1,-2,0,0,-1,0,-1,-1,14.945
2990,-1,-2,0,-2,-1,1,-1,-1,14.950000000000001
2991,0,-1,0,-1,0,0,0,-2,14.955
2992,-1,-2,0,0,-1,-2,-1,0,14.96
2993,0,-2,-3,0,-2,0,-1,0,14.965
2994,-1,-1,0,-1,-1,-1,-2,0,14.97
2995,-1,-2,-2,0,0,-1,-1,-1,14.975
2996,2,-1,0,-1,-1,0,-2,0,14.98
2997,-1,0,0,-1,-2,0,1,-2,14.985
2998,0,-2,-2,1,-1,1,1,-2,14.99
2999,-2,-3,-1,-1,0,0,-1,0,14.995000000000001
3000,-1,-1,-1,-1,0,-2,-1,-1,15.0
3001,-2,-1,0,-2,-1,-2,-2,-1,15.005
3002,-3,0,-1,0,1,0,0,0,15.01
3003,-1,2,-1,-1,-1,-2,-1,-1,15.015
3004,0,-1,-2,-2,0,-2,0,0,15.02
3005,-1,0,-1,-1,-2,-1,-1,1,15.025
3006,0,-1,-1,0,0,-2,-2,-2,15.030000000000001
3007,1,-1,-1,0,-1,0,-1,-1,15.035
3008,-1,0,0,0,-1,-1,-1,-1,15.040000000000001
3009,-1,1,-2,2,-2,0,-1,0,15.045
3010,-1,-2,-1,-1,0,-1,-2,-1,15.05
3011,0,-1,1,0,-2,-2,-1,0,15.055
3012,-1,-1,-2,1,-1,-1,-1,-1,15.06
3013,-1,0,1,-1,-1,0,-1,-1,15.065
3014,-1,-1,-3,-1,-2,-1,-1,0,15.07
3015,-1,0,-2,0,0,0,0,-1,15.075000000000001
3016,-1,-2,-1,-1,-2,-2,0,-1,15.08
3017,0,-2,0,-1,1,-1,0,0,15.085
3018,-2,-2,-1,-1,-1,0,0,-1,15.09
3019,-1,-1,-1,-3,-2,0,0,-1,15.095
3020,-1,0,-1,-1,0,-1,-1,-2,15.1
3021,1,-1,-1,-2,-2,-1,0,0,15.105
3022,0,-1,-1,0,-1,-1,-2,1,15.11
3023,0,-1,1,-1,-1,-1,0,-1,15.115
3024,-1,-1,0,-1,1,0,-1,1,15.120000000000001
3025,-1,-1,0,-1,0,-1,0,-1,15.125
3026,-1,0,0,-1,0,0,-2,-1,15.13
3027,0,-2,-2,-1,-1,-1,-1,0,15.135
3028,-2,-2,-1,-1,0,-1,-1,-1,15.14
3029,0,0,-1,-1,-1,0,-1,-1,15.145
3030,0,1,-1,-2,-2,1,0,-1,15.15
3031,1,-1,-2,-1,0,-1,-1,-1,15.155000000000001
3032,0,0,-1,-1,-2,-1,0,-1,15.16
3033,-3,-1,-1,-1,1,0,1,-1,15.165000000000001
3034,0,0,1,-1,0,-2,0,-2,15.17
3035,0,-1,1,-2,0,-1,0,-2,15.175
3036,-3,0,-1,-1,0,-2,0,-1,15.18
3037,-1,-1,-1,0,1,-2,-1,0,15.185
3038,-3,-1,0,-1,-2,-1,-1,1,15.19
3039,-1,-2,0,-1,-1,-1,-1,0,15.195
3040,-2,0,0,0,0,0,-1,-2,15.200000000000001
3041,1,0,-1,0,-1,-1,-1,-1,15.205
3042,0,0,-1,0,-1,-1,-1,-1,15.21
3043,-2,-1,-1,0,0,0,0,-2,15.215
3044,0,-1,-1,-1,-3,0,0,0,15.22
3045,-2,-1,-1,-2,-1,-1,-1,-1,15.225
3046,-1,-1,-1,0,0,0,-1,0,15.23
3047,0,0,-1,0,-1,0,-1,-2,15.235
3048,-2,0,-1,-1,0,1,-1,0,15.24
3049,-1,-1,-1,0,-1,-3,-2,0,15.245000000000001
3050,-1,0,-1,-1,-2,-2,1,-1,15.25
3051,-1,0,0,0,0,-2,-1,0,15.255
3052,0,-1,-1,-1,0,-1,0,-1,15.26
3053,0,-1,-1,-2,1,-2,1,-1,15.265
3054,-2,-2,-1,0,-1,-2,-2,0,15.27
3055,-1,-3,0,-1,0,1,0,-1,15.275
3056,-2,-1,-2,-2,-1,-1,0,0,15.280000000000001
3057,0,-1,0,-1,-1,-1,0,-1,15.285
3058,0,1,0,-1,0,-2,-1,-1,15.290000000000001
3059,-2,-1,-1,0,-2,0,0,0,15.295
3060,-1,-1,-1,0,-2,-3,-2,0,15.3
3061,-2,-1,-1,0,0,1,-1,0,15.305
3062,-1,-1,-2,0,-1,0,0,-1,15.31
3063,-2,-1,0,0,-1,0,-1,-1,15.315
3064,1,-3,0,0,-1,0,1,-1,15.32
3065,-1,-3,-2,-1,-1,-1,-1,-1,15.325000000000001
3066,0,-1,-2,0,0,-3,-1,-1,15.33
3067,0,-1,-2,0,-1,0,-1,0,15.335
3068,-1,-1,0,0,-2,-1,-1,2,15.34
3069,-1,-1,-2,0,-1,-1,1,-1,15.345
3070,-1,-1,-1,-2,-2,0,-1,-1,15.35
3071,0,-2,0,-1,-1,-1,-3,-2,15.355
3072,-1,-1,0,-1,-1,0,-1,-1,15.36
3073,0,-1,0,-1,-1,0,-1,0,15.365
3074,-1,-1,0,-1,-1,0,0,0,15.370000000000001
3075,-2,-1,-1,0,1,0,0,0,15.375
3076,0,0,-1,-1,0,-1,-2,-3,15.38
3077,-1,0,2,-1,-2,-2,1,-1,15.385
3078,0,-1,0,0,-1,0,-2,-1,15.39
3079,-1,0,-2,-1,0,-1,0,0,15.395
3080,-1,-1,-1,-1,-1,-1,0,0,15.4
3081,-3,-3,-1,-1,-1,-1,-1,0,15.405000000000001
3082,0,0,0,0,-1,-1,0,-2,15.41
3083,0,0,-2,-1,-1,-1,0,-1,15.415000000000001
3084,-2,0,0,-1,-1,-2,0,-1,15.42
3085,0,0,0,0,-1,-1,-3,-1,15.425
3086,0,-1,-1,-2,-2,0,-2,0,15.43
3087,-1,0,-1,0,-1,-3,0,-1,15.435
3088,-1,-1,-2,-2,-1,-1,1,0,15.44
3089,-1,0,-1,-1,-2,0,0,1,15.445
3090,0,-1,0,0,-1,-1,-2,0,15.450000000000001
3091,-3,0,-1,0,-1,-2,-2,0,15.455
3092,-1,-2,-1,-1,-2,-1,-1,-1,15.46
3093,0,0,-1,-2,0,-1,0,1,15.465
3094,-2,0,-2,-1,-2,-1,0,0,15.47
3095,-2,-1,-2,-1,-1,0,-1,0,15.475
3096,0,-1,-2,0,-1,-1,-1,-2,15.48
3097,-1,0,-1,0,-1,0,-2,-1,15.485000000000001
3098,-1,-1,-1,-1,-1,-1,0,1,15.49
3099,0,-1,0,0,0,-1,0,-1,15.495000000000001
3100,-1,-1,0,-2,1,-1,-1,0,15.5
3101,2,-1,-1,-2,-1,-1,-1,-1,15.505
3102,1,0,-1,-1,-2,-1,0,-1,15.51
3103,0,-2,-1,-1,-2,-1,0,-1,15.515
3104,-1,0,-2,1,-1,0,-2,-1,15.52
3105,-1,0,-1,0,-1,1,-1,-1,15.525
3106,-3,-2,-1,-2,0,0,-1,0,15.530000000000001
3107,-2,1,0,-1,0,-1,-1,-1,15.535
3108,-1,0,1,-2,-1,-1,0,-3,15.540000000000001
3109,1,0,-1,0,-1,-2,-2,-1,15.545
3110,0,0,-2,0,0,-1,-1,-1,15.55
3111,1,0,-1,0,-2,0,-1,-1,15.555
3112,0,-3,-1,-2,0,-1,0,0,15.56
3113,-1,-1,-1,-1,0,-1,0,-1,15.565
3114,-1,-2,-1,-1,-1,-2,-1,0,15.57
3115,-1,-1,0,-2,-1,0,-1,-1,15.575000000000001
3116,0,-1,-1,0,-1,0,-1,-1,15.58
3117,-1,-1,0,1,0,-1,-1,-1,15.585
3118,-1,-1,0,-1,-2,0,1,0,15.59
3119,-1,-1,-1,-2,1,0,-1,0,15.595
3120,-3,-1,0,-2,-1,0,1,-1,15.6
3121,-1,-1,-2,0,-1,0,0,-1,15.605
3122,1,-1,-1,-1,0,1,1,-2,15.610000000000001
3123,-1,-1,-2,-2,0,-2,-1,0,15.615
3124,-2,-2,-1,-1,-1,-1,-3,1,15.620000000000001
3125,-1,-2,0,-1,0,0,0,-1,15.625
3126,-1,0,-1,-1,-1,-1,-1,0,15.63
3127,1,-1,0,-1,-1,0,1,0,15.635
3128,-1,-1,0,0,-1,1,-1,0,15.64
3129,-2,-1,-2,0,-1,-1,-1,-1,15.645
3130,0,-2,-3,-1,-1,-2,-1,-1,15.65
3131,-1,0,0,0,0,0,0,0,15.655000000000001
3132,1,-1,-2,1,-1,-3,-1,-1,15.66
3133,1,-1,-1,-2,0,0,-1,1,15.665000000000001
3134,-1,-2,1,-1,-3,-1,-2,0,15.67
3135,0,-1,-2,-1,-1,0,-1,-1,15.675
3136,-1,0,0,-2,-1,-1,0,-3,15.68
3137,-1,-1,-1,-1,0,0,-1,-1,15.685
3138,-1,-1,-1,1,-1,-1,0,-2,15.69
3139,-1,-2,-1,0,0,-2,-2,-1,15.695
3140,-1,0,0,-1,-1,-2,-1,0,15.700000000000001
3141,-1,0,-1,-1,-2,-1,-2,-1,15.705
3142,-1,-1,-1,0,0,1,0,-1,15.71
3143,-1,-1,0,1,-4,-2,-2,0,15.715
3144,0,-2,-3,0,-1,-1,-1,0,15.72
3145,-1,-1,-1,0,-1,-3,0,0,15.725
3146,-1,0,0,0,1,-1,-2,-2,15.73
3147,-1,0,-1,-2,-2,-1,0,1,15.735000000000001
3148,0,1,-1,-1,-1,-1,-1,-1,15.74
3149,-1,-2,0,-2,0,-1,-2,-1,15.745000000000001
3150,1,0,-1,-1,-1,0,-1,-1,15.75
3151,-1,0,-1,-1,-1,-2,0,-2,15.755
3152,-2,0,0,-1,-1,-1,-2,-1,15.76
3153,-2,0,0,-3,0,-1,1,1,15.765
3154,0,-1,-1,-1,0,-1,1,0,15.77
3155,0,-2,0,-1,-2,0,1,-1,15.775
3156,0,-2,-2,-2,-1,0,0,0,15.780000000000001
3157,-1,-1,-1,-2,0,0,0,-1,15.785
3158,-2,0,0,-1,-2,-1,-1,0,15.790000000000001
3159,-1,0,-1,0,-1,-1,-1,0,15.795
3160,-1,-2,-1,0,0,0,-1,0,15.8
3161,0,-2,0,0,-2,0,-1,-2,15.805
3162,0,-2,-2,-1,-1,-1,-1,0,15.81
3163,-2,-2,-2,0,0,-1,-2,-1,15.815
3164,-2,-2,-1,-1,-1,-1,-2,0,15.82
3165,-1,0,0,-1,0,-1,0,-2,15.825000000000001
3166,-1,0,-1,0,-2,-1,-1,-1,15.83
3167,-1,-2,-2,0,0,0,0,-1,15.835
3168,0,-1,0,1,-2,-2,0,-2,15.84
3169,-1,-1,-2,-1,0,0,-1,-1,15.845
3170,0,0,-1,-2,-1,-1,-2,-1,15.85
3171,-2,-2,-1,-2,-1,1,0,-1,15.855
3172,0,0,0,-2,-1,-2,-1,-1,15.860000000000001
3173,0,-2,-2,0,0,-2,0,-1,15.865
3174,-2,0,0,0,-1,-1,-2,1,15.870000000000001
3175,-1,0,-1,-2,1,0,-2,-1,15.875
3176,-2,1,-1,-1,0,0,0,0,15.88
3177,-1,-1,-1,-2,0,-1,1,0,15.885
3178,0,-2,-1,-1,1,-1,0,-2,15.89
3179,1,-2,-1,-1,-1,-1,-3,-1,15.895
3180,1,-1,0,-1,-1,2,-1,0,15.9
3181,0,-1,-2,1,0,-1,-1,0,15.905000000000001
3182,0,0,1,0,0,-1,0,-1,15.91
3183,-2,-1,0,0,0,-1,-1,-1,15.915000000000001
3184,0,0,-1,-2,0,0,0,-1,15.92
3185,0,-1,0,-1,0,0,-2,-2,15.925
3186,-1,-2,-2,-2,0,1,0,-1,15.93
3187,0,1,-2,0,-1,-2,0,-1,15.935
3188,-1,0,0,0,0,0,-1,-1,15.94
3189,-1,1,-1,-2,-4,-1,-2,-1,15.945
3190,0,1,-1,0,0,-1,1,-2,15.950000000000001
3191,0,-2,0,0,0,0,-2,-1,15.955
3192,0,-1,-2,-1,-1,-2,-1,-1,15.96
3193,0,-2,-2,-1,-1,-1,1,0,15.965
3194,-3,-2,0,-1,-1,-1,-1,0,15.97
3195,0,0,-1,-1,-1,-2,-1,0,15.975
3196,0,-1,-1,0,-1,-2,-1,-1,15.98
3197,-2,1,-1,-1,-1,-1,0,-2,15.985000000000001
3198,-1,-1,-1,0,0,0,0,-1,15.99
3199,-2,0,0,0,-1,0,0,0,15.995000000000001
3200,-1,-2,-1,-1,1,-1,-3,-2,16.0
3201,0,0,-1,-1,0,-1,-1,0,16.005
3202,-2,-1,-2,-2,-1,-1,-2,0,16.01
3203,-1,-1,-2,-1,-2,-1,-2,-2,16.015
3204,-1,0,0,0,-1,-1,0,0,16.02
3205,-1,0,0,-1,-1,-1,-2,-1,16.025
3206,-1,0,-2,-1,0,-1,-1,0,16.03
3207,0,-1,-1,-2,-1,0,-2,1,16.035
3208,0,0,0,-1,-2,-1,1,-1,16.04
3209,-1,-1,0,-1,0,0,1,-1,16.045
3210,1,0,-1,0,-1,-1,-1,-2,16.05
3211,-2,-2,0,0,-1,-2,-1,0,16.055
3212,1,1,-2,-2,0,-1,-2,1,16.06
3213,0,1,-1,0,0,-1,-1,-2,16.065
3214,0,0,0,-1,-1,0,-1,0,16.07
3215,-1,-2,-1,0,-1,-1,-1,0,16.075
3216,-1,-1,-1,0,-2,1,-1,-1,16.080000000000002
3217,-1,-1,0,0,-2,0,0,0,16.085
3218,-2,-3,-1,-1,-2,-2,0,-1,16.09
3219,1,0,-1,0,0,-1,-1,0,16.095
3220,-1,1,-1,0,-2,0,1,2,16.1
3221,-1,-1,-1,-1,1,-2,-1,0,16.105
3222,-1,0,-1,0,-1,0,2,-1,16.11
3223,0,0,0,-1,0,0,0,-1,16.115000000000002
3224,0,-1,-1,0,1,0,-1,-1,16.12
3225,-1,-3,0,-2,-2,1,-1,-1,16.125
3226,0,0,-3,1,-1,-1,-2,-2,16.13
3227,-1,0,1,0,-2,-1,1,-1,16.135
3228,1,-2,-1,-1,0,0,-1,-1,16.14
3229,0,-1,-1,-1,0,-1,0,1,16.145
3230,0,0,-1,-2,0,-1,0,1,16.15
3231,0,0,-1,-2,-2,0,1,-2,16.155
3232,0,-1,-1,0,-1,-1,-2,-1,16.16
3233,0,-1,-1,-1,-2,-2,-1,-1,16.165
3234,0,-2,0,-2,-1,0,-1,-2,16.17
3235,0,-1,-1,-2,-2,-1,-1,0,16.175
3236,-1,-1,-1,-2,0,0,0,-1,16.18
3237,-2,-1,-3,-1,-1,0,-2,-2,16.185
3238,0,-3,0,-1,-1,-1,-2,0,16.19
3239,-1,0,-2,-2,1,-1,0,-2,16.195
3240,0,-1,2,-1,-2,-2,-2,-1,16.2
3241,0,-1,-1,1,-1,-1,-1,-1,16.205000000000002
3242,-2,-1,0,1,-2,0,-2,-1,16.21
3243,-1,-1,-2,0,-2,-1,-1,0,16.215
3244,0,-2,-1,-1,-1,-2,0,-1,16.22
3245,-1,-1,-1,1,0,-1,-2,-1,16.225
3246,0,1,-1,-1,-1,-1,-2,0,16.23
3247,-1,-1,0,0,0,2,0,-1,16.235
3248,-2,0,-1,-1,-2,-1,-2,1,16.240000000000002
3249,0,-2,0,-1,-1,-1,-1,-1,16.245
3250,-2,-2,0,0,0,-3,-1,0,16.25
3251,-2,0,1,-1,-1,-1,-2,-2,16.255
3252,0,0,-2,-1,-1,0,0,0,16.26
3253,-1,-1,1,1,-1,-2,0,-1,16.265
3254,-1,-1,-2,-1,1,-2,-1,0,16.27
3255,-2,-1,-2,-1,-1,-1,-1,-1,16.275
3256,-1,1,-2,1,-1,-1,1,0,16.28
3257,-1,-1,0,-1,-1,-2,0,0,16.285
3258,0,-1,-1,0,-1,-1,-1,0,16.29
3259,0,-2,-1,1,0,-2,0,0,16.295
3260,-1,-1,-1,0,-2,0,-1,-1,16.3
3261,-2,2,1,-2,-2,-1,-1,-1,16.305
3262,-3,2,1,-4,-1,1,0,0,16.31
3263,-1,0,-2,-3,-1,0,-3,-2,16.315
3264,-2,-1,-1,0,1,-3,0,0,16.32
3265,0,0,-2,-1,-2,0,-2,0,16.325
3266,-1,-1,-2,0,1,-2,0,-1,16.330000000000002
3267,-1,0,0,0,-1,-1,0,0,16.335
3268,0,0,-2,-1,0,1,1,-1,16.34
3269,-2,0,-1,-1,-1,-1,0,-1,16.345
3270,0,-1,0,-2,-1,-1,-2,-1,16.35
3271,-1,-1,0,1,-1,0,0,0,16.355
3272,0,-2,-2,-2,-1,0,-2,1,16.36
3273,-1,-3,-2,-2,0,0,0,1,16.365000000000002
3274,-1,-2,-2,-1,-1,-1,-2,-1,16.37
3275,-2,-1,0,-1,-2,-1,0,0,16.375
3276,-1,0,0,-1,-1,-1,-1,-2,16.38
3277,-1,-1,-1,0,0,-1,0,-3,16.385
3278,-1,-2,-2,0,-1,0,-1,0,16.39
3279,0,0,-1,-2,0,-2,-1,-2,16.395
3280,-1,-1,0,0,-1,0,0,0,16.4
3281,0,-1,0,0,1,0,0,0,16.405
3282,-1,1,0,0,1,0,0,-2,16.41
3283,1,-1,-3,-1,-1,1,-2,-1,16.415
3284,-1,0,-1,0,-1,0,-1,-2,16.42
3285,0,-2,0,-2,-1,-2,-2,0,16.425
3286,-1,0,-3,0,-1,1,-1,0,16.43
3287,0,0,-1,-3,0,-1,0,-1,16.435
3288,0,-2,-2,-1,0,-1,-1,-1,16.44
3289,0,-2,-2,-1,-1,-1,-1,0,16.445
3290,0,-2,-2,0,-1,-2,0,0,16.45
3291,-1,-2,0,0,-1,-2,0,-1,16.455000000000002
3292,-2,-2,0,-1,1,-1,-2,0,16.46
3293,-1,0,-1,0,0,0,0,-2,16.465
3294,-1,-1,-1,0,-3,-2,-2,-1,16.47
3295,0,-1,-1,-2,0,-1,0,-2,16.475
3296,0,-2,1,0,0,-1,-1,0,16.48
3297,1,1,-2,0,-2,1,1,0,16.485
3298,1,-2,0,-2,0,-1,-1,-2,16.490000000000002
3299,0,-1,-2,-2,0,0,-1,0,16.495
3300,-1,-1,0,-1,0,0,-2,-1,16.5
3301,-1,-1,-1,-1,-1,-2,0,-1,16.505
3302,1,-3,0,-2,-1,-1,1,0,16.51
3303,-1,-1,-1,1,-1,0,0,-1,16.515
3304,-1,1,-1,-2,0,-1,1,0,16.52
3305,0,2,-1,-2,0,1,-1,-1,16.525
3306,-2,0,-1,-2,-2,0,0,-2,16.53
3307,-1,0,0,-1,0,-1,-1,-1,16.535
3308,0,-2,0,0,0,1,0,-2,16.54
3309,1,-2,0,0,-1,-1,-1,-1,16.545
3310,-2,-2,-1,0,-1,-1,-3,2,16.55
3311,0,0,-1,0,-2,0,-2,0,16.555
3312,0,-1,-2,0,-1,0,-1,-1,16.56
3313,0,-1,0,-1,-2,0,-1,-1,16.565
3314,-1,-1,0,-1,0,-2,-1,-1,16.57
3315,0,-3,0,0,-1,1,1,-1,16.575
3316,0,-1,-1,-1,-1,0,0,-2,16.580000000000002
3317,-1,-1,-2,-1,-1,0,-3,-1,16.585
3318,-1,0,1,-2,-1,-1,-1,-2,16.59
3319,-2,-1,-2,-1,-2,-1,-1,-1,16.595
3320,-2,-2,-1,-1,-1,0,0,0,16.6
3321,-1,0,-1,-2,-1,0,0,0,16.605
3322,0,0,-1,0,0,1,2,-1,16.61
3323,-2,0,-1,-1,-2,0,1,1,16.615000000000002
3324,0,-1,1,0,-1,1,-2,-1,16.62
3325,-1,-1,0,-1,-1,-1,0,-1,16.625
3326,0,0,0,-1,-1,-1,-1,0,16.63
3327,0,-1,-2,-2,0,-1,-1,-2,16.635
3328,0,-1,-2,-2,-1,-2,-1,-2,16.64
3329,-1,-2,-2,-1,0,0,-1,-1,16.645
3330,0,0,-2,-1,-1,-1,-2,-1,16.65
3331,0,-2,-1,0,-1,-1,-2,0,16.655
3332,-2,0,-1,-2,-1,-1,0,0,16.66
3333,-1,0,-1,-2,0,-2,-1,0,16.665
3334,-1,-1,-1,0,-2,-2,-1,0,16.67
3335,-1,-1,0,-2,0,-1,0,0,16.675
3336,-1,-2,-1,0,0,0,-1,0,16.68
3337,-1,-2,-2,-1,-1,0,1,0,16.685
3338,-1,-2,-1,0,0,2,0,-2,16.69
3339,0,-1,-2,-2,-1,-1,-2,-1,16.695
3340,0,0,-2,0,0,-2,-2,-2,16.7
3341,0,-2,-2,-2,1,-1,0,-1,16.705000000000002
3342,-2,-2,0,-1,0,-2,-3,-2,16.71
3343,0,-1,-1,0,0,1,1,-2,16.715
3344,1,-1,-1,-2,0,0,1,1,16.72
3345,-2,-2,-1,-1,-2,-2,-2,-1,16.725
3346,1,-1,0,0,-1,-2,-1,0,16.73
3347,-2,1,-2,0,0,0,-1,1,16.735
3348,-1,-1,0,-2,-2,0,-1,-1,16.740000000000002
3349,1,-2,0,0,-1,0,1,0,16.745
3350,-1,-1,-1,-2,-1,-1,1,-1,16.75
3351,-2,0,-2,1,1,-2,0,-2,16.755
3352,-2,-1,0,-1,-2,-4,-1,0,16.76
3353,0,1,0,1,-1,0,-1,-1,16.765
3354,-2,0,-2,-2,0,0,1,-1,16.77
3355,0,-2,-1,0,-1,0,-2,-1,16.775
3356,-2,1,0,0,-1,0,0,-1,16.78
3357,-1,0,-1,1,0,0,-3,0,16.785
3358,0,-2,-2,0,-2,-2,-2,1,16.79
3359,-1,0,1,-1,0,-2,-1,-1,16.795
3360,-2,-1,0,-2,0,-2,0,0,16.8
3361,-1,0,0,0,-2,0,0,-2,16.805
3362,-1,-1,-1,0,-1,0,0,0,16.81
3363,-2,-1,-2,-1,-3,1,-2,0,16.815
3364,0,-2,0,-1,0,0,0,-1,16.82
3365,-1,0,0,-2,-2,-2,0,-1,16.825
3366,-1,0,-1,-1,-2,-1,0,-1,16.830000000000002
3367,-1,0,0,-1,-1,0,0,-1,16.835
3368,0,-1,0,0,0,-2,-1,-1,16.84
3369,-1,1,0,-1,-2,-1,-2,-1,16.845
3370,-1,-2,-1,0,0,-1,-1,-1,16.85
3371,-1,0,1,0,0,-1,-2,-1,16.855
3372,-1,1,-2,0,-1,0,0,-1,16.86
3373,-2,-1,-2,-2,0,-1,-1,0,16.865000000000002
3374,0,-2,-1,0,-2,0,-1,-1,16.87
3375,1,-1,-1,0,-1,0,-2,0,16.875
3376,-1,-1,-1,-1,0,-1,-2,0,16.88
3377,-1,-2,0,-1,-2,0,0,0,16.885
3378,-2,-1,0,-1,-1,-1,-1,-2,16.89
3379,0,0,1,-1,-1,-2,-1,-1,16.895
3380,0,-1,1,1,1,-2,-1,-1,16.9
3381,1,-1,-1,-1,0,1,0,0,16.905
3382,0,-2,-2,-1,1,1,0,-1,16.91
3383,-1,0,0,0,0,-1,0,0,16.915
3384,-1,0,-2,-1,-2,0,0,-1,16.92
3385,0,-2,-1,-1,0,0,-3,-2,16.925
3386,-1,-1,-2,-1,-1,-2,0,-1,16.93
3387,-2,-2,-1,-2,-1,-1,0,-2,16.935
3388,-1,-1,-2,1,-1,-1,-1,0,16.94
3389,-1,-3,-1,0,-1,-1,-1,0,16.945
3390,-1,-1,-1,1,-1,0,-2,-1,16.95
3391,-1,0,-1,-2,0,-1,-1,-2,16.955000000000002
3392,-1,-2,-2,-2,-1,0,-1,0,16.96
3393,0,-1,-2,-2,-2,-2,1,-2,16.965
3394,2,-2,0,-1,0,-1,0,-1,16.97
3395,-3,-1,-3,0,-2,-1,-1,-1,16.975
3396,-1,1,0,-1,-1,-2,-1,0,16.98
3397,-1,-1,-2,0,-1,-1,-2,0,16.985
3398,0,-1,-1,0,-1,0,0,3,16.990000000000002
3399,-1,-1,-1,-1,-2,-1,0,-1,16.995
3400,-1,-2,-2,-1,-1,0,0,-1,17.0
3401,-1,-1,-1,-1,-2,-1,-1,-1,17.005
3402,-2,1,1,0,-1,0,-2,-1,17.01
3403,-3,-1,0,-1,-1,0,-1,0,17.015
3404,-1,0,-2,-2,-1,0,0,0,17.02
3405,-2,0,0,0,-1,-1,0,0,17.025
3406,0,-1,-2,0,-1,-2,-1,-2,17.03
3407,0,-2,-1,-1,0,-1,0,0,17.035
3408,-1,0,-2,0,-1,0,-1,-1,17.04
3409,0,0,-1,0,-1,0,-2,0,17.045
3410,-2,-1,0,-2,0,-2,-2,-1,17.05
3411,-2,0,0,-2,0,-1,-1,-1,17.055
3412,-1,-1,-1,-2,-1,-1,-1,-1,17.06
3413,-2,-1,-1,-1,0,-1,-1,-3,17.065
3414,-1,0,-1,0,-1,-1,0,-2,17.07
3415,1,-1,-2,0,-2,-1,1,0,17.075
3416,-1,-1,0,-1,0,0,0,-1,17.080000000000002
3417,-2,0,-1,-1,-1,0,-1,-2,17.085
3418,-2,-1,0,-2,-1,-1,-1,-1,17.09
3419,-2,0,-2,-1,1,-2,-1,0,17.095
3420,-2,0,0,-2,1,-3,1,-1,17.1
3421,1,-1,-1,-1,0,1,-2,-2,17.105
3422,-1,-1,-1,-1,-1,0,-1,1,17.11
3423,1,-1,-2,0,-1,0,0,-1,17.115000000000002
3424,0,-1,-1,-2,0,-1,-1,-1,17.12
3425,-1,-1,-1,-1,0,0,0,0,17.125
3426,0,1,-2,-2,0,0,0,-1,17.13
3427,-2,1,-2,-1,-1,-1,-1,1,17.135
3428,-1,0,-1,1,-3,-2,-3,-2,17.14
3429,-2,0,-2,0,0,-2,0,0,17.145
3430,1,-3,0,0,0,-1,-1,0,17.150000000000002
3431,-1,-2,-1,0,-2,0,-2,-1,17.155
3432,-1,-3,-2,0,-1,-1,0,-1,17.16
3433,-2,-2,-1,0,-2,-3,0,-3,17.165
3434,0,-1,-1,-1,-1,0,-1,1,17.17
3435,0,-1,1,-1,-1,0,-2,-1,17.175
3436,-1,-1,0,0,-1,0,-1,-1,17.18
3437,-1,-1,-1,0,-1,-1,-2,0,17.185
3438,-1,-1,-2,-1,-1,-1,0,-1,17.19
3439,-1,-1,-1,-1,0,0,0,-2,17.195
3440,0,0,-2,-1,-1,0,-1,-1,17.2
3441,0,-1,-1,-1,0,-1,-1,-2,17.205000000000002
3442,-1,-2,-2,-1,-1,0,0,-1,17.21
3443,1,-1,-1,-2,0,-1,0,0,17.215
3444,-1,0,-1,-1,-1,-1,0,-1,17.22
3445,0,0,-2,-2,0,0,-1,1,17.225
3446,0,-1,0,0,-4,-1,-2,-3,17.23
3447,-1,-1,-1,0,0,-2,0,-1,17.235
3448,0,0,0,-1,-1,-1,-1,1,17.240000000000002
3449,-1,0,0,-1,-1,-1,0,-1,17.245
3450,-2,-1,0,0,-2,0,-1,-1,17.25
3451,0,-1,-1,-2,0,-2,-1,-1,17.255
3452,-1,0,0,-1,-1,0,-1,0,17.26
3453,-1,-1,0,-1,-2,0,0,0,17.265
3454,0,0,-2,0,0,-1,0,1,17.27
3455,-1,0,0,-1,1,1,-1,0,17.275000000000002
3456,0,1,-1,-1,-1,-1,0,-1,17.28
3457,-1,-2,0,-1,0,-1,0,-1,17.285
3458,-3,-1,0,0,1,-1,-1,-1,17.29
3459,-1,-2,-1,-1,0,-2,0,-1,17.295
3460,-1,-1,0,1,1,-1,-2,-2,17.3
3461,0,-1,-1,0,-3,0,-2,-1,17.305
3462,-1,0,0,0,-2,0,1,-1,17.31
3463,0,0,-2,1,-2,1,-2,-1,17.315
3464,1,-1,-1,2,0,-1,-2,-2,17.32
3465,-2,-2,-2,0,-1,0,-1,-1,17.325
3466,0,0,-1,-3,-1,-1,-2,0,17.330000000000002
3467,0,-1,0,-1,-2,-1,-1,-2,17.335
3468,-1,-3,-1,-2,0,-1,-2,0,17.34
3469,0,-1,-1,0,0,-1,-1,0,17.345
3470,0,-1,-1,-1,0,-1,0,0,17.35
3471,-1,0,-1,-1,0,-2,1,0,17.355
3472,-1,-1,-1,-1,0,-2,0,-1,17.36
3473,0,0,0,0,1,0,-1,0,17.365000000000002
3474,-2,-3,-1,0,1,-2,1,-2,17.37
3475,0,-2,0,-1,-1,-1,-2,0,17.375
3476,-1,-1,-2,-1,-1,-1,0,0,17.38
3477,1,0,0,-2,-2,1,0,-1,17.385
3478,-1,-1,-2,-2,-1,0,0,1,17.39
3479,0,-1,-1,-1,-1,0,0,-2,17.395
3480,0,-1,-1,0,1,0,-1,0,17.400000000000002
3481,0,0,-1,-1,-1,-1,-2,0,17.405
3482,0,-2,-2,1,-1,-1,-2,1,17.41
3483,-1,0,-2,-1,-1,0,-1,-1,17.415
3484,1,0,-1,-1,0,-1,-2,-1,17.42
3485,-2,0,0,-1,-1,-1,-1,-2,17.425
3486,-2,0,0,0,-1,0,-1,-1,17.43
3487,0,0,0,0,-1,-1,-2,0,17.435
3488,-1,-2,-1,0,0,-2,1,-1,17.44
3489,-3,-1,-2,0,0,-1,1,0,17.445
3490,0,-1,-2,-1,-1,-3,-1,-2,17.45
3491,-1,-1,-1,-2,-1,-1,-1,-2,17.455000000000002
3492,-3,0,-1,0,-4,-1,0,0,17.46
3493,-1,-3,0,-2,-2,-1,0,-1,17.465
3494,0,-2,-1,-3,-1,2,-1,-2,17.47
3495,-2,0,-1,1,-1,1,-1,1,17.475
3496,-1,-1,-1,-1,-2,0,-2,-1,17.48
3497,-1,-2,1,-1,0,0,-1,-2,17.485
3498,1,-1,-1,-1,-2,-1,0,-1,17.490000000000002
3499,-1,-1,-1,0,-2,0,-1,0,17.495
3500,0,-1,0,0,0,2,-1,0,17.5
3501,-2,1,-2,-1,0,0,0,-2,17.505
3502,-3,1,-1,-1,-2,0,-1,0,17.51
3503,-1,0,-1,-1,0,-1,-1,0,17.515
3504,-1,1,-1,-1,0,0,-1,0,17.52
