slno,emg1,emg2,emg3,emg4,emg5,emg6,emg7,emg8,Time
0,1,-1,-1,-2,0,0,-2,-1,0.0
1,0,0,1,0,1,0,-1,0,0.005
2,0,0,-3,0,-1,0,-3,0,0.01
3,-3,0,-1,-1,-2,-2,-1,-1,0.015
4,-2,0,0,1,0,-2,0,-1,0.02
5,0,-3,-4,-2,-2,0,-2,-1,0.025
6,1,-1,-1,-1,1,0,0,1,0.03
7,-1,0,-6,-4,-2,-2,0,-1,0.035
8,-1,2,1,1,0,-1,0,-1,0.04
9,-2,-1,-1,0,-2,0,0,0,0.045
10,0,1,2,0,-1,0,0,-1,0.05
11,1,-4,-1,-1,-1,-1,-2,0,0.055
12,0,0,-2,-1,0,-1,0,-2,0.06
13,-1,2,1,0,0,-1,0,0,0.065
14,-3,1,-1,-1,-1,-1,-1,-3,0.07
15,-2,0,1,0,-1,-1,-1,-1,0.075
16,0,0,1,0,-2,-1,0,-2,0.08
17,-1,-1,-1,-1,0,-1,0,0,0.085
18,-1,-2,-2,-1,-1,1,0,-1,0.09
19,0,0,0,0,-2,-2,-1,-1,0.095
20,-1,-2,-1,1,-2,0,0,0,0.1
21,-1,2,-1,-3,-2,-1,-1,-1,0.105
22,-2,-1,0,-1,0,-1,-1,0,0.11
23,-1,2,1,0,0,0,-1,0,0.115
24,0,-2,-2,-1,0,-1,0,-2,0.12
25,0,-2,-1,1,-1,-1,0,-1,0.125
26,-1,1,2,2,-1,0,0,-1,0.13
27,-1,0,0,0,-1,-1,1,0,0.135
28,-2,-3,-2,-3,-3,-1,-2,-1,0.14
29,1,0,-3,-3,-1,0,0,-2,0.145
30,-1,-3,-3,-2,-2,-1,-2,0,0.15
31,0,-1,-1,-2,0,1,-2,-1,0.155
32,0,0,1,0,-1,-1,0,0,0.16
33,-2,-4,-1,0,-1,-1,-1,-1,0.165
34,-1,1,-2,0,-2,-1,0,-2,0.17
35,0,2,0,-2,0,-2,0,-2,0.17500000000000002
36,-1,-1,0,-1,-2,-1,-2,1,0.18
37,-1,0,0,-3,-1,0,-2,0,0.185
38,-2,0,1,0,0,-1,0,-1,0.19
39,-1,-1,0,2,0,0,-2,0,0.195
40,0,-1,2,-1,-1,-1,-1,-3,0.2
41,-1,0,2,2,-1,-2,0,0,0.20500000000000002
42,-1,-3,-2,-2,0,-3,-3,-1,0.21
43,0,0,1,0,0,1,0,0,0.215
44,1,0,0,1,1,0,0,0,0.22
45,-1,-1,-2,1,0,0,0,-2,0.225
46,0,1,2,1,-1,-1,0,-2,0.23
47,-1,-2,-2,-3,-2,-3,-2,0,0.23500000000000001
48,-2,-1,0,0,0,-1,0,-1,0.24
49,-1,0,-3,-3,-2,-2,-1,0,0.245
50,-1,-3,1,-2,0,0,0,-1,0.25
51,-1,0,1,0,-2,-1,0,-2,0.255
52,0,-1,1,-1,0,1,-1,-1,0.26
53,0,0,-4,-3,1,0,-1,-2,0.265
54,0,-2,-1,-1,-1,-2,-2,0,0.27
55,0,-4,0,0,-2,-2,-1,1,0.275
56,-2,-1,-1,-1,-2,-2,-1,1,0.28
57,1,-1,1,-1,-2,0,-2,-1,0.28500000000000003
58,-1,-5,-1,-3,-1,1,-1,-1,0.29
59,1,-2,0,-1,0,1,0,-1,0.295
60,0,2,-2,-1,-1,-2,0,0,0.3
61,-1,-1,1,-1,0,-1,0,-1,0.305
62,0,2,0,2,2,-1,0,0,0.31
63,-2,2,-1,-2,-1,-2,-2,-1,0.315
64,0,-4,-1,-1,0,0,1,-1,0.32
65,1,2,1,-1,1,-1,-1,-1,0.325
66,0,-1,1,1,0,1,-1,1,0.33
67,1,1,0,-1,-2,0,-1,1,0.335
68,-1,-1,-1,-1,-1,0,-1,0,0.34
69,-2,-1,-2,-1,-2,-4,-1,-2,0.34500000000000003
70,1,0,1,1,-3,0,-2,2,0.35000000000000003
71,-1,-2,-2,-2,0,-1,0,-2,0.355
72,-2,1,-2,0,-2,0,0,-1,0.36
73,-1,-4,0,0,-1,0,-1,0,0.365
74,-3,-3,-1,-2,-2,-3,-2,-2,0.37
75,-2,-1,-2,0,-1,0,-1,1,0.375
76,-1,0,-1,-1,0,-2,-1,-1,0.38
77,0,-1,-1,2,1,0,-1,0,0.385
78,-2,-4,-3,-3,-2,-1,-1,-1,0.39
79,0,-2,-1,0,0,0,0,0,0.395
80,-1,-1,-3,-2,-2,-2,0,-2,0.4
81,1,2,0,-2,-2,-1,-2,1,0.405
82,-2,-2,-2,-3,-1,-3,1,-2,0.41000000000000003
83,-1,1,1,2,1,-1,-1,-2,0.41500000000000004
84,-2,-3,-2,-1,-1,-2,-1,0,0.42
85,-1,-2,-1,-3,-3,-1,-1,-1,0.425
86,1,1,-2,0,0,0,0,0,0.43
87,-2,-2,-1,-1,-1,-1,-2,-2,0.435
88,-1,0,2,0,0,0,-2,0,0.44
89,-2,-1,-3,0,0,0,0,-1,0.445
90,0,2,2,1,-2,1,-1,1,0.45
91,-1,0,-2,-2,-2,-2,-2,-2,0.455
92,1,5,4,1,-2,1,-1,-2,0.46
93,-1,-4,-6,-2,-2,-2,-1,0,0.465
94,0,-2,1,0,1,0,0,0,0.47000000000000003
95,0,-1,-1,1,-1,1,-1,-1,0.47500000000000003
96,-1,-1,2,0,-1,-1,0,0,0.48
97,-1,0,0,0,-1,-1,-1,0,0.485
98,1,0,-2,1,0,0,0,-1,0.49
99,0,-2,0,-1,-1,-1,0,1,0.495
100,0,-2,-4,-2,1,-2,-1,-1,0.5
101,-1,0,2,2,1,0,0,1,0.505
102,-1,2,-2,-2,0,-2,-4,-2,0.51
103,-2,-3,-1,-1,0,-2,-1,-2,0.515
104,0,0,-3,-1,-1,-1,0,0,0.52
105,0,-1,-1,0,-2,-1,0,-2,0.525
106,1,2,2,-1,-1,-1,-1,0,0.53
107,1,-3,1,1,-1,-1,0,0,0.535
108,-1,-2,-2,-1,0,-2,0,0,0.54
109,-2,-1,-1,0,-2,0,0,-1,0.545
110,-1,1,-2,-3,-2,-1,0,-3,0.55
111,0,-2,-3,-5,-2,-1,-2,-2,0.555
112,0,-4,-1,-3,0,0,0,-1,0.56
113,0,-1,-1,1,1,0,-1,-2,0.5650000000000001
114,0,-2,0,0,-1,0,-1,0,0.5700000000000001
115,-1,-1,-2,-1,0,-1,0,-1,0.5750000000000001
116,1,5,5,1,0,0,0,-2,0.58
117,1,-3,-3,-1,1,-2,-1,0,0.585
118,0,-3,-1,0,-1,0,0,-1,0.59
119,-1,0,1,1,0,1,0,0,0.595
120,-4,-7,-3,-3,-3,-2,-5,-1,0.6
121,0,0,2,-2,-1,0,-1,1,0.605
122,-2,0,1,-1,-1,-3,-1,0,0.61
123,-2,-4,-1,2,0,-3,-1,0,0.615
124,1,1,-3,-2,-2,0,0,-1,0.62
125,-2,-4,1,-3,-2,-2,-2,-3,0.625
126,-1,-3,0,-2,-1,-3,-1,0,0.63
127,0,1,3,1,0,0,0,-1,0.635
128,-1,-3,-4,0,0,0,1,0,0.64
129,0,-2,0,-1,-1,-2,-1,0,0.645
130,0,1,0,-2,0,2,0,-2,0.65
131,-3,0,-1,-1,-2,-3,-3,-3,0.655
132,-1,1,3,1,0,0,0,-1,0.66
133,-1,0,0,-1,0,-1,-2,-1,0.665
134,-1,-2,-3,-1,0,-3,-3,0,0.67
135,-2,-2,-5,-1,-1,0,0,0,0.675
136,-1,0,-2,0,0,-1,-2,-1,0.68
137,-1,-2,-1,-1,0,0,0,-1,0.685
138,-3,2,0,1,-1,1,-1,-1,0.6900000000000001
139,-1,-1,-1,-2,0,1,-1,-1,0.6950000000000001
140,-2,0,-3,-2,-2,-1,-2,-2,0.7000000000000001
141,-1,0,1,-1,-2,-1,0,-2,0.705
142,-1,-1,1,-2,-1,0,1,-1,0.71
143,1,2,0,0,1,0,0,0,0.715
144,-1,-2,1,2,-1,-1,-2,-2,0.72
145,0,3,3,1,0,0,1,0,0.725
146,-1,-2,-2,0,-1,0,-2,0,0.73
147,-2,-6,-2,-2,-3,-3,-2,-1,0.735
148,0,-1,1,-2,-2,0,-1,0,0.74
149,-1,1,-4,-2,-1,-2,-1,-1,0.745
150,1,4,1,1,1,1,0,1,0.75
151,2,1,1,0,-2,0,0,1,0.755
152,-2,0,0,-1,-3,-3,0,-1,0.76
153,-1,-3,3,-1,-3,-1,0,0,0.765
154,-1,-2,-1,0,0,-2,0,-1,0.77
155,-2,3,2,-1,1,0,0,-2,0.775
156,2,-1,-2,-1,-1,-1,-1,0,0.78
157,-2,1,-1,1,0,1,-2,-1,0.785
158,-3,0,-2,-3,-1,-2,-3,-3,0.79
159,1,1,1,1,-1,1,1,0,0.795
160,-2,-2,0,-2,-1,-3,-1,-3,0.8
161,0,-2,-2,-1,2,0,0,0,0.805
162,-1,-2,-1,-1,-2,-2,-1,-1,0.81
163,-1,0,0,-1,-2,-1,0,-1,0.8150000000000001
164,1,-4,-2,1,0,2,0,0,0.8200000000000001
165,1,1,0,2,0,-1,0,0,0.8250000000000001
166,-3,-3,-1,0,-1,-2,-1,0,0.8300000000000001
167,3,5,1,-1,0,-2,-1,0,0.835
168,-5,-1,-1,0,-1,2,3,-1,0.84
169,1,4,-1,0,0,0,-1,-1,0.845
170,1,-2,0,-1,-2,-1,-1,1,0.85
171,-5,-4,-5,-4,-1,-2,0,0,0.855
172,2,-4,-2,-2,-2,-2,-3,-2,0.86
173,4,-3,-1,-2,-2,0,0,0,0.865
174,-2,-1,3,-1,0,-1,-2,-3,0.87
175,0,-1,0,0,-2,-2,-3,-2,0.875
176,-3,4,-5,-1,1,2,1,1,0.88
177,-3,-2,-2,-3,-2,0,-1,-1,0.885
178,4,-1,-4,0,-3,-2,0,-1,0.89
179,-11,-10,-4,-4,-1,-3,0,-3,0.895
180,4,-5,-2,-2,-2,-4,-1,0,0.9
181,-8,-1,-2,-2,-3,-3,-3,-3,0.905
182,1,2,3,-3,0,0,0,-1,0.91
183,3,3,-2,2,1,3,1,0,0.915
184,-1,7,1,1,0,0,0,2,0.92
185,-2,-3,0,-1,0,-3,-2,-2,0.925
186,-3,-1,1,-1,-1,-1,-1,0,0.93
187,10,4,5,1,-2,-2,-2,-1,0.935
188,-10,-4,0,-1,0,0,-1,-2,0.9400000000000001
189,9,3,1,2,0,4,1,1,0.9450000000000001
190,-5,4,1,0,-1,1,0,-1,0.9500000000000001
191,-5,3,0,2,-1,-2,0,1,0.9550000000000001
192,-2,-6,1,-7,1,-3,-1,-3,0.96
193,0,-1,2,1,-1,-1,-3,0,0.965
194,-6,-7,-1,-2,0,-2,-2,-1,0.97
195,6,1,-2,4,-1,4,2,2,0.975
196,-5,-3,-7,-4,-5,-5,-6,-2,0.98
197,-6,1,2,1,-3,1,2,-1,0.985
198,-3,-4,-7,-6,-1,-2,-2,-3,0.99
199,-5,-6,-4,-3,-2,-3,-1,-1,0.995
200,15,4,1,2,-1,0,-2,1,1.0
201,-9,0,-1,-2,1,0,0,1,1.0050000000000001
202,2,0,-1,1,-1,0,1,2,1.01
203,-3,-8,4,-5,-2,-2,-2,-2,1.0150000000000001
204,-8,-2,2,-1,-3,-2,1,1,1.02
205,6,-8,3,-3,1,-3,-3,-2,1.025
206,1,2,-3,3,-2,1,0,1,1.03
207,4,5,-2,3,-1,1,0,0,1.035
208,0,1,0,0,1,-1,-3,-2,1.04
209,2,2,-2,0,0,-2,0,1,1.045
210,0,-3,-3,0,0,-2,-3,-4,1.05
211,-7,-1,-4,1,3,4,2,0,1.055
212,2,-3,-3,1,-2,0,-1,-1,1.06
213,-5,-3,-5,-2,-3,-5,-3,-4,1.065
214,3,1,2,0,-2,0,1,1,1.07
215,1,0,-5,-4,2,-1,0,1,1.075
216,2,3,-1,1,1,1,2,0,1.08
217,-4,2,-2,2,3,1,-1,0,1.085
218,-2,4,0,-4,-3,-2,0,-1,1.09
219,0,-2,2,-3,-2,0,-1,-1,1.095
220,-4,-2,-4,0,-2,0,-1,-3,1.1
221,-2,-5,-3,-4,-1,-2,-2,-1,1.105
222,-4,-2,-4,1,5,1,3,1,1.11
223,4,-2,-2,-1,-2,-3,-1,0,1.115
224,-1,10,2,2,1,-1,-1,0,1.12
225,10,5,-1,-2,0,1,1,-2,1.125
226,-14,-3,3,-1,-2,1,0,-2,1.1300000000000001
227,-7,-5,-1,-3,-2,-6,-5,-3,1.135
228,0,-9,0,1,-1,1,1,-2,1.1400000000000001
229,-1,-1,1,2,-3,0,0,1,1.145
230,4,0,2,-3,0,-1,-2,-1,1.1500000000000001
231,1,4,0,0,0,1,-1,-1,1.155
232,-2,1,-1,0,1,1,1,1,1.16
233,-3,-5,-3,-2,-6,-3,-3,-3,1.165
234,4,3,3,3,1,0,1,0,1.17
235,-3,-4,-4,-2,-1,-2,-2,-2,1.175
236,0,-1,-2,-2,-2,-1,-2,0,1.18
237,0,0,-1,-1,1,0,2,0,1.185
238,-3,-4,-2,1,-1,-3,-3,-2,1.19
239,1,-1,1,-3,-5,-3,-2,-1,1.195
240,0,-1,3,2,1,-1,-2,-1,1.2
241,2,1,-3,0,-1,0,2,0,1.205
242,-3,-2,-2,0,-2,-2,-2,-1,1.21
243,0,0,-1,1,-1,0,0,-1,1.215
244,-3,-1,3,0,1,1,0,0,1.22
245,3,-2,-3,-2,-1,-2,-2,-1,1.225
246,-7,-4,0,-3,0,-3,-3,-3,1.23
247,-7,0,0,1,-1,-1,-3,-3,1.235
248,3,2,1,-1,-3,-1,0,0,1.24
249,-2,-2,-1,-3,1,2,-1,-1,1.245
250,3,3,0,3,3,1,-1,1,1.25
251,1,2,-1,0,-1,-1,1,0,1.2550000000000001
252,-2,-2,-1,-3,-1,0,-1,-1,1.26
253,-3,-2,0,1,0,-3,-2,-2,1.2650000000000001
254,5,4,2,0,-2,0,1,1,1.27
255,0,-2,-2,-3,-2,-2,0,0,1.2750000000000001
256,4,0,-2,2,1,2,2,2,1.28
257,0,1,-2,-1,-1,-3,-2,-1,1.285
258,-2,1,-1,-1,-2,0,1,-1,1.29
259,12,3,-1,2,0,-1,-1,-3,1.295
260,-9,-5,-3,-6,-3,-4,-4,-2,1.3
261,-4,-2,0,1,-1,1,0,-3,1.305
262,4,2,2,-1,1,1,1,0,1.31
263,4,6,5,1,0,0,0,1,1.315
264,-2,4,-2,-1,1,-2,-1,0,1.32
265,-8,-10,-4,-2,-3,0,-2,-4,1.325
266,3,-3,-3,-1,-3,0,1,1,1.33
267,-2,-2,-3,0,1,-1,-1,-1,1.335
268,-1,3,-1,2,1,-1,-1,-1,1.34
269,2,7,3,-1,-1,0,0,2,1.345
270,-1,-8,-4,-5,-2,-1,-1,-2,1.35
271,-7,-4,-1,0,-2,-1,-2,-1,1.355
272,-10,-3,-1,-3,2,0,-1,-3,1.36
273,-5,1,3,0,0,0,1,2,1.365
274,2,-2,-3,-1,-2,-1,-5,-3,1.37
275,-2,-6,-1,0,0,0,-2,-1,1.375
276,3,-4,-2,0,0,1,0,1,1.3800000000000001
277,-2,-5,-4,-4,-1,-3,-2,-2,1.385
278,2,4,1,5,4,0,-1,-1,1.3900000000000001
279,2,-1,-2,0,-1,2,0,2,1.395
280,-3,-3,0,-1,-3,-6,-5,-5,1.4000000000000001
281,4,2,0,-2,-4,0,0,0,1.405
282,3,-3,1,-1,1,1,0,0,1.41
283,-4,1,-5,-5,-1,-2,-1,-2,1.415
284,-1,1,0,-1,-1,1,3,0,1.42
285,8,0,-1,-1,0,-1,-2,-1,1.425
286,5,0,4,1,3,0,0,1,1.43
287,1,-4,-3,-3,-3,-4,-3,-3,1.435
288,-5,-3,0,-3,-3,-1,-1,1,1.44
289,0,2,0,3,0,2,-1,0,1.445
290,-5,0,1,-1,-1,-1,2,0,1.45
291,6,-5,-2,1,0,0,-1,-2,1.455
292,0,1,-2,-4,-3,-2,-2,0,1.46
293,-4,-1,1,1,0,0,0,0,1.465
294,-1,-3,-3,-1,-3,-2,1,-1,1.47
295,-7,2,1,0,0,0,0,1,1.475
296,6,1,-5,1,0,-3,0,-3,1.48
297,-7,-4,-1,0,-3,-2,0,-4,1.485
298,-2,5,0,-3,0,0,-1,-1,1.49
299,-2,0,-1,-2,0,-2,1,0,1.495
300,1,-2,1,2,0,0,-1,-1,1.5
301,-1,3,-3,-3,-3,-4,-1,1,1.5050000000000001
302,-5,-4,-3,-2,-2,-2,-1,0,1.51
303,9,3,6,-1,-1,1,1,-2,1.5150000000000001
304,-3,-7,-3,2,3,2,0,0,1.52
305,3,2,-1,1,1,-2,2,1,1.5250000000000001
306,-2,-2,2,-1,-3,-2,-1,0,1.53
307,-1,-1,-2,0,-1,0,-1,1,1.5350000000000001
308,-2,-3,-2,-4,-2,-1,-3,-2,1.54
309,-4,-4,1,1,1,0,-1,-2,1.545
310,3,1,-5,-4,-1,2,-1,-1,1.55
311,-8,1,-1,-1,0,-1,-2,0,1.555
312,4,-1,2,-2,1,0,0,-1,1.56
313,0,2,1,3,2,1,1,2,1.565
314,-3,-2,-1,-7,-4,-4,-4,-4,1.57
315,-2,-3,-3,-1,-1,0,-1,-1,1.575
316,3,3,0,1,0,-2,-1,-1,1.58
317,4,-3,1,0,-2,1,0,0,1.585
318,2,1,1,1,1,-1,0,-1,1.59
319,-2,0,3,3,0,3,2,2,1.595
320,-4,0,-1,-1,-3,-1,-1,-3,1.6
321,1,-1,0,-1,0,-1,-1,-2,1.605
322,-9,1,-2,-3,-4,-2,-3,-3,1.61
323,4,-5,-4,-2,0,-2,-1,-1,1.615
324,-5,-1,0,2,-1,0,1,0,1.62
325,1,-1,-3,0,1,0,0,0,1.625
326,1,-5,-4,0,0,-2,-1,-1,1.6300000000000001
327,-1,2,0,-2,-1,1,1,0,1.635
328,-6,0,0,1,0,-1,0,-1,1.6400000000000001
329,-1,-2,0,-2,0,-1,-2,-1,1.645
330,-2,0,-2,2,-1,0,2,2,1.6500000000000001
331,14,-5,-5,-1,1,-1,0,-1,1.655
332,1,-1,-1,-2,-2,-1,-1,-1,1.6600000000000001
333,-4,-2,-2,-3,-2,-2,0,-3,1.665
334,-1,-3,1,-1,-3,-2,1,0,1.67
335,-1,0,1,-1,1,-1,-2,1,1.675
336,6,5,2,2,0,0,1,1,1.68
337,-8,0,-3,-1,-1,-1,-1,-1,1.685
338,2,-2,0,1,-2,-1,-3,-3,1.69
339,0,-2,3,0,-1,1,-1,-2,1.695
340,-3,-2,-2,-4,-3,-3,-3,-2,1.7
341,3,-1,-2,-2,-2,-1,0,-1,1.705
342,-2,-3,-2,-2,-1,-2,-1,-1,1.71
343,-3,6,1,1,-1,-1,-2,0,1.715
344,-3,-11,-6,-2,0,0,1,-1,1.72
345,3,1,3,-3,-4,-2,0,0,1.725
346,2,-2,-3,1,1,1,-1,2,1.73
347,-3,1,0,-3,-5,-4,-1,-1,1.735
348,2,3,1,-1,-1,-1,-2,-1,1.74
349,-1,2,0,0,0,-2,-2,-1,1.745
350,-5,-1,-2,0,0,2,-2,-1,1.75
351,-5,0,1,-1,1,0,1,2,1.7550000000000001
352,7,2,-2,2,1,-1,0,-1,1.76
353,-6,-5,0,-1,-1,0,2,-1,1.7650000000000001
354,3,3,4,1,-2,-2,0,-1,1.77
355,-6,-2,-2,-2,-2,-3,-2,-3,1.7750000000000001
356,1,1,-1,0,1,0,0,1,1.78
357,3,2,1,0,0,0,-2,0,1.7850000000000001
358,-2,-6,-2,0,-3,-1,-1,-2,1.79
359,-4,1,-1,-1,-1,-1,-2,-1,1.795
360,0,-7,-1,0,1,-1,0,0,1.8
361,1,0,-1,-6,-3,-2,-3,-2,1.805
362,2,3,0,-1,1,0,0,-1,1.81
363,-1,-5,0,-1,0,1,-1,-2,1.815
364,1,-1,0,-2,-4,0,-2,0,1.82
365,-6,1,-2,-2,-2,-2,-2,0,1.825
366,-3,-2,-3,-4,0,0,0,-2,1.83
367,1,-4,0,-1,0,-2,-1,-1,1.835
368,-3,4,3,1,1,0,-1,0,1.84
369,-2,-6,-3,1,-2,-2,-3,-1,1.845
370,3,1,-1,0,0,-1,0,0,1.85
371,0,3,-2,1,0,0,-3,-1,1.855
372,-2,0,2,-2,-1,0,-1,0,1.86
373,1,3,1,1,0,1,2,1,1.865
374,1,-1,-2,0,-2,-4,-2,-1,1.87
375,-10,-4,-2,0,2,1,1,-1,1.875
376,-3,-1,-1,0,-3,-2,-1,-2,1.8800000000000001
377,0,-5,1,2,0,-1,0,-2,1.885
378,1,2,-2,-3,-1,0,0,1,1.8900000000000001
379,3,3,-3,-1,-1,-2,0,-1,1.895
380,-4,-3,-3,-3,-1,-1,-2,-2,1.9000000000000001
381,0,-6,-1,0,0,2,-1,0,1.905
382,2,1,-1,-1,0,-3,1,0,1.9100000000000001
383,3,0,0,0,1,0,-2,-1,1.915
384,-3,1,-2,-2,1,-1,-1,0,1.92
385,1,3,0,1,2,1,1,-1,1.925
386,-1,-5,-2,1,-1,0,0,0,1.93
387,-4,-5,-3,-5,-3,-4,-1,-2,1.935
388,2,2,0,-1,-1,0,1,-1,1.94
389,7,1,-1,-2,-1,0,-1,-2,1.945
390,-12,-4,-2,3,-1,1,-2,-2,1.95
391,-5,-2,-1,-4,-1,0,0,0,1.955
392,8,1,-1,-1,1,-2,1,0,1.96
393,-9,1,-1,0,1,0,0,0,1.965
394,-4,0,0,-2,-3,-2,0,0,1.97
395,-3,-2,-2,2,0,-2,-3,-3,1.975
396,-1,1,-1,0,1,0,1,0,1.98
397,-1,-6,-2,-3,-5,-2,-2,-2,1.985
398,3,0,0,0,0,1,0,0,1.99
399,0,1,2,1,-4,0,-1,0,1.995
400,1,4,1,1,2,-2,0,0,2.0
401,1,-6,-2,-2,-2,-2,-2,0,2.005
402,2,0,1,-1,0,1,2,-1,2.0100000000000002
403,1,-2,-3,-3,0,0,2,2,2.015
404,13,0,4,1,-2,-1,-1,0,2.02
405,-10,1,1,1,-1,-1,0,-1,2.025
406,-4,-3,1,-5,-2,-1,-1,-1,2.0300000000000002
407,0,0,-2,2,3,2,0,-1,2.035
408,-2,-6,-3,-5,-4,0,-2,-1,2.04
409,2,8,1,2,1,0,-1,1,2.045
410,-3,4,-1,-3,-1,-3,-3,-1,2.05
411,0,-3,-1,-1,-1,2,0,-1,2.055
412,-5,-6,-3,1,1,1,0,-1,2.06
413,-1,1,-1,-1,-1,-3,-3,-2,2.065
414,1,-2,0,2,0,2,-1,1,2.07
415,1,4,1,-2,-1,-1,-1,0,2.075
416,-4,-1,-2,0,0,0,1,0,2.08
417,4,2,1,-1,0,-1,-2,-1,2.085
418,3,0,-1,-1,1,-2,0,1,2.09
419,-3,-4,0,1,-3,-2,-2,0,2.095
420,-3,-1,-1,-4,-2,2,-1,-2,2.1
421,0,-4,-3,-3,-1,-1,1,-2,2.105
422,2,0,-1,1,1,-1,-1,-1,2.11
423,-4,-4,0,1,0,0,0,0,2.115
424,0,2,2,0,-1,-1,-1,-1,2.12
425,-9,-2,-4,-3,0,-1,-1,-2,2.125
426,-1,-4,-2,0,-2,-2,-1,-2,2.13
427,0,1,0,-4,0,-3,-1,-2,2.1350000000000002
428,-2,0,-2,-2,0,0,0,0,2.14
429,0,1,2,0,-2,1,-1,-1,2.145
430,-3,-2,-2,-2,-1,-1,-1,-2,2.15
431,-1,-3,-3,4,0,-2,-1,-1,2.1550000000000002
432,-4,-1,-1,-1,-4,-1,-1,-1,2.16
433,4,1,0,0,2,-1,1,0,2.165
434,-1,2,-1,0,-2,-1,-1,0,2.17
435,2,2,-1,-5,-3,-2,-1,0,2.1750000000000003
436,-6,1,0,3,2,1,1,0,2.18
437,6,-1,-1,-3,-1,0,-1,-1,2.185
438,-17,-11,-5,-3,-2,-3,-3,-4,2.19
439,3,-5,0,-1,0,0,-2,-3,2.195
440,1,-4,-3,-3,-3,-2,-1,-1,2.2
441,-3,1,-1,1,0,-1,-2,-1,2.205
442,4,3,2,-1,1,1,1,1,2.21
443,-2,1,-2,-1,-1,-2,-2,0,2.215
444,-4,-7,0,1,-1,-2,-3,-3,2.22
445,-2,-5,-3,-2,-1,0,0,0,2.225
446,8,2,0,1,1,0,0,-1,2.23
447,-10,0,-2,-2,-2,-2,-1,-2,2.235
448,1,3,2,0,1,-1,1,1,2.24
449,0,-4,-4,-2,-3,-3,-1,-1,2.245
450,-1,-4,-5,-3,0,2,-1,0,2.25
451,2,1,0,1,1,2,2,2,2.255
452,-2,-3,-2,0,-1,-4,-2,-2,2.2600000000000002
453,6,0,0,1,-1,-3,0,0,2.265
454,-4,2,0,-2,1,-1,-1,-2,2.27
455,-4,-1,0,-2,-1,0,1,-1,2.275
456,-2,-9,-1,-3,-1,0,-1,0,2.2800000000000002
457,2,1,-1,3,3,-1,-1,-1,2.285
458,2,-3,-2,0,-2,1,0,-1,2.29
459,1,-1,0,0,-1,-1,0,-1,2.295
460,11,-2,-4,-2,-2,-1,-1,-3,2.3000000000000003
461,-4,0,-4,-1,-2,1,1,1,2.305
462,3,1,2,-1,0,0,1,1,2.31
463,0,-5,-1,2,0,-1,-1,-1,2.315
464,-5,1,-1,-3,-2,-3,-2,0,2.32
465,9,0,1,1,0,-1,0,-1,2.325
466,-2,2,1,-1,-2,-3,0,0,2.33
467,-4,3,-1,-1,-2,0,1,1,2.335
468,4,-2,-1,2,2,1,1,0,2.34
469,-10,-7,-4,-3,-3,0,0,-3,2.345
470,3,6,5,3,1,0,-1,-1,2.35
471,3,-2,0,-2,1,-1,0,-2,2.355
472,-2,5,-1,0,-1,-1,-1,0,2.36
473,-4,-2,0,-3,0,1,0,-1,2.365
474,11,4,0,1,-2,-2,0,-1,2.37
475,-3,-3,-1,-3,-2,-2,-2,-2,2.375
476,-2,-1,0,-1,-1,-1,0,-1,2.38
477,-1,0,1,2,1,-3,-1,0,2.3850000000000002
478,-6,-7,-1,-1,2,-1,0,-1,2.39
479,4,2,-2,-2,-2,-2,-3,-2,2.395
480,-4,-2,0,-1,-2,-1,0,-1,2.4
481,7,4,-2,-2,-2,-1,-2,-1,2.4050000000000002
482,-6,-5,-1,-3,-2,-3,-2,-1,2.41
483,0,-5,-3,4,1,-2,-1,0,2.415
484,-3,0,-1,-6,-1,-1,0,-2,2.42
485,-2,-1,2,1,2,-1,-1,0,2.4250000000000003
486,-2,-2,-2,-1,-1,1,-2,0,2.43
487,2,5,0,-3,-2,0,-1,0,2.435
488,3,0,1,0,-2,0,0,1,2.44
489,-10,-4,-2,0,0,0,0,-1,2.445
490,-1,-4,-2,-2,0,2,2,0,2.45
491,-3,2,-2,-1,0,-1,-1,-3,2.455
492,-1,-4,-3,-2,-2,-2,0,0,2.46
493,-1,0,-1,-2,-1,0,-1,0,2.465
494,0,4,1,1,0,0,-1,0,2.47
495,-3,1,-2,-2,1,0,1,2,2.475
496,-2,2,0,1,-3,0,-1,-2,2.48
497,-3,-6,-5,-2,-2,-1,0,0,2.485
498,-1,-3,-1,0,-2,-3,-2,-3,2.49
499,2,-4,2,-3,-1,0,0,-1,2.495
500,1,4,3,1,2,0,0,1,2.5
501,0,0,0,2,-1,0,1,-3,2.505
502,-2,-1,0,1,-2,2,-1,1,2.5100000000000002
503,3,-5,0,-6,1,0,-1,0,2.515
504,0,0,2,2,1,0,0,-1,2.52
505,-2,-1,2,1,0,0,0,0,2.525
506,-1,-2,-2,-2,-2,-3,-1,-3,2.5300000000000002
507,-4,0,-1,1,-1,0,-1,1,2.535
508,0,0,0,0,-1,-2,-1,-1,2.54
509,-1,0,2,1,1,-2,0,-1,2.545
510,-2,0,-3,-1,-2,0,0,-1,2.5500000000000003
511,2,-1,-1,0,2,0,0,0,2.555
512,3,0,0,1,-2,0,-1,-3,2.56
513,-3,-1,-3,-1,-1,1,-2,-1,2.565
514,-3,-4,1,-2,0,-1,-1,-1,2.57
515,0,-1,0,1,-1,0,0,-1,2.575
516,-2,0,-1,1,-1,-1,-2,0,2.58
517,-1,4,2,-2,0,0,-1,-1,2.585
518,6,0,-1,1,-1,-1,-1,-2,2.59
519,0,-1,-1,-2,-2,-3,0,-1,2.595
520,-3,-2,-2,0,1,0,0,-2,2.6
521,0,3,-2,-1,-3,-1,0,-1,2.605
522,-3,-4,-2,-4,0,-1,-1,-1,2.61
523,-3,-3,-1,0,-2,-4,-2,-2,2.615
524,-3,4,1,-2,-3,0,-1,0,2.62
525,2,-4,-2,0,0,-2,-2,-2,2.625
526,-9,3,1,1,1,0,1,1,2.63
527,0,1,-1,-1,-1,-1,-1,-1,2.6350000000000002
528,-6,-6,-2,-1,-2,0,-2,-3,2.64
529,9,-1,1,0,1,0,-1,-1,2.645
530,-1,-1,-2,-1,0,1,-3,-2,2.65
531,-2,-4,-4,-3,-2,-1,-1,-2,2.6550000000000002
532,-2,-2,-3,0,-1,-2,-1,0,2.66
533,-2,-1,0,-2,-2,-1,0,1,2.665
534,5,-2,0,-3,-1,-1,-1,1,2.67
535,-2,0,0,2,0,1,-2,0,2.6750000000000003
536,1,-1,-2,-3,1,-2,-1,-1,2.68
537,-4,-4,-4,-2,-2,0,-1,1,2.685
538,0,5,-1,0,1,-1,1,-1,2.69
539,1,-1,-4,0,-1,-2,-1,-3,2.695
540,-2,3,0,-2,0,0,0,-2,2.7
541,-1,-3,0,1,0,0,-1,-2,2.705
542,2,-3,-1,0,-2,1,0,-1,2.71
543,-3,-1,-4,-1,-2,0,0,-2,2.715
544,-1,-4,0,0,-2,-2,0,0,2.72
545,-1,2,0,-2,-3,-2,-1,0,2.725
546,0,0,-1,4,0,0,0,0,2.73
547,1,3,2,-1,1,-1,0,-1,2.735
548,2,3,-2,0,0,-2,-3,-1,2.74
549,-3,-1,1,-1,-1,-2,-2,-2,2.745
550,1,0,2,-1,-2,-2,0,-1,2.75
551,-6,-3,1,-1,0,0,-2,-2,2.755
552,0,4,-2,-1,-1,-1,0,0,2.7600000000000002
553,3,3,0,-1,-1,0,1,1,2.765
554,-4,-4,-2,-2,-3,-3,-1,-2,2.77
555,4,5,-1,1,0,0,0,1,2.775
556,-4,-5,0,0,-1,-2,-2,-1,2.7800000000000002
557,-5,-5,0,1,-1,-2,-1,-2,2.785
558,1,1,-1,-1,-1,0,0,-1,2.79
559,0,-4,-2,-2,-3,0,-2,-1,2.795
560,4,0,1,3,1,1,1,1,2.8000000000000003
561,9,2,-3,-6,-1,-2,-1,-1,2.805
562,-6,-5,-1,-3,1,1,-1,0,2.81
563,2,11,1,-1,-3,-2,-3,-2,2.815
564,-5,-3,-1,-2,-2,1,0,0,2.82
565,-3,1,0,2,1,1,-1,1,2.825
566,6,0,-1,-2,-1,-1,-2,-5,2.83
567,-3,-1,0,-1,0,0,0,-1,2.835
568,-1,-3,-1,1,0,0,1,-1,2.84
569,0,1,1,-1,-3,-1,0,-1,2.845
570,-10,2,1,-3,-3,-1,-2,0,2.85
571,-1,-6,1,1,1,-1,-1,0,2.855
572,3,-2,-1,-1,0,0,1,-1,2.86
573,-2,-5,-3,1,0,-1,-1,-3,2.865
574,0,-3,-4,-2,0,-1,0,1,2.87
575,-1,0,0,1,2,2,0,-1,2.875
576,13,1,1,-1,-2,0,-1,0,2.88
577,-8,-3,1,-1,-2,-1,-1,0,2.8850000000000002
578,0,3,0,2,0,-1,0,0,2.89
579,-4,-2,-3,-1,-2,-3,0,-1,2.895
580,-1,-2,-1,-1,-2,-1,-1,0,2.9
581,0,2,0,1,1,0,-1,0,2.9050000000000002
582,-4,-4,-3,-1,-2,0,-1,-2,2.91
583,2,-2,-1,1,0,-3,-1,-1,2.915
584,-2,3,1,-3,1,0,-1,-1,2.92
585,-5,-1,-2,-3,-3,-2,-1,0,2.9250000000000003
586,2,-1,0,4,2,1,1,1,2.93
587,-2,-4,0,-1,-2,-2,1,-1,2.935
588,-1,1,-1,0,0,-1,-2,-1,2.94
589,-1,2,3,-2,-2,-1,1,-2,2.945
590,2,0,1,1,2,-1,0,0,2.95
591,0,-3,0,-1,-1,1,1,1,2.955
592,0,0,-3,-1,-2,-3,-3,-1,2.96
593,5,-15,0,1,1,0,0,-1,2.965
594,-1,1,-3,-3,-1,-2,0,0,2.97
595,-2,-2,0,-2,-1,-2,-2,-3,2.975
596,-6,-3,-1,-2,-4,-1,-1,-3,2.98
597,1,3,-3,0,1,1,-1,0,2.985
598,-3,-2,-2,-3,0,0,0,-1,2.99
599,-1,-6,-2,1,0,-1,-1,0,2.995
600,-3,-1,-2,-3,-1,-1,0,-1,3.0
601,0,6,0,2,-3,-1,-1,-1,3.005
602,-5,-4,1,-1,-2,-2,-2,-2,3.0100000000000002
603,0,4,0,-1,-1,1,0,-1,3.015
604,-1,-3,1,0,-2,-2,-2,0,3.02
605,-3,0,-2,0,0,0,0,0,3.025
606,1,3,1,-2,1,0,0,0,3.0300000000000002
607,-1,0,-1,-2,-3,-1,-1,0,3.035
608,-1,-2,0,-1,-1,-1,1,0,3.04
609,-2,-1,-1,0,1,1,-2,0,3.045
610,0,-1,-1,0,1,-3,0,1,3.0500000000000003
611,4,3,2,-1,-2,-2,-1,2,3.055
612,-3,-4,-3,1,1,-1,-1,-4,3.06
613,-2,3,-1,-1,-2,-1,-1,-1,3.065
614,-1,1,-1,-3,-1,-1,-2,-1,3.0700000000000003
615,-8,-4,-2,1,0,0,-1,0,3.075
616,-2,2,2,-3,0,1,0,0,3.08
617,1,-5,-2,0,1,-1,-1,-2,3.085
618,-1,-2,0,0,-3,0,0,-1,3.09
619,2,2,-1,-1,-1,1,1,0,3.095
620,0,2,1,0,0,0,1,0,3.1
621,-5,-2,-5,-4,-3,-2,-2,-2,3.105
622,1,-4,-2,0,-1,-1,0,0,3.11
623,1,-1,-2,-1,0,0,-1,-1,3.115
624,-4,-4,-4,2,-2,-1,-2,0,3.12
625,0,2,1,-4,-2,0,-1,0,3.125
626,1,0,0,0,-1,1,0,0,3.13
627,0,2,-2,1,2,2,2,-1,3.1350000000000002
628,-3,0,-1,2,0,-1,0,0,3.14
629,-1,-4,-2,-2,0,-3,0,2,3.145
630,4,-2,-1,-1,-1,-1,-1,-1,3.15
631,-1,-2,2,3,2,-1,1,0,3.1550000000000002
632,-1,-2,-1,-5,-3,-2,1,-1,3.16
633,-2,2,2,2,0,-2,-1,0,3.165
634,-3,-2,-1,-1,-2,-3,-4,-2,3.17
635,-1,0,1,2,-3,-1,-2,-1,3.1750000000000003
636,-1,-3,0,-6,-1,1,0,-3,3.18
637,0,3,0,0,1,0,1,0,3.185
638,10,1,-2,-1,-4,-1,-2,-3,3.19
639,-7,-6,-1,-2,-3,-1,-2,-2,3.1950000000000003
640,-3,0,0,2,-2,-2,-3,-1,3.2
641,1,-1,-3,-2,-2,0,0,-1,3.205
642,-4,-3,0,-2,-2,-2,-2,-1,3.21
643,-1,-1,-3,-4,-2,-1,0,1,3.215
644,1,0,1,-1,-1,-2,-1,0,3.22
645,-4,-5,2,-1,-1,0,-1,-1,3.225
646,-5,1,-4,0,0,-2,-1,1,3.23
647,1,2,-4,-3,-1,-1,1,-1,3.235
648,1,0,-1,0,-2,1,-1,0,3.24
649,0,0,1,4,0,-1,0,-1,3.245
650,-2,-2,-2,-1,1,1,1,0,3.25
651,-2,-2,-1,-2,-1,-1,-2,-3,3.255
652,-1,0,-4,0,-2,0,-1,0,3.2600000000000002
653,-1,-1,-1,2,2,0,0,0,3.265
654,5,3,2,1,0,0,-1,0,3.27
655,-2,-1,0,-1,1,1,-1,-1,3.275
656,-1,-5,-1,-1,-2,-1,1,-2,3.2800000000000002
657,-2,-2,1,2,-2,-1,-2,-1,3.285
658,0,0,-3,-1,1,-2,-1,0,3.29
659,6,2,1,0,0,-1,-1,-1,3.295
660,-1,2,2,-1,2,1,1,-1,3.3000000000000003
661,-1,-5,-3,-3,-4,-3,-2,-3,3.305
662,-5,-1,0,-1,-2,1,1,1,3.31
663,-1,0,0,0,-4,-2,-2,-1,3.315
664,-2,-5,-1,-1,-1,-1,0,-1,3.3200000000000003
665,5,2,0,0,0,2,0,-1,3.325
666,-4,-3,0,1,-1,-2,-1,-1,3.33
667,-1,-1,0,-2,-1,0,-1,-1,3.335
668,0,-1,-1,0,-1,0,-1,0,3.34
669,-2,-4,-5,-5,-3,-2,-1,-2,3.345
670,-3,-3,2,-1,1,0,-1,-2,3.35
671,1,-1,3,-1,-1,0,-2,-1,3.355
672,-5,1,-2,3,1,1,-2,0,3.36
673,-1,-3,-2,-3,-4,0,-1,-2,3.365
674,-4,4,0,-2,-1,-1,-1,-1,3.37
675,-2,-2,-2,0,2,-1,0,0,3.375
676,2,-2,-2,-1,-5,-2,-2,-1,3.38
677,-2,1,1,0,-1,-1,-2,0,3.3850000000000002
678,-3,-2,-4,-1,0,0,-1,-2,3.39
679,9,1,2,0,-3,-2,-1,0,3.395
680,-4,-1,1,-1,-1,0,-2,-1,3.4
681,-1,-1,-3,1,0,-3,-2,-1,3.4050000000000002
682,-3,-1,-2,-4,-1,1,0,-1,3.41
683,-3,-2,-1,-2,-1,-2,-2,-1,3.415
684,1,2,1,-1,-1,0,-1,1,3.42
685,0,-1,-2,0,-2,-1,-1,-1,3.4250000000000003
686,3,2,1,2,-1,0,0,-1,3.43
687,-6,-1,-3,0,0,-1,-1,-2,3.435
688,1,-4,-1,-1,-2,-3,-1,-1,3.44
689,-2,0,1,0,1,0,-1,-2,3.4450000000000003
690,2,1,0,2,1,-2,-1,-1,3.45
691,-1,1,-1,-2,0,-1,-1,1,3.455
692,-2,-1,-2,1,-2,-2,0,-2,3.46
693,-2,-1,-2,-4,-2,0,0,-1,3.465
694,0,-2,-1,-2,-2,-2,-1,0,3.47
695,-1,0,1,1,1,1,-2,-1,3.475
696,1,1,-1,1,-2,-1,-2,-3,3.48
697,0,-2,0,-2,-1,1,-1,-1,3.485
698,-1,-1,1,1,-3,1,1,0,3.49
699,-1,-1,-1,-1,-1,1,1,-2,3.495
700,0,0,0,-2,-1,-3,0,-2,3.5
701,0,0,-3,-1,-2,0,-1,0,3.505
702,-3,-1,0,3,2,-1,-1,-1,3.5100000000000002
703,2,-2,-2,-3,-5,0,0,-1,3.515
704,-1,-2,1,0,1,0,-1,-2,3.52
705,0,1,0,-2,1,-1,-1,-1,3.525
706,-1,1,-2,-2,-1,-3,-4,0,3.5300000000000002
707,-2,-1,0,-1,2,0,0,-1,3.535
708,1,3,-1,0,0,-1,0,0,3.54
709,-2,-3,1,-1,0,-2,1,-2,3.545
710,9,4,0,1,-1,-1,-1,-1,3.5500000000000003
711,-6,-10,-6,1,-1,-1,-3,-2,3.555
712,4,0,-4,-5,-2,-1,1,0,3.56
713,-5,0,1,1,4,-1,-2,0,3.565
714,-1,-4,-1,0,-2,-1,-2,-1,3.5700000000000003
715,1,1,3,-1,0,0,0,1,3.575
716,-1,-3,0,-1,0,-2,0,0,3.58
717,1,-1,0,0,-3,-1,1,-1,3.585
718,-4,-2,-3,-1,0,-1,-1,-2,3.59
719,-2,0,-1,-1,-1,2,0,1,3.595
720,-6,0,-1,-1,0,-2,-1,0,3.6
721,16,-2,-2,-5,-4,-1,-2,-1,3.605
722,-6,-3,0,1,4,1,1,-1,3.61
723,-2,-1,-1,-2,0,-1,-1,-1,3.615
724,5,0,1,2,0,1,-1,-1,3.62
725,-5,-2,-3,-1,-2,0,1,1,3.625
726,-1,-2,-2,-3,-3,0,0,0,3.63
727,-2,-2,1,0,0,-2,-1,-2,3.6350000000000002
728,-2,-6,0,0,-1,-1,-3,-2,3.64
729,-1,0,-2,-3,0,1,-1,-1,3.645
730,-1,-2,-4,-4,-3,-1,-1,-1,3.65
731,-1,0,0,-3,-2,-2,-1,0,3.6550000000000002
732,-1,-4,-3,-5,-3,-2,-1,0,3.66
733,-2,0,-2,3,1,0,0,-1,3.665
734,3,-3,-1,0,0,0,-1,-1,3.67
735,1,2,2,1,1,0,2,-1,3.6750000000000003
736,-1,-5,-4,-4,-2,0,-3,-2,3.68
737,-4,-1,0,0,-2,-1,0,1,3.685
738,2,2,0,0,-1,-1,0,1,3.69
739,-2,1,-2,-2,-3,-3,-3,-1,3.6950000000000003
740,7,1,-2,2,0,-1,0,-1,3.7
741,-3,0,-4,1,1,1,0,0,3.705
742,-6,2,2,1,0,0,1,-1,3.71
743,-1,-1,1,-2,-4,-4,-2,-2,3.715
744,-2,-1,-1,1,2,2,1,1,3.72
745,0,-2,-1,-1,-3,-1,-1,-1,3.725
746,-2,-7,-4,-3,-2,-1,-3,-4,3.73
747,-3,3,-2,0,1,-2,0,0,3.735
748,-3,-4,-4,1,0,-1,-1,0,3.74
749,7,-3,-2,-1,-1,0,-1,-2,3.745
750,-3,0,-2,-1,-1,-3,0,2,3.75
751,0,-4,-1,-3,-2,0,0,-3,3.755
752,-4,2,3,-1,0,1,-1,-2,3.7600000000000002
753,-2,0,1,0,-3,0,0,1,3.765
754,0,-2,-1,2,1,-1,-1,-1,3.77
755,0,-6,0,1,0,0,-1,0,3.775
756,-2,2,-1,-6,-1,-2,0,2,3.7800000000000002
757,-4,2,0,1,0,-2,-1,0,3.785
758,12,0,1,-3,-1,0,-2,-2,3.79
759,-6,-4,-5,-1,0,-2,-1,-3,3.795
760,2,-3,1,-2,-3,0,0,-2,3.8000000000000003
761,-7,0,0,-2,-2,-1,0,0,3.805
762,-2,1,0,1,0,0,0,1,3.81
763,5,3,1,0,1,2,1,2,3.815
764,-3,-2,-1,0,-2,-1,1,1,3.8200000000000003
765,3,0,0,0,4,-1,0,-3,3.825
766,-9,2,0,-2,-2,-1,0,-3,3.83
767,0,-1,1,2,2,-1,-1,-1,3.835
768,-2,-2,-2,-1,0,0,0,-1,3.84
769,-1,-3,2,0,0,0,-1,0,3.845
770,-1,-2,-1,-2,-3,-2,-1,1,3.85
771,-2,1,4,1,-2,0,-1,0,3.855
772,-3,-4,-3,0,-1,-2,-1,-1,3.86
773,8,0,-1,0,-2,-3,-3,-3,3.865
774,-6,-6,-2,0,-3,0,0,-1,3.87
775,0,-5,-2,-3,-1,2,1,0,3.875
776,1,6,3,3,1,1,-1,-1,3.88
777,0,-1,-2,-1,-1,1,1,2,3.8850000000000002
778,0,0,0,0,-3,-1,-1,-2,3.89
779,4,2,-1,-2,-2,-2,-2,-1,3.895
780,-5,-1,-1,0,-1,-1,0,-2,3.9
781,-7,2,-1,0,-3,-2,-1,-1,3.9050000000000002
782,5,0,-2,-2,0,1,1,0,3.91
783,-8,-2,0,-2,-1,-1,-2,-1,3.915
784,1,0,0,-1,-1,-2,-1,0,3.92
785,-2,2,2,-1,-1,-2,-1,-2,3.9250000000000003
786,-2,1,0,1,0,-2,-1,1,3.93
787,1,0,2,0,1,-1,2,0,3.935
788,1,5,2,0,1,-2,-1,0,3.94
789,-3,-3,-1,-2,0,-1,1,1,3.9450000000000003
790,1,0,0,-1,-1,1,-2,-1,3.95
791,9,0,-2,0,-2,-1,-1,-2,3.955
792,-6,-1,1,1,-1,0,-1,-1,3.96
793,1,-1,-1,1,2,-1,-2,0,3.9650000000000003
794,0,-4,-1,-2,0,-2,-4,-2,3.97
795,0,2,1,-2,0,-1,0,-2,3.975
796,-2,-4,-5,-4,-2,-1,-1,-2,3.98
797,-2,0,-3,0,-2,-1,0,-3,3.985
798,-2,0,-2,0,-1,0,0,0,3.99
799,4,-1,-3,-3,-2,-1,-2,-1,3.995
800,1,0,1,1,1,1,-1,0,4.0
801,-2,-2,-2,-3,-2,-2,-1,-1,4.005
802,-1,1,-1,0,-1,-3,0,-2,4.01
803,-3,-2,1,2,-1,-3,1,0,4.015
804,2,1,1,0,-1,0,-1,-1,4.0200000000000005
805,0,-1,-1,-2,0,-1,1,-1,4.025
806,-2,-2,-1,1,1,0,-2,0,4.03
807,-5,2,0,-1,-2,-1,-2,-1,4.035
808,-6,-7,-1,1,-1,-2,-1,-1,4.04
809,-4,0,1,0,1,0,1,1,4.045
810,-2,-3,-4,-4,-1,-2,-1,0,4.05
811,0,-2,-2,-1,0,1,0,2,4.055
812,2,3,-1,-2,-1,-2,0,-1,4.0600000000000005
813,-4,-1,-1,1,-1,-1,0,-2,4.065
814,1,0,2,-2,-1,1,2,0,4.07
815,-3,0,-1,-1,-3,-2,-1,-1,4.075
816,10,0,0,-5,-3,-1,-2,0,4.08
817,-3,-2,0,3,1,1,1,0,4.085
818,0,-1,-2,0,-2,-3,-2,-2,4.09
819,-3,-4,1,-1,-2,-2,-2,-1,4.095
820,-2,0,-2,-1,0,0,1,0,4.1
821,3,1,-2,-2,-4,-2,-2,-2,4.105
822,6,2,0,2,2,2,0,2,4.11
823,-10,-5,-2,-1,-1,-2,-1,-1,4.115
824,7,-4,-3,3,0,-1,-1,-1,4.12
825,-1,1,-1,-3,-2,-1,-2,-2,4.125
826,-1,-3,0,0,0,-2,0,-3,4.13
827,3,3,0,-1,-1,0,0,1,4.135
828,-5,1,-2,0,-1,-1,1,1,4.14
829,9,-2,-1,-2,0,-2,-4,-1,4.1450000000000005
830,-7,0,1,2,-1,-3,-2,-3,4.15
831,0,-1,-2,-6,-2,0,-1,-2,4.155
832,-5,-2,-3,0,0,-1,-1,-1,4.16
833,1,0,0,-2,-3,-1,0,1,4.165
834,-2,1,-2,-2,-3,0,-1,-1,4.17
835,-1,0,1,0,3,1,-1,-1,4.175
836,-2,-1,-1,0,-1,1,0,-1,4.18
837,-1,1,0,-1,-2,0,-1,-1,4.1850000000000005
838,0,-1,1,-2,-2,-4,-3,-2,4.19
839,-3,-2,-3,0,-2,-2,0,-1,4.195
840,-3,0,1,-4,-2,-1,-1,-1,4.2
841,5,-2,-1,1,1,0,1,-3,4.205
842,-5,-1,1,1,1,-2,-1,0,4.21
843,-1,0,-3,-5,-2,0,-1,0,4.215
844,-1,3,0,1,-2,-1,0,1,4.22
845,2,2,0,-1,-1,0,-1,0,4.225
846,0,-3,-2,-1,-2,-2,1,0,4.23
847,-4,-3,-2,3,-1,-1,0,-2,4.235
848,-4,-2,-2,-1,-1,-2,-1,-1,4.24
849,0,-1,0,0,0,1,0,-1,4.245
850,2,1,1,0,-2,-1,-1,-1,4.25
851,1,5,2,1,2,0,1,-1,4.255
852,3,-1,-3,-2,-1,-1,0,0,4.26
853,-4,-5,-3,-1,-4,-3,-1,-2,4.265
854,-5,-2,-1,-4,0,-1,-2,-2,4.2700000000000005
855,9,-3,2,2,-2,-1,-1,-2,4.275
856,-4,-4,-2,0,1,-2,-1,0,4.28
857,-3,1,-1,-2,-1,-1,0,1,4.285
858,-1,3,-3,-1,-1,1,3,2,4.29
859,3,1,0,0,0,-1,-2,0,4.295
860,8,0,-1,-2,-2,-1,0,-1,4.3
861,-8,-7,-4,-4,0,-2,-2,-2,4.305
862,0,0,-2,1,-1,2,0,-2,4.3100000000000005
863,-2,0,-2,-2,-2,-1,0,-1,4.315
864,0,0,2,1,0,0,0,-2,4.32
865,-2,1,1,-2,-1,-2,0,-1,4.325
866,2,-1,-1,-4,-3,0,-1,1,4.33
867,-9,-5,1,6,3,-1,0,-1,4.335
868,1,-6,-3,-5,1,-1,-2,-2,4.34
869,-8,-6,-2,0,0,-1,-2,-1,4.345
870,2,-5,-2,-2,-4,-2,0,-1,4.3500000000000005
871,1,2,1,1,3,2,0,0,4.355
872,-4,1,-1,-2,-1,-1,-1,-1,4.36
873,-2,2,1,0,-2,0,-1,1,4.365
874,1,-1,-2,-2,-1,-1,-2,-2,4.37
875,-10,-1,0,-3,-2,-2,-1,1,4.375
876,0,0,2,4,1,-1,0,-1,4.38
877,2,2,1,1,2,0,0,0,4.385
878,1,1,2,0,0,0,-2,-1,4.39
879,2,1,-3,0,-2,0,0,0,4.3950000000000005
880,-3,1,2,-1,-4,-2,-1,-1,4.4
881,-2,-2,0,1,-1,0,-1,0,4.405
882,-2,-1,-1,-1,-1,-3,-1,0,4.41
883,6,-1,-2,-5,-2,-1,-3,-3,4.415
884,-6,-4,-5,1,-1,1,-1,-1,4.42
885,0,0,-1,0,-2,0,-1,0,4.425
886,-3,1,1,0,-2,-1,0,1,4.43
887,9,2,-1,-3,-4,-3,-1,-1,4.4350000000000005
888,-7,-3,1,0,2,0,-1,-1,4.44
889,3,-4,-1,-3,0,0,0,-1,4.445
890,-3,0,0,0,-1,-3,-3,-1,4.45
891,-2,4,3,0,-2,0,1,1,4.455
892,3,3,2,0,-1,-1,-1,1,4.46
893,0,-1,-2,-1,1,-1,-2,-1,4.465
894,0,-1,0,3,0,0,1,0,4.47
895,-5,-3,0,-2,-1,-3,-2,-2,4.4750000000000005
896,3,-1,-2,0,-2,-3,-4,-1,4.48
897,1,1,0,-4,-4,0,1,0,4.485
898,-3,-2,-1,0,2,-2,-1,-2,4.49
899,-1,-4,-2,-2,0,-1,-1,-2,4.495
900,-3,-4,-1,-1,-1,3,-1,-2,4.5
901,-2,4,0,0,0,-1,-1,0,4.505
902,3,0,-2,-1,-1,0,-1,-3,4.51
903,-8,-6,-1,0,-1,0,-2,-2,4.515
904,5,1,0,-2,0,-1,-2,0,4.5200000000000005
905,-1,0,-2,2,-1,-1,0,-1,4.525
906,-2,-2,-1,-2,1,2,1,0,4.53
907,-3,1,-1,0,0,0,1,-1,4.535
908,0,2,0,1,-2,0,1,0,4.54
909,0,-4,0,1,0,1,0,0,4.545
910,-4,-2,-2,-3,-2,-4,-2,-3,4.55
911,4,-4,-2,0,1,-3,-2,2,4.555
912,-2,4,1,1,-1,0,1,-2,4.5600000000000005
913,6,6,2,-1,-1,-3,-1,-1,4.565
914,-1,-9,-3,-1,0,0,0,1,4.57
915,8,-1,-1,-2,-1,0,0,-1,4.575
916,-1,-1,-3,1,-1,-2,-2,1,4.58
917,-8,-1,-1,-1,0,0,2,0,4.585
918,0,5,2,-1,-2,0,-2,-1,4.59
919,-4,-2,-1,0,0,-1,-1,-1,4.595
920,0,-3,-1,-2,0,-1,0,0,4.6000000000000005
921,0,2,0,-1,1,0,0,0,4.605
922,2,-1,0,3,-1,0,0,0,4.61
923,-2,-3,-3,0,-3,-1,2,-1,4.615
924,-3,2,1,-2,2,-1,0,-3,4.62
925,-4,-5,-5,-3,-5,-2,-1,-1,4.625
926,-2,-1,-2,-1,2,0,0,-1,4.63
927,0,2,1,2,-2,0,0,0,4.635
928,0,-2,-2,0,-3,-2,-1,-1,4.64
929,10,-5,-6,-3,-2,-3,-3,-3,4.6450000000000005
930,-4,2,-1,-3,-3,0,0,-1,4.65
931,-2,-3,-1,0,0,-2,0,-1,4.655
932,-1,-4,1,0,-1,-1,0,0,4.66
933,-2,-4,-3,0,0,-2,-2,-1,4.665
934,-2,0,-1,-2,-2,-1,1,0,4.67
935,-1,3,0,1,0,-1,-1,-1,4.675
936,-6,-6,-4,-2,-2,0,-1,-2,4.68
937,-1,-4,-2,-1,0,1,-1,2,4.6850000000000005
938,3,-4,-1,-1,0,-1,-1,-1,4.69
939,-4,2,1,0,1,0,-2,-2,4.695
940,0,4,2,0,0,1,3,1,4.7
941,3,-4,1,-2,-3,-1,0,-2,4.705
942,-8,-2,1,-1,0,0,-2,0,4.71
943,5,0,-2,1,-2,0,-2,0,4.715
944,-3,1,1,0,1,0,-1,-4,4.72
945,-2,2,1,-2,-2,-1,-1,0,4.7250000000000005
946,2,-2,-1,-4,-3,-1,0,0,4.73
947,-4,-5,-1,-1,0,-1,0,-1,4.735
948,1,-3,-3,-1,1,-2,-3,0,4.74
949,-1,3,1,-1,-1,-2,-1,-2,4.745
950,1,0,0,-1,-1,0,0,0,4.75
951,-2,2,3,0,0,0,0,0,4.755
952,-2,-6,-4,-1,-2,-3,0,-1,4.76
953,4,3,2,2,2,-1,0,0,4.765
954,2,-4,-2,2,-1,-1,0,1,4.7700000000000005
955,3,1,-4,-2,-3,-1,-1,0,4.775
956,-1,2,-2,2,-2,-1,-2,0,4.78
957,-7,-4,-1,-2,-2,-2,-1,0,4.785
958,9,4,-1,1,0,0,-1,0,4.79
959,-3,-6,-1,-6,-2,0,0,-2,4.795
960,3,2,0,0,1,-1,-1,0,4.8
961,-6,1,-2,-1,-1,0,0,0,4.805
962,-2,-5,1,2,1,1,1,-1,4.8100000000000005
963,-1,1,-3,-4,-2,-1,-1,-1,4.815
964,0,-2,-1,-1,1,0,0,0,4.82
965,-7,-3,-2,-1,-1,-2,-2,-2,4.825
966,7,4,3,-1,-1,-2,-1,-2,4.83
967,-1,-4,-3,3,1,-1,0,-1,4.835
968,-3,-2,-3,-1,-3,1,0,1,4.84
969,-4,-1,-5,-3,0,1,0,1,4.845
970,5,5,5,-1,-4,-2,-2,-1,4.8500000000000005
971,-2,-2,-2,-3,0,-1,-1,-2,4.855
972,1,4,5,3,-1,-1,-1,0,4.86
973,1,-6,1,-1,-1,1,2,0,4.865
974,-4,-2,-4,-4,0,-1,0,1,4.87
975,0,3,-1,0,-2,0,-2,0,4.875
976,1,0,0,-1,-2,-1,1,-1,4.88
977,-9,4,4,1,-2,-1,-4,-2,4.885
978,-2,-2,2,0,-1,-2,0,-2,4.89
979,-1,-3,-2,-1,2,-2,-2,0,4.8950000000000005
980,-3,-5,-3,-3,-2,-3,-2,0,4.9
981,5,-2,1,0,3,-1,-1,-1,4.905
982,2,2,-1,-1,-2,0,-1,-1,4.91
983,-5,2,1,-4,-2,-2,-1,-2,4.915
984,3,1,0,0,0,0,0,-1,4.92
985,-2,5,-3,-3,-3,-1,-1,-1,4.925
986,4,4,0,0,2,1,1,-1,4.93
987,-9,-2,-4,-3,-3,-3,-2,-1,4.9350000000000005
988,-4,-4,-4,-4,0,1,1,-2,4.94
989,-2,-9,-5,0,0,-3,-2,-1,4.945
990,-8,-4,-3,0,-3,-3,-1,-3,4.95
991,11,2,-1,0,0,0,0,-1,4.955
992,-9,-2,-1,-1,-1,0,-1,-1,4.96
993,3,-7,-8,-7,-7,-3,-1,0,4.965
994,-7,-6,-5,2,3,-2,-2,-2,4.97
995,2,7,3,-1,0,1,0,1,4.9750000000000005
996,10,6,1,-1,-2,1,0,-2,4.98
997,-4,9,1,4,2,0,1,0,4.985
998,-1,-7,-3,-7,-6,-8,-5,-4,4.99
999,-13,2,2,1,0,0,-1,-2,4.995
1000,3,-4,-3,-2,-2,-1,0,0,5.0
1001,-1,-4,2,2,2,-2,0,-1,5.005
1002,-6,-4,0,2,2,0,1,1,5.01
1003,0,-4,5,2,-2,-1,0,1,5.015
1004,2,-1,-1,0,-1,-2,0,0,5.0200000000000005
1005,3,3,-4,-1,0,1,0,-3,5.025
1006,-4,4,1,2,-1,-1,-1,0,5.03
1007,4,-8,-3,1,2,-1,-1,-2,5.035
1008,-12,-2,-2,1,-2,-1,-3,-1,5.04
1009,2,-8,-1,-4,-2,-2,-2,-2,5.045
1010,-4,-5,1,0,2,0,-1,-1,5.05
1011,1,5,3,5,-1,3,3,2,5.055
1012,-4,-6,-8,-2,-2,-6,-4,-4,5.0600000000000005
1013,3,0,1,1,0,3,0,0,5.065
1014,-6,-3,2,0,0,0,-1,-1,5.07
1015,9,1,-2,-4,-2,0,-1,1,5.075
1016,-6,4,0,4,3,0,2,1,5.08
1017,0,5,-1,1,-2,-1,0,-1,5.085
1018,4,-1,-4,-2,0,1,0,0,5.09
1019,-6,2,2,0,-2,-1,0,0,5.095
1020,11,5,5,-1,-3,0,0,0,5.1000000000000005
1021,-1,-6,2,-3,-2,-2,-3,-5,5.105
1022,-4,2,2,-1,1,0,2,1,5.11
1023,-3,0,-3,-2,0,-4,-3,-2,5.115
1024,2,5,2,-3,0,0,1,2,5.12
1025,-1,1,0,1,2,-1,-2,1,5.125
1026,5,-1,-6,-4,-5,-2,-2,-1,5.13
1027,-1,-9,-3,1,-2,-3,-4,-4,5.135
1028,-5,0,0,-1,2,2,0,0,5.14
1029,-1,2,-1,1,0,-1,1,-2,5.1450000000000005
1030,-3,-4,0,2,-3,0,-1,-2,5.15
1031,-1,-1,-3,-4,-1,0,0,2,5.155
1032,14,5,2,0,-1,-2,-1,1,5.16
1033,-7,-11,-5,0,1,0,-1,0,5.165
1034,-2,6,-1,-2,-4,1,-1,0,5.17
1035,-1,-2,-2,0,-1,-1,1,0,5.175
1036,0,-5,4,-1,1,-2,-2,-1,5.18
1037,8,12,5,7,5,2,1,2,5.1850000000000005
1038,2,9,-8,-4,0,-1,2,3,5.19
1039,0,-10,3,-5,0,-3,-2,-2,5.195
1040,-6,-7,-7,-3,-4,-3,-2,-4,5.2
1041,17,6,-1,0,-3,1,2,0,5.205
1042,-15,-5,-1,-1,-2,0,-2,-4,5.21
1043,-6,1,-3,0,1,1,0,-2,5.215
1044,-2,-2,1,0,-2,-2,2,3,5.22
1045,-3,-9,1,-1,-2,-2,-2,-2,5.2250000000000005
1046,8,-1,0,6,4,0,-1,1,5.23
1047,1,4,-4,-1,0,-2,-1,-1,5.235
1048,-1,0,3,0,4,-1,-2,-2,5.24
1049,-1,0,-4,1,-5,-1,-1,-2,5.245
1050,-2,-4,2,-1,1,-1,-1,-1,5.25
1051,9,8,1,4,1,2,3,1,5.255
1052,2,2,-2,-8,-1,-3,-1,-3,5.26
1053,-5,2,-2,-1,1,2,0,2,5.265
1054,7,-4,2,2,1,1,0,0,5.2700000000000005
1055,-8,-2,-3,-2,-5,-4,-3,-3,5.275
1056,-3,1,-7,1,-5,0,1,-1,5.28
1057,-5,-3,-3,-5,-1,-2,-3,0,5.285
1058,6,3,2,-2,0,0,0,0,5.29
1059,0,-8,0,1,-5,-3,-3,-2,5.295
1060,3,-7,-3,-2,0,0,-1,-1,5.3
1061,1,3,3,-4,-1,-2,-3,-4,5.305
1062,-8,3,1,1,-1,1,0,-1,5.3100000000000005
1063,-3,-4,-5,-5,-4,-1,-1,2,5.315
1064,-5,-8,-1,2,2,-2,-2,-1,5.32
1065,-1,7,2,2,2,3,2,2,5.325
1066,-6,-11,-5,-5,-3,-6,-3,-3,5.33
1067,1,-1,0,-3,-2,-1,-1,-2,5.335
1068,2,10,0,2,1,0,1,-2,5.34
1069,1,-3,-1,-3,-1,-1,0,1,5.345
1070,-6,-1,-1,0,0,-1,0,-2,5.3500000000000005
1071,-6,0,0,2,0,1,-1,-1,5.355
1072,0,1,-3,-3,-1,-1,1,1,5.36
1073,7,0,-1,-5,-7,-5,-4,-4,5.365
1074,-6,-1,1,0,0,-1,-1,2,5.37
1075,13,5,2,2,5,3,2,0,5.375
1076,-13,-6,0,4,0,0,-1,0,5.38
1077,4,-1,-2,0,-1,-1,2,1,5.385
1078,1,3,-1,-2,-4,-1,0,1,5.39
1079,-4,-5,-3,-5,-4,-2,-1,-1,5.3950000000000005
1080,0,-2,0,3,0,3,1,-1,5.4
1081,-6,0,-2,-2,0,-2,-1,-3,5.405
1082,-1,-2,-1,-3,-4,-2,0,1,5.41
1083,5,7,3,4,3,-1,-3,-1,5.415
1084,5,-6,-2,-2,0,1,-2,-3,5.42
1085,-12,3,0,-3,-2,0,2,3,5.425
1086,23,-1,2,3,1,2,1,0,5.43
1087,-9,-7,0,-5,-4,-3,-1,-3,5.4350000000000005
1088,-2,11,1,-8,-2,-2,0,0,5.44
1089,-9,-7,-2,4,1,-1,-2,-1,5.445
1090,-2,-4,3,0,-2,-3,-2,-3,5.45
1091,-2,0,0,2,4,2,2,2,5.455
1092,-2,-3,-2,-5,-3,-2,-2,1,5.46
1093,3,-1,-4,-3,0,-2,-1,0,5.465
1094,2,7,0,-1,0,0,-1,-3,5.47
1095,-3,3,1,-1,-3,-3,0,0,5.4750000000000005
1096,10,-11,-2,2,-1,-3,-3,-3,5.48
1097,-5,-4,1,3,-1,0,0,1,5.485
1098,-14,-4,-5,-6,-1,-1,-1,-1,5.49
1099,-4,5,0,-1,-1,1,1,0,5.495
1100,9,11,-1,-1,-4,-2,-1,1,5.5
1101,-10,4,-2,-2,1,0,-1,-4,5.505
1102,-2,-5,0,5,1,-1,0,0,5.51
1103,-2,-40,-9,-7,-3,-6,-6,-5,5.515
1104,4,10,-7,-1,-2,-3,-1,0,5.5200000000000005
1105,4,16,-2,1,-2,0,1,1,5.525
1106,-8,5,-6,-2,1,0,0,-2,5.53
1107,0,-6,-1,0,0,-1,-3,-1,5.535
1108,-4,-7,0,-3,0,1,-1,-2,5.54
1109,9,-4,3,-3,-1,1,1,0,5.545
1110,-5,3,3,0,-2,0,0,-2,5.55
1111,7,12,1,1,-1,-3,1,0,5.555
1112,-9,-3,2,1,-1,0,0,2,5.5600000000000005
1113,15,2,3,1,-2,-1,0,-1,5.565
1114,-3,-1,0,-1,1,5,0,1,5.57
1115,15,9,1,2,-1,1,1,0,5.575
1116,-25,-5,-1,1,-2,-1,1,-1,5.58
1117,-1,-12,-4,-3,-2,-3,-1,-1,5.585
1118,6,-6,-1,0,-3,-3,-3,-4,5.59
1119,-10,-3,0,1,-1,0,0,1,5.595
1120,14,1,0,-1,5,2,2,0,5.6000000000000005
1121,-9,-7,-6,-5,-3,-1,-3,-3,5.605
1122,0,-2,1,1,-1,-1,-1,1,5.61
1123,-10,-31,4,-1,-1,1,-2,-2,5.615
1124,4,16,-4,-4,-5,-2,0,-2,5.62
1125,-7,-9,-2,2,4,1,0,-2,5.625
1126,5,-10,5,-1,0,-1,-1,0,5.63
1127,-2,-13,-2,-2,1,1,0,-1,5.635
1128,6,1,-2,3,-3,-3,-4,-4,5.64
1129,-7,-2,1,-1,1,1,1,0,5.6450000000000005
1130,-1,-12,0,4,-1,-2,0,0,5.65
1131,3,11,-1,-3,-5,-3,0,-1,5.655
1132,-7,-7,4,2,4,-1,-2,-2,5.66
1133,0,-7,-4,2,1,1,-2,0,5.665
1134,3,34,6,0,1,-2,1,1,5.67
1135,7,-5,-4,-2,-3,-3,-3,-4,5.675
1136,-8,29,9,2,-2,1,3,3,5.68
1137,0,7,0,-2,-3,-4,-3,-2,5.6850000000000005
1138,0,-5,-7,-5,-3,-1,-2,-1,5.69
1139,1,10,-1,5,5,2,1,1,5.695
1140,2,-1,2,0,3,0,0,-2,5.7
1141,-1,-7,1,-1,-6,-4,-2,-1,5.705
1142,-8,4,1,-2,-3,-2,0,-1,5.71
1143,6,13,5,2,1,-1,-1,0,5.715
1144,-6,-19,-2,0,-2,-1,-3,-2,5.72
1145,-16,1,2,-1,-1,-1,-1,1,5.7250000000000005
1146,18,-7,-6,-5,-2,-1,-2,-1,5.73
1147,-13,15,-1,-3,-3,-4,0,-2,5.735
1148,-9,-12,-6,-2,-1,-1,-1,-1,5.74
1149,4,-15,-6,-4,-2,-1,0,-2,5.745
1150,-8,6,-1,-2,1,0,0,-1,5.75
1151,2,7,-4,-4,-1,-2,-1,0,5.755
1152,2,-4,-3,-1,-2,-3,0,1,5.76
1153,2,2,-3,-2,-3,-2,-3,-1,5.765
1154,-7,-11,-4,1,1,-2,-2,-3,5.7700000000000005
1155,5,-5,-3,-5,-1,1,0,1,5.775
1156,-2,-11,1,-1,-1,0,0,0,5.78
1157,8,4,0,0,2,1,1,-1,5.785
1158,-11,0,4,1,-1,0,-1,1,5.79
1159,-3,-1,-2,-1,-1,-2,0,-1,5.795
1160,1,-2,0,-4,-4,-2,-2,-1,5.8
1161,5,-3,2,1,1,0,1,-1,5.805
1162,-6,-14,0,0,0,-2,-2,-1,5.8100000000000005
1163,-5,-8,-2,-3,-1,0,0,-1,5.815
1164,7,23,2,3,0,0,0,0,5.82
1165,-8,10,1,-1,0,0,0,-1,5.825
1166,2,1,-1,0,0,-3,-1,-1,5.83
1167,-4,-6,-3,-1,-3,-2,0,1,5.835
1168,0,-6,-2,-2,2,2,-1,-2,5.84
1169,-6,-10,2,-1,-4,0,-1,-2,5.845
1170,-1,16,-5,-4,-1,0,-1,0,5.8500000000000005
1171,-2,6,-1,0,-2,-3,-2,-2,5.855
1172,-6,-5,4,-1,-3,0,0,-1,5.86
1173,9,0,2,5,2,-1,1,1,5.865
1174,-3,-4,2,-1,-4,-2,-1,-4,5.87
1175,-4,1,3,-1,-1,-2,-3,0,5.875
1176,-4,4,-4,-3,-2,-1,0,-2,5.88
1177,-1,3,-2,0,1,0,0,2,5.885
1178,4,2,1,3,5,3,3,1,5.89
1179,0,12,1,-5,-3,0,1,0,5.8950000000000005
1180,-2,-4,-3,-2,-4,-3,-2,-3,5.9
1181,0,4,1,-2,-2,-1,-4,-3,5.905
1182,11,17,-1,-2,0,1,0,-1,5.91
1183,-6,-18,-3,2,0,-3,-2,-2,5.915
1184,0,-12,0,0,0,0,0,-1,5.92
1185,2,5,-2,-2,-4,1,-2,-1,5.925
1186,-1,1,0,0,-1,-3,-2,0,5.93
1187,4,-2,2,-4,2,0,0,1,5.9350000000000005
1188,-3,-6,0,0,1,-1,-2,-3,5.94
1189,3,-1,-2,-2,-3,-2,1,1,5.945
1190,-6,14,2,-1,-5,-3,-2,-1,5.95
1191,3,2,-3,5,4,2,1,1,5.955
1192,0,-1,0,-1,3,0,-1,1,5.96
1193,-5,1,0,-1,0,-2,0,0,5.965
1194,-1,-28,2,-3,0,3,0,1,5.97
1195,2,14,4,1,-4,-3,-1,-2,5.9750000000000005
1196,-6,-6,-3,-2,0,-2,0,0,5.98
1197,3,-5,-4,0,1,-2,-3,-3,5.985
1198,-4,-5,0,-3,-3,-1,-1,1,5.99
1199,3,-1,-1,0,-1,1,-1,-1,5.995
1200,3,-7,0,1,-2,-1,-2,-1,6.0
1201,3,5,4,-2,0,0,1,1,6.005
1202,4,23,-2,-4,-1,0,1,-1,6.01
1203,-3,0,-4,1,0,1,0,-3,6.015000000000001
1204,6,-6,-4,1,-3,-2,-1,-3,6.0200000000000005
1205,-7,-4,-1,-1,-2,-3,0,-2,6.025
1206,4,-1,-2,0,0,0,0,-2,6.03
1207,0,8,-2,-4,-4,-2,0,0,6.035
1208,4,7,0,-1,-1,0,1,0,6.04
1209,-2,-6,-4,-1,1,-1,-2,-1,6.045
1210,-2,13,7,3,0,0,0,0,6.05
1211,-11,-6,0,-2,1,2,0,0,6.055
1212,-4,-10,-4,0,-2,-3,-1,-1,6.0600000000000005
1213,2,1,-3,-6,-5,0,-1,-1,6.065
1214,-7,-10,0,3,2,-1,0,1,6.07
1215,-5,-4,1,1,1,-3,-2,-3,6.075
1216,0,2,2,-3,-1,0,0,1,6.08
1217,-7,-14,1,0,-1,1,1,-1,6.085
1218,3,-5,-3,-1,-3,-2,-1,0,6.09
1219,-2,-12,-2,-4,-1,-1,-1,0,6.095
1220,-4,-7,0,0,0,0,-2,-2,6.1000000000000005
1221,-5,1,-2,-2,-3,-2,-2,-2,6.105
1222,-1,-9,-1,2,2,0,-2,-2,6.11
1223,-3,-19,5,1,2,1,0,1,6.115
1224,0,-3,-5,-5,-6,-4,-2,0,6.12
1225,-4,3,-2,-5,-2,0,-2,0,6.125
1226,5,-5,-1,4,4,-1,-2,-1,6.13
1227,-1,10,-2,-4,-7,1,1,2,6.135
1228,-3,-3,-2,1,2,1,-2,-4,6.140000000000001
1229,-6,-9,2,0,-2,-2,-2,-3,6.1450000000000005
1230,5,22,1,-1,-2,-5,0,-2,6.15
1231,-9,-5,-3,1,3,0,0,-2,6.155
1232,8,8,2,-2,-4,0,0,3,6.16
1233,2,14,-2,-1,1,-3,-3,-1,6.165
1234,-4,-33,-6,-3,-1,2,1,1,6.17
1235,0,-25,-1,3,1,-1,-2,1,6.175
1236,6,16,0,2,-2,-3,-1,-2,6.18
1237,0,-5,-1,2,0,0,-1,-1,6.1850000000000005
1238,1,0,-3,-4,1,1,-1,-1,6.19
1239,-8,6,-4,-3,-1,-1,-2,-2,6.195
1240,4,-11,-1,0,3,-2,-2,-2,6.2
1241,-4,-1,4,3,0,-2,0,1,6.205
1242,2,1,2,0,-2,2,0,0,6.21
1243,-3,5,-3,-2,1,2,0,-1,6.215
1244,0,3,-1,-2,-2,-1,-2,3,6.22
1245,1,3,0,-2,-2,0,1,0,6.2250000000000005
1246,-3,7,2,0,0,0,1,-1,6.23
1247,9,19,1,1,-1,-3,-2,-1,6.235
1248,-9,-13,-4,-5,1,1,0,-3,6.24
1249,8,25,-1,2,1,2,1,0,6.245
1250,-5,-11,-4,-4,-3,-4,-1,-1,6.25
1251,13,-5,-1,1,1,0,1,2,6.255
1252,-13,3,0,-3,-2,-6,-3,-3,6.26
1253,-2,12,-2,-1,2,4,0,-2,6.265000000000001
1254,-1,-9,2,0,-4,-2,-1,-2,6.2700000000000005
1255,5,-3,-1,0,1,0,-6,0,6.275
1256,-1,4,0,-4,-3,0,2,1,6.28
1257,-2,-14,0,4,3,-2,0,-1,6.285
1258,-1,1,0,0,-4,-1,-1,-2,6.29
1259,-6,-4,0,1,2,-1,1,-1,6.295
1260,0,-14,1,2,-2,0,-4,1,6.3
1261,10,-8,-1,-1,-1,-2,-1,-1,6.305
1262,-9,-5,-3,-2,2,2,-2,-1,6.3100000000000005
1263,-3,-7,1,-2,-4,-3,-2,-4,6.315
1264,4,13,-2,-1,0,2,1,1,6.32
1265,1,42,4,0,-1,-3,1,-1,6.325
1266,-3,-5,-3,2,1,-2,-2,-1,6.33
1267,7,3,0,-1,-3,-1,0,-1,6.335
1268,-8,5,2,3,4,1,1,1,6.34
1269,-3,-18,-2,-3,-2,2,-2,1,6.345
1270,-9,-3,-2,0,1,0,0,-2,6.3500000000000005
1271,0,3,5,1,2,0,0,0,6.355
1272,2,-1,-2,3,1,2,-1,-2,6.36
1273,1,9,0,-6,-6,-5,-1,-1,6.365
1274,0,-5,-6,0,0,-3,-1,-3,6.37
1275,-2,-7,2,-2,0,1,3,1,6.375
1276,-9,-9,-2,-2,-3,-5,-3,-2,6.38
1277,9,-5,3,0,0,2,-3,-1,6.385
1278,-4,3,0,-2,-3,-1,2,-1,6.390000000000001
1279,1,6,1,3,0,2,4,0,6.3950000000000005
1280,-3,-19,-5,-5,0,1,0,0,6.4
1281,-2,1,-3,1,0,-2,-2,-2,6.405
1282,-1,1,1,-1,-2,-4,1,0,6.41
1283,5,-1,0,-1,-1,-4,-7,-4,6.415
1284,-8,-16,-2,2,1,1,-7,-3,6.42
1285,1,-11,-2,-1,1,1,3,1,6.425
1286,-3,-16,2,-3,-2,1,0,0,6.43
1287,-1,9,-1,-3,-2,-1,0,-2,6.4350000000000005
1288,-1,3,-4,-2,-1,1,-1,-1,6.44
1289,-7,-22,3,1,4,0,-1,0,6.445
1290,5,11,2,3,-2,1,-2,0,6.45
1291,-4,-4,-5,-4,-3,0,-5,-1,6.455
1292,1,11,4,-1,-1,-2,8,-3,6.46
1293,-4,-16,1,0,-1,-2,0,0,6.465
1294,15,5,-5,-2,-1,0,-3,-1,6.47
1295,0,-12,-3,1,-1,-2,1,0,6.4750000000000005
1296,-4,3,3,2,-1,-1,-3,-3,6.48
1297,-13,-21,-1,4,3,5,2,0,6.485
1298,-1,-4,1,-2,-1,-1,-13,-1,6.49
1299,-9,-13,3,4,0,-1,13,0,6.495
1300,6,12,-2,-5,-5,-3,2,0,6.5
1301,-2,2,0,-1,-3,-2,-6,-2,6.505
1302,14,0,-4,-1,-2,-2,-2,-2,6.51
1303,-9,3,-5,-8,-1,0,-12,-2,6.515000000000001
1304,8,12,2,1,-2,0,12,-1,6.5200000000000005
1305,-3,-20,-2,0,-2,-1,-2,-1,6.525
1306,0,20,6,0,2,1,2,-1,6.53
1307,-12,-18,1,-4,-4,-3,1,-1,6.535
1308,5,15,0,0,1,-3,-8,-2,6.54
1309,-3,12,-3,-3,-2,0,2,3,6.545
1310,1,-5,-3,-3,-2,0,2,-2,6.55
1311,-3,10,-1,-1,-3,-1,5,-2,6.555
1312,-7,-16,-3,-1,-2,-2,-4,2,6.5600000000000005
1313,-2,7,4,2,-2,-3,0,-1,6.565
1314,-2,-2,1,4,0,-1,-1,2,6.57
1315,21,9,-1,1,-1,1,0,2,6.575
1316,-15,16,1,-2,2,4,-1,-1,6.58
1317,8,15,1,4,2,0,-3,-1,6.585
1318,-20,-22,0,-3,-2,-1,1,-2,6.59
1319,14,19,1,-3,-1,-3,-3,-1,6.595
1320,-1,8,-1,2,-1,0,-2,0,6.6000000000000005
1321,10,-2,-4,5,2,-3,-2,0,6.605
1322,-13,7,-5,-8,-2,-4,-3,-3,6.61
1323,-1,-37,-7,1,4,0,0,-1,6.615
1324,-1,-20,10,-6,1,2,-1,0,6.62
1325,12,10,0,10,1,6,2,1,6.625
1326,-14,-6,-16,-6,-5,-2,2,0,6.63
1327,-2,14,0,0,1,0,0,9,6.635
1328,-6,11,5,3,-3,-6,-18,-6,6.640000000000001
1329,-11,-35,-5,-11,-7,0,11,-6,6.6450000000000005
1330,1,6,9,5,1,-1,-2,-3,6.65
1331,6,23,-6,-2,0,3,3,1,6.655
1332,8,-28,0,9,-1,-2,2,3,6.66
1333,-4,9,5,-16,-2,0,0,-2,6.665
1334,8,-7,10,18,1,-2,3,6,6.67
1335,-25,-1,-16,-15,-2,-1,-4,-11,6.675
1336,23,-9,-6,-9,-2,-2,1,6,6.68
1337,-16,-5,-6,1,-2,-7,-9,-9,6.6850000000000005
1338,10,-13,8,-3,2,2,5,-3,6.69
1339,-9,-8,-5,10,-1,-4,-5,-1,6.695
1340,-16,36,-5,-15,-3,1,5,1,6.7
1341,14,21,-6,-4,-1,-2,0,-3,6.705
1342,-23,-15,-8,-13,-3,-4,-4,1,6.71
1343,-11,-21,15,12,3,1,0,-1,6.715
1344,7,-19,20,50,8,6,3,0,6.72
1345,-16,7,-54,-71,-21,-12,-6,-3,6.7250000000000005
1346,11,29,15,6,1,4,-5,2,6.73
1347,-20,-10,-1,-4,2,2,18,4,6.735
1348,19,-5,21,9,0,-7,-6,2,6.74
1349,-12,25,4,1,5,9,4,11,6.745
1350,14,-4,-15,12,-3,-5,-1,-14,6.75
1351,10,66,4,-29,-4,-2,-8,-3,6.755
1352,-12,-7,-5,27,8,10,6,12,6.76
1353,23,-5,29,14,2,-7,-19,-1,6.765000000000001
1354,-16,0,-26,4,-4,7,27,-4,6.7700000000000005
1355,18,-9,-26,-36,-5,-8,12,11,6.775
1356,-4,-23,3,-10,1,-5,-9,-26,6.78
1357,-25,-41,-9,-4,-6,-4,-9,-17,6.785
1358,23,27,22,16,8,7,-6,14,6.79
1359,-28,-37,12,23,0,2,-8,-18,6.795
1360,-13,-2,-45,-21,-9,-6,5,7,6.8
1361,-1,-57,8,5,2,-2,2,6,6.805
1362,-9,-25,2,-12,-1,-2,-5,-9,6.8100000000000005
1363,11,16,-7,7,-5,-1,-5,5,6.815
1364,0,23,-1,-18,-5,-5,-7,-2,6.82
1365,-7,-7,8,5,7,7,6,-1,6.825
1366,3,27,2,9,-1,-5,-5,9,6.83
1367,13,-12,-13,31,-3,-5,-6,-4,6.835
1368,-9,-16,-10,-71,-4,3,5,-8,6.84
1369,5,31,3,16,-3,-7,0,-1,6.845
1370,8,-35,4,-20,3,6,4,4,6.8500000000000005
1371,6,-1,46,54,9,6,-1,2,6.855
1372,-5,-31,-35,-25,-12,-3,-1,-1,6.86
1373,-9,-1,-10,6,-1,-2,5,2,6.865
1374,-26,-2,-5,-18,-4,-5,-9,1,6.87
1375,20,17,9,-17,1,2,-6,3,6.875
1376,2,-22,0,27,3,5,9,-5,6.88
1377,-9,15,2,-23,-2,-4,-6,-2,6.885
1378,10,1,16,29,6,6,9,11,6.890000000000001
1379,-22,-19,-14,-18,3,3,-2,15,6.8950000000000005
1380,-21,5,-13,-3,-8,-9,1,-62,6.9
1381,28,9,17,33,7,1,6,50,6.905
1382,-29,-8,2,10,4,3,-5,-55,6.91
1383,22,9,-4,-25,-1,1,-3,3,6.915
1384,13,30,5,-9,1,0,9,21,6.92
1385,1,9,24,18,2,-6,-10,-12,6.925
1386,0,14,-16,14,-1,-5,2,25,6.93
1387,9,-45,2,-21,-6,-4,-2,-6,6.9350000000000005
1388,-9,-43,8,47,10,9,-4,1,6.94
1389,-4,2,-3,-28,-6,-1,0,-8,6.945
1390,6,-17,-30,-50,-10,-10,-5,11,6.95
1391,-34,11,-4,-2,-3,-3,-1,-20,6.955
1392,29,18,22,25,5,1,-1,20,6.96
1393,-18,-36,2,12,-1,4,9,-11,6.965
1394,30,-3,-7,-31,-6,-6,-20,5,6.97
1395,-30,-19,-2,31,0,-1,5,-13,6.9750000000000005
1396,38,-44,-18,-69,-8,-6,1,62,6.98
1397,-17,11,-13,7,-3,-6,-6,-76,6.985
1398,-30,15,8,-3,1,1,-12,-23,6.99
1399,17,37,9,37,4,0,8,11,6.995
1400,-35,19,31,-6,-1,-8,-4,-16,7.0
1401,19,-12,-33,-12,-3,3,4,24,7.005
1402,8,16,1,6,-4,-5,-7,11,7.01
1403,-6,6,27,17,6,7,0,-6,7.015000000000001
1404,-8,-2,7,-5,-3,-1,-5,0,7.0200000000000005
1405,12,27,-21,-55,-9,-4,0,12,7.025
1406,-41,-21,4,3,2,2,9,-19,7.03
1407,6,-5,-8,-10,-2,0,-1,14,7.035
1408,-10,-6,6,17,7,2,-2,-11,7.04
1409,10,-10,10,9,3,5,3,11,7.045
1410,14,41,24,14,8,2,4,8,7.05
1411,32,-12,-36,7,-10,-3,-4,1,7.055
1412,-11,44,-8,34,-1,0,-1,-5,7.0600000000000005
1413,-33,-27,1,-14,-5,-11,-19,-21,7.065
1414,-2,-35,3,9,0,8,10,15,7.07
1415,12,9,-18,-52,-3,-8,-10,-3,7.075
1416,20,30,0,9,1,4,2,0,7.08
1417,4,12,11,48,5,7,9,8,7.085
1418,-5,1,10,5,-2,-5,-3,-3,7.09
1419,-26,2,-23,-42,-9,-6,-1,-1,7.095
1420,2,-4,-14,-12,-4,-1,2,-3,7.1000000000000005
1421,34,12,20,9,3,-1,12,25,7.105
1422,18,26,-5,4,2,4,8,-15,7.11
1423,-2,-41,-4,-1,-4,-4,-4,-9,7.115
1424,-15,11,-4,-4,-3,2,-7,-4,7.12
1425,6,2,13,8,1,3,-2,2,7.125
1426,4,-33,-27,-5,-2,4,7,8,7.13
1427,-21,-10,15,6,0,-3,-8,-3,7.135
1428,37,16,-1,1,-5,-3,-1,-2,7.140000000000001
1429,-16,1,-9,2,-3,-3,-6,-3,7.1450000000000005
1430,0,-12,7,-6,1,3,6,7,7.15
1431,-30,-13,-10,-3,-7,-10,-7,-10,7.155
1432,-24,-22,4,7,2,3,2,0,7.16
1433,-5,2,24,23,1,1,-1,-8,7.165
1434,-5,-15,-24,-23,-5,-8,-7,5,7.17
1435,4,8,-1,-6,4,6,5,-5,7.175
1436,41,36,29,21,3,4,6,7,7.18
1437,-2,8,-31,-38,-9,-4,-6,-5,7.1850000000000005
1438,-20,-27,-1,-14,-5,-4,-1,-4,7.19
1439,23,13,18,24,3,2,-2,21,7.195
1440,-3,-14,-11,-9,-2,-7,-6,-28,7.2
1441,2,33,10,38,11,7,1,2,7.205
1442,16,-41,-1,-23,-6,-5,-5,-5,7.21
1443,-12,-18,-6,-16,0,-2,2,-2,7.215
1444,3,-2,-2,24,1,2,2,12,7.22
1445,-15,-18,3,-2,1,4,5,5,7.2250000000000005
1446,6,-10,-17,11,-5,-4,-2,-4,7.23
1447,4,25,10,0,-7,-3,-3,-2,7.235
1448,-15,-12,-22,-50,-7,2,0,-1,7.24
1449,-15,-9,-2,-7,-5,-11,-7,-6,7.245
1450,1,26,2,28,-2,-7,-5,-1,7.25
1451,-7,-16,5,6,0,1,-1,-3,7.255
1452,-11,-2,18,17,3,3,0,1,7.26
1453,19,-5,-40,-42,-4,4,8,15,7.265000000000001
1454,-2,17,2,-2,-5,-9,-10,-14,7.2700000000000005
1455,-5,8,7,3,-1,-3,-1,-10,7.275
1456,-24,-18,3,-7,1,-2,-3,0,7.28
1457,22,15,27,47,6,5,2,-2,7.285
1458,10,53,3,-12,1,5,7,13,7.29
1459,6,5,-20,-43,-11,-3,-3,-9,7.295
1460,-5,10,-7,6,-2,-7,-6,-10,7.3
1461,-13,23,22,21,8,5,-1,6,7.305
1462,17,24,6,7,-5,-5,-2,13,7.3100000000000005
1463,14,0,0,21,3,4,3,-8,7.315
1464,6,0,3,-13,-1,-4,-1,30,7.32
1465,-21,-41,-15,-48,-9,-5,-6,-35,7.325
1466,-8,-2,8,10,3,3,1,-1,7.33
1467,-1,2,-3,-18,8,6,6,5,7.335
1468,7,20,6,18,1,1,2,-3,7.34
1469,10,-17,16,25,-1,-5,0,4,7.345
1470,-12,4,4,29,6,4,-2,-7,7.3500000000000005
1471,15,14,-6,-33,1,1,0,-1,7.355
1472,-9,-14,-17,-4,-2,3,2,1,7.36
1473,-2,1,10,-15,-2,1,3,13,7.365
1474,9,-6,3,5,0,-4,-3,-7,7.37
1475,-22,13,13,43,-2,1,0,-1,7.375
1476,64,19,-18,-52,-8,-3,1,15,7.38
1477,-56,-16,3,-4,-2,-3,-5,-23,7.385
1478,36,4,5,-17,1,4,6,14,7.390000000000001
1479,-17,-20,11,37,1,-1,-2,5,7.3950000000000005
1480,-26,-15,-3,-4,0,-3,-3,-18,7.4
1481,11,4,-14,9,0,3,2,6,7.405
1482,-18,5,9,-8,-3,1,0,-8,7.41
1483,7,-33,-14,-7,-3,-4,0,10,7.415
1484,-10,4,27,25,4,0,-2,-7,7.42
1485,-4,8,-3,15,2,1,-1,5,7.425
1486,39,-28,-16,-24,-3,-1,1,7,7.43
1487,-28,15,29,18,12,6,4,-5,7.4350000000000005
1488,-11,-11,-34,-43,-6,-2,-2,-5,7.44
1489,23,-2,-16,-6,-3,-1,-3,-5,7.445
1490,-20,14,34,15,4,1,5,7,7.45
1491,26,-12,-17,23,-2,-5,-10,-7,7.455
1492,0,-3,-10,-25,-9,-5,-3,8,7.46
1493,7,-22,-3,-3,-3,-2,2,3,7.465
1494,2,24,0,-12,-2,-1,-6,-9,7.47
1495,-3,6,5,6,0,-1,1,-1,7.4750000000000005
1496,-18,-26,9,29,4,0,-2,-8,7.48
1497,13,-4,-11,-16,-2,-3,-1,6,7.485
1498,-3,-22,-5,9,-3,-2,-3,-8,7.49
1499,4,24,6,-4,4,1,4,30,7.495
1500,-25,-6,-1,-8,-1,-1,-4,-37,7.5
1501,-3,33,2,-14,-6,-1,0,8,7.505
1502,-2,13,-15,12,1,-1,-2,-7,7.51
1503,27,6,-1,-11,0,0,4,4,7.515000000000001
1504,-6,17,8,15,0,1,0,7,7.5200000000000005
1505,-21,-6,-8,-3,2,-3,-4,-9,7.525
1506,-19,-13,13,11,1,1,1,5,7.53
1507,17,-21,-34,-35,-9,-4,-1,-1,7.535
1508,-26,-20,13,8,-3,-3,-1,3,7.54
1509,9,2,9,-4,-1,1,-9,-7,7.545
1510,-18,1,-9,0,-4,-1,-15,0,7.55
1511,-10,-17,-8,-16,-4,-5,19,-8,7.555
1512,15,3,-1,-7,-1,-6,3,-1,7.5600000000000005
1513,8,1,-4,4,-2,10,26,9,7.565
1514,-13,-11,-5,-13,-1,-8,-66,-10,7.57
1515,6,16,28,18,5,1,49,-7,7.575
1516,-1,-2,4,11,6,4,13,10,7.58
1517,-9,10,9,7,-8,-11,1,-7,7.585
1518,13,-7,-31,-36,-5,-1,-3,2,7.59
1519,-11,-8,7,6,-1,3,-26,-6,7.595
1520,14,14,7,12,-2,-2,-2,6,7.6000000000000005
1521,1,-11,-1,2,5,1,-5,-8,7.605
1522,1,-3,1,8,5,8,16,5,7.61
1523,2,28,3,-8,-7,-5,-15,-2,7.615
1524,3,-11,4,0,-3,0,6,2,7.62
1525,9,-5,-6,10,-3,-3,-11,-3,7.625
1526,-25,22,2,-8,1,-1,18,1,7.63
1527,13,-24,-1,-3,0,1,0,2,7.635
1528,-1,21,6,22,0,2,-9,-3,7.640000000000001
1529,4,-18,-12,-28,-4,-6,-7,5,7.6450000000000005
1530,6,-9,2,13,1,-2,11,-5,7.65
1531,-26,25,3,1,4,4,-3,-3,7.655
1532,33,1,-1,19,2,0,6,16,7.66
1533,-16,-3,20,-2,-1,-3,-8,-2,7.665
1534,14,15,-9,-12,-5,-4,3,-12,7.67
1535,-33,11,-16,19,1,2,-6,5,7.675
1536,-9,-10,-1,-15,1,-3,-6,-4,7.68
1537,15,4,-3,5,3,4,11,9,7.6850000000000005
1538,5,-5,10,3,-3,-7,-13,5,7.69
1539,2,8,17,27,6,0,5,-10,7.695
1540,-1,-6,-7,1,-1,4,4,2,7.7
1541,11,-12,-35,-41,-9,-6,0,3,7.705
1542,2,-17,2,3,-3,-1,4,0,7.71
1543,-4,-17,-8,-14,0,-4,-9,-7,7.715
1544,7,-1,8,1,0,-1,0,2,7.72
1545,-8,19,16,11,5,2,-4,-2,7.7250000000000005
1546,-4,-15,-10,2,-1,2,8,-4,7.73
1547,5,-15,-3,-9,-4,-3,-4,2,7.735
1548,-4,-7,14,-5,0,-1,-8,-6,7.74
1549,6,29,-8,5,-3,-2,-4,-6,7.745
1550,-8,-11,-15,-14,-3,-4,4,-6,7.75
1551,7,2,0,-4,-1,0,-1,9,7.755
1552,-9,-1,5,9,3,1,-2,-4,7.76
1553,-14,-11,7,8,-5,-2,-2,-4,7.765000000000001
1554,1,2,3,0,2,-1,5,-1,7.7700000000000005
1555,2,-5,6,-6,-1,-2,-8,-2,7.775
1556,3,1,-6,-4,-3,1,-1,-3,7.78
1557,-4,0,0,9,-8,-3,-1,-2,7.785
1558,-4,1,-2,-28,12,1,0,3,7.79
1559,4,-9,1,2,-7,-4,-7,-6,7.795
1560,-4,-5,-13,-7,4,-2,-1,1,7.8
1561,6,-5,1,3,0,2,0,0,7.805000000000001
1562,8,-8,2,14,-5,2,3,-2,7.8100000000000005
1563,0,-9,-14,-15,-10,-3,-4,-2,7.815
1564,-4,3,1,6,-10,-4,-3,-5,7.82
1565,-6,-17,1,6,30,3,0,1,7.825
1566,2,5,13,6,0,2,3,3,7.83
1567,1,-5,-6,-4,0,-1,1,-2,7.835
1568,-6,-17,-13,-7,-8,-3,-2,-2,7.84
1569,3,-3,-8,-2,-3,1,0,0,7.845
1570,-2,0,-4,4,-6,-3,0,0,7.8500000000000005
1571,-7,-8,-3,-5,-3,-1,-3,-2,7.855
1572,-3,-8,3,-8,1,-2,-2,-3,7.86
1573,-1,10,5,-5,-2,-2,-1,-3,7.865
1574,-2,-38,-13,5,5,3,7,4,7.87
1575,10,24,6,8,-1,2,2,4,7.875
1576,-7,12,10,-6,-4,-13,-10,-10,7.88
1577,-6,-8,0,-1,-1,-1,-3,-3,7.885
1578,-4,7,20,-8,-7,-2,-3,0,7.890000000000001
1579,-6,-9,-18,-7,-6,-9,-7,-5,7.8950000000000005
1580,7,21,-6,6,12,14,9,5,7.9
1581,3,-26,-3,6,-1,1,1,2,7.905
1582,-11,-24,-5,6,0,2,1,-1,7.91
1583,1,10,2,-1,2,2,-3,2,7.915
1584,11,6,11,6,-1,-2,0,-1,7.92
1585,-9,-12,3,-12,-5,-1,1,1,7.925
1586,10,13,-16,0,3,5,4,2,7.930000000000001
1587,0,3,14,0,2,-2,2,3,7.9350000000000005
1588,-15,-30,0,4,-7,-10,-11,-9,7.94
1589,2,-22,8,4,4,6,2,2,7.945
1590,-3,24,-9,-13,-8,-7,-4,-5,7.95
1591,4,-5,-7,4,7,9,6,4,7.955
1592,16,13,10,5,5,5,3,5,7.96
1593,-2,5,-2,-5,-2,-4,-1,-2,7.965
1594,-1,14,2,10,-3,-1,-1,-2,7.97
1595,-2,5,5,0,-1,-5,-4,-5,7.9750000000000005
1596,-2,22,-1,0,0,2,2,1,7.98
1597,0,3,-10,-11,-3,-5,-3,-4,7.985
1598,-3,-22,-3,3,-3,1,0,-1,7.99
1599,10,15,-3,3,2,0,0,1,7.995
1600,-8,10,-4,-5,-2,0,1,1,8.0
1601,6,9,-14,4,-2,-3,-4,-2,8.005
1602,-8,4,4,-4,1,-2,0,-1,8.01
1603,2,-14,1,-4,-1,-1,-2,-4,8.015
1604,-11,-12,-5,-7,-3,-2,-3,-2,8.02
1605,-1,-3,4,7,1,0,1,1,8.025
1606,-5,-4,-3,4,-1,0,-1,-1,8.03
1607,12,-1,-3,-13,-1,0,-5,-3,8.035
1608,6,-11,-12,5,-2,0,3,-1,8.040000000000001
1609,0,10,0,-4,-1,3,1,2,8.045
1610,-5,1,6,2,-5,-9,-6,-4,8.05
1611,-2,2,-3,0,3,0,-1,0,8.055
1612,3,26,3,-3,-1,1,-2,-1,8.06
1613,-4,-9,-10,-4,-6,-4,-1,-6,8.065
1614,6,14,-1,7,6,4,6,4,8.07
1615,-2,3,-4,-1,-2,-4,-3,-2,8.075
1616,4,-1,0,-7,3,0,0,1,8.08
1617,-2,-5,-1,2,-1,2,1,1,8.085
1618,-1,-8,1,-5,-4,-4,-5,-2,8.09
1619,-4,-3,-7,0,-1,2,1,0,8.095
1620,3,-10,0,-2,-1,3,1,0,8.1
1621,-9,-21,5,2,-2,-1,-2,-1,8.105
1622,-3,2,-2,1,-1,0,-1,-3,8.11
1623,-6,15,-4,-13,-5,-5,-2,0,8.115
1624,0,-8,-1,-3,0,-3,-1,-3,8.120000000000001
1625,-1,12,9,7,6,4,2,3,8.125
1626,-9,-6,6,0,-4,-5,-6,-5,8.13
1627,-1,-16,-6,2,-2,-1,2,-1,8.135
1628,-3,-15,-6,-6,-3,-2,-4,-1,8.14
1629,-4,-3,-1,-2,0,-3,-1,-1,8.145
1630,7,10,8,8,2,0,1,1,8.15
1631,-4,-2,6,-11,-3,-2,-1,-2,8.155
1632,-3,6,-5,-1,-2,-1,0,1,8.16
1633,14,5,1,0,-4,-5,-5,-2,8.165000000000001
1634,-8,-5,0,1,0,0,1,0,8.17
1635,-4,-2,10,10,2,2,1,0,8.175
1636,-13,-19,-9,-9,-5,-2,-1,-4,8.18
1637,-3,1,5,-3,-3,-5,-3,-3,8.185
1638,2,2,3,0,-1,-2,-2,-1,8.19
1639,4,2,4,1,0,-1,2,0,8.195
1640,2,14,-3,-2,-2,-1,-2,-1,8.2
1641,-9,11,-8,3,1,4,4,1,8.205
1642,8,-9,-7,-8,-2,0,-1,-1,8.21
1643,-4,-6,7,1,-2,-2,-3,-2,8.215
1644,-3,9,1,0,0,-3,-2,-1,8.22
1645,6,6,-4,2,2,3,1,2,8.225
1646,-2,9,-2,1,-1,-1,-1,1,8.23
1647,0,6,2,0,-3,-2,-1,0,8.235
1648,2,-14,-4,-5,-2,-3,1,-2,8.24
1649,2,10,-6,-4,1,1,0,0,8.245000000000001
1650,-9,5,3,3,2,2,1,-1,8.25
1651,3,-4,5,7,2,2,1,2,8.255
1652,-9,-8,10,-2,-2,-2,-2,-2,8.26
1653,1,-5,-7,-4,-5,-4,-3,-2,8.265
1654,5,-5,-7,-3,1,2,1,0,8.27
1655,-1,7,2,2,-2,-3,-3,-4,8.275
1656,-2,-5,-1,8,4,5,3,0,8.28
1657,5,-5,2,-3,-3,-3,-2,-4,8.285
1658,-6,-12,-2,-1,-4,-4,-1,-1,8.290000000000001
1659,-1,-6,-5,-6,-3,-4,-5,-4,8.295
1660,-1,0,0,-3,0,-3,-2,1,8.3
1661,3,5,1,0,-2,-1,-3,1,8.305
1662,4,-15,-1,-1,0,1,1,2,8.31
1663,-4,12,-4,-2,-2,-1,-2,-1,8.315
1664,5,-11,-9,5,2,0,0,0,8.32
1665,-1,13,-3,-14,-2,1,2,2,8.325
1666,-7,-29,-1,0,-1,-3,-3,0,8.33
1667,-8,-15,-5,-1,-1,1,1,-1,8.335
1668,3,2,-6,-1,-1,-1,0,0,8.34
1669,2,-6,-2,4,2,2,-1,0,8.345
1670,-5,12,-2,-3,-3,-4,-3,-3,8.35
1671,1,0,1,-3,0,0,-1,-2,8.355
1672,-2,2,3,3,-1,4,0,-1,8.36
1673,9,-6,0,3,0,0,0,1,8.365
1674,4,-2,-11,-9,-2,2,1,-2,8.370000000000001
1675,-16,-8,4,-3,-2,-3,-3,0,8.375
1676,3,-11,3,-3,-2,-1,-1,-2,8.38
1677,-10,4,2,4,2,1,-3,-1,8.385
1678,6,12,0,1,-1,-1,1,1,8.39
1679,2,5,-6,-4,1,1,1,1,8.395
1680,2,1,2,-4,-2,-2,0,0,8.4
1681,-2,4,9,2,-2,-3,-2,-2,8.405
1682,2,5,-6,-7,-1,-2,-2,0,8.41
1683,12,-7,2,9,3,3,1,2,8.415000000000001
1684,-12,13,5,-6,-2,-3,-3,-2,8.42
1685,-3,-10,-7,-1,-4,-2,-2,-1,8.425
1686,4,13,5,5,2,1,0,-1,8.43
1687,0,-8,-3,-3,-3,-2,-2,-2,8.435
1688,3,3,-3,-4,0,0,1,0,8.44
1689,7,-2,5,1,2,-1,1,-1,8.445
1690,-15,-19,1,0,0,0,-1,-1,8.45
1691,1,1,5,3,0,2,0,0,8.455
1692,1,0,-4,-1,-4,-4,-4,-3,8.46
1693,-1,7,0,0,0,0,0,0,8.465
1694,3,2,-2,0,-4,-2,-3,-2,8.47
1695,6,1,0,-1,2,-1,0,1,8.475
1696,-9,-5,1,0,-1,-2,0,0,8.48
1697,7,1,2,-2,-3,-2,-2,-1,8.485
1698,-1,7,4,2,-1,-1,-2,-2,8.49
1699,-4,-6,-3,1,-1,0,0,0,8.495000000000001
1700,4,-4,-1,-4,-1,-1,-1,0,8.5
1701,-6,0,3,2,-1,-2,-1,1,8.505
1702,3,46,-2,-6,-3,-4,-2,0,8.51
1703,-3,-5,3,0,0,0,2,1,8.515
1704,3,-5,-10,-2,1,3,0,2,8.52
1705,-6,-12,2,4,3,-1,1,-1,8.525
1706,0,-12,1,-3,-3,2,0,1,8.53
1707,-17,-19,-1,0,0,-1,0,-2,8.535
1708,-6,6,0,3,0,-1,-3,-2,8.540000000000001
1709,7,10,-10,-10,0,-2,-2,0,8.545
1710,-1,-8,-1,7,4,1,-2,-1,8.55
1711,-6,-5,-4,-10,-4,-2,-1,-1,8.555
1712,1,-10,7,5,1,-1,0,0,8.56
1713,-6,-5,-5,1,-2,-4,-2,-1,8.565
1714,3,1,-1,0,0,0,1,0,8.57
1715,7,9,-4,-4,0,-3,-2,-3,8.575000000000001
1716,-2,4,7,2,1,0,0,1,8.58
1717,0,2,-2,-1,-2,-2,0,-3,8.585
1718,-7,1,4,6,3,-1,0,0,8.59
1719,-1,-15,-2,-9,-3,0,0,-2,8.595
1720,2,-2,-8,-1,1,2,1,-1,8.6
1721,1,0,-3,0,0,1,0,-1,8.605
1722,-1,-10,1,-3,-5,-5,-3,-2,8.61
1723,-13,-16,-5,-1,-2,1,-1,-2,8.615
1724,8,3,7,2,0,-1,-1,-2,8.620000000000001
1725,-10,-3,2,-1,-1,1,-2,-1,8.625
1726,1,-3,-10,-5,-3,-2,-1,-3,8.63
1727,7,7,2,4,2,2,2,2,8.635
1728,-2,-28,-5,-2,-1,2,1,1,8.64
1729,-2,-13,-3,-2,-2,-3,0,-3,8.645
1730,-3,-6,2,-3,0,-4,-1,0,8.65
1731,5,16,-7,-2,-1,-4,-3,-1,8.655
1732,0,6,0,0,-1,-2,-2,-1,8.66
1733,3,4,3,1,0,1,0,1,8.665000000000001
1734,-2,-12,1,-2,-4,-2,-2,0,8.67
1735,13,11,3,6,5,0,0,0,8.675
1736,3,6,-2,-1,-3,-3,-1,0,8.68
1737,-19,-13,0,-6,-3,-3,-4,-4,8.685
1738,-8,-4,-3,2,-3,-2,-2,0,8.69
1739,0,-8,0,-5,-2,1,0,2,8.695
1740,1,6,-1,-2,-3,-1,-3,-2,8.700000000000001
1741,8,14,-3,-1,1,1,0,0,8.705
1742,3,1,3,1,0,-3,-4,-2,8.71
1743,-8,6,-1,2,-3,-2,0,0,8.715
1744,-3,-21,-3,-2,-2,-4,-2,-1,8.72
1745,-3,7,8,3,0,3,-1,0,8.725
1746,3,-11,-2,3,4,5,2,2,8.73
1747,0,-5,-9,-1,-2,-1,0,-2,8.735
1748,-10,-3,-11,-6,-2,-2,-1,-4,8.74
1749,-1,-2,-1,3,1,1,-1,0,8.745000000000001
1750,5,4,1,-5,-2,2,-1,-1,8.75
1751,-10,3,3,1,1,1,0,-3,8.755
1752,-1,8,1,2,-2,-4,-3,-3,8.76
1753,3,-1,-2,-2,-3,-4,0,0,8.765
1754,3,14,-2,-5,-1,0,1,2,8.77
1755,-3,-4,0,2,-3,-3,-1,0,8.775
1756,1,10,7,3,2,0,0,-3,8.78
1757,0,-1,-5,-3,-1,-3,-3,-2,8.785
1758,0,-18,-12,-6,-2,0,0,-1,8.790000000000001
1759,5,-8,-1,0,-1,-2,-1,-1,8.795
1760,-1,1,2,-4,0,0,0,0,8.8
1761,1,14,4,3,-1,-2,0,1,8.805
1762,6,6,1,-2,0,-2,-2,1,8.81
1763,-3,-3,3,0,-2,-1,-2,0,8.815
1764,-6,-8,-4,1,-1,-3,-3,-3,8.82
1765,1,30,5,2,-2,1,2,1,8.825000000000001
1766,-9,-9,-5,-4,0,-2,-2,-1,8.83
1767,2,1,-6,-4,-2,-1,0,1,8.835
1768,0,-3,-1,-7,-4,-3,-1,-1,8.84
1769,0,-10,-7,0,3,1,0,-2,8.845
1770,0,5,4,1,0,-1,-1,-1,8.85
1771,7,19,6,2,-2,-1,-1,2,8.855
1772,-2,-2,-2,3,0,3,0,3,8.86
1773,11,-12,0,-1,-2,-1,-2,-1,8.865
1774,-8,10,7,3,4,2,1,-1,8.870000000000001
1775,-6,-17,9,3,-1,-5,-2,-3,8.875
1776,-1,-2,-6,-1,-1,1,0,-1,8.88
1777,-4,-12,-4,-3,-2,0,1,0,8.885
1778,6,6,-2,1,0,1,-1,1,8.89
1779,1,-1,-3,1,2,2,0,0,8.895
1780,-2,5,4,0,-1,-4,0,0,8.9
1781,-5,-1,1,-3,-2,-4,-1,-2,8.905
1782,15,5,-2,-1,-2,-2,1,-3,8.91
1783,-14,-1,4,-2,-2,-1,0,-2,8.915000000000001
1784,7,-7,-3,1,1,-1,0,1,8.92
1785,-8,3,11,6,-2,-4,-4,-3,8.925
1786,-2,-19,-9,-5,0,4,3,2,8.93
1787,-2,1,-4,-7,-4,-2,-4,-3,8.935
1788,1,13,2,4,0,1,0,1,8.94
1789,-2,-1,-6,-3,-1,1,0,0,8.945
1790,-7,4,6,2,-2,-2,-1,-1,8.950000000000001
1791,1,6,1,2,0,-1,-2,0,8.955
1792,0,-4,-3,0,1,2,1,0,8.96
1793,-5,-2,0,-3,1,0,2,-1,8.965
1794,2,-1,1,-1,-3,-3,-1,-3,8.97
1795,2,-3,-2,-4,0,-1,-1,-2,8.975
1796,-1,-1,2,-1,-2,-2,-1,-1,8.98
1797,4,0,-2,2,0,0,-2,0,8.985
1798,3,-7,-3,-3,-2,-1,-1,-3,8.99
1799,-3,11,1,-5,-6,-4,-2,-1,8.995000000000001
1800,0,-3,-1,3,5,2,2,1,9.0
1801,-3,-15,-9,-5,-1,0,2,0,9.005
1802,0,6,2,5,3,2,3,2,9.01
1803,3,4,4,0,-1,-3,-1,-1,9.015
1804,0,6,4,-2,-2,-3,-2,-1,9.02
1805,10,0,-2,-3,-3,-3,-2,0,9.025
1806,-12,-6,3,0,-1,-3,-2,-2,9.03
1807,-1,-2,-1,2,1,2,1,0,9.035
1808,3,-4,-3,-3,-3,-1,-2,-3,9.040000000000001
1809,-3,-5,2,4,2,0,0,-1,9.045
1810,-3,6,0,-6,-4,-2,-2,-2,9.05
1811,0,12,3,8,2,0,2,1,9.055
1812,2,1,-9,-8,-3,0,-3,-1,9.06
1813,-8,6,0,-1,-1,-2,-1,-1,9.065
1814,-5,7,0,1,1,-1,-2,-1,9.07
1815,4,6,3,-2,-2,-2,-3,-2,9.075000000000001
1816,-2,-8,5,3,-1,-1,-2,-1,9.08
1817,0,-4,-2,-1,-1,0,-2,-1,9.085
1818,-1,6,-2,2,0,0,-2,-1,9.09
1819,1,-11,-2,0,0,0,-3,0,9.095
1820,-1,-1,-3,-1,-1,0,1,0,9.1
1821,-2,-2,-4,-3,-3,-1,0,0,9.105
1822,12,0,-1,2,0,0,-1,0,9.11
1823,-4,-13,-6,-1,-2,1,1,0,9.115
1824,11,26,-3,-1,-1,-1,1,-1,9.120000000000001
1825,-25,-21,-5,-7,-4,0,0,-4,9.125
1826,2,-10,-10,-6,-3,-2,-2,-3,9.13
1827,2,-13,-3,-2,0,-1,-2,-1,9.135
1828,-4,-6,-1,-3,0,-1,-1,1,9.14
1829,6,3,2,2,1,-1,-2,-1,9.145
1830,-2,10,0,-1,-1,-1,-1,1,9.15
1831,2,0,1,-2,1,2,2,2,9.155
1832,-4,1,3,2,-1,-1,-1,1,9.16
1833,3,5,-1,1,-1,0,-2,0,9.165000000000001
1834,-5,-8,1,-1,-1,-2,-1,1,9.17
1835,2,2,1,3,0,0,1,-2,9.175
1836,-4,-9,1,0,0,-1,-1,-2,9.18
1837,1,9,4,3,1,0,1,0,9.185
1838,1,4,-2,-1,-1,-2,0,0,9.19
1839,-5,-16,-9,-6,-5,-4,-3,-3,9.195
1840,-5,7,-10,1,4,2,0,0,9.200000000000001
1841,13,3,-7,-3,-1,6,3,3,9.205
1842,-17,-9,7,-2,-5,-8,-7,-6,9.21
1843,7,2,6,5,2,0,0,-2,9.215
1844,-17,-9,4,0,-2,-3,-2,-4,9.22
1845,6,-4,1,3,-1,-3,-2,-1,9.225
1846,3,2,2,2,1,3,2,1,9.23
1847,1,-2,0,-3,-2,-1,0,1,9.235
1848,1,0,1,0,-1,0,-1,0,9.24
1849,0,3,2,0,1,0,1,-2,9.245000000000001
1850,-2,-2,-3,-1,0,-2,0,0,9.25
1851,-4,0,1,0,2,2,-3,-1,9.255
1852,7,13,0,1,0,-1,-1,0,9.26
1853,-5,28,-1,-5,-5,-2,-1,0,9.265
1854,-5,-13,-6,-2,1,0,1,2,9.27
1855,6,3,-4,-1,0,-1,-1,1,9.275
1856,-1,-10,2,-1,-1,-1,-1,-1,9.28
1857,-2,6,-1,-2,-3,-4,-4,-2,9.285
1858,-5,0,-1,0,-2,1,0,0,9.290000000000001
1859,-9,1,-1,-2,-4,-3,-2,-2,9.295
1860,-1,-9,2,-2,-3,-4,-2,-1,9.3
1861,-2,-5,-1,-1,1,-3,1,0,9.305
1862,5,4,0,1,1,0,0,-1,9.31
1863,0,-3,0,-1,0,1,-1,0,9.315
1864,1,0,-1,-3,-2,0,-1,-1,9.32
1865,-2,-10,-1,0,-1,-1,0,-1,9.325000000000001
1866,2,3,3,0,2,1,1,-1,9.33
1867,0,11,8,1,0,-2,0,-2,9.335
1868,5,6,-4,-5,-3,-1,0,1,9.34
1869,-2,-6,-4,1,2,-1,0,1,9.345
1870,6,12,-4,3,1,1,2,1,9.35
1871,-33,-10,-2,-8,-6,-7,-7,-9,9.355
1872,10,-11,-3,1,-2,0,0,-2,9.36
1873,-17,-10,3,-1,0,-2,-4,-1,9.365
1874,-8,-9,2,-5,-2,-1,-4,-3,9.370000000000001
1875,11,5,2,3,2,1,1,2,9.375
1876,-4,1,1,2,3,2,0,1,9.38
1877,4,2,-3,-1,-1,1,-2,-2,9.385
1878,2,-4,0,1,1,0,-1,-1,9.39
1879,2,2,-4,-1,1,-2,1,1,9.395
1880,-3,18,0,-1,-1,-2,1,-1,9.4
1881,7,0,-1,-1,0,-2,0,-1,9.405
1882,-1,0,2,-3,-1,0,-1,0,9.41
1883,7,7,1,1,3,1,1,0,9.415000000000001
1884,-4,-6,-7,-3,0,-1,-1,-1,9.42
1885,7,-8,-9,-1,1,-1,0,-1,9.425
1886,-8,-3,-6,-1,-3,-2,-1,-2,9.43
1887,-5,-12,1,0,0,1,0,-1,9.435
1888,-1,-4,3,1,-1,-2,-2,-2,9.44
1889,-7,-11,-1,0,-1,0,-2,-1,9.445
1890,6,-6,3,-1,-1,-1,0,-1,9.450000000000001
1891,5,1,-2,1,-1,1,-1,0,9.455
1892,-5,4,1,0,-2,-1,2,1,9.46
1893,0,4,0,0,-3,-2,1,-1,9.465
1894,-3,-4,0,2,-1,0,0,1,9.47
1895,0,4,-3,-3,-3,-1,0,0,9.475
1896,5,-3,-1,-1,-1,0,0,1,9.48
1897,2,30,3,-2,0,-1,-2,-1,9.485
1898,-5,-7,-7,-2,0,0,2,-1,9.49
1899,27,-1,-9,-8,-4,-2,1,-3,9.495000000000001
1900,-28,-11,-1,-1,0,1,-1,-1,9.5
1901,11,-1,1,-2,-2,0,-1,-2,9.505
1902,-5,44,5,1,-1,-1,-3,0,9.51
1903,-1,6,1,2,-1,0,0,0,9.515
1904,9,2,-1,1,1,1,-1,-1,9.52
1905,-7,-12,-1,-1,-3,-1,2,1,9.525
1906,3,-13,2,0,-2,0,-1,0,9.53
1907,0,-11,-2,1,1,0,-2,0,9.535
1908,-3,6,-1,1,-1,1,0,0,9.540000000000001
1909,-4,8,4,2,0,0,-1,0,9.545
1910,8,-10,-1,-2,0,0,0,-1,9.55
1911,-8,5,1,-1,-3,0,0,2,9.555
1912,0,-18,-5,0,0,0,-1,-2,9.56
1913,9,14,1,-2,-2,-1,-1,-1,9.565
1914,-23,-11,-3,-2,-3,-1,-2,-3,9.57
1915,-16,-7,2,-2,-1,-3,-2,-3,9.575000000000001
1916,3,2,1,-2,-3,-3,-4,-4,9.58
1917,-1,-13,0,2,2,2,2,1,9.585
1918,12,18,-1,-1,0,-1,-1,1,9.59
1919,-1,-4,-1,-1,1,2,0,1,9.595
1920,0,11,3,0,-1,0,-1,0,9.6
1921,-3,-11,-7,0,2,0,0,-1,9.605
1922,1,-5,-4,-4,0,-2,0,1,9.61
1923,-4,-5,0,1,-1,1,0,-1,9.615
1924,6,-2,-4,-2,1,-1,1,1,9.620000000000001
1925,-3,-8,-5,-3,0,-1,-1,0,9.625
1926,-6,-8,1,-4,-5,-4,-3,-2,9.63
1927,-1,-5,0,-1,-2,-2,-2,-1,9.635
1928,-8,-5,-1,-1,-1,1,0,0,9.64
1929,1,21,1,1,0,0,-1,0,9.645
1930,-1,2,1,0,-1,0,1,0,9.65
1931,-4,0,-3,-2,1,-2,0,-2,9.655
1932,5,0,2,0,1,-1,0,-1,9.66
1933,-4,-8,-9,-10,-8,-5,-4,-2,9.665000000000001
1934,0,-21,-2,3,6,5,3,3,9.67
1935,-6,-5,1,-1,-2,0,-1,0,9.675
1936,1,-4,-5,-5,0,-1,-2,-3,9.68
1937,0,-4,2,0,-2,-1,-2,-2,9.685
1938,1,3,1,-3,-1,-1,-1,-2,9.69
1939,5,-1,0,-1,-1,0,0,0,9.695
1940,8,1,3,0,0,-1,0,2,9.700000000000001
1941,5,-4,7,2,0,-1,-3,-2,9.705
1942,1,1,3,2,-2,-1,-2,-4,9.71
1943,-4,-4,-4,1,4,4,1,1,9.715
1944,6,-3,-1,-2,-3,-3,-2,-1,9.72
1945,-15,-4,-1,0,-1,-2,-3,-3,9.725
1946,1,-1,-1,0,0,0,-1,0,9.73
1947,3,3,-2,-2,-2,-1,0,0,9.735
1948,1,0,-1,-1,-3,-1,0,0,9.74
1949,3,1,0,1,1,0,0,2,9.745000000000001
1950,-7,-8,0,0,0,0,-1,-3,9.75
1951,-3,-5,-2,-1,0,-4,-4,-1,9.755
1952,-8,0,6,1,-3,-2,-2,-2,9.76
1953,7,-10,-10,-3,1,2,3,1,9.765
1954,13,-4,-3,-4,-3,-3,-1,0,9.77
1955,-10,-3,-5,-2,-1,-1,0,-3,9.775
1956,-5,0,-1,1,1,1,1,1,9.78
1957,-6,0,5,1,-2,-1,-4,-2,9.785
1958,-4,2,0,0,-1,-1,0,1,9.790000000000001
1959,0,-3,2,0,0,0,-1,-1,9.795
1960,10,-9,-2,0,-1,-2,-1,-1,9.8
1961,-11,6,-2,-2,0,-1,0,0,9.805
1962,3,-3,1,3,2,-1,0,1,9.81
1963,3,-8,0,3,0,0,-1,1,9.815
1964,-15,-8,-6,-4,0,1,0,0,9.82
1965,6,-9,5,1,-1,-1,-1,-2,9.825000000000001
1966,-4,-3,-7,-5,-4,-3,-3,-4,9.83
1967,4,13,4,0,-1,0,1,-1,9.835
1968,-2,7,-1,0,-1,-1,1,0,9.84
1969,1,-7,1,2,0,0,1,-1,9.845
1970,-4,12,4,0,0,-1,-1,2,9.85
1971,2,10,3,-1,-3,0,0,0,9.855
1972,4,0,-3,1,2,0,2,0,9.86
1973,-1,9,3,2,0,-2,0,-1,9.865
1974,1,-6,-2,-1,1,2,2,-1,9.870000000000001
1975,0,-2,-2,0,-1,1,1,-1,9.875
1976,-1,-9,-8,-2,-2,-1,-2,-2,9.88
1977,-1,-3,2,1,-2,0,-1,0,9.885
1978,1,9,4,4,3,1,1,0,9.89
1979,-2,-3,1,-3,-4,-2,-3,-1,9.895
1980,16,9,1,-2,-1,-3,-1,-1,9.9
1981,-20,-1,-1,-2,-3,-3,-4,-2,9.905
1982,-4,-27,-4,-3,-1,1,-1,-1,9.91
1983,-4,7,1,1,1,2,-1,1,9.915000000000001
1984,-2,0,-1,-1,-3,-3,-1,0,9.92
1985,7,2,0,0,0,0,2,1,9.925
1986,-2,4,0,-6,-5,-4,-2,-3,9.93
1987,-2,-7,-4,-1,0,-2,0,-2,9.935
1988,-8,3,-1,1,3,5,0,1,9.94
1989,19,3,-2,-3,-1,-1,-1,-1,9.945
1990,1,21,4,4,0,0,-1,0,9.950000000000001
1991,1,6,-1,-2,-3,-3,0,0,9.955
1992,-2,-1,0,-2,-1,0,-1,-2,9.96
1993,-7,-6,-1,0,-2,1,-1,0,9.965
1994,9,13,-3,0,-3,-2,-2,-1,9.97
1995,3,0,2,1,-2,0,1,1,9.975
1996,-3,-5,-3,-4,-4,-2,-3,-2,9.98
1997,-5,-12,-6,-5,-4,0,0,0,9.985
1998,5,-2,3,3,3,-1,0,-1,9.99
1999,2,-4,-2,-3,1,0,-1,1,9.995000000000001
2000,-10,0,6,1,0,-3,0,-2,10.0
2001,-10,-5,0,0,-2,-1,-3,-3,10.005
2002,-10,-4,0,-1,-4,-2,-2,-2,10.01
2003,3,0,1,0,0,-2,-2,-2,10.015
2004,0,-1,1,0,-1,-1,1,0,10.02
2005,3,3,-1,1,2,-3,1,1,10.025
2006,4,20,2,-2,-1,-1,0,0,10.03
2007,-8,4,2,5,3,2,-1,0,10.035
2008,8,4,-3,-2,-2,-2,-1,-1,10.040000000000001
2009,-5,-8,-8,-5,-1,-3,-2,-4,10.045
2010,-12,-14,1,-2,0,-1,-1,-1,10.05
2011,1,-10,-4,-3,-2,-2,-1,-3,10.055
2012,-4,1,2,1,-1,0,-1,0,10.06
2013,4,4,3,2,1,1,1,1,10.065
2014,2,-5,-3,0,-1,-1,-1,0,10.07
2015,5,25,-1,-1,-1,-3,0,-1,10.075000000000001
2016,-1,-4,-1,2,0,0,-1,0,10.08
2017,3,5,2,0,0,1,-1,-1,10.085
2018,2,-3,-2,-2,0,1,0,1,10.09
2019,-7,1,0,0,-1,-1,0,0,10.095
2020,-2,-8,-1,-4,1,-1,-3,-1,10.1
2021,4,-3,1,1,-1,2,0,1,10.105
2022,-2,-6,-1,0,-2,0,-3,-3,10.11
2023,-1,-4,0,-2,-2,-1,0,-1,10.115
2024,-1,0,-9,0,-2,0,-1,-1,10.120000000000001
2025,-5,-4,-4,-1,0,-2,-2,0,10.125
2026,1,-30,6,0,0,0,0,1,10.13
2027,-3,-17,2,-1,0,-2,0,0,10.135
2028,1,-8,-2,-1,-1,-2,-1,-3,10.14
2029,-10,8,0,0,1,1,1,0,10.145
2030,-6,-6,-1,-1,-2,0,-2,-2,10.15
2031,19,-3,2,-1,0,-1,-4,-1,10.155
2032,-2,-10,8,1,0,-1,0,-2,10.16
2033,1,-8,-5,-2,-2,-2,-1,-3,10.165000000000001
2034,2,9,-2,-2,0,1,1,1,10.17
2035,-6,3,0,0,0,2,0,2,10.175
2036,3,13,-5,-4,-3,-1,1,0,10.18
2037,0,0,-3,1,-1,-1,0,-1,10.185
2038,6,3,-2,-1,-2,-4,0,-1,10.19
2039,-1,-4,-3,-1,0,-2,-1,-2,10.195
2040,-6,7,4,1,0,-1,-3,-1,10.200000000000001
2041,-6,-5,1,-3,-2,0,-1,-1,10.205
2042,1,-16,-3,0,-2,1,1,0,10.21
2043,0,-5,-6,-3,0,-1,0,-2,10.215
2044,0,4,-2,-1,-2,1,0,0,10.22
2045,3,3,-1,1,2,-1,-1,1,10.225
2046,8,14,-4,0,0,-1,0,1,10.23
2047,5,-2,-2,-4,-3,-1,-1,0,10.235
2048,-18,-13,-4,-2,0,-3,-2,-3,10.24
2049,1,3,1,-2,-2,-2,0,-1,10.245000000000001
2050,-3,-7,-1,-5,-1,-2,-2,-3,10.25
2051,-1,5,1,3,1,1,-1,-1,10.255
2052,3,8,1,-1,-3,-1,0,0,10.26
2053,-1,-8,-2,-1,-2,1,-1,0,10.265
2054,-9,-12,-3,-3,-1,-2,-2,0,10.27
2055,-3,4,-1,-1,-2,0,0,0,10.275
2056,2,-1,1,1,-1,0,-1,0,10.28
2057,-1,-1,-1,-2,-2,0,-1,-2,10.285
2058,-1,6,3,1,1,0,0,-1,10.290000000000001
2059,-8,-9,-7,-3,-1,-2,-1,-3,10.295
2060,10,-2,-1,0,-1,-1,-1,-1,10.3
2061,-9,4,2,-1,0,-1,-1,-1,10.305
2062,0,-2,-1,1,-2,1,-3,0,10.31
2063,-9,-1,-1,0,1,-1,0,-2,10.315
2064,6,4,-1,-3,-2,-1,1,0,10.32
2065,2,1,-2,-1,1,1,1,1,10.325000000000001
2066,-9,1,0,-2,-2,-1,-2,-3,10.33
2067,-2,26,6,-1,-1,-1,-2,-1,10.335
2068,-4,-10,-3,0,1,-1,0,0,10.34
2069,0,-2,1,-3,-3,-1,1,-1,10.345
2070,1,4,-1,-2,1,2,2,0,10.35
2071,7,-1,0,2,0,2,1,1,10.355
2072,-8,-2,2,-1,-2,-4,-3,-1,10.36
2073,5,-3,-1,1,-2,-1,0,3,10.365
2074,4,2,-1,-1,-1,-2,-3,-3,10.370000000000001
2075,8,37,-1,0,-4,0,0,-1,10.375
2076,-6,-17,-7,-1,0,1,-2,0,10.38
2077,-5,-7,-6,1,1,-1,-3,-3,10.385
2078,-2,-1,-3,-2,-3,-3,-2,-1,10.39
2079,-4,-13,-1,-2,0,-1,-2,-1,10.395
2080,8,5,5,2,0,1,1,1,10.4
2081,-9,-3,-1,-2,-1,-1,-2,-2,10.405
2082,-1,-13,0,0,1,1,1,1,10.41
2083,-8,-14,-1,0,1,-1,-2,-2,10.415000000000001
2084,-8,-2,-1,-4,1,0,1,-1,10.42
2085,2,-2,0,2,-2,-1,0,0,10.425
2086,-3,1,0,-1,-2,-1,-1,-1,10.43
2087,1,-14,-6,-1,-5,-1,-1,-1,10.435
2088,-6,6,3,0,2,1,0,-2,10.44
2089,8,3,-1,-6,-1,-1,0,0,10.445
2090,-3,5,-3,-2,-1,-2,-2,-1,10.450000000000001
2091,-4,-4,1,-1,-1,-2,0,-1,10.455
2092,3,1,2,0,-1,0,0,0,10.46
2093,-1,-14,2,-2,0,2,1,-1,10.465
2094,-9,5,-2,-2,1,-1,0,-1,10.47
2095,0,-16,-4,-7,-7,-2,-1,-1,10.475
2096,4,5,-3,6,3,1,-1,-2,10.48
2097,-8,-5,-3,-7,-3,-4,-3,-4,10.485
2098,5,1,1,-4,-1,1,2,-1,10.49
2099,-2,6,-2,-3,-3,-2,-1,-3,10.495000000000001
2100,0,5,0,0,1,0,0,2,10.5
2101,8,16,1,5,2,2,2,3,10.505
2102,-13,-17,6,3,-2,-3,-3,-4,10.51
2103,-2,-7,1,-1,1,-2,0,0,10.515
2104,-3,-2,-1,-2,-2,0,-1,-3,10.52
2105,-3,-1,-1,-1,-2,0,1,2,10.525
2106,3,-11,-4,-1,3,-2,-1,2,10.53
2107,2,3,2,3,1,2,0,1,10.535
2108,-3,-2,-3,-1,0,0,-1,1,10.540000000000001
2109,6,9,-1,-2,-3,0,-1,-1,10.545
2110,3,5,2,0,0,1,-1,2,10.55
2111,-4,-7,-3,0,0,0,-1,-1,10.555
2112,2,2,-3,-4,-3,-5,-3,-2,10.56
2113,4,-18,3,-1,-2,0,-2,0,10.565
2114,-2,5,-3,0,-2,-1,-3,-2,10.57
2115,-1,4,0,2,2,0,-1,1,10.575000000000001
2116,10,15,-1,-2,-1,-1,-1,-2,10.58
2117,-3,6,1,2,-1,0,1,0,10.585
2118,-3,-7,1,2,-1,-2,-2,-3,10.59
2119,5,-6,5,-1,-2,0,0,1,10.595
2120,0,-14,-3,-2,-2,-2,-1,-1,10.6
2121,4,-1,2,1,2,-1,1,0,10.605
2122,-3,5,4,0,0,1,2,0,10.61
2123,-4,4,-5,-2,0,0,0,-2,10.615
2124,2,-3,1,1,-1,0,1,0,10.620000000000001
2125,-11,-6,-2,-1,-1,-2,-1,-3,10.625
2126,1,11,1,2,-1,-2,0,2,10.63
2127,6,-6,3,3,3,0,1,0,10.635
2128,-8,-2,-3,-6,-3,-3,-4,-2,10.64
2129,-1,-2,-2,-3,-1,-1,0,-1,10.645
2130,-1,-1,-3,-1,0,1,0,-2,10.65
2131,5,-1,-4,-1,2,0,-1,2,10.655
2132,0,-1,5,4,0,0,2,2,10.66
2133,-12,2,-4,-3,-2,-1,-3,-3,10.665000000000001
2134,-1,-10,0,-5,-1,-3,-2,-2,10.67
2135,-1,-7,-3,1,-1,-1,0,-1,10.675
2136,6,6,0,-2,-2,-2,0,1,10.68
2137,3,4,-2,1,0,1,-1,-1,10.685
2138,9,5,1,2,1,1,2,2,10.69
2139,-7,7,-4,-4,0,0,0,-1,10.695
2140,-7,2,-2,-1,2,-3,-2,-1,10.700000000000001
2141,-3,-12,-5,-1,-2,-2,-2,-5,10.705
2142,3,-5,2,2,1,0,2,-1,10.71
2143,-5,2,-1,-2,-5,-1,-1,0,10.715
2144,-1,-8,-1,-1,-3,1,-1,-1,10.72
2145,1,6,0,1,0,0,-1,0,10.725
2146,-2,17,0,-4,-1,1,-1,-3,10.73
2147,1,17,0,1,-2,-4,-4,-2,10.735
2148,-6,-3,1,-2,0,0,0,0,10.74
2149,2,-11,0,-2,-2,-1,0,0,10.745000000000001
2150,4,-3,-6,-3,-2,0,-1,-2,10.75
2151,0,3,-1,-2,-1,-1,-1,-2,10.755
2152,-3,-4,4,1,-2,3,3,2,10.76
2153,13,4,0,-1,0,-4,-2,-2,10.765
2154,-8,-6,-5,-2,-3,-2,-1,1,10.77
2155,1,-4,2,1,-1,0,-1,-1,10.775
2156,2,-9,-3,-1,1,1,2,-1,10.78
2157,-4,3,3,1,1,2,0,2,10.785
2158,17,6,1,-1,-2,0,0,-2,10.790000000000001
2159,-13,-7,1,-1,-1,0,0,-2,10.795
2160,5,-2,-2,-1,-1,-3,-3,-4,10.8
2161,-3,-2,2,3,2,0,0,1,10.805
2162,0,17,2,0,-1,-2,-3,0,10.81
2163,-9,-9,0,-3,-2,-1,-1,-2,10.815
2164,-3,-10,-2,-3,-1,-1,-3,-4,10.82
2165,-4,-17,1,0,1,-1,-3,0,10.825000000000001
2166,-3,5,-2,0,0,1,2,1,10.83
2167,20,16,-2,-2,-1,-1,0,-2,10.835
2168,-6,9,0,-1,-2,-2,2,0,10.84
2169,0,-3,3,-2,-2,-2,-3,-3,10.845
2170,-9,-7,1,1,1,2,3,3,10.85
2171,-1,4,-6,-4,-1,-4,-3,-1,10.855
2172,1,2,-2,-2,-1,1,-1,0,10.86
2173,-7,4,-1,-2,-1,1,2,-2,10.865
2174,0,-4,0,-3,-4,-4,-2,-4,10.870000000000001
2175,-8,3,-2,0,-3,-1,-1,-2,10.875
2176,0,-11,1,-1,0,1,1,-1,10.88
2177,4,3,-2,3,0,-1,-2,1,10.885
2178,-16,-15,-5,-3,0,-2,-2,-3,10.89
2179,0,-7,-3,-5,-1,1,-1,0,10.895
2180,0,-5,-4,0,1,-1,-2,-1,10.9
2181,-14,-10,5,4,-1,0,2,1,10.905
2182,9,-10,1,0,2,-1,-2,-2,10.91
2183,5,-1,4,5,2,0,-1,1,10.915000000000001
2184,-2,17,-6,-6,-4,-3,-2,-3,10.92
2185,4,19,1,-3,-1,1,1,1,10.925
2186,1,1,-1,0,-1,-1,-2,0,10.93
2187,-9,-20,-4,-4,-1,-2,0,-1,10.935
2188,2,-3,3,-2,-3,1,2,2,10.94
2189,3,-4,-5,-3,-2,-1,-1,-4,10.945
2190,-6,2,1,-1,0,1,-2,-1,10.950000000000001
2191,-5,0,-3,-1,0,0,0,-2,10.955
2192,10,0,-2,2,3,-1,1,1,10.96
2193,-17,-10,1,-2,-4,-4,-4,-3,10.965
2194,7,9,1,0,0,-2,1,1,10.97
2195,-12,-2,-2,1,0,0,1,-2,10.975
2196,-2,-2,-3,0,-3,-2,-1,0,10.98
2197,8,15,-2,0,0,1,-1,-1,10.985
2198,-4,4,-1,-2,-1,0,-2,-2,10.99
2199,0,-6,4,0,1,-3,0,1,10.995000000000001
2200,-6,14,2,-2,-4,-2,-4,-3,11.0
2201,6,13,1,-2,1,2,1,0,11.005
2202,1,-9,-7,-3,-2,0,-2,-2,11.01
2203,5,8,-1,-2,-1,-2,0,0,11.015
2204,5,-5,-2,2,2,1,-1,-2,11.02
2205,4,-4,-1,-1,1,-1,0,0,11.025
2206,-3,-15,0,-2,-1,-1,0,1,11.03
2207,7,3,-7,-3,-3,0,-1,-1,11.035
2208,-12,-2,-1,1,0,-3,-2,0,11.040000000000001
2209,6,0,-1,-1,-1,-1,0,0,11.045
2210,-3,-8,-1,-1,-4,-4,-2,-2,11.05
2211,10,2,-3,-1,-1,-1,-2,0,11.055
2212,-5,-3,3,0,-2,-1,0,-1,11.06
2213,-6,-4,-7,-3,-1,-1,-1,-1,11.065
2214,3,10,1,0,-1,2,0,0,11.07
2215,-2,5,3,4,0,-1,0,0,11.075000000000001
2216,0,-13,-3,-5,-1,0,-1,-2,11.08
2217,-7,-5,-2,-4,-2,-1,-1,-2,11.085
2218,13,2,-2,-2,-1,-1,1,0,11.09
2219,-5,-5,-2,0,-1,1,2,0,11.095
2220,-7,-8,-1,-1,0,-1,-1,-1,11.1
2221,-1,-7,-1,0,-2,-1,-1,-1,11.105
2222,-10,-5,2,-4,-5,-3,-2,-3,11.11
2223,-3,-20,1,0,-1,-1,0,0,11.115
2224,-6,3,2,1,1,0,-2,0,11.120000000000001
2225,2,19,-3,-4,-4,-2,-1,0,11.125
2226,-2,1,0,2,-1,1,0,1,11.13
2227,3,1,1,0,0,-1,0,0,11.135
2228,14,9,1,2,1,1,2,-2,11.14
2229,-2,-5,0,-1,0,1,0,0,11.145
2230,2,24,-3,-2,0,0,1,-1,11.15
2231,-3,-3,-2,-4,-3,-2,-3,-1,11.155
2232,-1,-1,-1,3,3,0,0,0,11.16
2233,6,-2,-1,-1,-2,-2,0,1,11.165000000000001
2234,-4,-9,1,1,0,-2,1,-1,11.17
2235,-7,-5,-4,-3,-2,-2,-2,-4,11.175
2236,-1,4,6,1,-1,-1,0,1,11.18
2237,-3,-2,-1,2,-1,-2,-1,-1,11.185
2238,0,-2,-2,-4,-1,-2,-1,0,11.19
2239,2,-13,1,-1,-2,0,1,-2,11.195
2240,-6,-10,-6,-1,0,2,0,-1,11.200000000000001
2241,-2,1,3,1,-2,-1,-1,-2,11.205
2242,-3,2,3,3,4,2,-4,-2,11.21
2243,-6,4,-5,-2,-1,0,7,3,11.215
2244,14,-2,0,-4,-3,-3,1,-3,11.22
2245,1,-8,2,-1,0,0,1,1,11.225
2246,1,3,-1,1,1,0,-2,-1,11.23
2247,-5,-3,8,1,2,-1,-4,-2,11.235
2248,-4,2,0,0,0,-1,-1,0,11.24
2249,0,-6,2,1,-1,-2,-1,0,11.245000000000001
2250,-3,24,5,-1,-3,-1,-4,-1,11.25
2251,-5,5,-5,-4,-4,-1,4,0,11.255
2252,6,17,-7,-5,-4,-2,-2,-2,11.26
2253,-10,8,2,0,2,2,-2,1,11.265
2254,-8,-15,3,1,-1,0,4,-7,11.27
2255,14,-1,1,5,-1,1,7,11,11.275
2256,7,5,-7,-4,-1,-4,-10,-5,11.28
2257,-3,-20,-4,-3,-2,-3,-4,-2,11.285
2258,-2,-40,-1,-3,-1,-2,-6,-6,11.290000000000001
2259,-3,16,-3,-3,-1,-1,-2,0,11.295
2260,-4,-17,-1,0,-1,3,5,5,11.3
2261,-8,8,0,0,-1,-2,-1,0,11.305
2262,2,-24,-6,0,-1,-2,0,-1,11.31
2263,-4,-14,-3,-2,-1,-1,-1,-13,11.315
2264,-12,-4,-6,-1,0,3,4,12,11.32
2265,-9,-8,0,-5,-3,-3,-4,-5,11.325000000000001
2266,3,11,4,0,1,-2,1,2,11.33
2267,6,12,2,2,1,-2,-4,0,11.335
2268,-1,-18,0,-1,0,-1,-1,-6,11.34
2269,-10,-24,-3,-4,-2,0,2,0,11.345
2270,-1,8,-3,2,3,0,0,2,11.35
2271,6,-1,-1,0,-2,0,-6,-2,11.355
2272,-5,19,0,-2,-3,-4,-1,-3,11.36
2273,5,-4,-3,0,2,2,2,1,11.365
2274,7,10,1,-3,-2,-2,0,0,11.370000000000001
2275,-6,-1,3,1,1,1,-1,0,11.375
2276,-11,0,-7,-5,-2,-1,-1,0,11.38
2277,10,5,0,2,-1,0,-3,-3,11.385
2278,4,-7,-10,0,-1,1,1,4,11.39
2279,-3,-30,-1,-5,-5,-3,-2,-3,11.395
2280,-9,-19,0,1,-1,1,0,-3,11.4
2281,6,13,6,7,4,0,3,0,11.405
2282,-8,3,-1,-7,-5,-3,-3,-2,11.41
2283,11,10,7,10,1,-2,-2,3,11.415000000000001
2284,-4,-9,-1,-7,-4,-1,-2,-6,11.42
2285,3,24,-3,-7,-1,0,1,5,11.425
2286,6,-7,16,12,8,5,3,2,11.43
2287,-14,11,13,-4,-1,0,-2,-2,11.435
2288,6,25,8,23,2,-1,-3,-4,11.44
2289,-1,0,-16,-23,-7,-3,2,4,11.445
2290,2,12,6,-2,-1,1,4,3,11.450000000000001
2291,14,22,18,8,3,-1,0,-1,11.455
2292,-29,-59,10,40,7,5,-7,-10,11.46
2293,-5,-18,-31,-45,-13,-6,-2,-12,11.465
2294,-9,9,-10,-14,-7,-8,-6,10,11.47
2295,6,5,-7,4,2,4,7,33,11.475
2296,-13,20,7,-6,-1,-2,-2,-22,11.48
2297,28,-1,25,33,9,1,-2,-10,11.485
2298,-10,8,16,6,-2,4,0,-13,11.49
2299,2,-50,-1,-3,-3,0,7,25,11.495000000000001
2300,25,6,-14,-23,-3,-2,-20,4,11.5
2301,-17,6,5,18,0,-2,32,27,11.505
2302,10,-8,-1,-27,-5,1,7,-65,11.51
2303,0,31,30,27,9,2,-3,10,11.515
2304,-53,-20,-3,33,-6,-4,-2,-31,11.52
2305,3,-34,15,-54,-3,-2,-15,17,11.525
2306,-15,61,-36,22,-1,-4,1,6,11.53
2307,-8,-12,-43,-49,-8,1,2,-6,11.535
2308,42,51,-10,-5,2,-1,-1,19,11.540000000000001
2309,15,36,42,39,9,7,-3,17,11.545
2310,-22,-13,-22,3,-4,-1,0,-5,11.55
2311,0,4,8,8,2,2,-9,-46,11.555
2312,5,7,1,-16,-3,0,8,18,11.56
2313,7,-1,11,32,3,-1,0,-14,11.565
2314,16,10,-18,-10,-1,-5,-8,23,11.57
2315,-11,-30,3,12,-3,-6,-7,-4,11.575000000000001
2316,31,-21,-13,-32,-4,0,6,8,11.58
2317,-22,11,-12,-4,-1,2,3,2,11.585
2318,-20,-41,25,9,0,-3,-8,0,11.59
2319,0,-2,-17,-21,-7,-8,-5,-7,11.595
2320,23,16,30,21,6,-3,4,17,11.6
2321,-12,0,-36,7,2,10,5,-22,11.605
2322,-3,-42,-8,-26,0,-3,3,19,11.61
2323,-12,-1,3,-15,-3,-1,-11,-27,11.615
2324,2,17,0,-9,-3,-5,-2,-2,11.620000000000001
2325,3,7,-3,7,-1,-4,-11,-4,11.625
2326,8,0,32,36,12,10,10,17,11.63
2327,5,13,-35,-34,-9,-5,9,15,11.635
2328,-20,-51,-17,-14,-6,-1,-5,5,11.64
2329,-1,5,5,16,-3,-11,-20,-27,11.645
2330,7,-7,-5,-17,-1,3,11,-6,11.65
2331,36,12,8,54,8,0,1,-8,11.655
2332,-38,-14,-35,-53,-9,-1,-16,1,11.66
2333,35,7,26,10,1,-2,15,25,11.665000000000001
2334,-8,12,-8,-4,1,1,-9,-13,11.67
2335,-37,-51,-7,0,-4,7,8,2,11.675
2336,8,17,19,8,0,-4,0,-8,11.68
2337,-2,-2,0,16,2,8,0,7,11.685
2338,22,4,-6,-9,-1,-1,1,18,11.69
2339,-18,19,18,15,7,3,2,-15,11.695
2340,-17,-13,-25,-34,-9,-7,0,3,11.700000000000001
2341,17,4,19,-2,2,0,-5,-14,11.705
2342,2,-33,-21,-15,-11,-5,-2,-8,11.71
2343,6,37,-2,-2,1,-4,-5,11,11.715
2344,6,-7,21,26,8,7,9,6,11.72
2345,-30,-15,-34,3,1,-6,-4,-11,11.725
2346,6,4,-6,-18,-2,1,1,38,11.73
2347,0,-7,4,0,-3,-5,-10,-33,11.735
2348,-17,9,-7,0,1,-1,4,-3,11.74
2349,8,17,7,-2,-2,-1,-1,-6,11.745000000000001
2350,13,29,9,15,-3,-4,-2,35,11.75
2351,-13,13,-1,2,5,3,0,-26,11.755
2352,2,10,29,33,9,9,14,13,11.76
2353,-47,-46,-20,-32,-15,-8,-7,-19,11.765
2354,11,1,-27,-39,-2,-6,-15,-25,11.77
2355,12,-15,-16,-34,-12,-6,2,30,11.775
2356,9,-12,17,11,4,4,7,-6,11.78
2357,2,-1,-7,-1,-2,-4,-4,7,11.785
2358,8,-31,14,9,0,7,9,-6,11.790000000000001
2359,-17,-36,6,18,-1,-5,-15,-2,11.795
2360,13,-12,-11,-10,-5,-7,-3,-10,11.8
2361,-10,17,-12,-1,-2,6,3,10,11.805
2362,35,15,10,14,1,-6,-2,5,11.81
2363,2,3,23,4,6,7,8,-5,11.815
2364,21,2,-5,29,-2,-8,-1,0,11.82
2365,-10,26,6,-1,9,11,8,0,11.825000000000001
2366,-29,6,-3,22,0,0,0,-6,11.83
2367,27,19,-7,-16,2,5,7,14,11.835
2368,17,9,21,14,6,3,1,39,11.84
2369,8,2,14,3,-4,0,1,-38,11.845
2370,-19,-25,10,2,-1,-3,-10,-23,11.85
2371,-21,27,17,35,4,3,5,10,11.855
2372,20,15,-62,-43,-2,2,5,3,11.86
2373,32,9,-3,-3,0,-5,-6,13,11.865
2374,-40,-8,7,7,-4,-10,-2,-22,11.870000000000001
2375,48,-13,-11,-7,-7,-6,-3,15,11.875
2376,-22,-8,15,2,-9,-3,-3,-15,11.88
2377,-20,-1,-5,-7,-6,-9,-12,2,11.885
2378,-27,-22,-9,-16,0,3,0,-6,11.89
2379,-28,-8,-8,2,-2,-7,-9,-18,11.895
2380,25,-8,-6,-7,-4,2,0,-8,11.9
2381,10,10,19,17,5,1,7,32,11.905
2382,-21,32,17,-21,-1,0,-3,-24,11.91
2383,5,-13,-4,6,1,0,-1,1,11.915000000000001
2384,-9,-11,-6,-3,-2,1,-1,-10,11.92
2385,16,6,8,-10,-5,-8,-4,4,11.925
2386,24,-3,-9,28,6,0,1,15,11.93
2387,-6,22,4,-4,-2,7,10,25,11.935
2388,-2,38,9,1,1,0,-5,-31,11.94
2389,-22,-20,-20,0,0,1,0,3,11.945
2390,12,-13,24,22,5,7,7,2,11.950000000000001
2391,-10,-15,-24,-21,-7,-6,-3,-5,11.955
2392,-18,-10,9,18,4,3,2,13,11.96
2393,24,-4,1,-6,1,-1,-5,-11,11.965
2394,-16,-21,0,-7,0,-1,-5,2,11.97
2395,-3,8,-16,-15,-5,-3,-3,-13,11.975
2396,-10,-11,1,12,0,0,5,6,11.98
2397,-5,1,-1,-6,-7,-9,-9,-10,11.985
2398,11,16,-1,-6,0,4,2,-1,11.99
2399,16,-1,-8,-13,0,-1,-6,0,11.995000000000001
2400,-3,-7,8,-2,0,-2,-2,-3,12.0
2401,-26,14,17,16,-1,1,2,-5,12.005
2402,-6,17,1,-27,-5,-11,-3,2,12.01
2403,1,-41,-18,-2,-6,-4,2,3,12.015
2404,-5,5,-16,-12,-1,-2,-7,-14,12.02
2405,-23,-45,-1,-17,-3,-2,-2,-4,12.025
2406,7,31,0,14,0,0,-2,-1,12.030000000000001
2407,0,-13,11,-4,-6,-3,7,12,12.035
2408,8,22,-11,-3,-2,-3,-3,18,12.040000000000001
2409,-29,-18,-14,-5,-3,-4,-4,-24,12.045
2410,8,-15,-22,-8,-3,-3,-5,2,12.05
2411,-5,17,5,10,3,-2,-2,-11,12.055
2412,17,13,22,20,9,5,5,7,12.06
2413,-2,-18,-13,6,3,11,9,11,12.065
2414,-4,-14,-6,-2,-4,-4,-3,-4,12.07
2415,-3,15,17,7,5,1,0,4,12.075000000000001
2416,4,-14,-14,-9,-2,0,1,-4,12.08
2417,18,-9,-29,-23,-5,-4,-5,1,12.085
2418,-9,-7,5,8,0,1,6,-4,12.09
2419,-3,-10,3,12,3,1,-1,-1,12.095
2420,8,-3,-13,-15,-5,-3,-8,-1,12.1
2421,2,22,17,18,4,0,4,-1,12.105
2422,3,-4,-37,-48,-8,-3,-3,0,12.11
2423,-16,-17,-1,-11,-1,0,-1,-5,12.115
2424,-5,-26,2,8,2,1,1,-7,12.120000000000001
2425,-2,-33,3,-5,-2,-5,-4,-2,12.125
2426,4,26,18,26,7,4,1,1,12.13
2427,-11,44,18,19,6,5,5,0,12.135
2428,-7,-12,-9,-22,-6,-5,-3,-3,12.14
2429,14,-4,-11,-16,-8,-3,-1,7,12.145
2430,16,27,6,9,3,0,-4,-6,12.15
2431,-3,-27,-4,-6,-3,-3,-5,-6,12.155000000000001
2432,-30,-6,16,5,2,2,0,0,12.16
2433,29,15,27,10,1,-5,-1,1,12.165000000000001
2434,3,-29,-15,-21,-3,3,2,12,12.17
2435,1,17,-7,-6,-2,1,3,2,12.175
2436,-22,0,14,6,-1,-2,-1,-4,12.18
2437,2,8,-16,-4,2,4,6,5,12.185
2438,-2,45,11,9,3,0,-3,-9,12.19
2439,-6,-4,-7,-6,-2,-3,-1,3,12.195
2440,23,25,0,7,-1,-1,1,1,12.200000000000001
2441,-25,10,4,-5,0,2,0,2,12.205
2442,17,7,8,3,-3,-7,0,-3,12.21
2443,-16,6,-2,9,2,2,0,2,12.215
2444,8,9,-8,-10,-5,-3,1,-8,12.22
2445,1,-2,-13,-5,-1,2,-1,-4,12.225
2446,-13,-18,1,6,-1,-1,-2,2,12.23
2447,17,-19,15,7,4,1,-3,-3,12.235
2448,-15,-4,-2,0,-4,-1,-1,4,12.24
2449,33,12,1,-15,-1,1,-1,4,12.245000000000001
2450,-30,-8,1,7,-1,1,1,1,12.25
2451,16,6,-2,3,1,1,-1,-7,12.255
2452,6,-7,5,-3,1,1,-1,4,12.26
2453,-3,-4,3,7,1,-2,0,0,12.265
2454,5,-6,12,17,4,2,0,2,12.27
2455,-23,-22,-10,-23,-7,-4,-5,-7,12.275
2456,-5,-17,-21,-12,-7,-3,1,-7,12.280000000000001
2457,17,2,1,0,-1,-2,-4,5,12.285
2458,3,-9,3,6,3,-1,-3,-3,12.290000000000001
2459,3,35,3,7,1,0,1,3,12.295
2460,-9,-39,2,5,1,-1,-2,-6,12.3
2461,-2,2,5,5,-1,2,1,-3,12.305
2462,-1,-13,-8,2,-1,0,0,1,12.31
2463,9,-6,-11,1,-3,-2,-2,-6,12.315
2464,-5,6,-14,-15,-5,-4,-2,1,12.32
2465,-2,10,-6,-2,0,-2,2,1,12.325000000000001
2466,10,5,-3,0,-1,0,-4,-4,12.33
2467,14,-10,-2,-4,-1,-1,2,10,12.335
2468,-2,22,16,7,0,-4,-7,-7,12.34
2469,-5,-14,2,2,1,2,4,2,12.345
2470,-13,-5,-2,-1,-1,-1,0,-2,12.35
2471,8,2,3,-4,-4,-3,-3,-3,12.355
2472,-2,7,0,-4,-2,-2,0,2,12.36
2473,0,-2,-1,-2,0,0,-2,0,12.365
2474,-5,3,-3,0,-1,0,2,1,12.370000000000001
2475,-7,-1,-3,-7,-4,-6,-5,-5,12.375
2476,-6,8,3,-2,-1,0,0,-3,12.38
2477,-13,-19,16,4,1,0,-1,-3,12.385
2478,8,5,27,-4,-1,1,0,0,12.39
2479,4,23,-7,9,-3,-2,-2,2,12.395
2480,-8,-11,-16,-16,-6,0,0,-2,12.4
2481,-7,0,-7,0,-1,0,0,-2,12.405000000000001
2482,9,8,-6,1,0,-1,0,2,12.41
2483,-2,-2,2,5,2,2,1,3,12.415000000000001
2484,2,1,6,4,2,0,1,-1,12.42
2485,1,4,-8,2,6,3,-1,-1,12.425
2486,-1,-6,-15,-3,-5,-4,-3,-1,12.43
2487,-2,-8,-3,-3,0,1,-1,-2,12.435
2488,-2,-4,-8,-1,-2,-1,-2,-1,12.44
2489,-6,15,-2,-1,-1,-2,-1,-5,12.445
2490,0,-7,-1,-6,-3,-2,-1,0,12.450000000000001
2491,1,0,0,-2,1,1,1,0,12.455
2492,3,0,5,4,2,1,0,2,12.46
2493,-6,0,3,2,-2,-1,-1,0,12.465
2494,5,7,-13,1,1,1,2,-1,12.47
2495,0,7,-3,-5,-3,-1,0,-3,12.475
2496,-2,-11,4,3,-1,0,-1,-1,12.48
2497,0,-6,-7,-3,-2,-1,-1,-2,12.485
2498,-5,-7,-3,4,1,1,0,3,12.49
2499,0,-30,-3,-3,1,3,1,5,12.495000000000001
2500,4,14,-1,0,3,1,1,1,12.5
2501,-1,5,-1,-1,-4,-3,-4,-1,12.505
2502,2,-7,-7,-4,-4,-3,-2,-2,12.51
2503,-12,-6,-4,1,-2,-3,-3,-5,12.515
2504,3,-5,3,-1,-2,-5,-4,-5,12.52
2505,0,-21,-11,-4,-1,4,4,1,12.525
2506,0,-1,1,7,10,1,2,1,12.530000000000001
2507,4,2,2,-1,-1,-3,-1,-1,12.535
2508,0,-2,2,1,-1,0,-2,-1,12.540000000000001
2509,-11,-27,3,-2,-4,-1,0,-2,12.545
2510,7,8,0,1,-4,0,-3,-1,12.55
2511,-4,-5,-2,-7,-5,-1,1,-1,12.555
2512,-2,3,6,3,5,0,0,-1,12.56
2513,-3,-15,4,-2,-4,-5,-4,-3,12.565
2514,-7,-20,1,-5,-2,3,2,0,12.57
2515,4,1,5,0,1,1,-1,0,12.575000000000001
2516,5,16,1,-2,-3,0,1,3,12.58
2517,-4,9,-5,-2,1,1,0,1,12.585
2518,4,19,8,2,-1,-4,-1,-2,12.59
2519,-3,2,-1,-6,-2,0,-1,-1,12.595
2520,-8,1,2,4,0,1,0,-2,12.6
2521,-5,-2,1,1,-1,-2,-1,-3,12.605
2522,-6,15,-4,1,0,0,0,-2,12.61
2523,4,-10,3,-1,3,2,4,4,12.615
2524,3,0,-1,-1,-1,-1,-2,-2,12.620000000000001
2525,4,13,5,4,3,-1,-1,0,12.625
2526,-9,-14,2,-2,0,1,1,-1,12.63
2527,-7,-37,-1,3,1,0,1,0,12.635
2528,2,26,2,3,1,3,2,2,12.64
2529,11,10,0,-3,1,-3,0,0,12.645
2530,4,-12,-9,-9,-4,-3,-4,-3,12.65
2531,1,3,2,1,0,0,1,0,12.655000000000001
2532,-4,-24,2,3,0,-1,-1,-1,12.66
2533,-3,-6,-3,-1,-2,1,-1,0,12.665000000000001
2534,6,22,-1,-2,-1,-2,1,-2,12.67
2535,-5,4,-4,-2,-1,-1,-2,-1,12.675
2536,-7,-8,0,-5,-4,-4,-1,-2,12.68
2537,5,5,0,0,-2,-4,-2,-2,12.685
2538,-7,-46,-1,2,-1,-1,-1,-2,12.69
2539,0,20,-4,0,-1,0,-2,-3,12.695
2540,1,-10,-5,-1,-1,0,-1,1,12.700000000000001
2541,3,4,-3,-2,1,2,1,0,12.705
2542,-2,0,2,-1,0,0,2,3,12.71
2543,4,5,-6,-7,-4,-4,-2,-1,12.715
2544,-2,0,6,-2,-1,-2,-2,-2,12.72
2545,-2,-28,-2,-2,-1,2,0,-1,12.725
2546,-1,2,-5,-3,-2,-3,-2,0,12.73
2547,-3,3,3,1,1,3,3,1,12.735
2548,9,6,-5,0,0,2,2,4,12.74
2549,2,1,3,2,1,0,0,2,12.745000000000001
2550,-4,-2,-1,-2,-2,-1,-2,-4,12.75
2551,-10,-15,-1,-2,-1,-2,-1,2,12.755
2552,6,14,0,0,-2,-2,-1,-2,12.76
2553,-3,2,-1,-2,-2,-2,0,-2,12.765
2554,6,28,-4,1,0,0,-1,0,12.77
2555,5,-6,-13,-1,-3,-2,-1,-2,12.775
2556,-2,-5,-1,-2,-2,-2,-1,-2,12.780000000000001
2557,-4,10,-1,-3,-1,0,0,0,12.785
2558,-7,-12,5,-2,-2,-1,-1,0,12.790000000000001
2559,-8,3,4,0,-3,-4,-4,-2,12.795
2560,3,1,2,0,0,3,2,-1,12.8
2561,-2,8,9,4,0,-3,0,1,12.805
2562,1,-7,0,-3,-4,-2,-2,-2,12.81
2563,0,15,-1,-4,-1,-1,-1,-2,12.815
2564,0,-15,-3,-2,1,0,-2,-2,12.82
2565,-3,24,0,-2,-3,0,1,1,12.825000000000001
2566,-3,-3,-1,1,-1,-2,0,0,12.83
2567,5,-7,1,-2,-3,0,0,1,12.835
2568,-1,-7,1,-1,0,0,0,0,12.84
2569,-1,-14,-3,0,1,2,2,0,12.845
2570,6,0,-1,-1,-1,1,1,3,12.85
2571,-8,-3,-1,-1,-2,-2,-2,-3,12.855
2572,-5,-3,-1,-3,-1,-5,-4,-1,12.86
2573,-3,-17,-12,-7,-4,-2,-2,-3,12.865
2574,2,2,3,1,2,2,1,1,12.870000000000001
2575,-2,-11,-3,-2,-1,-2,0,0,12.875
2576,-1,7,-2,-3,-2,0,-1,0,12.88
2577,11,16,2,5,0,-2,-3,-1,12.885
2578,-11,-3,-1,2,1,2,1,2,12.89
2579,29,4,3,-2,0,-1,-3,-3,12.895
2580,-18,13,6,2,1,0,0,-1,12.9
2581,1,24,-1,-1,2,0,-1,1,12.905000000000001
2582,0,-5,3,2,0,-1,-1,-1,12.91
2583,-3,-12,1,-1,-2,-1,-2,0,12.915000000000001
2584,7,-5,3,-1,-2,-1,0,0,12.92
2585,-2,-7,-5,1,1,0,-1,-3,12.925
2586,-5,0,0,1,0,1,0,1,12.93
2587,-3,-19,0,0,-2,-2,-2,-4,12.935
2588,-1,-15,-8,1,2,3,2,1,12.94
2589,2,-24,-3,-9,-6,-6,-5,-6,12.945
2590,-7,4,-2,0,0,0,-1,-1,12.950000000000001
2591,0,9,2,2,-1,-1,-1,-1,12.955
2592,-4,3,-4,0,-2,-2,-2,-2,12.96
2593,6,1,-7,4,2,-1,0,2,12.965
2594,-2,-12,-11,-3,-2,-2,-1,-2,12.97
2595,-1,12,-2,-1,-1,1,-1,-1,12.975
2596,-1,-10,-1,0,0,1,0,-2,12.98
2597,-1,7,7,1,-1,0,-1,0,12.985
2598,3,13,3,-6,0,-3,-4,-1,12.99
2599,-6,1,-2,0,0,1,2,2,12.995000000000001
2600,-7,-2,2,-4,-5,-5,-3,-4,13.0
2601,-2,-8,0,-3,-3,-2,0,1,13.005
2602,2,-1,6,1,1,1,0,-2,13.01
2603,-1,6,4,0,0,0,-1,3,13.015
2604,1,1,0,0,-1,-1,-1,1,13.02
2605,3,6,2,-1,-1,1,-1,-1,13.025
2606,-11,1,-3,-1,-2,-1,-1,-1,13.030000000000001
2607,6,-6,-2,-1,-1,-1,1,-2,13.035
2608,-4,-12,-4,-5,-3,-3,-3,-3,13.040000000000001
2609,-3,-3,3,3,0,-1,1,0,13.045
2610,9,15,-9,-4,-3,-1,-1,-2,13.05
2611,2,6,1,1,-1,0,-1,0,13.055
2612,-2,5,-2,-1,-2,2,-1,0,13.06
2613,-4,7,0,-6,-5,-2,-1,-3,13.065
2614,-1,-6,-3,-4,-4,-2,-2,-2,13.07
2615,-5,4,-1,0,3,2,1,0,13.075000000000001
2616,8,-2,-2,-3,-2,-3,0,-1,13.08
2617,-6,-19,3,2,2,3,0,0,13.085
2618,0,-5,1,1,-2,-2,-1,-2,13.09
2619,-8,-1,2,-1,0,-3,-2,-2,13.095
2620,8,-3,6,3,1,2,1,1,13.1
2621,-13,0,-8,-6,-5,-4,-2,-3,13.105
2622,5,6,4,-1,0,0,-1,1,13.11
2623,-6,-1,2,1,-2,-3,-2,-3,13.115
2624,-4,0,3,3,2,1,1,2,13.120000000000001
2625,10,-12,-7,-4,1,-3,-1,-1,13.125
2626,-11,-3,-3,-1,-2,-2,-1,-2,13.13
2627,9,12,-2,-3,-1,1,1,1,13.135
2628,-5,1,-1,0,-2,-4,-5,-4,13.14
2629,-9,-10,-1,2,2,0,2,1,13.145
2630,6,-7,3,-2,-1,-2,-2,-1,13.15
2631,0,-5,-3,-2,-2,-3,-3,-2,13.155000000000001
2632,3,19,-4,-2,-3,-4,0,0,13.16
2633,-4,0,3,2,-2,-3,-2,-3,13.165000000000001
2634,-4,11,2,1,-1,0,0,-1,13.17
2635,-2,0,-2,0,-1,0,0,0,13.175
2636,-5,-3,-4,-3,-1,-1,-3,0,13.18
2637,9,5,1,2,2,4,1,3,13.185
2638,-1,-5,3,0,2,-1,-3,-2,13.19
2639,-4,1,1,-2,-2,-3,-2,0,13.195
2640,2,1,4,6,1,1,0,1,13.200000000000001
2641,-2,-1,-6,-5,-1,1,1,-2,13.205
2642,-1,-10,-2,0,0,-2,-1,-1,13.21
2643,1,1,-2,-2,-5,-3,-2,-1,13.215
2644,4,-4,1,0,0,1,0,-2,13.22
2645,0,1,3,4,1,-2,0,1,13.225
2646,-5,-2,-2,-3,-2,-1,1,-1,13.23
2647,2,-5,1,2,0,1,0,-1,13.235
2648,-7,-10,-2,-1,-1,-1,-4,-5,13.24
2649,2,6,-2,-4,-4,-1,-3,-2,13.245000000000001
2650,4,-1,1,0,2,1,3,3,13.25
2651,-3,-1,-1,0,-1,-2,0,-1,13.255
2652,1,4,-2,-1,-2,1,1,1,13.26
2653,2,8,3,0,-2,-4,-2,-1,13.265
2654,-8,-11,-6,-2,-1,-1,0,-2,13.27
2655,-1,12,3,-2,-3,-1,-2,-3,13.275
2656,3,-16,-5,-6,-1,-2,-2,-2,13.280000000000001
2657,-3,-2,-4,-1,0,0,1,1,13.285
2658,7,-1,-4,-2,-1,-2,-1,-1,13.290000000000001
2659,0,-2,-3,-1,-1,-2,-2,-1,13.295
2660,1,3,3,0,-3,1,0,-1,13.3
2661,6,23,-2,1,-5,-3,-5,-5,13.305
2662,-5,0,1,2,2,-2,-2,-2,13.31
2663,-5,-12,-7,-1,0,1,-1,0,13.315
2664,0,-7,-3,-2,1,0,1,-2,13.32
2665,-2,-6,-2,-1,0,0,-1,0,13.325000000000001
2666,4,0,0,-1,-5,0,0,-1,13.33
2667,-2,-3,1,-1,0,0,-1,1,13.335
2668,-4,7,1,2,2,1,1,3,13.34
2669,15,-5,-2,-3,-1,-1,-2,-5,13.345
2670,-3,0,1,1,0,1,-1,1,13.35
2671,-5,-14,6,1,-1,0,1,-1,13.355
2672,2,1,2,-1,0,-1,1,1,13.36
2673,-3,-2,1,0,-2,-2,-2,0,13.365
2674,-2,21,1,2,-1,1,-1,-1,13.370000000000001
2675,-3,1,-3,-1,0,-1,0,-1,13.375
2676,10,-3,-2,-2,-1,-2,-2,-2,13.38
2677,-16,-3,-5,-2,-2,-3,-2,-2,13.385
2678,6,1,-8,0,0,1,0,0,13.39
2679,-10,15,8,2,2,1,1,-1,13.395
2680,-4,-13,-4,-5,-2,-4,-1,-3,13.4
2681,-2,-4,2,1,1,2,1,1,13.405000000000001
2682,11,-8,-2,-2,-3,-4,-4,-3,13.41
2683,1,4,-1,-2,1,3,1,0,13.415000000000001
2684,-1,-2,-1,-2,0,1,0,-1,13.42
2685,-3,-19,7,6,2,1,0,2,13.425
2686,0,-1,-2,-2,-1,-2,0,0,13.43
2687,0,2,-4,1,0,-1,-1,-1,13.435
2688,-14,0,1,3,1,-1,-1,-2,13.44
2689,20,3,-2,3,3,0,1,1,13.445
2690,-14,-8,5,-2,1,0,-1,1,13.450000000000001
2691,2,-11,-3,-5,-3,-3,0,-1,13.455
2692,-7,-2,-1,-3,-4,-2,-2,-2,13.46
2693,-5,-1,-1,-2,0,1,2,0,13.465
2694,-1,-2,-1,-1,-1,-2,-2,0,13.47
2695,6,3,-1,-3,-2,-3,-1,-2,13.475
2696,1,12,2,0,2,1,0,1,13.48
2697,-6,-1,0,-1,-2,-2,-1,-1,13.485
2698,0,-6,2,-1,-4,-2,-1,-2,13.49
2699,2,-27,0,0,0,-2,0,0,13.495000000000001
2700,-2,17,0,-6,-5,-5,-2,-1,13.5
2701,-1,-22,-10,-5,-1,-1,-2,0,13.505
2702,2,-5,2,2,1,1,1,0,13.51
2703,-11,-23,-4,-3,-3,0,-3,-1,13.515
2704,10,-5,-3,-2,-1,0,-1,-1,13.52
2705,-13,5,2,-3,-4,-2,-1,-3,13.525
2706,-2,-6,0,1,0,-1,-1,-1,13.530000000000001
2707,3,20,4,2,1,-1,-1,1,13.535
2708,5,4,2,1,2,1,2,1,13.540000000000001
2709,-3,6,-1,0,-1,1,0,-1,13.545
2710,3,1,0,3,1,-1,2,0,13.55
2711,-1,8,3,-1,0,-1,-1,0,13.555
2712,-1,-1,-3,-2,-3,-2,-1,0,13.56
2713,-3,-4,-3,-3,-2,-2,0,-1,13.565
2714,-3,-22,-4,-1,-3,-3,-4,-3,13.57
2715,-3,-6,-2,1,-1,0,0,-2,13.575000000000001
2716,3,2,-1,1,2,2,3,3,13.58
2717,-20,-8,0,-4,-2,-5,-5,-5,13.585
2718,13,9,-5,-4,-3,-1,-1,0,13.59
2719,-8,8,1,-1,-1,-1,0,-2,13.595
2720,2,-8,0,2,-1,2,-1,-1,13.6
2721,5,0,0,2,1,1,-1,1,13.605
2722,-2,7,0,0,-1,0,1,0,13.61
2723,1,-6,-4,0,-1,0,-2,-1,13.615
2724,-4,4,1,2,-2,0,-1,-1,13.620000000000001
2725,4,8,-1,0,-1,1,2,1,13.625
2726,-7,1,-6,-6,-5,-3,-2,-3,13.63
2727,6,10,3,0,0,0,0,-1,13.635
2728,-5,-3,-1,0,-3,-6,-4,-3,13.64
2729,-2,-7,-5,-2,-3,0,-1,1,13.645
2730,8,10,0,2,3,2,0,1,13.65
2731,-10,-1,-4,-2,-1,1,0,-1,13.655000000000001
2732,0,-16,2,-3,-3,-4,-2,-6,13.66
2733,-3,2,0,-2,-1,-1,-1,-2,13.665000000000001
2734,-6,6,1,-1,-2,-2,-3,-2,13.67
2735,-2,-18,-1,-1,0,2,0,0,13.675
2736,2,-3,-1,0,2,2,0,2,13.68
2737,2,9,-2,1,0,0,0,0,13.685
2738,-2,2,2,-1,1,0,2,-1,13.69
2739,9,16,3,0,-1,-1,-1,0,13.695
2740,-3,-4,-1,1,3,3,1,3,13.700000000000001
2741,4,1,0,1,1,0,0,1,13.705
2742,1,0,2,2,0,0,1,1,13.71
2743,-8,-5,-4,-3,-1,-2,-2,-1,13.715
2744,10,-9,-4,-3,0,1,1,-1,13.72
2745,-8,10,5,1,-2,-3,-4,-3,13.725
2746,-2,-11,-3,-5,-2,-2,-2,-1,13.73
2747,5,0,0,0,-1,-3,-3,-1,13.735
2748,-3,5,0,-2,-2,-3,-4,0,13.74
2749,5,3,-1,0,0,0,-2,1,13.745000000000001
2750,-13,-4,-1,1,0,-1,1,-1,13.75
2751,8,1,3,0,-1,-1,1,1,13.755
2752,-1,-2,4,2,-2,-3,-1,-2,13.76
2753,5,-4,-2,2,4,4,3,2,13.765
2754,0,-2,-5,-5,-3,-2,1,1,13.77
2755,0,3,-3,0,1,-2,0,-2,13.775
2756,-4,4,-3,-2,-2,-1,0,-3,13.780000000000001
2757,0,-5,-3,-3,-3,-2,-1,-2,13.785
2758,0,0,4,1,-1,-1,-1,-1,13.790000000000001
2759,3,8,-2,-2,-1,-2,0,0,13.795
2760,-7,11,2,3,0,0,-1,1,13.8
2761,2,-4,-3,-1,0,-1,-1,-1,13.805
2762,-1,0,-3,-2,-2,1,-2,-2,13.81
2763,-4,-7,1,0,-2,-1,-1,-1,13.815
2764,2,14,4,-3,-3,-3,-2,-2,13.82
2765,-5,-11,-4,-1,0,3,3,3,13.825000000000001
2766,6,0,-2,1,-1,-1,-2,0,13.83
2767,-9,-6,-1,-1,2,1,0,-4,13.835
2768,-4,-7,0,-3,-3,-1,0,-1,13.84
2769,-2,-13,3,-1,-1,0,-1,-2,13.845
2770,-2,1,2,0,0,1,1,-1,13.85
2771,3,1,-3,-1,-2,-2,1,1,13.855
2772,0,-2,0,-1,0,-2,0,1,13.86
2773,2,14,2,-2,-2,-2,-1,1,13.865
2774,0,6,5,1,-2,-4,-3,-1,13.870000000000001
2775,-4,-5,-7,-1,0,-2,0,-2,13.875
2776,-1,-3,-6,-6,-3,-3,-3,-3,13.88
2777,-1,-6,-2,-2,-1,0,0,-1,13.885
2778,-2,-1,1,-3,-4,0,1,1,13.89
2779,-5,1,7,1,-1,-1,-1,0,13.895
2780,9,1,2,1,1,1,-2,0,13.9
2781,-5,-8,-1,-1,-3,-3,-3,-2,13.905000000000001
2782,-4,-5,-2,-2,0,-1,-1,-1,13.91
2783,2,9,0,0,-2,1,0,0,13.915000000000001
2784,2,-4,-3,3,2,2,1,1,13.92
2785,-5,17,7,0,0,-3,-4,-4,13.925
2786,-2,-11,-12,-5,0,2,3,1,13.93
2787,-10,-8,-3,-1,1,-1,-2,-1,13.935
2788,-11,-21,1,0,0,-2,1,-1,13.94
2789,3,0,0,1,0,-3,0,-1,13.945
2790,1,3,2,1,0,-2,0,-2,13.950000000000001
2791,6,0,0,1,-2,1,-1,0,13.955
2792,-5,8,-1,-2,1,2,0,1,13.96
2793,2,-3,-2,-2,-1,-1,-1,-1,13.965
2794,-2,-4,0,-1,0,-2,-2,-1,13.97
2795,10,1,-2,-3,-1,-1,0,0,13.975
2796,-8,11,0,3,-1,-1,-2,-3,13.98
2797,-2,-5,-2,1,4,4,2,2,13.985
2798,4,2,1,-1,-2,1,-2,-1,13.99
2799,-5,4,1,0,-1,0,0,-1,13.995000000000001
2800,2,-11,-4,-2,-1,-3,0,-1,14.0
2801,-1,1,-2,-2,-2,-1,-1,-1,14.005
2802,-4,1,1,2,0,0,1,0,14.01
2803,4,1,3,1,0,-1,-2,0,14.015
2804,2,5,0,-1,-2,-2,2,-2,14.02
2805,-6,-2,-2,-2,-2,-1,-1,0,14.025
2806,3,3,0,0,4,0,0,1,14.030000000000001
2807,-1,-3,-5,-5,-5,-5,-5,-4,14.035
2808,1,-5,-3,1,0,0,-2,-1,14.040000000000001
2809,-1,1,-2,-2,-2,-2,-2,-1,14.045
2810,-7,1,0,1,-1,1,-1,-1,14.05
2811,9,-2,3,1,0,0,2,1,14.055
2812,-10,-6,-2,-4,0,-1,-2,-2,14.06
2813,4,0,-2,0,-1,0,-2,-2,14.065
2814,2,-7,-2,-1,-3,-3,-2,-1,14.07
2815,-4,0,1,-1,-1,0,1,-1,14.075000000000001
2816,2,0,-1,-1,0,-1,0,0,14.08
2817,3,0,-1,0,-2,-3,0,-1,14.085
2818,-4,3,1,-1,-1,1,-1,-1,14.09
2819,0,-8,1,-1,0,2,1,-2,14.095
2820,1,5,-6,2,2,1,0,2,14.1
2821,0,-4,-5,-5,-4,-1,0,-1,14.105
2822,0,-8,1,-1,-2,-3,-3,-2,14.11
2823,-1,1,0,0,-1,0,0,-1,14.115
2824,4,0,4,0,0,-1,0,1,14.120000000000001
2825,-1,0,-4,1,0,-1,-3,0,14.125
2826,-2,-9,-5,-2,-2,0,1,1,14.13
2827,-2,0,0,-1,0,-1,0,0,14.135
2828,4,2,-1,-3,0,0,-2,-1,14.14
2829,3,-4,0,1,0,0,-1,-3,14.145
2830,-8,1,0,0,0,-1,-2,-3,14.15
2831,-4,5,-2,0,0,-1,-1,-1,14.155000000000001
2832,-9,-1,0,2,-2,0,0,-1,14.16
2833,8,9,1,-1,-2,-1,0,-1,14.165000000000001
2834,-1,-2,2,1,-1,0,0,0,14.17
2835,-6,-15,-4,-2,-2,-2,-2,1,14.175
2836,5,-4,-1,-2,-1,-1,-3,-1,14.18
2837,-3,8,0,-4,-1,0,0,2,14.185
2838,6,5,-1,0,-1,-1,-1,0,14.19
2839,-1,-1,0,-1,-1,-1,-1,-1,14.195
2840,-5,-3,-1,-1,-2,-2,0,-2,14.200000000000001
2841,-5,-12,-1,1,1,-1,0,1,14.205
2842,-1,2,1,-2,-1,-1,-1,-1,14.21
2843,0,3,1,0,0,1,-1,-1,14.215
2844,-3,-11,2,-1,-3,-4,-2,0,14.22
2845,11,10,4,4,3,1,0,0,14.225
2846,-4,6,-2,-2,0,-2,2,-1,14.23
2847,0,3,-2,-3,-4,-2,-2,-2,14.235
2848,-8,0,-2,0,1,0,0,-1,14.24
2849,-11,-14,-1,-3,-1,-2,-2,-3,14.245000000000001
2850,4,-8,1,1,-1,0,-2,-1,14.25
2851,1,1,2,1,1,0,-1,-1,14.255
2852,1,3,3,0,-2,0,1,1,14.26
2853,1,-2,-4,-2,-3,-4,-3,-1,14.265
2854,1,1,-1,-2,0,2,1,0,14.27
2855,-4,-9,-4,-3,-2,-2,0,-1,14.275
2856,3,1,-2,0,2,1,0,-1,14.280000000000001
2857,-3,1,1,0,-3,-1,-1,-1,14.285
2858,-3,1,2,2,-1,-3,-1,-1,14.290000000000001
2859,11,6,2,2,-1,-1,-2,-1,14.295
2860,-3,-2,-2,-1,-1,1,0,-1,14.3
2861,-5,-5,0,-1,0,-1,0,-2,14.305
2862,-1,-3,-5,-4,-2,-1,-1,-1,14.31
2863,1,-3,1,-2,-2,-1,0,-1,14.315
2864,6,-6,-5,0,1,0,-1,-1,14.32
2865,-7,-2,-4,-3,0,-1,0,-1,14.325000000000001
2866,8,13,1,-1,-2,0,-1,0,14.33
2867,-6,3,-1,-1,-1,-2,4,0,14.335
2868,-6,-6,0,-4,-2,-3,-3,-4,14.34
2869,2,-6,0,0,0,-1,-1,1,14.345
2870,1,7,5,4,1,-4,-3,-1,14.35
2871,1,-9,-6,-2,1,3,1,0,14.355
2872,-1,5,-4,-2,-4,-1,-1,1,14.36
2873,4,9,0,-2,-1,0,0,0,14.365
2874,-7,8,-4,-1,-1,-1,-2,-3,14.370000000000001
2875,-4,3,-2,-2,-1,-1,-3,-3,14.375
2876,1,2,1,2,-3,-1,-1,-2,14.38
2877,-3,-6,-1,0,-1,0,-1,-1,14.385
2878,2,-4,-1,0,-2,0,-1,-1,14.39
2879,-3,-1,4,0,0,-3,-2,-1,14.395
2880,0,-4,-3,-2,0,1,1,0,14.4
2881,3,2,1,0,1,1,1,0,14.405000000000001
2882,-3,5,-3,-8,-4,3,2,1,14.41
2883,8,7,4,4,3,1,1,0,14.415000000000001
2884,-20,-10,-2,-5,-2,-4,-3,-5,14.42
2885,-4,-9,-5,-4,0,0,-2,-2,14.425
2886,1,-7,1,1,-2,-1,-2,-3,14.43
2887,-1,1,1,0,1,1,-2,0,14.435
2888,8,7,2,2,0,0,2,2,14.44
2889,-3,5,1,1,-2,-1,0,-1,14.445
2890,-6,-9,-5,-1,1,0,-1,-1,14.450000000000001
2891,5,5,-1,1,0,0,0,0,14.455
2892,-2,-26,1,0,1,0,1,1,14.46
2893,-6,-15,-3,1,0,1,-1,-1,14.465
2894,6,8,7,1,-1,-3,-1,0,14.47
2895,-6,-17,-8,-4,0,1,0,-1,14.475
2896,2,19,0,-2,-2,0,-1,1,14.48
2897,7,-2,-1,-2,-2,-5,-2,-3,14.485
2898,-22,-10,-3,-3,-1,-3,-2,-2,14.49
2899,-2,-11,5,-3,-1,-4,-2,-3,14.495000000000001
2900,-3,3,4,0,0,-1,-1,0,14.5
2901,3,2,1,4,2,2,3,3,14.505
2902,9,3,-3,3,1,1,1,0,14.51
2903,-4,6,2,1,-1,-1,-1,0,14.515
2904,5,10,-2,0,-1,0,0,0,14.52
2905,-3,0,-5,-3,-2,-2,-3,-4,14.525
2906,1,-3,-5,-4,-2,-1,-1,-2,14.530000000000001
2907,-3,0,7,3,3,3,2,2,14.535
2908,4,-1,-4,-3,0,0,-1,-1,14.540000000000001
2909,-4,3,-1,0,-1,-2,0,-2,14.545
2910,-7,-6,2,1,-1,1,1,1,14.55
2911,10,-15,1,0,-3,-3,-3,-2,14.555
2912,8,7,3,0,-1,-1,0,-2,14.56
2913,-6,5,-1,0,-1,-1,-1,-1,14.565
2914,-6,-9,-1,1,3,0,0,2,14.57
2915,-1,3,-2,-1,-1,-1,0,0,14.575000000000001
2916,-1,2,0,0,0,0,0,0,14.58
2917,1,-7,-4,-2,-1,1,-1,0,14.585
2918,6,7,-1,0,-1,-3,0,-3,14.59
2919,-7,-7,-4,-1,0,0,-1,-2,14.595
2920,-2,-8,-3,-2,-3,-2,-1,-1,14.6
2921,-1,8,-1,3,1,-1,1,0,14.605
2922,3,-3,0,2,1,0,-2,1,14.61
2923,4,8,1,-3,-1,-2,1,-2,14.615
2924,-13,0,1,1,1,0,-3,-3,14.620000000000001
2925,-3,-3,3,-2,-2,-2,-2,0,14.625
2926,8,2,-1,-1,-2,-3,-3,-1,14.63
2927,-5,-5,-4,-2,-3,0,-1,-1,14.635
2928,4,3,-5,1,-1,0,1,0,14.64
2929,1,5,1,0,-2,1,2,0,14.645
2930,-4,-2,-7,-1,-1,0,-1,-3,14.65
2931,2,14,0,-1,-2,1,1,0,14.655000000000001
2932,12,6,1,0,0,0,-2,-1,14.66
2933,-17,-9,-3,-3,-2,-3,-1,-2,14.665000000000001
2934,10,0,3,-3,-2,-2,-1,-2,14.67
2935,-6,-1,-3,-3,-2,-1,-2,-1,14.675
2936,-1,-2,0,-1,-1,-2,-1,-1,14.68
2937,7,10,0,0,0,-1,-1,1,14.685
2938,-2,-4,0,-3,-2,0,0,-1,14.69
2939,-2,-1,-2,1,3,0,0,-1,14.695
2940,-1,-1,-4,-3,-3,-2,-2,-1,14.700000000000001
2941,-2,-7,1,-1,-1,-1,-2,-3,14.705
2942,-15,-23,4,3,2,2,1,1,14.71
2943,1,-3,-3,-2,-3,-3,-2,-2,14.715
2944,-1,-6,-1,-1,0,-1,1,-1,14.72
2945,6,6,2,1,1,1,1,0,14.725
2946,-6,7,-2,-1,-1,-2,0,-1,14.73
2947,-10,2,1,0,-3,1,-1,0,14.735
2948,2,-11,-3,-4,-2,-2,-2,-2,14.74
2949,10,-1,-3,-2,0,-2,-1,-1,14.745000000000001
2950,-5,0,-2,-2,-1,-1,1,-1,14.75
2951,3,12,-1,-1,0,-2,-1,0,14.755
2952,-5,3,0,0,0,-2,0,-1,14.76
2953,2,-5,-2,-2,1,0,-1,-1,14.765
2954,1,-6,-4,-2,-1,-2,-2,-4,14.77
2955,-5,-4,-1,0,0,-2,-1,-2,14.775
2956,5,5,0,1,-2,-1,0,0,14.780000000000001
2957,-11,-13,1,-1,-3,1,0,1,14.785
2958,-3,-8,1,-1,-1,-3,-3,-1,14.790000000000001
2959,0,-3,-2,-3,-2,-1,0,-1,14.795
2960,-1,-5,1,0,1,0,-1,-1,14.8
2961,0,-15,-1,0,0,0,0,0,14.805
2962,8,13,-3,-1,-1,1,-1,3,14.81
2963,-7,-3,-1,1,-1,1,-1,-1,14.815
2964,-4,-6,-1,-2,-2,-3,-4,-3,14.82
2965,-4,5,-4,-2,-2,-1,-2,-2,14.825000000000001
2966,-2,2,1,2,1,1,0,0,14.83
2967,3,3,3,-2,1,-1,1,-1,14.835
2968,-3,-1,-3,-2,-2,-1,1,-1,14.84
2969,-2,11,1,0,-2,-1,-3,-1,14.845
2970,6,0,-1,-4,-2,-2,-1,-2,14.85
2971,-6,-2,-2,-1,-2,-1,-3,-3,14.855
2972,-6,-8,1,1,2,2,2,1,14.86
2973,0,-7,-4,-2,-2,0,0,-1,14.865
2974,2,-2,1,0,-1,0,-2,-2,14.870000000000001
2975,-3,13,-1,1,-1,0,0,1,14.875
2976,13,-4,-3,-3,-3,-2,-4,0,14.88
2977,-5,-4,-1,-1,0,-3,-4,-2,14.885
2978,1,0,1,-1,-3,-1,0,1,14.89
2979,2,-2,-4,-3,-3,-2,0,1,14.895
2980,-5,4,1,2,0,1,0,0,14.9
2981,3,11,-1,-3,-1,1,0,0,14.905000000000001
2982,-7,-1,-2,-2,-1,-1,-1,-2,14.91
2983,1,-3,5,-2,-1,-1,-1,0,14.915000000000001
2984,-7,-1,0,-1,-2,-2,-2,-2,14.92
2985,8,2,-1,1,1,1,2,1,14.925
2986,-3,0,4,-1,-2,-1,-2,-2,14.93
2987,11,10,-1,-2,-1,-1,-3,-1,14.935
2988,-1,-2,-4,-3,-3,-2,-2,0,14.94
2989,-6,-9,2,2,-1,1,1,0,14.945
2990,-2,1,-4,-1,2,1,1,0,14.950000000000001
2991,11,-5,1,0,-1,0,1,0,14.955
2992,-14,-14,2,1,1,1,0,0,14.96
2993,-3,2,2,1,-1,-4,-2,-2,14.965
2994,3,-8,-4,0,1,0,-1,0,14.97
2995,1,-5,-3,-1,-1,1,0,-1,14.975
2996,-12,10,3,-1,-3,-2,-2,-2,14.98
2997,2,-5,-2,-4,-2,-3,-2,-2,14.985
2998,-5,-3,0,3,0,0,-3,-1,14.99
2999,-3,-3,-3,1,1,0,-1,-2,14.995000000000001
3000,8,1,-4,-2,0,0,1,-2,15.0
3001,-1,2,-1,1,-3,-1,-1,0,15.005
3002,-3,-7,2,3,-1,-2,0,0,15.01
3003,-3,-3,0,1,0,1,0,4,15.015
3004,-1,22,-1,-2,-2,-1,-2,-3,15.02
3005,-7,-3,-3,-3,0,-1,-1,-2,15.025
3006,4,9,4,1,-1,0,-2,-1,15.030000000000001
3007,-4,2,-14,-1,-1,1,1,-1,15.035
3008,5,-1,-6,0,-1,-1,0,1,15.040000000000001
3009,3,-5,-4,1,2,3,2,2,15.045
3010,-3,0,9,2,3,2,2,1,15.05
3011,-9,-3,5,-4,-3,-5,-4,-5,15.055
3012,0,-3,0,-3,-4,-1,-1,0,15.06
3013,2,4,5,1,-2,-2,-1,0,15.065
3014,1,-4,-4,1,0,-1,1,0,15.07
3015,2,-5,4,0,0,-1,0,1,15.075000000000001
3016,1,0,4,-1,0,-1,0,1,15.08
3017,5,13,3,2,-1,-2,-2,-1,15.085
3018,-4,-3,1,-2,-2,-2,-1,0,15.09
3019,3,-1,-4,-4,-3,0,-1,-1,15.095
3020,-9,-12,-2,-1,0,-2,2,-1,15.1
3021,4,1,-6,-4,-3,0,0,-1,15.105
3022,-5,3,-2,-3,-2,-2,0,-2,15.11
3023,-5,-2,1,1,-2,1,-2,-1,15.115
3024,-1,-15,-2,-2,-1,0,0,-1,15.120000000000001
3025,-1,5,-4,-2,-2,0,-1,-3,15.125
3026,5,5,-2,0,1,2,-2,-1,15.13
3027,-2,-1,3,0,-3,-2,0,0,15.135
3028,4,5,-1,-2,-1,-1,-2,-2,15.14
3029,-17,-6,-1,-1,1,-1,-1,-3,15.145
3030,1,-6,-6,-5,-3,-2,-3,-1,15.15
3031,-4,0,-4,-4,-1,-1,-1,-1,15.155000000000001
3032,6,-5,-1,3,2,4,2,2,15.16
3033,0,-7,-3,-3,-1,0,-2,-1,15.165000000000001
3034,-1,-14,4,1,0,1,-1,1,15.17
3035,0,-6,2,2,1,-2,-2,-1,15.175
3036,2,14,0,-1,0,-1,-1,1,15.18
3037,-2,-7,-8,-1,-1,-1,0,1,15.185
3038,0,2,-3,-2,-1,0,1,-1,15.19
3039,1,-1,0,0,0,-1,0,0,15.195
3040,2,-9,1,1,-2,-1,0,-2,15.200000000000001
3041,5,7,2,-2,-3,-3,-1,-3,15.205
3042,0,3,-4,0,-2,-4,-2,-2,15.21
3043,-1,0,2,0,-1,-1,1,0,15.215
3044,-5,3,-5,-2,-2,-1,-1,-1,15.22
3045,4,-2,1,0,-1,0,0,1,15.225
3046,-3,-2,-1,-1,-1,-1,-1,-2,15.23
3047,10,2,1,0,1,-1,-2,-1,15.235
3048,-6,4,-3,-1,-2,-2,-1,-2,15.24
3049,-7,-4,-2,-3,-1,0,-1,0,15.245000000000001
3050,-1,-3,-1,-2,0,-2,-1,-3,15.25
3051,2,5,4,2,0,0,0,1,15.255
3052,6,-2,2,1,-1,0,-1,-3,15.26
3053,0,1,0,-3,-3,-3,0,0,15.265
3054,1,-1,-6,-3,-2,2,2,2,15.27
3055,-5,4,0,-2,-1,-1,-2,0,15.275
3056,4,0,0,1,1,-1,0,0,15.280000000000001
3057,-10,-13,1,1,0,0,0,-1,15.285
3058,0,0,-1,-1,-4,-3,-1,-1,15.290000000000001
3059,-2,-3,1,-1,-3,-2,-1,-3,15.295
3060,2,-1,-4,-1,0,0,0,2,15.3
3061,3,9,2,-1,-2,-1,0,1,15.305
3062,6,2,0,-1,-1,0,-1,0,15.31
3063,-15,-25,-2,-1,-2,1,-1,-1,15.315
3064,-5,-7,0,-1,2,-1,-1,-1,15.32
3065,5,-1,0,-1,-2,-1,-3,-2,15.325000000000001
3066,-8,-6,2,-3,-4,-3,-2,-2,15.33
3067,2,9,0,2,2,1,1,-1,15.335
3068,-5,8,-2,-1,-1,1,-1,-2,15.34
3069,0,-6,-2,-1,-1,-1,-2,-1,15.345
3070,7,7,5,4,1,-1,0,-1,15.35
3071,-9,-11,1,-2,-2,-1,-1,0,15.355
3072,-2,0,0,0,-3,-3,-2,-3,15.36
3073,4,7,0,2,3,0,2,3,15.365
3074,-1,2,-3,0,-2,0,-1,0,15.370000000000001
3075,-5,-4,-6,-4,-2,-1,0,-2,15.375
3076,9,-3,-1,-2,-1,-1,0,-1,15.38
3077,-1,-8,-2,-1,0,2,-1,-2,15.385
3078,5,6,2,0,0,-2,0,0,15.39
3079,-6,-2,0,2,2,2,1,-1,15.395
3080,9,-1,-5,-4,-1,-1,-1,0,15.4
3081,-3,0,-1,-2,-1,0,-1,-1,15.405000000000001
3082,-2,4,1,0,1,0,-1,1,15.41
3083,7,3,-6,-4,-3,-2,-2,-2,15.415000000000001
3084,-3,-1,4,-1,0,-1,1,0,15.42
3085,3,11,2,0,0,-2,-1,-1,15.425
3086,-3,-4,-3,-1,0,0,0,-2,15.43
3087,1,4,2,0,-1,-1,-1,0,15.435
3088,-4,0,-1,0,-2,-1,-3,0,15.44
3089,-2,3,1,-2,-3,-2,1,-1,15.445
3090,-4,-8,-2,-3,-3,0,-3,-2,15.450000000000001
3091,4,4,-1,0,0,1,-1,-1,15.455
3092,-6,0,-3,0,-1,0,-1,1,15.46
3093,0,1,-1,0,-1,0,-2,-1,15.465
3094,-6,-3,-5,-3,-4,-1,-1,-1,15.47
3095,10,9,0,1,0,-1,1,0,15.475
3096,-16,-6,0,-2,0,-2,-2,-3,15.48
3097,-1,-3,3,1,0,-1,-3,0,15.485000000000001
3098,0,-3,-1,-2,0,1,-1,-2,15.49
3099,-1,-26,0,0,0,0,0,0,15.495000000000001
3100,1,7,-6,-2,-3,-2,-2,-2,15.5
3101,3,-9,-8,-4,-5,-4,-2,-2,15.505
3102,3,9,3,3,1,0,-1,2,15.51
3103,1,-4,-6,-4,-1,-1,-3,-1,15.515
3104,-1,-2,-3,-1,-1,0,1,0,15.52
3105,-14,-15,0,0,0,0,2,-2,15.525
3106,10,3,-2,0,-1,0,-1,1,15.530000000000001
3107,1,15,3,-2,-2,-3,-4,0,15.535
3108,0,-1,-1,2,0,0,2,-2,15.540000000000001
3109,-4,2,-6,-2,-2,0,-3,-2,15.545
3110,2,4,-2,-1,0,-1,1,0,15.55
3111,-8,0,-2,-1,-1,-3,3,-3,15.555
3112,0,4,5,-1,-2,0,-3,1,15.56
3113,6,0,0,1,0,1,0,0,15.565
3114,-9,4,8,-1,-3,-3,-1,-3,15.57
3115,10,37,-1,1,0,-2,-3,0,15.575000000000001
3116,-7,-4,-3,-1,-1,-2,2,-1,15.58
3117,5,3,-3,2,2,3,2,2,15.585
3118,2,-10,-6,-6,-3,-6,-4,-6,15.59
3119,-10,-8,0,-1,0,-1,1,1,15.595
3120,7,-3,5,0,-1,0,-2,-2,15.6
3121,-7,2,-4,-4,-2,-3,-2,-1,15.605
3122,6,2,-3,0,2,3,1,1,15.610000000000001
3123,-1,-4,6,3,-1,1,0,-1,15.615
3124,-15,-13,-8,1,3,3,2,1,15.620000000000001
3125,4,-15,1,-4,-2,-3,-2,-1,15.625
3126,1,20,17,11,1,-4,-1,0,15.63
3127,-3,-13,-17,-5,-5,-2,-3,-3,15.635
3128,9,31,15,-9,-1,-2,-2,1,15.64
3129,1,-3,-15,-2,1,3,2,0,15.645
3130,-8,5,9,2,1,3,2,0,15.65
3131,-3,-18,-1,-8,-3,-1,-1,-4,15.655000000000001
3132,1,5,16,25,4,-2,-2,-2,15.66
3133,-9,21,-5,-4,-1,2,2,2,15.665000000000001
3134,-4,-10,-11,-21,-5,-4,-4,-3,15.67
3135,-4,-10,-1,-7,0,-3,0,1,15.675
3136,-5,-17,-10,10,0,5,3,0,15.68
3137,4,-38,17,-14,-1,-1,-1,-4,15.685
3138,-8,-13,-12,4,0,-1,2,4,15.69
3139,6,8,-8,-4,-3,-1,-2,5,15.695
3140,-9,-2,6,-6,-3,-4,-5,-8,15.700000000000001
3141,-5,15,-11,5,1,1,3,4,15.705
3142,3,13,3,7,-1,-1,-2,-7,15.71
3143,-11,-2,-1,-4,2,3,1,0,15.715
3144,7,-22,56,24,6,-2,-5,4,15.72
3145,-5,-40,-78,-19,-15,-9,-6,-10,15.725
3146,-13,-9,-5,-20,-5,-6,-4,2,15.73
3147,9,0,27,7,3,2,2,-2,15.735000000000001
3148,3,20,7,-3,-6,-1,-2,5,15.74
3149,-6,23,35,12,8,3,-1,-13,15.745000000000001
3150,3,-23,-13,1,-2,0,-3,5,15.75
3151,-4,29,-9,7,1,0,0,-2,15.755
3152,1,17,-3,8,2,0,4,-1,15.76
3153,6,-3,0,-28,-1,-2,4,20,15.765
3154,-3,12,-11,-11,-3,3,5,8,15.77
3155,33,53,-3,12,2,-2,-7,-15,15.775
3156,-18,-8,-30,-18,-4,-3,-1,14,15.780000000000001
3157,13,4,21,22,4,-1,-10,-29,15.785
3158,-12,2,13,9,7,5,3,-5,15.790000000000001
3159,2,-7,24,19,-1,0,2,6,15.795
3160,16,-11,-45,-59,-14,-7,-3,-6,15.8
3161,20,-10,-6,4,1,2,6,30,15.805
3162,-14,21,-2,-10,-4,3,-2,-14,15.81
3163,-12,13,8,19,3,-4,-4,-1,15.815
3164,18,2,-16,9,5,3,0,-9,15.82
3165,3,7,32,6,4,-2,-1,10,15.825000000000001
3166,9,-29,-31,6,1,-4,-4,-17,15.83
3167,-40,-24,-34,-37,-6,2,3,8,15.835
3168,35,19,24,5,3,4,6,13,15.84
3169,-21,-10,7,11,0,-4,-9,-9,15.845
3170,12,-21,19,25,7,5,5,18,15.85
3171,-22,-27,-4,-11,-3,4,3,-14,15.855
3172,18,9,-20,16,-3,-5,-7,0,15.860000000000001
3173,-26,47,17,7,-2,-2,0,-15,15.865
3174,3,32,-9,-34,-6,-7,-4,-9,15.870000000000001
3175,3,-7,-11,-8,-4,-2,1,10,15.875
3176,23,12,17,13,2,0,3,17,15.88
3177,1,10,0,24,-6,-2,3,4,15.885
3178,-18,-24,5,-24,-4,1,-1,1,15.89
3179,-12,-14,-16,-8,-7,-7,-9,-25,15.895
3180,0,13,4,-10,2,0,-4,-7,15.9
3181,13,-3,23,30,10,6,5,10,15.905000000000001
3182,-6,-24,-31,-45,-12,-7,-5,5,15.91
3183,8,12,-3,-1,0,-1,5,10,15.915000000000001
3184,-5,5,-3,8,-2,-3,-2,-8,15.92
3185,-8,-8,-16,-58,-12,-7,-10,-10,15.925
3186,6,-2,18,30,9,6,6,10,15.93
3187,10,19,6,25,3,-1,-4,-3,15.935
3188,-22,-24,-11,-40,-1,-1,-1,-3,15.94
3189,6,19,1,19,8,5,4,-1,15.945
3190,-20,-32,2,6,1,-2,-3,-5,15.950000000000001
3191,35,-31,6,13,2,-1,1,23,15.955
3192,-34,-19,-7,-21,-1,1,-2,-22,15.96
3193,3,14,19,26,3,2,1,1,15.965
3194,32,17,-26,-34,-6,-5,-2,26,15.97
3195,-41,10,36,19,3,2,-6,-38,15.975
3196,-12,3,-14,-18,-6,-6,1,-9,15.98
3197,-2,-24,-37,-22,-6,-2,-3,-13,15.985000000000001
3198,17,18,18,36,1,0,-3,4,15.99
3199,-22,-9,-5,-15,0,-1,-4,6,15.995000000000001
3200,13,8,1,6,1,5,3,4,16.0
3201,5,-5,-17,-21,-8,-2,1,12,16.005
3202,-12,-9,4,13,-1,0,-1,-5,16.01
3203,30,-13,31,20,7,0,-1,-8,16.015
3204,7,-28,-20,-21,-8,-8,-10,-4,16.02
3205,-21,-8,-7,-9,1,-2,-1,2,16.025
3206,-2,4,11,7,0,2,2,-3,16.03
3207,23,43,21,12,3,2,3,1,16.035
3208,-29,-12,8,-2,0,0,0,1,16.04
3209,4,-34,-22,-17,-10,-4,-3,-6,16.045
3210,2,-10,-19,-6,1,2,2,-7,16.05
3211,-18,-1,4,-8,-1,0,2,3,16.055
3212,12,-3,-12,23,1,-2,-4,6,16.06
3213,5,7,0,-7,0,2,3,9,16.065
3214,-22,23,36,21,0,-8,-15,-14,16.07
3215,19,-10,-4,8,1,2,4,4,16.075
3216,-5,-11,-40,-11,-5,0,8,9,16.080000000000002
3217,17,2,5,-5,-4,-2,-6,9,16.085
3218,-8,-33,8,4,-4,-7,-6,-20,16.09
3219,3,16,-17,-23,-2,2,-1,0,16.095
3220,-12,-8,17,15,2,2,0,3,16.1
3221,8,6,16,23,5,-3,-11,5,16.105
3222,22,-2,-9,-6,-3,4,10,4,16.11
3223,-14,-25,-25,-43,-18,-10,2,10,16.115000000000002
3224,-12,-5,19,22,4,4,1,-4,16.12
3225,-5,-6,-20,-24,-12,-11,-8,-9,16.125
3226,4,24,20,19,2,-1,-7,1,16.13
3227,-9,-24,-25,-5,-4,-2,-1,2,16.135
3228,7,9,16,9,0,0,-1,-6,16.14
3229,-8,18,10,15,8,1,-1,-9,16.145
3230,25,2,-16,-2,2,2,8,8,16.15
3231,-13,-12,-9,-2,1,3,-1,11,16.155
3232,29,13,17,4,-6,-6,-10,-12,16.16
3233,-21,-3,5,-1,3,-3,-3,-5,16.165
3234,5,49,27,15,4,0,7,27,16.17
3235,-40,-28,-62,-24,-15,-18,-7,-30,16.175
3236,4,-43,4,-8,5,6,0,16,16.18
3237,2,7,9,6,6,5,5,-19,16.185
3238,-3,-15,21,20,-2,-1,-7,-10,16.19
3239,2,-8,1,-18,0,1,-4,3,16.195
3240,-7,19,-14,-2,0,-2,5,-1,16.2
3241,-2,1,13,-13,-1,-4,6,-1,16.205000000000002
3242,17,-27,10,8,4,8,4,12,16.21
3243,-2,19,10,-14,4,2,-5,0,16.215
3244,-12,-24,-56,-44,-9,-4,-6,-20,16.22
3245,-9,9,18,2,-2,3,0,-18,16.225
3246,-23,4,-7,-6,-3,-3,6,11,16.23
3247,58,-34,5,-23,1,-2,5,42,16.235
3248,-45,-24,-24,-11,-5,0,-9,-25,16.240000000000002
3249,-18,-20,32,18,0,1,-1,1,16.245
3250,10,0,6,40,9,9,10,-1,16.25
3251,-14,2,6,-4,1,2,-1,-29,16.255
3252,17,15,6,6,-3,-8,0,33,16.26
3253,10,-21,-18,-3,0,3,2,-2,16.265
3254,13,2,8,22,2,0,13,10,16.27
3255,-16,23,16,10,-3,-1,-13,-18,16.275
3256,-12,3,16,14,5,4,1,-6,16.28
3257,25,28,2,13,-1,3,7,6,16.285
3258,-34,-12,-22,-32,-7,-5,-12,-3,16.29
3259,0,20,3,33,0,3,9,9,16.295
3260,9,-14,-3,-31,-5,-5,2,-2,16.3
3261,-4,-63,-14,7,-3,-3,0,5,16.305
3262,-5,-12,12,13,2,2,-5,-13,16.31
3263,-3,-4,-15,-43,-6,-5,-4,-9,16.315
3264,11,78,16,47,6,3,7,2,16.32
3265,9,20,28,12,6,2,-4,14,16.325
3266,27,-13,-35,-52,-9,-9,-11,-10,16.330000000000002
3267,-21,-7,4,18,4,5,5,8,16.335
3268,12,5,40,32,6,4,3,-4,16.34
3269,-30,-16,-33,-72,-5,-3,1,7,16.345
3270,0,20,-4,-7,-3,-8,-5,-14,16.35
3271,20,29,32,28,5,2,-4,4,16.355
3272,-9,-12,9,0,-3,-2,6,-3,16.36
3273,23,-11,-34,18,1,-2,-2,-37,16.365000000000002
3274,-27,-29,-12,-16,-7,-6,5,43,16.37
3275,17,-8,14,7,4,-3,-10,2,16.375
3276,-12,-4,26,21,3,4,-3,7,16.38
3277,-20,-21,-16,9,-3,-3,-11,-9,16.385
3278,21,-6,-13,-14,-5,-1,-3,-26,16.39
3279,11,19,7,12,3,3,6,3,16.395
3280,-6,-19,-13,-6,-1,1,0,2,16.4
3281,8,23,18,44,3,0,7,4,16.405
3282,13,2,-18,-39,0,2,-4,9,16.41
3283,-16,-3,-7,-14,-7,-5,1,-12,16.415
3284,-9,-12,6,10,3,0,-6,-1,16.42
3285,1,-4,15,12,-3,0,6,17,16.425
3286,3,-14,-14,-14,-2,0,-3,-8,16.43
3287,6,-10,5,10,1,-1,-2,-5,16.435
3288,5,16,-7,4,1,-2,4,7,16.44
3289,-1,-2,-21,-24,-6,-3,-4,-8,16.445
3290,4,47,29,12,2,1,-1,-4,16.45
3291,-11,-5,-13,-10,-3,2,7,6,16.455000000000002
3292,2,-16,-12,-1,-5,-6,-8,1,16.46
3293,7,-12,-7,-24,-6,-7,-16,-13,16.465
3294,-14,3,14,12,2,0,-12,-20,16.47
3295,23,16,-23,-12,-4,-2,13,15,16.475
3296,7,1,9,5,-3,-2,-3,5,16.48
3297,-16,16,24,4,4,2,4,12,16.485
3298,-14,4,-41,-55,-11,-7,-2,3,16.490000000000002
3299,18,4,14,15,0,0,2,-10,16.495
3300,-5,44,-10,-3,-1,1,4,2,16.5
3301,9,-9,-15,7,0,0,0,8,16.505
3302,-23,-12,16,25,3,3,2,-13,16.51
3303,0,-26,2,5,-1,1,-1,5,16.515
3304,10,-12,-9,-13,-2,-5,-4,-4,16.52
3305,-17,11,16,6,6,2,2,2,16.525
3306,6,-2,-9,3,0,0,1,-3,16.53
3307,-7,-12,-9,-2,-1,0,-3,0,16.535
3308,2,9,12,2,2,-1,-3,-5,16.54
3309,-2,4,4,8,0,0,3,2,16.545
3310,-1,-8,-3,7,-2,-4,-2,5,16.55
3311,0,9,-5,-3,2,2,-5,1,16.555
3312,-6,4,-1,0,3,4,4,-3,16.56
3313,6,8,6,9,4,6,5,6,16.565
3314,12,-5,-12,-43,-8,-6,-2,-8,16.57
3315,-5,-11,4,10,2,2,-1,1,16.575
3316,8,-3,-4,-6,-5,-4,-3,-6,16.580000000000002
3317,2,6,4,-3,0,1,0,6,16.585
3318,-10,-7,14,27,4,0,1,-4,16.59
3319,3,1,-3,-10,-5,-3,0,-4,16.595
3320,-2,-5,-1,-20,-5,-2,0,0,16.6
3321,-10,3,-19,-15,-8,-1,0,-1,16.605
3322,17,6,14,16,7,5,3,0,16.61
3323,-9,2,3,-1,-6,-5,-4,-1,16.615000000000002
3324,-11,-18,7,3,6,2,1,0,16.62
3325,9,5,3,-2,-7,-9,-7,-3,16.625
3326,-11,-3,-13,-9,-2,2,1,0,16.63
3327,-1,-2,-4,2,-3,-1,-1,-3,16.635
3328,-6,-13,-3,-1,-1,3,0,0,16.64
3329,11,9,1,-6,0,1,1,3,16.645
3330,-9,-17,7,11,-3,-6,-4,-4,16.65
3331,0,-10,-1,2,1,-1,-3,-2,16.655
3332,-8,-5,-8,-6,-4,-4,-3,-3,16.66
3333,1,3,-5,-2,0,0,1,-1,16.665
3334,-6,-1,-1,8,2,3,0,-5,16.67
3335,-4,4,4,0,-1,0,-1,4,16.675
3336,15,24,1,0,0,0,0,0,16.68
3337,4,-12,-2,1,2,2,1,1,16.685
3338,-4,-14,9,6,-2,-3,-1,-1,16.69
3339,-5,1,-10,-12,-4,-4,-1,-3,16.695
3340,9,-11,-9,-5,-1,-1,-2,-1,16.7
3341,-1,3,0,-7,-2,-2,-2,-1,16.705000000000002
3342,-4,2,4,7,3,-1,1,0,16.71
3343,-3,-3,4,6,0,-2,-1,-1,16.715
3344,3,5,3,0,3,3,1,0,16.72
3345,0,-5,2,-4,-1,-3,-2,-2,16.725
3346,-3,1,4,5,-1,1,-2,-1,16.73
3347,-2,-3,-8,-6,-1,-1,-2,-1,16.735
3348,9,-21,-9,0,0,-1,0,0,16.740000000000002
3349,-16,5,-4,-2,-1,-3,-4,-2,16.745
3350,1,16,5,3,1,-2,-1,1,16.75
3351,0,2,10,9,2,1,1,1,16.755
3352,-5,-11,3,-8,-1,2,-2,-4,16.76
3353,6,4,-7,6,1,3,0,-3,16.765
3354,0,5,-4,-1,-1,-3,-1,2,16.77
3355,0,5,8,-6,-3,-4,0,4,16.775
3356,-6,-3,2,-1,-2,-5,-2,-1,16.78
3357,5,-5,6,14,0,-1,1,1,16.785
3358,-11,0,-5,-25,-2,0,-3,-7,16.79
3359,-3,-6,-4,5,3,0,-1,-4,16.795
3360,-6,8,-9,-6,-2,-1,-1,1,16.8
3361,6,14,3,-5,-5,-5,-5,-3,16.805
3362,3,16,8,10,4,4,2,3,16.81
3363,-1,-11,1,-2,-1,-1,-3,-3,16.815
3364,-8,6,-5,-3,-4,-2,-1,-2,16.82
3365,8,-8,-8,-1,1,1,1,1,16.825
3366,-6,3,-6,1,-2,0,0,-3,16.830000000000002
3367,-6,8,3,-4,-3,-2,0,0,16.835
3368,-7,-11,3,6,-1,0,-3,-2,16.84
3369,4,7,0,-6,0,1,2,2,16.845
3370,7,5,-4,1,1,-1,-2,0,16.85
3371,3,-6,-7,1,1,1,5,2,16.855
3372,-8,-7,2,-3,-3,-2,-3,-3,16.86
3373,-3,0,6,-7,-1,0,0,3,16.865000000000002
3374,-2,-13,3,0,-4,0,1,-1,16.87
3375,-3,-5,0,5,2,0,-4,-3,16.875
3376,13,7,1,0,0,1,3,3,16.88
3377,-20,-8,0,-4,-3,-2,0,-2,16.885
3378,0,-8,-1,1,-2,-2,-2,-2,16.89
3379,5,-4,-2,-3,-2,-2,-2,-2,16.895
3380,1,-3,-4,-7,-3,-3,0,-2,16.9
3381,-1,2,3,1,1,1,0,0,16.905
3382,-2,-17,0,3,0,-1,2,3,16.91
3383,1,-24,-6,-1,0,3,0,-2,16.915
3384,-1,11,-6,1,2,3,3,2,16.92
3385,-13,-14,-5,-1,-1,-1,-3,-3,16.925
3386,1,1,3,-2,-2,-4,-2,0,16.93
3387,3,11,-1,-2,-2,-1,0,0,16.935
3388,-6,4,-4,1,2,2,2,2,16.94
3389,0,4,-1,-3,-3,-2,-4,-2,16.945
3390,0,1,-1,4,2,3,4,3,16.95
3391,9,-4,-2,0,-2,-3,-4,-2,16.955000000000002
3392,1,1,-2,-2,-2,-2,-5,-3,16.96
3393,6,11,-4,-2,2,0,0,1,16.965
3394,-2,-5,-3,-2,-1,0,0,-2,16.97
3395,-12,2,-3,-1,-1,-2,-1,-1,16.975
3396,-2,-4,6,1,-3,-5,-3,-2,16.98
3397,3,-10,-1,-3,-1,1,1,-2,16.985
3398,5,5,0,-2,-2,-1,-1,-1,16.990000000000002
3399,0,3,-1,0,0,3,0,0,16.995
3400,-3,-4,-2,-2,-2,-2,-1,-2,17.0
3401,-5,-2,1,-2,-3,-3,-1,-1,17.005
3402,8,6,1,2,0,0,0,3,17.01
3403,-4,-4,0,1,-2,-1,1,-3,17.015
3404,-9,-9,1,-4,-3,-4,-5,-5,17.02
3405,1,3,3,-2,-5,-6,-3,0,17.025
3406,4,-14,-3,1,1,0,1,0,17.03
3407,-14,-2,-2,0,0,1,2,-3,17.035
3408,2,9,-3,1,-2,2,2,3,17.04
3409,4,10,0,-1,0,-1,0,-2,17.045
3410,-4,3,2,-1,-4,-2,-2,0,17.05
3411,6,4,-5,-4,-2,-3,-5,-2,17.055
3412,4,-1,1,-1,0,0,-1,0,17.06
3413,-8,8,-1,-1,0,-1,-2,-1,17.065
3414,-5,-3,0,-3,-1,0,-1,-4,17.07
3415,11,-1,1,0,0,3,0,1,17.075
3416,-10,3,0,0,0,0,-1,-2,17.080000000000002
3417,17,-5,-2,-4,-2,-3,-2,-3,17.085
3418,-7,-3,1,-1,1,1,0,-1,17.09
3419,0,0,-5,-1,0,0,0,0,17.095
3420,2,-6,-6,-2,-1,-1,-1,-1,17.1
3421,0,1,-3,2,3,2,2,1,17.105
3422,-10,6,0,-1,-1,-3,-2,-1,17.11
3423,6,5,4,0,-2,-4,-4,-1,17.115000000000002
3424,1,8,-1,0,0,-3,-2,-1,17.12
3425,-7,-4,0,-1,0,3,0,-2,17.125
3426,9,6,-1,0,1,2,2,0,17.13
3427,-7,-2,0,-2,-3,-3,-1,0,17.135
3428,-7,-7,4,0,-2,-4,-2,-4,17.14
3429,8,-8,0,-2,-3,-3,-2,-2,17.145
3430,-9,6,-2,0,-1,-1,0,-2,17.150000000000002
3431,1,1,0,1,1,-2,-3,0,17.155
3432,-8,6,3,2,1,3,1,-4,17.16
3433,-3,-17,-12,-5,-2,-1,1,3,17.165
3434,15,-9,-2,-3,-1,0,2,-1,17.17
3435,-13,-22,0,-1,-2,-1,-2,-3,17.175
3436,4,1,-2,-2,-1,-1,1,2,17.18
3437,-10,-3,3,4,-1,0,-2,-2,17.185
3438,-1,-4,0,0,0,0,-3,-1,17.19
3439,5,9,2,0,0,0,1,2,17.195
3440,12,3,0,-1,0,2,0,2,17.2
3441,-15,-34,1,-2,-2,-2,-2,-3,17.205000000000002
3442,8,-4,-5,-5,-4,-4,-3,-1,17.21
3443,-2,2,4,0,2,2,3,-2,17.215
3444,6,-7,3,-1,-1,-2,-1,0,17.22
3445,-9,-4,-2,-1,1,1,1,0,17.225
3446,-4,-13,2,3,-1,-1,0,-2,17.23
3447,-9,-3,-4,-2,-1,-4,-2,-1,17.235
3448,7,-4,-3,0,0,-2,0,0,17.240000000000002
3449,3,10,3,-2,-1,-3,-2,-2,17.245
3450,-11,12,9,3,2,2,-2,0,17.25
3451,5,5,-5,1,-1,0,2,1,17.255
3452,-10,-4,0,-3,-1,-1,0,1,17.26
3453,6,4,4,-1,-1,3,2,1,17.265
3454,3,8,-4,-2,-2,2,0,1,17.27
3455,-2,2,-4,-4,0,-1,-2,-3,17.275000000000002
3456,0,6,-2,-1,-1,-1,0,0,17.28
3457,8,11,3,2,2,-2,-2,-2,17.285
3458,-21,0,-3,-3,-1,-2,-2,-2,17.29
3459,8,-4,1,-3,-2,-3,-2,-1,17.295
3460,-2,-2,0,2,1,-1,-1,-1,17.3
3461,-1,-3,-3,0,-1,-2,-2,-1,17.305
3462,11,-26,0,-2,-1,-2,2,-1,17.31
3463,2,6,2,-2,-2,0,-1,1,17.315
3464,-2,-8,-6,0,2,2,1,2,17.32
3465,-1,9,-18,-2,-2,-1,-1,1,17.325
3466,4,11,-8,0,-1,-1,-1,-1,17.330000000000002
3467,0,1,1,1,2,2,1,1,17.335
3468,-4,-1,2,-1,-3,-1,-1,-1,17.34
3469,16,12,11,2,0,1,2,3,17.345
3470,-8,-9,4,-4,-5,-3,-4,-2,17.35
3471,-13,-4,5,2,0,-1,-1,-2,17.355
3472,-5,-9,-7,-5,-3,0,-2,-2,17.36
3473,0,-1,2,-4,-1,1,-1,-2,17.365000000000002
3474,7,10,1,0,0,-1,-2,0,17.37
3475,1,-4,-1,-2,-2,-2,-2,-1,17.375
3476,2,3,2,-1,-3,-2,-2,-4,17.38
3477,-4,7,-2,-2,-1,-1,-2,-1,17.385
3478,2,0,-1,0,1,-1,1,1,17.39
3479,1,7,-2,0,-2,1,-1,-1,17.395
3480,-3,-2,-1,1,0,-1,-1,-1,17.400000000000002
3481,2,2,2,3,3,1,1,1,17.405
3482,-8,8,2,1,-1,-3,-1,1,17.41
3483,-9,-22,-3,-2,0,1,-2,-2,17.415
3484,-2,-12,-1,-4,-3,-3,-1,-1,17.42
3485,-2,-5,-2,0,-2,-2,-2,-2,17.425
3486,2,3,-1,0,-1,-1,-1,-2,17.43
3487,2,5,-1,0,-2,-2,-1,-1,17.435
3488,0,2,0,1,-1,-1,0,1,17.44
3489,-7,-4,1,-1,-3,-2,-4,-2,17.445
3490,4,-2,-1,-2,0,-1,1,1,17.45
3491,4,13,-4,-4,-2,-3,-1,-1,17.455000000000002
3492,0,34,3,0,-2,-3,-1,-1,17.46
