slno,emg1,emg2,emg3,emg4,emg5,emg6,emg7,emg8,Time
0,0,-1,0,-1,0,-2,-1,-1,0.0
1,1,0,0,0,0,0,-1,-1,0.005
2,1,3,-1,-2,-1,-1,-2,0,0.01
3,-1,-3,-1,-1,-1,-1,1,-1,0.015
4,-1,-1,1,0,1,0,-1,-1,0.02
5,-2,3,0,1,1,-1,0,0,0.025
6,0,-1,1,-1,1,-2,-1,0,0.03
7,0,1,-3,-2,0,-1,-1,0,0.035
8,-1,-3,-1,-1,-3,-2,-1,0,0.04
9,-1,1,2,0,-2,0,-1,-1,0.045
10,-1,-1,1,-1,-1,-1,0,0,0.05
11,-1,-3,1,-3,-2,0,-2,0,0.055
12,0,-5,-1,-2,0,-1,-1,-2,0.06
13,0,-1,-1,-2,-1,-1,-1,-1,0.065
14,-2,-1,-3,0,-1,-1,0,1,0.07
15,-1,-2,-2,0,-1,-2,-2,-2,0.075
16,0,4,1,-3,-1,-1,-1,-1,0.08
17,-2,-4,-3,-2,-1,0,-1,0,0.085
18,0,-3,-2,0,-2,-1,1,-1,0.09
19,-1,0,-3,0,-1,0,-1,-1,0.095
20,-1,-1,-1,-1,-2,-1,-1,-1,0.1
21,-1,2,-1,1,0,-1,0,-2,0.105
22,-2,-3,-2,-2,-1,0,-2,-3,0.11
23,-1,-2,0,-1,0,0,1,0,0.115
24,0,0,0,1,-1,1,0,-1,0.12
25,-1,-5,-1,-3,-1,-3,-1,-1,0.125
26,0,3,2,2,-1,-1,0,1,0.13
27,-1,-1,-1,-2,-2,-2,0,0,0.135
28,-1,-4,1,-3,0,-1,1,-1,0.14
29,-3,0,-1,0,0,-2,0,-2,0.145
30,0,-1,1,-1,0,-1,-2,0,0.15
31,1,-2,1,-3,-2,-2,0,-1,0.155
32,-2,-4,-7,-4,-2,0,-2,-3,0.16
33,0,1,1,0,-2,-1,0,-1,0.165
34,-1,-1,-4,-1,-2,-3,0,-4,0.17
35,0,-3,1,-1,-1,0,-1,1,0.17500000000000002
36,0,2,0,-1,-1,-1,0,-1,0.18
37,0,0,1,-1,1,-1,0,1,0.185
38,-2,-6,-7,-3,0,-1,-2,-1,0.19
39,-1,0,2,-1,-1,-1,-2,-2,0.195
40,-1,-1,1,0,-1,-1,-1,0,0.2
41,0,-1,1,-1,0,-1,-1,0,0.20500000000000002
42,2,2,0,1,-1,0,1,1,0.21
43,-1,-1,0,-1,-2,-1,-2,-1,0.215
44,-1,0,2,1,-1,-2,0,0,0.22
45,-1,0,0,-1,-2,0,0,-1,0.225
46,-2,0,1,-3,-2,0,-1,-1,0.23
47,1,-1,0,1,1,1,1,-1,0.23500000000000001
48,-1,-1,-1,-1,-1,-1,-2,0,0.24
49,-1,-2,-1,-1,1,0,-2,-2,0.245
50,-1,-2,0,-3,-2,-3,-2,-1,0.25
51,-1,2,-1,0,-2,0,-1,-2,0.255
52,-2,-3,0,-2,0,-2,0,-1,0.26
53,1,-2,-3,-1,1,0,0,-1,0.265
54,0,-2,-2,-2,-1,-2,0,0,0.27
55,0,-1,0,0,1,0,1,0,0.275
56,0,-3,-3,-1,0,-1,-1,-2,0.28
57,-2,-2,-4,-1,-3,-2,-2,-1,0.28500000000000003
58,0,2,1,1,0,2,1,-1,0.29
59,-2,0,-3,-1,0,-2,-2,1,0.295
60,0,0,1,0,-1,0,-1,-1,0.3
61,1,-1,-3,-1,0,-2,-1,-1,0.305
62,-2,0,1,0,-1,0,-1,-1,0.31
63,0,0,0,0,-2,0,2,-2,0.315
64,0,-2,0,0,-1,-1,-1,0,0.32
65,0,0,-2,-1,-2,-1,-1,0,0.325
66,0,0,0,-1,-1,-2,-2,0,0.33
67,1,2,-3,-3,1,-2,1,-1,0.335
68,0,1,-1,0,0,0,0,0,0.34
69,0,-3,-1,-1,-2,1,0,-1,0.34500000000000003
70,-1,-4,-2,-1,-1,0,-1,-2,0.35000000000000003
71,-2,0,2,-1,-1,0,-3,-2,0.355
72,-1,4,0,-1,0,0,0,-1,0.36
73,-1,-2,0,0,0,-1,-2,-2,0.365
74,0,0,1,-1,1,1,-1,-2,0.37
75,-4,-3,-1,-1,0,-3,-2,-1,0.375
76,1,1,1,1,-1,-1,-1,0,0.38
77,-1,3,-1,0,-1,-1,-1,0,0.385
78,0,2,-1,0,0,0,1,-1,0.39
79,0,2,1,1,0,0,-1,-2,0.395
80,-1,-3,-3,-2,1,-2,0,-3,0.4
81,-1,2,2,0,0,-1,-3,-1,0.405
82,-4,-2,-2,0,1,-1,-1,-1,0.41000000000000003
83,1,-1,-2,-1,-2,-3,-1,0,0.41500000000000004
84,-1,0,-1,-2,-2,0,-1,0,0.42
85,0,-1,-2,-1,-1,-3,-1,-1,0.425
86,1,-1,3,-1,2,0,0,1,0.43
87,0,-2,1,0,0,0,-2,-1,0.435
88,0,3,0,2,-1,1,0,0,0.44
89,1,-1,-1,-1,-2,1,-1,0,0.445
90,0,0,2,0,-3,-2,0,-1,0.45
91,-1,-3,-1,0,0,0,0,-1,0.455
92,0,-2,-1,-2,-2,-1,1,-1,0.46
93,-2,1,2,0,-1,0,0,-2,0.465
94,1,2,0,0,1,0,-1,-2,0.47000000000000003
95,-1,1,0,0,0,1,-1,1,0.47500000000000003
96,-3,0,-4,1,-2,-2,-1,0,0.48
97,-2,-1,-1,-1,-1,-2,0,0,0.485
98,0,-1,-1,0,-2,-1,-1,0,0.49
99,-1,-1,1,-1,-2,-1,-2,0,0.495
100,-2,0,3,2,0,0,-1,-1,0.5
101,-1,-1,-2,-1,-1,-2,1,1,0.505
102,-3,1,-2,0,0,-1,-2,-1,0.51
103,2,-2,0,0,0,-2,0,0,0.515
104,-1,0,0,0,0,-1,0,-1,0.52
105,0,0,3,1,-1,-1,-1,-1,0.525
106,-1,-5,-3,-2,-2,-2,-2,0,0.53
107,-1,0,-1,0,-1,1,-1,0,0.535
108,0,-2,0,0,0,-1,-2,-1,0.54
109,1,0,1,-2,-1,-1,0,-1,0.545
110,0,2,0,0,-2,1,1,0,0.55
111,0,2,0,1,0,-1,1,-2,0.555
112,-3,-5,-2,0,0,0,-2,0,0.56
113,-1,0,0,-1,-1,0,0,-2,0.5650000000000001
114,-1,-1,-1,-2,-3,-3,0,0,0.5700000000000001
115,-1,-1,1,0,-2,0,-1,-1,0.5750000000000001
116,2,1,-2,-2,-1,0,0,0,0.58
117,-1,0,0,-2,-1,1,1,-1,0.585
118,-1,0,1,0,0,-1,-2,0,0.59
119,-1,-1,-3,0,0,0,0,-1,0.595
120,1,0,-1,-1,-1,-1,0,-1,0.6
121,-3,-5,-1,-1,-2,-1,-2,0,0.605
122,-1,-3,0,-1,-1,0,1,-1,0.61
123,-1,1,-2,-2,-3,-2,2,-3,0.615
124,-1,-7,-2,-3,-1,-2,-1,-2,0.62
125,-2,-2,-4,2,1,-1,-1,-1,0.625
126,-4,-5,1,-4,-3,-1,-2,-2,0.63
127,-2,-1,1,-3,-4,-4,-3,-1,0.635
128,-1,-1,-4,-4,-2,-1,-2,-1,0.64
129,0,0,1,0,-1,1,-1,-2,0.645
130,2,2,-2,-1,-1,-1,-2,-1,0.65
131,0,1,3,2,0,1,-1,0,0.655
132,0,-7,-6,-2,-4,-1,0,0,0.66
133,-1,-1,1,-1,2,-1,0,-1,0.665
134,-1,0,-1,-1,1,0,-1,-2,0.67
135,-2,-2,-5,-2,-1,-2,-1,0,0.675
136,-2,5,3,2,0,-1,-3,-2,0.68
137,0,1,-5,0,-1,-1,-1,-1,0.685
138,-1,-2,-3,-1,-2,0,1,-2,0.6900000000000001
139,-1,-3,-1,0,1,-1,1,0,0.6950000000000001
140,0,-1,-1,-2,-1,-2,0,0,0.7000000000000001
141,-2,-1,-3,-2,-2,-2,-1,0,0.705
142,1,-2,-1,2,2,1,0,-1,0.71
143,-1,0,1,-1,-1,-2,0,0,0.715
144,-1,-2,-2,-2,0,-2,-1,-2,0.72
145,0,3,3,-1,-2,-1,1,1,0.725
146,0,-1,-1,-1,0,-2,1,-2,0.73
147,1,2,-1,-1,0,0,0,-2,0.735
148,-2,-4,-1,-1,1,1,1,-1,0.74
149,2,-4,-2,-3,0,0,-3,-2,0.745
150,-1,-2,0,-1,-1,-1,-2,0,0.75
151,-1,-2,-2,-1,-1,0,0,0,0.755
152,0,1,1,0,0,0,0,0,0.76
153,1,-3,-5,-1,0,2,-1,0,0.765
154,-2,-1,-2,-1,-1,0,-1,0,0.77
155,1,0,0,-2,-1,-1,-1,-2,0.775
156,-2,2,1,-1,-3,-1,-1,-1,0.78
157,-1,-3,0,-1,-1,-1,0,-1,0.785
158,0,1,1,2,-1,0,1,1,0.79
159,-2,-1,-2,-1,0,0,-2,-1,0.795
160,2,2,2,0,-1,0,-1,-1,0.8
161,-1,3,1,-1,-2,-2,-2,-2,0.805
162,-2,0,-1,-1,-3,-2,-2,0,0.81
163,0,0,-3,-2,0,0,0,-1,0.8150000000000001
164,0,-4,-2,3,0,-1,-1,-1,0.8200000000000001
165,1,-3,-2,2,-2,0,-1,0,0.8250000000000001
166,-4,-1,-2,-5,0,-2,-1,-2,0.8300000000000001
167,-1,-2,2,-1,0,0,-1,-1,0.835
168,0,2,1,-1,2,1,-1,0,0.84
169,-2,-1,3,0,-2,-1,1,0,0.845
170,2,-1,1,1,0,0,0,0,0.85
171,-1,1,-2,0,-1,-1,0,-1,0.855
172,-5,3,1,0,0,-1,-1,-1,0.86
173,0,-3,0,1,1,-1,-1,-1,0.865
174,1,2,1,-1,-3,0,-1,0,0.87
175,0,-3,-1,0,-1,-1,0,-1,0.875
176,1,2,4,1,-1,-1,-2,1,0.88
177,-4,1,-2,-1,-1,-1,-2,-3,0.885
178,-1,-5,-3,-1,0,-1,0,-1,0.89
179,1,1,3,1,0,1,-1,0,0.895
180,0,2,-2,0,0,-1,1,-3,0.9
181,-3,-1,1,-2,-1,-1,-1,-1,0.905
182,0,0,-2,-3,-2,-2,-1,-2,0.91
183,-2,0,-1,0,-1,0,-1,1,0.915
184,1,-4,-3,-2,-2,-1,0,-2,0.92
185,0,0,1,0,1,1,1,1,0.925
186,-2,1,-1,0,-2,0,-1,-2,0.93
187,-3,-2,-1,-1,-3,-3,-1,-1,0.935
188,-2,-2,-1,-1,0,-1,-1,0,0.9400000000000001
189,1,0,2,-1,-1,-1,0,0,0.9450000000000001
190,-1,-1,1,0,1,0,0,-1,0.9500000000000001
191,0,-2,-1,0,-2,-1,-2,-1,0.9550000000000001
192,0,1,0,0,-2,-1,-2,-1,0.96
193,0,-1,-3,-2,-3,0,-2,-1,0.965
194,1,-4,-3,-1,0,-1,2,2,0.97
195,-3,-3,-1,-2,-1,-2,-2,-4,0.975
196,0,1,1,-1,-1,0,0,0,0.98
197,-1,-1,-2,-1,1,-2,-2,-1,0.985
198,-2,1,1,-2,-1,-1,-1,-1,0.99
199,-1,-3,-2,1,-1,-2,1,0,0.995
200,0,1,1,-1,0,-1,0,-2,1.0
201,0,-4,-2,-1,0,0,1,0,1.0050000000000001
202,-4,0,0,2,0,0,-2,-2,1.01
203,1,-2,0,-2,-1,-1,1,-1,1.0150000000000001
204,-1,0,0,-2,0,-1,-1,0,1.02
205,-1,-1,0,-3,-1,-3,0,-1,1.025
206,1,0,0,-2,0,-1,-2,-1,1.03
207,3,2,-1,1,-2,1,1,1,1.035
208,-2,-4,0,-1,-2,-2,-2,-2,1.04
209,1,-1,-2,1,1,0,-1,-1,1.045
210,0,1,2,0,0,-1,0,-1,1.05
211,-1,1,-1,0,2,2,2,1,1.055
212,1,0,1,0,-1,-2,-1,-1,1.06
213,0,-2,0,-1,-1,2,-1,0,1.065
214,-6,-1,-2,-1,-3,-2,-2,-5,1.07
215,1,-4,1,-4,-1,0,-3,0,1.075
216,-2,-3,-3,-1,-3,-2,-1,0,1.08
217,-1,-4,-2,-2,-2,-1,0,-1,1.085
218,1,3,-1,-1,-2,1,-1,0,1.09
219,0,1,0,-1,1,1,-1,-1,1.095
220,0,-2,-4,-1,1,2,-2,0,1.1
221,-1,-1,-1,1,-1,-3,0,-3,1.105
222,1,1,0,0,-1,-1,0,0,1.11
223,-4,-2,-1,-1,-1,-1,0,0,1.115
224,-1,-1,2,-1,-1,-1,0,-1,1.12
225,0,4,1,1,0,0,1,1,1.125
226,1,0,-1,0,0,1,-1,-1,1.1300000000000001
227,-4,-4,-2,-1,-4,-4,-2,-2,1.135
228,0,1,-2,-1,1,1,0,-2,1.1400000000000001
229,-5,0,0,-1,0,0,-1,-2,1.145
230,-2,0,-1,0,0,-2,-1,-1,1.1500000000000001
231,0,1,-2,0,0,0,-1,0,1.155
232,-1,-3,1,0,-3,-1,0,0,1.16
233,1,-1,-2,-1,0,-1,-2,-1,1.165
234,1,-3,1,-1,1,0,1,-1,1.17
235,-2,-3,-4,-2,1,-2,-1,-1,1.175
236,-1,1,0,0,1,-1,1,0,1.18
237,1,1,-1,0,0,1,2,0,1.185
238,0,0,2,1,-1,-2,-2,0,1.19
239,-1,0,2,3,-1,0,-1,-1,1.195
240,-1,0,-1,-1,-2,-1,-1,0,1.2
241,0,1,-4,-2,-2,0,0,1,1.205
242,-2,-1,-2,-1,0,-1,1,0,1.21
243,0,3,1,-1,1,-1,-1,-2,1.215
244,-2,-3,0,0,-1,1,-3,-2,1.22
245,-4,-4,3,-1,-2,0,-1,-1,1.225
246,3,0,2,0,1,-2,-1,1,1.23
247,-4,1,-2,-2,-1,-3,0,-1,1.235
248,-1,3,1,2,1,1,1,1,1.24
249,5,0,-3,-2,-1,-1,-1,0,1.245
250,-4,1,-2,0,0,0,0,0,1.25
251,1,-3,0,-2,1,-1,0,0,1.2550000000000001
252,-3,-2,-1,-2,-1,-2,-1,-1,1.26
253,-3,3,0,0,-3,-4,-2,-1,1.2650000000000001
254,-2,-6,-3,-1,0,0,-2,-1,1.27
255,3,4,2,0,-2,0,-1,-2,1.2750000000000001
256,-3,-4,-3,0,0,0,-1,-1,1.28
257,-1,-2,0,0,0,1,0,0,1.285
258,1,1,1,-1,-2,-2,-1,-1,1.29
259,2,2,-1,0,-1,-1,0,1,1.295
260,2,0,1,-1,0,-3,0,-1,1.3
261,-10,-2,0,-1,-1,-2,-2,-3,1.305
262,0,-3,-4,1,-1,0,0,0,1.31
263,1,-6,-3,-2,-1,0,-1,1,1.315
264,2,4,0,1,1,1,0,0,1.32
265,9,3,2,1,2,0,-1,0,1.325
266,-5,0,-2,-1,-1,-1,0,-3,1.33
267,-10,1,3,0,-2,0,0,-2,1.335
268,0,-4,-4,-3,-2,-2,-1,-2,1.34
269,-6,-3,-2,-1,-1,-2,-2,-1,1.345
270,-1,-1,0,-2,-2,0,1,0,1.35
271,3,0,-1,0,1,2,0,0,1.355
272,-4,-1,2,-1,-1,2,0,0,1.36
273,1,-2,-2,0,-1,2,2,0,1.365
274,1,-4,-1,-2,-4,-5,-5,-3,1.37
275,2,-2,-5,-2,-3,-1,-1,-2,1.375
276,2,-2,-5,0,-1,-1,-1,-1,1.3800000000000001
277,-2,0,-3,0,0,-2,-2,-1,1.385
278,3,-1,-1,-1,1,1,3,1,1.3900000000000001
279,0,2,1,0,-1,0,-1,-1,1.395
280,1,-1,0,0,-1,1,-1,0,1.4000000000000001
281,-3,1,1,-3,-3,-3,-3,-2,1.405
282,-2,0,-1,0,-1,1,-1,-2,1.41
283,-4,-7,-6,-1,0,-3,-2,-1,1.415
284,7,-3,-2,-1,-1,-1,0,-1,1.42
285,-4,2,1,0,0,1,0,0,1.425
286,2,-2,0,-3,-2,-2,-3,-1,1.43
287,4,-2,-2,-2,-1,0,-1,0,1.435
288,-3,4,1,-1,1,0,0,0,1.44
289,-2,-7,-2,-3,-2,0,-1,-2,1.445
290,1,-1,2,1,-1,0,-2,-1,1.45
291,0,-4,-3,0,-2,0,0,-1,1.455
292,-3,-3,0,-2,0,-1,-2,-3,1.46
293,4,2,2,0,-1,-2,1,-1,1.465
294,-3,-1,0,0,-4,-1,0,0,1.47
295,-1,2,0,0,0,-3,0,-1,1.475
296,-3,-1,2,-3,-1,-1,1,-1,1.48
297,1,-3,-4,-1,0,-1,-1,-1,1.485
298,1,0,-2,-2,1,0,-1,1,1.49
299,-7,-1,0,-1,-3,-1,-2,-2,1.495
300,0,4,3,1,-1,1,1,1,1.5
301,10,2,-2,-1,-1,0,1,-1,1.5050000000000001
302,-4,1,1,0,0,0,-1,0,1.51
303,-3,-4,-1,-1,-1,-1,-1,-2,1.5150000000000001
304,-3,-4,-4,0,0,0,0,-1,1.52
305,8,-1,0,-2,-3,-1,-2,-1,1.5250000000000001
306,-1,-1,-1,-1,0,-1,0,-1,1.53
307,1,3,0,1,0,0,0,1,1.5350000000000001
308,2,-1,-1,0,-2,-2,-1,1,1.54
309,-6,-6,-1,-2,-1,-1,-2,-2,1.545
310,-1,-2,-3,-1,-1,2,1,0,1.55
311,-1,-2,3,-2,-3,-2,-1,0,1.555
312,1,2,0,-1,-1,-1,-1,-3,1.56
313,-1,3,0,0,0,-1,2,1,1.565
314,-1,-4,-3,-1,1,-1,-1,0,1.57
315,1,2,1,-1,-1,0,-1,0,1.575
316,-6,0,-2,-1,0,0,0,0,1.58
317,-3,4,-1,1,0,2,1,0,1.585
318,-2,-3,4,-1,-1,-3,-1,-3,1.59
319,1,-1,-3,0,0,-1,-1,0,1.595
320,-1,0,3,0,-1,-3,-1,-1,1.6
321,-5,-2,1,1,1,0,1,1,1.605
322,0,2,-2,0,0,0,1,1,1.61
323,0,0,0,-3,-1,-2,-2,-1,1.615
324,-1,0,1,1,-2,0,-1,0,1.62
325,-3,-2,-5,-2,-3,-2,-3,-2,1.625
326,0,-1,-1,-1,-1,-2,-2,-2,1.6300000000000001
327,-1,-1,-2,-1,0,-1,-1,-1,1.635
328,0,0,-3,0,1,0,1,-1,1.6400000000000001
329,0,0,3,-1,-1,0,-1,0,1.645
330,2,1,-1,0,-2,-1,0,0,1.6500000000000001
331,-2,0,1,0,0,0,-1,0,1.655
332,-5,-6,-6,-3,1,-2,-2,0,1.6600000000000001
333,-2,1,0,-1,-1,0,-1,1,1.665
334,-2,-2,-1,-1,0,0,-1,-2,1.67
335,3,-1,-1,-1,-1,-1,1,1,1.675
336,1,-3,0,-1,-4,-2,-1,-1,1.68
337,-2,-3,-1,-1,0,-1,0,0,1.685
338,-2,2,0,-1,-1,-1,-2,0,1.69
339,6,-2,-3,-1,-1,0,-1,-1,1.695
340,1,0,2,-2,-2,-2,-2,-2,1.7
341,0,-4,-3,-2,-2,-2,-2,-2,1.705
342,-2,-3,0,0,-1,1,-1,-1,1.71
343,-2,6,2,2,1,1,-2,-1,1.715
344,-1,-7,-3,-1,-2,0,0,-1,1.72
345,-3,-4,0,-2,-1,-2,0,-1,1.725
346,5,1,-3,-1,1,-1,-1,0,1.73
347,0,-4,2,-1,-2,-1,-2,-1,1.735
348,-3,3,2,0,-1,-1,0,1,1.74
349,-4,-3,-2,-1,-1,1,-1,0,1.745
350,0,-2,-2,-2,0,0,-1,0,1.75
351,-6,-3,-1,-1,0,-4,1,-1,1.7550000000000001
352,0,-2,-3,0,0,0,-2,-1,1.76
353,4,0,-1,-2,-2,-2,-2,-3,1.7650000000000001
354,-5,3,-1,-2,-3,-3,-1,-2,1.77
355,1,-1,-4,-3,-3,-1,1,0,1.7750000000000001
356,2,-1,0,0,1,-1,-1,-1,1.78
357,-7,2,-1,1,0,0,0,1,1.7850000000000001
358,0,-5,1,-1,-1,0,0,0,1.79
359,-2,4,2,2,-1,0,-1,0,1.795
360,0,1,1,0,1,-1,0,0,1.8
361,-3,-3,0,0,-1,-2,0,-1,1.805
362,1,-3,2,-1,-2,-2,-1,-2,1.81
363,0,-2,-4,0,1,-1,1,0,1.815
364,3,2,1,-2,-2,-2,0,-2,1.82
365,0,-1,-3,-2,-1,-1,-1,-2,1.825
366,0,1,0,-2,-2,-4,-1,0,1.83
367,-5,1,2,1,1,-1,-1,-1,1.835
368,8,1,-4,1,0,0,1,1,1.84
369,0,-3,-2,-1,-2,-1,0,0,1.845
370,-3,-1,-3,0,0,0,-1,-1,1.85
371,-1,-3,-1,-3,-1,-1,-3,-1,1.855
372,-4,3,1,1,-2,2,-1,1,1.86
373,-2,3,1,0,0,0,-2,-2,1.865
374,0,-1,0,1,0,1,0,-3,1.87
375,0,-3,-1,-2,-2,-2,1,0,1.875
376,-7,-2,-3,-4,-1,-1,-2,0,1.8800000000000001
377,4,-2,3,-2,-3,-1,-1,2,1.885
378,-2,1,-3,-3,-2,0,-3,1,1.8900000000000001
379,-1,-2,0,-1,-1,-3,-1,-2,1.895
380,-2,1,0,0,-1,1,-2,-2,1.9000000000000001
381,1,2,3,2,0,-1,1,-1,1.905
382,-2,3,0,0,-1,0,0,0,1.9100000000000001
383,4,6,3,1,1,1,1,-1,1.915
384,-2,-7,-3,-3,-1,-2,-4,-4,1.92
385,-5,0,1,-1,0,-2,-2,-2,1.925
386,-5,2,0,-1,0,0,0,1,1.93
387,-3,-1,1,-1,-1,1,0,0,1.935
388,-2,-6,-3,0,0,-1,0,-1,1.94
389,2,-8,-4,-4,-2,-1,0,-1,1.945
390,2,-2,-1,-1,0,-1,-1,0,1.95
391,-4,-2,4,1,-2,1,-2,-3,1.955
392,-1,-3,-1,-7,-1,-2,-2,-2,1.96
393,2,-1,-3,1,1,-1,0,0,1.965
394,5,-4,-3,-2,-3,-3,-2,-4,1.97
395,4,4,-4,1,2,3,1,2,1.975
396,-3,5,5,2,0,-1,1,2,1.98
397,1,1,-2,0,1,-2,1,-2,1.985
398,-4,-5,1,-1,-2,0,0,-1,1.99
399,-4,-6,-2,-3,0,-1,-4,-4,1.995
400,1,0,-4,-1,-1,0,1,1,2.0
401,2,7,4,-2,1,1,-1,3,2.005
402,2,1,2,4,1,-2,-2,0,2.0100000000000002
403,-1,0,-2,-10,-2,0,-1,-1,2.015
404,-1,-2,-4,1,-1,-1,-1,0,2.02
405,-3,-5,0,-1,-1,-1,-2,-1,2.025
406,0,1,0,0,0,-1,1,1,2.0300000000000002
407,-3,0,-2,-1,-2,-1,-1,-1,2.035
408,1,1,2,0,-1,-1,-1,-2,2.04
409,2,4,-2,-2,2,0,-1,-1,2.045
410,-7,-6,-1,-1,-2,-2,-3,-4,2.05
411,-5,-1,-1,1,0,-1,1,0,2.055
412,3,0,4,1,-1,-1,-2,0,2.06
413,-2,-4,-1,-1,-3,1,1,0,2.065
414,9,3,-1,-1,1,-1,1,0,2.07
415,-5,-2,-2,0,-3,-1,-1,0,2.075
416,-3,0,-2,-1,-2,0,0,-1,2.08
417,-3,-1,1,4,-2,-2,-1,-3,2.085
418,-3,-7,-4,-6,2,1,1,1,2.09
419,2,-1,4,-2,-1,-2,1,-1,2.095
420,3,-3,-3,0,-1,-1,-2,-1,2.1
421,-6,-2,0,-1,0,-1,-2,0,2.105
422,0,4,0,4,-1,1,1,2,2.11
423,1,-2,-1,0,-1,-1,-2,-3,2.115
424,-4,-1,-3,-4,-3,-3,-1,0,2.12
425,-2,-4,-2,1,-1,0,-1,-1,2.125
426,-2,-3,-3,-2,-3,-1,-2,-3,2.13
427,1,1,-4,-3,-1,0,-1,1,2.1350000000000002
428,-1,4,3,2,0,-1,-1,-1,2.14
429,1,3,0,-1,0,1,-1,0,2.145
430,-3,1,0,-2,1,-1,0,-2,2.15
431,-1,-3,0,0,-1,0,-1,-1,2.1550000000000002
432,-2,-1,3,0,-2,0,-1,-2,2.16
433,1,0,0,-2,0,-2,-1,0,2.165
434,1,0,-1,-1,0,0,0,1,2.17
435,-1,2,0,0,-2,-2,0,-2,2.1750000000000003
436,-2,-2,-2,-1,-2,0,-1,-1,2.18
437,-1,-1,-4,0,0,-2,-1,-1,2.185
438,-1,1,1,0,0,-1,-1,0,2.19
439,-2,1,-2,0,1,0,2,-1,2.195
440,-4,-3,-2,-2,0,-1,-1,0,2.2
441,1,-3,2,-3,-2,-2,-1,-1,2.205
442,-7,-4,-1,0,-2,0,-1,-1,2.21
443,2,-2,-4,-1,-3,-2,-1,-2,2.215
444,6,1,0,0,0,2,0,-2,2.22
445,-5,-4,-5,-2,0,1,0,0,2.225
446,-1,1,9,-3,-3,-3,-2,-1,2.23
447,-7,-4,2,1,-2,-2,-2,-1,2.235
448,1,2,-3,0,-1,-1,0,0,2.24
449,0,2,-4,3,-2,-3,-2,-2,2.245
450,1,-1,-1,-1,-2,-1,-2,-2,2.25
451,3,-2,-2,-2,1,1,1,1,2.255
452,-9,-6,1,0,-1,-1,-1,-4,2.2600000000000002
453,-2,-3,0,-4,-1,-2,-1,-3,2.265
454,4,-7,-5,4,2,1,0,0,2.27
455,-7,-9,-4,-8,-5,-3,-2,-1,2.275
456,3,-1,8,-1,-1,-1,-1,-1,2.2800000000000002
457,4,0,1,0,-4,-1,-2,-1,2.285
458,-3,4,-3,-1,0,2,-1,-1,2.29
459,5,5,0,5,3,1,1,0,2.295
460,2,-7,-3,-3,-2,-2,-3,-3,2.3000000000000003
461,-3,-5,0,-3,-2,0,0,-1,2.305
462,3,5,-4,0,0,-1,1,-2,2.31
463,1,2,-8,-1,0,1,-1,0,2.315
464,-1,8,3,3,-1,-1,1,1,2.32
465,3,4,-1,-7,-2,-2,-1,-1,2.325
466,-3,-2,4,0,-2,0,-1,-1,2.33
467,-3,-5,-3,5,0,-1,0,-1,2.335
468,-3,0,3,-10,-1,0,-1,-1,2.34
469,2,5,-1,6,1,0,-2,0,2.345
470,-1,1,-1,-3,-2,-1,0,0,2.35
471,-1,-5,-2,-1,-1,0,0,-2,2.355
472,1,-3,-1,3,0,-1,0,0,2.36
473,-2,0,3,-1,-2,-2,-2,-1,2.365
474,-2,3,-3,-3,-1,-2,-1,-3,2.37
475,-1,-1,2,-2,1,1,1,0,2.375
476,-1,-2,-12,6,1,-1,0,0,2.38
477,-4,-6,11,-13,-4,-1,-2,-1,2.3850000000000002
478,-3,-3,-8,11,1,-1,1,-1,2.39
479,8,2,11,-5,-2,-2,0,-1,2.395
480,-10,-4,-7,-14,-7,-5,-2,-4,2.4
481,-1,-2,-6,7,1,1,-5,2,2.4050000000000002
482,3,-2,1,-5,1,0,1,-1,2.41
483,-2,-1,-3,3,2,2,7,2,2.415
484,1,2,-6,-2,0,3,-10,1,2.42
485,-5,-2,4,3,-3,-6,3,-4,2.4250000000000003
486,-1,-3,-4,-1,-1,-1,-6,1,2.43
487,-4,1,-4,-1,0,-4,-2,-2,2.435
488,1,-4,0,-3,-1,0,-2,0,2.44
489,1,0,-9,1,1,3,3,0,2.445
490,2,5,2,-4,-2,-2,-4,-1,2.45
491,-4,-1,-2,-1,-3,-3,-3,-3,2.455
492,-3,-3,-1,2,1,0,1,-3,2.46
493,-1,-7,-3,0,0,0,0,-1,2.465
494,0,0,2,-9,0,0,3,-2,2.47
495,0,1,1,7,-3,0,-4,-1,2.475
496,-2,1,-2,-7,1,-1,3,0,2.48
497,-1,0,11,-5,1,0,0,1,2.485
498,-2,-3,10,4,-2,-2,-1,-1,2.49
499,-1,-1,-2,-3,-2,-1,-3,0,2.495
500,2,5,11,10,0,0,1,1,2.5
501,0,3,-12,-1,1,-2,-4,1,2.505
502,-4,-5,11,-4,-3,-2,2,-2,2.5100000000000002
503,0,-2,-8,-2,0,-2,-1,-2,2.515
504,-1,-2,-1,1,0,-1,1,0,2.52
505,-1,2,-2,8,-1,2,0,-1,2.525
506,0,0,0,-10,0,1,-2,-1,2.5300000000000002
507,-4,-1,19,0,-5,-4,-4,-2,2.535
508,1,0,-5,5,0,1,1,-1,2.54
509,0,-4,-8,-2,-1,-2,2,4,2.545
510,-2,-2,-12,-1,1,4,3,-7,2.5500000000000003
511,-1,-5,15,-6,-4,-6,-1,-5,2.555
512,-1,8,-5,-2,-4,-7,3,0,2.56
513,0,0,0,1,0,0,-4,-2,2.565
514,-2,-1,-7,3,1,1,5,2,2.57
515,2,2,-6,-1,2,4,0,2,2.575
516,-2,-4,6,9,-1,6,-22,-2,2.58
517,-4,-3,-4,-15,-4,-8,17,-5,2.585
518,0,0,-4,-4,-5,-7,-4,-9,2.59
519,-1,-1,-6,0,0,2,1,5,2.595
520,0,-2,-6,-5,-1,-2,3,4,2.6
521,1,3,6,7,2,3,-8,-1,2.605
522,0,-5,12,2,0,-1,-2,4,2.61
523,0,3,4,3,-1,-1,0,-2,2.615
524,0,-3,2,0,-1,-1,0,-3,2.62
525,0,0,6,2,1,-1,-1,1,2.625
526,-1,-1,-9,-3,-1,-1,-1,0,2.63
527,-1,-1,-6,-2,0,0,-3,-3,2.6350000000000002
528,-1,2,3,0,-2,-1,3,1,2.64
529,1,4,4,4,-1,1,-1,-3,2.645
530,-2,-5,-10,-7,-2,-2,3,3,2.65
531,0,-1,-4,1,1,1,-11,1,2.6550000000000002
532,0,-4,-1,-10,0,-5,0,-2,2.66
533,1,3,16,7,0,0,11,-1,2.665
534,4,6,8,6,-2,1,2,4,2.67
535,-6,-16,-41,-15,-2,-2,3,-2,2.6750000000000003
536,-2,-5,8,0,-1,-2,-4,-3,2.68
537,-2,-3,-8,-3,-1,-2,-7,-1,2.685
538,2,11,3,3,1,-1,-3,0,2.69
539,1,-6,15,4,-1,0,-2,0,2.695
540,-2,-16,-19,-1,-3,2,-1,-1,2.7
541,-3,-2,-14,-5,-2,-1,-2,-1,2.705
542,-1,0,2,1,0,-2,-1,1,2.71
543,-7,-2,6,-1,-3,-2,0,-2,2.715
544,7,-10,-2,1,1,1,3,-1,2.72
545,6,5,3,5,0,2,1,-1,2.725
546,-15,-3,-1,-13,-4,-4,-5,-5,2.73
547,-1,-2,-3,0,-1,0,1,-1,2.735
548,-3,-8,-6,-4,-3,-3,3,1,2.74
549,13,-3,-1,-1,0,1,-2,1,2.745
550,7,8,5,5,1,2,-1,2,2.75
551,-8,7,-3,-1,0,-2,-1,-2,2.755
552,-4,8,13,0,-2,0,0,-3,2.7600000000000002
553,-4,-7,-4,-5,-2,-1,-4,-1,2.765
554,0,-14,-7,2,-1,-2,0,-1,2.77
555,7,0,8,0,-2,0,3,0,2.775
556,3,9,-9,0,0,-2,0,0,2.7800000000000002
557,-11,-2,3,-4,0,-2,-2,-2,2.785
558,2,-6,0,-1,0,0,-1,0,2.79
559,-1,-2,-1,2,-1,1,1,2,2.795
560,6,9,3,-2,3,3,2,1,2.8000000000000003
561,-3,-6,-16,-13,-6,-4,-3,-3,2.805
562,2,0,5,6,0,1,-2,0,2.81
563,3,4,0,0,2,-1,0,-1,2.815
564,-3,-1,1,6,0,-2,-3,-2,2.82
565,-11,3,3,-8,-5,-2,-3,-1,2.825
566,-5,-3,-4,1,-1,-1,-3,-1,2.83
567,8,5,1,3,0,0,1,2,2.835
568,-7,-1,-5,2,-2,2,0,-2,2.84
569,2,-2,2,-3,-2,-1,-2,-2,2.845
570,2,0,-1,-2,-5,-3,-4,-2,2.85
571,-3,-3,3,-1,-1,-3,0,-1,2.855
572,2,0,1,0,1,0,1,-1,2.86
573,0,-2,-4,1,1,2,0,0,2.865
574,-2,-2,-1,1,0,-2,-1,-1,2.87
575,-5,1,0,-2,0,0,-1,-2,2.875
576,-2,0,-2,-4,-2,-5,0,-1,2.88
577,1,4,-5,6,-1,-1,-1,-1,2.8850000000000002
578,1,-2,9,-5,-1,2,0,-1,2.89
579,-1,-3,-15,-4,-3,-2,-3,0,2.895
580,-4,0,4,0,-2,0,-1,-1,2.9
581,2,1,-1,0,-2,0,-1,-1,2.9050000000000002
582,2,0,1,-1,1,1,2,0,2.91
583,-4,-2,2,-7,-1,-2,-2,-3,2.915
584,-1,-2,-1,2,-1,1,0,0,2.92
585,-4,-7,-5,2,0,-2,0,-1,2.9250000000000003
586,1,-4,-5,1,0,0,-1,1,2.93
587,1,-4,4,3,-2,-2,-1,-1,2.935
588,4,3,-6,-1,-1,-1,0,2,2.94
589,-6,-1,0,-2,-1,-2,-1,-1,2.945
590,-2,-2,-15,-3,1,-2,-1,-2,2.95
591,4,2,4,0,2,2,1,1,2.955
592,-4,-5,7,-2,-7,-5,-2,-2,2.96
593,6,3,-2,0,-1,1,-2,0,2.965
594,-5,-9,-3,0,-1,0,0,0,2.97
595,-4,-2,1,2,1,2,1,0,2.975
596,-7,0,-1,-3,2,0,-2,-2,2.98
597,-4,-5,5,1,0,0,1,1,2.985
598,2,-4,-5,2,-4,-3,-2,-3,2.99
599,6,-2,0,-2,-1,-2,-2,-3,2.995
600,-4,0,-2,-3,-2,1,-2,-2,3.0
601,-3,-2,0,0,-1,0,1,-1,3.005
602,2,8,3,0,0,-2,-2,0,3.0100000000000002
603,-3,2,-3,2,-2,-2,1,-1,3.015
604,3,-2,-1,-1,0,0,1,-1,3.02
605,-1,-1,-2,-1,0,-1,-1,-1,3.025
606,-3,6,2,-1,0,-1,-1,-1,3.0300000000000002
607,-2,2,3,-2,0,-2,-1,-1,3.035
608,0,3,-1,1,0,0,-1,-1,3.04
609,1,3,10,2,0,1,-1,0,3.045
610,-2,-10,-7,-4,-2,0,-1,-1,3.0500000000000003
611,-1,4,4,6,0,0,-4,-2,3.055
612,3,0,-5,-8,0,1,1,0,3.06
613,-4,-2,4,-1,-3,0,-2,-2,3.065
614,-1,7,-2,0,0,-1,-1,-1,3.0700000000000003
615,-3,-3,0,0,-1,0,0,-1,3.075
616,-2,-11,1,0,0,-1,0,1,3.08
617,4,7,-1,-1,0,-2,-3,-1,3.085
618,-4,-4,-4,-2,-2,-2,0,-2,3.09
619,-2,-2,0,-1,-1,-2,0,-1,3.095
620,-5,-1,1,-3,-1,-2,-2,0,3.1
621,1,4,0,2,1,0,1,1,3.105
622,-1,1,3,0,-1,-2,0,1,3.11
623,2,-1,-10,-2,0,0,1,-1,3.115
624,-1,1,8,1,-2,-1,-1,-1,3.12
625,1,-2,0,1,0,1,-1,0,3.125
626,2,-3,0,2,0,1,0,0,3.13
627,1,0,-1,-4,-1,0,-1,-1,3.1350000000000002
628,-2,3,0,3,-1,-1,-1,-1,3.14
629,1,-8,-7,-4,-1,-3,-2,-2,3.145
630,-1,-5,0,-1,-1,-2,-1,0,3.15
631,2,5,1,-1,-4,-3,-2,-1,3.1550000000000002
632,0,-6,-4,1,-1,-2,0,-2,3.16
633,-2,0,4,-1,0,-1,1,-1,3.165
634,0,5,-2,-1,-2,0,0,0,3.17
635,-3,-4,-2,-2,1,0,-2,-1,3.1750000000000003
636,2,2,1,2,0,-2,0,-1,3.18
637,-2,-2,-2,-2,-1,-2,0,-2,3.185
638,-1,-1,-4,-2,0,0,-1,0,3.19
639,-2,-1,4,-1,-1,-2,0,-1,3.1950000000000003
640,-3,-3,1,0,-1,-1,-2,-3,3.2
641,-1,-6,-5,-1,-1,-2,-3,1,3.205
642,-2,3,-2,-2,-1,-1,-1,0,3.21
643,0,2,2,2,-1,0,0,0,3.215
644,4,-8,-5,-1,0,0,-2,-1,3.22
645,-5,0,3,3,0,0,1,0,3.225
646,-3,-3,-2,-4,-2,-2,0,-3,3.23
647,-4,2,-2,-3,-2,-2,-1,-2,3.235
648,-3,-3,-6,-2,-3,0,-1,-1,3.24
649,4,2,-4,1,-1,0,-1,0,3.245
650,-5,-5,-2,-1,-1,0,1,0,3.25
651,-2,-4,1,-2,-1,-1,0,-2,3.255
652,-1,2,-2,-3,-1,-1,-2,-1,3.2600000000000002
653,-5,0,1,-2,0,-1,-1,0,3.265
654,6,2,-1,2,-1,-2,-3,0,3.27
655,-3,-3,-4,-3,-2,-1,0,0,3.275
656,0,-1,-3,0,-1,-1,1,1,3.2800000000000002
657,0,1,1,-1,0,0,0,0,3.285
658,-1,2,3,-1,1,1,0,-1,3.29
659,0,-2,-2,1,-2,0,-1,0,3.295
660,0,4,-1,-2,-1,-1,-2,0,3.3000000000000003
661,0,4,-1,-2,1,-3,0,-2,3.305
662,-4,-2,-2,-1,-2,0,1,-1,3.31
663,1,-1,-2,0,0,1,-1,2,3.315
664,0,1,0,-2,1,0,2,-1,3.3200000000000003
665,1,-5,-3,-3,-3,-2,-2,-2,3.325
666,1,12,5,3,1,-2,2,0,3.33
667,3,-4,-8,-1,1,-1,1,-1,3.335
668,-3,0,2,-7,-3,-2,-2,-1,3.34
669,0,-3,0,2,-2,0,-1,-1,3.345
670,0,1,0,-3,-2,-2,-3,-1,3.35
671,0,-2,-1,3,1,2,-2,0,3.355
672,1,4,1,1,0,-1,0,-1,3.36
673,-3,-7,-1,0,-3,-1,-1,-2,3.365
674,-7,-3,-6,2,4,2,-1,-1,3.37
675,0,-7,-2,1,0,-1,0,1,3.375
676,-1,-15,0,-4,-1,-1,-1,-3,3.38
677,-4,8,1,-2,-2,-2,-1,-2,3.3850000000000002
678,3,-3,-3,1,-2,1,-1,-1,3.39
679,-12,-15,1,-5,-2,0,0,-1,3.395
680,0,2,-3,0,-1,-2,-1,2,3.4
681,4,14,-3,-1,1,-2,-2,-1,3.4050000000000002
682,-2,-5,1,-1,-2,-1,-1,-1,3.41
683,1,37,8,2,1,-1,2,0,3.415
684,-8,3,-4,2,-1,0,0,-1,3.42
685,-1,-18,-1,-10,-3,0,-1,-1,3.4250000000000003
686,-8,6,5,1,0,0,1,1,3.43
687,2,-10,0,0,-1,-3,-2,-2,3.435
688,0,-8,4,4,0,-1,0,0,3.44
689,-2,-1,-2,3,2,0,0,1,3.4450000000000003
690,5,-17,-6,-4,0,-1,-1,-2,3.45
691,-4,-9,0,-2,-1,-1,-2,-1,3.455
692,-3,-1,-1,-1,0,1,0,-1,3.46
693,3,-3,-2,0,0,0,1,1,3.465
694,3,2,3,-1,0,-1,-2,0,3.47
695,1,0,-3,-4,-2,-1,-1,-2,3.475
696,0,6,-2,0,-1,0,0,-1,3.48
697,7,-2,1,0,0,-1,0,0,3.485
698,-2,2,-3,-1,-2,-1,0,-2,3.49
699,-2,0,1,2,-1,0,1,-1,3.495
700,1,-2,0,0,-1,-4,-2,0,3.5
701,-2,-2,0,2,-1,-1,0,-1,3.505
702,-4,-2,2,-6,-4,-2,0,-1,3.5100000000000002
703,11,1,-3,-2,-1,-1,-2,-2,3.515
704,-1,-6,-2,-1,0,-2,-1,-1,3.52
705,-4,1,-2,3,0,-1,-1,0,3.525
706,-2,-2,0,0,-1,-1,-1,0,3.5300000000000002
707,-1,-4,-2,-1,-1,-2,-1,-1,3.535
708,3,3,0,-1,1,2,0,0,3.54
709,0,2,3,1,-1,-1,0,0,3.545
710,-3,-8,1,1,-1,-1,0,1,3.5500000000000003
711,-3,-4,-3,0,1,-1,0,-2,3.555
712,0,-3,-1,0,1,-2,-1,-1,3.56
713,-6,-5,2,-2,-1,-1,-2,-2,3.565
714,1,1,1,0,-1,-2,-2,-2,3.5700000000000003
715,1,13,1,4,0,0,0,1,3.575
716,-3,-2,3,-6,-4,-2,-2,-2,3.58
717,-1,-1,-6,-4,-2,-1,-1,-1,3.585
718,-3,17,-3,-2,0,-1,-1,-1,3.59
719,-5,2,-1,0,0,-2,0,-1,3.595
720,7,-10,1,2,-1,-1,-1,-2,3.6
721,1,12,2,-3,-1,-1,0,-2,3.605
722,4,-1,-3,1,1,-2,0,-2,3.61
723,-4,0,-2,-5,-1,-1,-2,-1,3.615
724,-3,-7,-3,-3,-1,0,-2,0,3.62
725,4,-8,-1,-1,-1,0,-2,0,3.625
726,-6,-22,1,-2,0,0,2,-1,3.63
727,-2,9,0,0,-1,-1,0,0,3.6350000000000002
728,0,6,-5,0,0,-1,0,0,3.64
729,-3,-2,2,1,-1,0,0,-1,3.645
730,8,-1,-3,-1,-1,1,-2,-1,3.65
731,-5,-13,-5,-3,-1,0,-1,-3,3.6550000000000002
732,-3,0,-1,1,0,0,0,0,3.66
733,-3,3,-1,0,2,0,1,-1,3.665
734,2,0,2,0,-1,-1,-1,-1,3.67
735,0,5,-1,0,0,0,-2,1,3.6750000000000003
736,-5,5,1,-1,1,-1,-1,-1,3.68
737,-1,-4,-1,2,0,-1,-1,0,3.685
738,-1,1,-4,-2,-1,-1,-1,-1,3.69
739,1,-4,2,2,0,-2,0,-1,3.6950000000000003
740,-2,4,1,-1,-3,-1,-1,-2,3.7
741,-1,2,1,-2,2,1,0,0,3.705
742,0,5,4,3,-1,-1,-2,-3,3.71
743,1,0,-5,-3,-1,0,-1,1,3.715
744,0,2,2,2,1,2,0,-2,3.72
745,0,-2,-3,-3,-3,-3,0,-1,3.725
746,-3,-2,-4,-2,0,-1,-2,0,3.73
747,-2,-4,0,-5,-3,-2,-1,-2,3.735
748,-1,-2,-2,-2,-3,2,-1,-2,3.74
749,-1,-1,2,2,-2,-1,-1,-2,3.745
750,1,-9,-4,-1,-2,-2,-1,0,3.75
751,-3,-11,1,1,-1,0,1,0,3.755
752,0,3,0,0,0,-2,-1,1,3.7600000000000002
753,-1,-1,-2,0,0,-1,-2,-1,3.765
754,-10,-14,3,0,-2,1,-2,-2,3.77
755,2,2,1,2,0,-2,1,-2,3.775
756,-3,-3,-6,-6,-1,0,-1,0,3.7800000000000002
757,-2,-2,-1,-1,1,0,-1,0,3.785
758,3,3,-3,-1,0,-1,-1,1,3.79
759,-2,-2,1,0,-4,-1,-3,-2,3.795
760,2,-2,-4,0,2,1,0,-1,3.8000000000000003
761,-1,5,1,-2,-1,0,-1,-2,3.805
762,-2,6,-2,1,0,0,-1,-2,3.81
763,2,-1,0,0,0,-3,-1,-1,3.815
764,2,2,1,-2,-3,-2,-1,-1,3.8200000000000003
765,3,1,-2,0,-1,-2,-4,0,3.825
766,0,3,0,1,0,1,1,1,3.83
767,-3,-8,-3,0,-1,-1,-2,-1,3.835
768,-2,4,0,0,-1,-1,-2,-1,3.84
769,-1,-7,-4,0,-1,-1,0,-3,3.845
770,-1,3,2,-3,-1,-1,1,-1,3.85
771,-1,2,-2,-2,1,0,0,0,3.855
772,-1,-1,1,4,0,-2,0,0,3.86
773,-4,0,0,-1,-2,-2,-1,0,3.865
774,2,1,-2,2,2,-2,-1,-1,3.87
775,-2,-6,0,-5,0,2,0,0,3.875
776,1,2,0,2,0,-1,-1,-1,3.88
777,5,-2,-7,-4,-2,-2,0,-1,3.8850000000000002
778,-2,3,0,-1,0,1,-1,-1,3.89
779,0,-2,-2,-1,-3,-5,-3,-2,3.895
780,0,-1,-1,-1,-1,-1,1,0,3.9
781,1,-2,0,-2,-1,-2,-1,-1,3.9050000000000002
782,0,3,-1,-1,-1,1,0,-2,3.91
783,-2,3,3,1,0,1,-1,1,3.915
784,-1,-8,-3,-1,-2,-1,-1,1,3.92
785,-2,-1,0,0,0,1,-1,0,3.9250000000000003
786,0,1,1,0,0,-2,-1,-3,3.93
787,-4,0,0,-2,-1,0,1,-1,3.935
788,-1,-3,-1,2,-1,-2,-3,-2,3.94
789,-2,-1,-1,-2,3,1,0,2,3.9450000000000003
790,0,0,-1,-1,-4,-1,2,1,3.95
791,4,1,-2,1,0,1,-3,-1,3.955
792,-1,-2,0,0,0,0,1,0,3.96
793,-2,1,0,-3,-3,-1,-1,-2,3.9650000000000003
794,4,-8,-4,-2,-3,-2,-2,1,3.97
795,-3,1,-2,-1,1,0,0,-1,3.975
796,1,-8,0,-2,0,1,-1,-1,3.98
797,-7,-1,8,2,0,2,1,1,3.985
798,-1,-1,0,-1,-2,-3,-4,-1,3.99
799,1,-2,-4,-1,-2,-1,-1,-2,3.995
800,-1,-6,-5,-4,-1,-4,-2,-2,4.0
801,-1,-1,-1,1,-2,-1,0,-1,4.005
802,-2,1,0,1,0,1,-1,-1,4.01
803,0,1,-1,-2,-1,-1,0,-1,4.015
804,-1,2,1,2,0,0,-2,-1,4.0200000000000005
805,2,0,-1,-2,1,-2,1,2,4.025
806,-3,2,0,2,1,-1,0,0,4.03
807,-1,4,0,2,0,-1,-1,0,4.035
808,-1,2,-1,-3,-3,-2,0,0,4.04
809,-4,-12,2,0,-2,-3,-1,-2,4.045
810,-2,0,-1,-4,0,-1,0,0,4.05
811,1,-3,-4,-4,-1,-2,0,-1,4.055
812,-4,-28,0,1,-1,0,-1,-1,4.0600000000000005
813,-1,7,-3,0,1,0,-1,-2,4.065
814,0,-5,-3,-1,-2,-1,-1,-3,4.07
815,-1,-7,-3,-6,-2,0,-1,-2,4.075
816,-1,0,-1,-1,-3,-2,-3,-1,4.08
817,10,20,-5,0,-2,0,-1,-2,4.085
818,-5,0,-2,0,-1,-2,-1,-1,4.09
819,-1,0,-6,1,-1,1,-1,-1,4.095
820,-2,5,0,-1,-2,-1,0,-1,4.1
821,-3,-10,0,-2,1,0,-1,-2,4.105
822,-1,-2,-2,0,1,0,0,2,4.11
823,1,3,1,1,-1,-3,0,-1,4.115
824,2,5,1,-1,1,1,1,-2,4.12
825,-2,0,-2,1,1,-1,2,0,4.125
826,-2,-7,-1,-1,0,1,-1,-3,4.13
827,-1,-5,1,-1,-1,-1,-1,-1,4.135
828,1,3,-1,-1,0,0,-1,0,4.14
829,-2,-3,2,1,-1,-1,-1,-1,4.1450000000000005
830,-1,-3,-1,-2,1,-2,1,-1,4.15
831,-2,-12,-1,0,0,-1,1,1,4.155
832,-5,2,-1,-1,0,-2,0,-1,4.16
833,-1,-9,-2,-2,-4,-1,-1,-2,4.165
834,1,3,-3,-2,-2,0,-3,-1,4.17
835,3,10,2,0,-2,1,-1,-2,4.175
836,-1,2,-2,1,3,0,2,1,4.18
837,-1,-1,-2,0,-1,1,-2,0,4.1850000000000005
838,0,-6,-2,-3,0,-3,-1,0,4.19
839,0,3,-3,-1,1,2,0,0,4.195
840,3,9,1,-1,-2,1,0,-1,4.2
841,8,0,-3,1,-1,-2,-2,0,4.205
842,-4,0,1,0,0,1,0,0,4.21
843,-2,-1,0,0,-1,-2,-2,-2,4.215
844,-2,5,0,-1,-3,0,-2,-1,4.22
845,-1,0,0,-1,-1,-1,1,0,4.225
846,0,3,-1,-2,-1,-2,-1,0,4.23
847,-1,-8,-1,1,-1,-1,-1,1,4.235
848,0,3,2,-1,-2,-2,-1,-2,4.24
849,-2,0,-1,-4,-3,-2,-2,0,4.245
850,-1,2,2,0,0,0,-1,0,4.25
851,-2,12,-1,-2,-2,-2,-1,-3,4.255
852,1,0,-1,-2,-2,-1,-2,0,4.26
853,-5,-2,3,-2,-1,-2,1,0,4.265
854,-1,-4,-1,-2,-1,-4,-1,0,4.2700000000000005
855,-3,-8,1,1,1,1,-1,1,4.275
856,-1,3,-1,-2,0,2,0,0,4.28
857,-1,0,0,3,-2,-1,-1,-2,4.285
858,-2,3,-2,-5,-2,0,-2,-1,4.29
859,1,-2,0,1,0,1,0,-1,4.295
860,-1,-2,-2,0,0,0,0,-1,4.3
861,-3,7,1,3,1,1,-1,0,4.305
862,1,-3,-1,-1,-2,0,-1,-1,4.3100000000000005
863,0,5,1,-3,-2,-1,0,-1,4.315
864,0,2,-2,-1,-1,-1,0,-2,4.32
865,1,-3,-1,-1,-2,-1,0,-1,4.325
866,-1,-3,-3,1,-1,0,0,-2,4.33
867,-3,1,0,-4,-2,-3,0,-1,4.335
868,-1,-5,-2,0,0,-1,0,1,4.34
869,-2,-4,-4,-3,-1,-2,-1,-1,4.345
870,0,1,0,1,0,0,-1,1,4.3500000000000005
871,0,2,2,2,1,-1,-1,1,4.355
872,-4,-1,-1,1,-2,-1,-3,-3,4.36
873,-1,-4,-4,-6,-3,-2,-2,0,4.365
874,-1,0,0,1,0,2,0,-1,4.37
875,-2,-11,0,-1,-1,1,0,0,4.375
876,-2,-2,4,-2,-2,-1,1,0,4.38
877,-2,-11,-5,-3,-1,0,0,-1,4.385
878,1,-2,0,-1,-3,-2,-3,0,4.39
879,1,4,-1,0,0,0,-1,-1,4.3950000000000005
880,2,2,0,0,-1,0,-1,-2,4.4
881,-3,0,2,-1,1,-2,0,-2,4.405
882,-1,2,2,2,-1,-1,1,-1,4.41
883,0,1,0,-2,-1,0,1,-1,4.415
884,1,5,-4,2,-1,0,-2,-2,4.42
885,1,3,-6,-2,-1,0,-2,-1,4.425
886,-2,1,-3,-3,-3,-2,-2,-1,4.43
887,-2,3,5,0,1,-1,-1,-3,4.4350000000000005
888,-1,-3,0,4,-3,-1,0,-1,4.44
889,-2,3,-3,-7,1,1,-2,-1,4.445
890,-5,-7,2,3,0,0,0,1,4.45
891,0,-1,-3,-3,-2,-2,0,1,4.455
892,0,-3,0,-4,0,0,-1,-1,4.46
893,-1,-4,4,5,0,-2,0,-1,4.465
894,-1,-1,-1,-2,-2,-1,0,2,4.47
895,1,5,-3,-2,-3,-3,-2,-3,4.4750000000000005
896,0,1,-2,-1,-1,-2,1,1,4.48
897,3,3,2,1,-1,0,-1,-1,4.485
898,3,5,-3,-2,0,0,0,-3,4.49
899,-1,-1,-2,0,-2,-2,-1,1,4.495
900,0,-1,0,-3,-2,-1,-2,1,4.5
901,-1,-2,-1,2,1,0,1,0,4.505
902,2,3,2,2,1,1,0,-2,4.51
903,-2,-4,-3,-1,-2,-2,0,-1,4.515
904,0,-2,-2,-2,0,-2,1,0,4.5200000000000005
905,-4,-11,1,0,-2,0,0,0,4.525
906,-1,-2,-2,2,0,0,0,-2,4.53
907,-1,-2,-2,-3,-1,1,0,-1,4.535
908,-2,-3,-1,-2,-2,-2,-2,0,4.54
909,0,2,-6,-2,-1,-1,1,1,4.545
910,1,0,-1,-4,-1,-1,0,2,4.55
911,-2,-10,-2,-1,0,0,-1,-1,4.555
912,-2,1,-2,-3,-2,-2,-2,-2,4.5600000000000005
913,1,0,3,0,-1,1,1,-1,4.565
914,0,-4,-2,1,-1,-1,-4,-2,4.57
915,-1,6,-1,2,-2,-2,-2,-2,4.575
916,-2,-6,-1,-3,2,1,0,-1,4.58
917,-2,3,-1,0,-1,-2,-1,-2,4.585
918,-1,2,-1,-1,-1,-3,-1,-2,4.59
919,0,-2,-1,1,0,-1,1,0,4.595
920,0,0,-1,2,-1,0,-2,0,4.6000000000000005
921,-5,-7,-1,-1,1,0,-1,0,4.605
922,-1,3,-3,-2,0,-2,0,-3,4.61
923,0,-1,1,1,-1,0,-2,-1,4.615
924,0,0,2,0,-1,0,1,0,4.62
925,1,0,-1,-1,-2,-1,-1,0,4.625
926,0,1,0,-2,0,0,1,0,4.63
927,-1,-4,-1,0,0,-1,-3,0,4.635
928,1,4,-2,-1,-1,-1,-2,1,4.64
929,-1,3,0,1,-3,-2,-2,-1,4.6450000000000005
930,0,3,1,1,-2,-3,-1,0,4.65
931,0,1,-2,-2,1,-1,-2,-1,4.655
932,-1,-2,-1,1,-1,0,-1,-1,4.66
933,-2,1,0,0,3,-1,-1,0,4.665
934,0,7,3,2,-1,0,-1,1,4.67
935,-2,-2,-4,0,1,1,0,-1,4.675
936,1,-8,-2,-2,-1,-2,-2,-1,4.68
937,-1,3,1,1,1,0,0,-2,4.6850000000000005
938,-1,-7,-3,-2,-2,-3,-2,-4,4.69
939,-2,-4,-3,-3,0,0,0,-2,4.695
940,1,1,-1,-2,0,-1,0,-1,4.7
941,4,0,-1,-1,-2,-1,-1,0,4.705
942,-6,-3,-3,1,0,0,-1,-2,4.71
943,1,-4,0,-4,-1,0,0,-1,4.715
944,-1,-2,-1,0,-2,0,1,0,4.72
945,-1,1,0,-3,-1,0,-1,0,4.7250000000000005
946,1,-3,-1,-1,-2,-1,0,0,4.73
947,1,1,0,2,-1,-1,-2,0,4.735
948,-1,5,2,1,0,-1,0,-1,4.74
949,-1,1,-3,-1,-2,-1,-1,-2,4.745
950,-2,-6,-3,-3,-1,0,0,0,4.75
951,-1,0,-1,0,-2,-1,0,0,4.755
952,0,1,0,0,-1,-2,-1,-1,4.76
953,-1,-4,-1,1,0,-1,-2,0,4.765
954,-2,-2,1,-2,-2,-2,0,-1,4.7700000000000005
955,3,0,-3,1,1,0,1,1,4.775
956,-8,-7,1,0,0,-1,-1,0,4.78
957,-2,0,-1,-1,0,-1,-1,-1,4.785
958,-2,-2,-1,2,0,0,-2,-1,4.79
959,-1,1,0,0,-2,-3,-2,-2,4.795
960,2,2,1,-1,-2,-2,-1,-1,4.8
961,2,-1,-3,-3,-1,0,0,-3,4.805
962,-4,-1,1,-1,0,0,0,-2,4.8100000000000005
963,-2,0,0,2,-2,-1,-1,-1,4.815
964,1,2,-2,-1,0,0,-2,-1,4.82
965,-5,6,-5,-6,-5,-2,-2,-2,4.825
966,3,3,1,1,1,1,1,0,4.83
967,-1,-3,0,0,-1,-3,-2,-1,4.835
968,-3,-4,1,-2,1,0,0,-2,4.84
969,1,-2,1,1,1,0,0,0,4.845
970,2,0,-1,-2,-1,-2,-1,1,4.8500000000000005
971,-1,0,0,-2,1,1,0,-1,4.855
972,5,8,-3,-3,0,-1,0,0,4.86
973,-2,-1,2,2,0,-1,1,-1,4.865
974,-1,2,1,-1,1,1,-1,1,4.87
975,-1,0,0,-3,0,0,0,1,4.875
976,-2,-4,-7,-3,-3,-1,-1,-3,4.88
977,2,-2,-2,2,0,0,2,2,4.885
978,-2,0,-1,0,-1,-1,1,0,4.89
979,0,-3,-1,-1,0,-2,-2,-1,4.8950000000000005
980,-1,0,-1,-1,0,1,0,0,4.9
981,1,-2,-1,-2,-1,0,-2,0,4.905
982,0,-4,-1,-1,-3,-1,0,-1,4.91
983,-1,1,0,-1,1,2,0,0,4.915
984,-1,9,5,3,2,0,0,-1,4.92
985,-1,-4,4,-1,-1,-2,-1,-1,4.925
986,0,-7,-6,-4,-3,-2,-2,0,4.93
987,-1,0,0,0,-3,-2,1,0,4.9350000000000005
988,-3,1,1,-1,-2,-1,-1,-1,4.94
989,0,1,1,1,0,0,-2,0,4.945
990,-2,0,1,1,0,1,0,-1,4.95
991,-3,-4,0,0,-1,-1,-1,0,4.955
992,-1,-5,-2,-1,-2,-1,-2,1,4.96
993,-2,-2,-1,-1,-1,0,-1,-1,4.965
994,1,0,-3,-2,-2,-1,0,-1,4.97
995,-1,4,1,1,0,0,0,-1,4.9750000000000005
996,-6,-8,-5,-4,-3,0,1,0,4.98
997,-2,-2,-1,0,-2,-1,-3,-2,4.985
998,5,-2,-5,-3,-2,-2,-3,-2,4.99
999,-3,-2,0,-2,0,0,0,0,4.995
1000,-1,2,0,-1,0,0,-1,0,5.0
1001,-1,1,-1,-1,-2,-1,0,0,5.005
1002,1,-1,0,0,1,0,-1,-2,5.01
1003,-2,-2,0,-1,-2,-3,-3,-1,5.015
1004,1,-3,-2,-1,-2,-1,-2,-1,5.0200000000000005
1005,1,-3,0,0,-1,-2,-1,0,5.025
1006,-3,13,6,1,1,1,0,0,5.03
1007,2,-5,-5,-4,-2,-1,-1,0,5.035
1008,-1,-4,-3,-4,-1,0,-1,-2,5.04
1009,2,-1,0,1,0,-1,0,0,5.045
1010,-6,-6,0,-1,-2,-3,-2,-1,5.05
1011,0,0,2,0,-3,-1,-1,-2,5.055
1012,0,2,2,-1,0,-1,0,0,5.0600000000000005
1013,0,4,-2,-2,-1,1,0,-1,5.065
1014,-1,-2,0,0,-1,0,0,0,5.07
1015,0,0,-2,-2,-3,0,-2,-2,5.075
1016,-1,1,3,2,0,-1,-2,-1,5.08
1017,-2,2,3,1,3,2,1,0,5.085
1018,-2,-7,-6,-3,-2,-1,-2,0,5.09
1019,-4,-5,0,-1,2,1,1,-2,5.095
1020,3,9,0,0,-2,-2,-1,1,5.1000000000000005
1021,-2,1,-3,0,-1,-3,-1,0,5.105
1022,-1,-1,2,2,1,-1,-1,0,5.11
1023,2,-2,-2,0,0,-2,0,0,5.115
1024,-2,-7,-3,0,-1,1,-2,0,5.12
1025,-2,-1,-1,-2,-2,-1,-2,-2,5.125
1026,2,0,-2,-1,-2,-1,0,-1,5.13
1027,-2,1,-1,-1,-1,-1,-1,1,5.135
1028,-1,0,2,3,-1,-2,0,-1,5.14
1029,0,2,5,-1,-1,0,0,0,5.1450000000000005
1030,0,-12,-4,-2,-2,1,0,1,5.15
1031,-4,-4,1,3,4,1,0,-2,5.155
1032,-8,-19,1,-3,-3,-4,0,0,5.16
1033,-4,-3,-4,-4,0,-2,-1,-3,5.165
1034,-1,-5,1,0,-2,-1,0,0,5.17
1035,1,2,-2,0,-1,-2,-1,-1,5.175
1036,1,2,-1,0,1,0,-1,0,5.18
1037,0,-2,-2,0,-1,-2,0,0,5.1850000000000005
1038,-2,3,1,0,0,0,0,-1,5.19
1039,0,-2,-2,-3,-2,-1,-3,0,5.195
1040,0,-6,-3,-1,-1,-2,-2,-2,5.2
1041,2,0,-1,0,-2,-2,0,-1,5.205
1042,0,1,-1,0,2,-1,-1,-3,5.21
1043,0,3,0,-1,-1,1,1,-1,5.215
1044,-1,1,-3,-2,0,-1,-1,-2,5.22
1045,0,-9,-3,-1,-1,1,-1,0,5.2250000000000005
1046,-3,1,0,-1,-2,-1,0,0,5.23
1047,1,-3,1,1,0,-1,-1,-2,5.235
1048,-5,-11,-3,1,-2,3,0,-1,5.24
1049,-1,-1,-4,-1,-2,-2,-1,-1,5.245
1050,3,10,0,0,1,-1,-1,-2,5.25
1051,-2,2,-2,0,-1,-3,0,-2,5.255
1052,1,5,-1,-1,-1,-4,-1,1,5.26
1053,-2,0,-2,-3,-2,-1,-1,-1,5.265
1054,-3,-3,-1,-1,-1,0,-1,-2,5.2700000000000005
1055,0,-1,-1,-1,-1,-1,-3,-1,5.275
1056,3,11,0,-1,-1,-2,1,-1,5.28
1057,0,-3,0,-2,-2,1,0,-1,5.285
1058,2,-1,0,-2,-1,-1,-1,1,5.29
1059,-5,-9,-2,-3,-2,-2,0,-1,5.295
1060,-5,-7,4,-1,-1,0,0,0,5.3
1061,0,2,1,1,0,-2,-2,0,5.305
1062,-2,1,-1,-1,1,0,1,-1,5.3100000000000005
1063,1,-7,-2,-3,-3,1,-1,0,5.315
1064,1,1,1,-1,1,1,-1,0,5.32
1065,-1,1,-1,-1,-1,-1,-2,-2,5.325
1066,1,-2,1,1,-3,-1,0,0,5.33
1067,0,8,-1,0,0,-2,0,0,5.335
1068,3,4,3,0,-1,0,-1,0,5.34
1069,-2,0,-2,1,0,-1,0,-1,5.345
1070,-2,-1,-2,1,-1,0,-2,-2,5.3500000000000005
1071,1,0,0,-1,-1,-2,0,1,5.355
1072,1,-18,-5,-2,0,1,0,0,5.36
1073,-9,-11,3,1,0,1,0,1,5.365
1074,-3,-1,1,-4,-1,-1,-1,0,5.37
1075,0,-6,2,1,-1,2,1,0,5.375
1076,0,-2,-1,-2,0,-2,-2,0,5.38
1077,-3,-2,-4,-3,-1,-2,-1,-1,5.385
1078,1,0,0,0,-1,0,-1,0,5.39
1079,-2,-1,-1,-2,-1,-2,-1,0,5.3950000000000005
1080,3,7,-1,-1,0,-2,-1,-2,5.4
1081,4,2,-1,0,-1,0,0,0,5.405
1082,-1,1,1,2,-2,-1,-1,0,5.41
1083,1,2,0,-3,-1,1,0,-1,5.415
1084,-1,3,-2,2,-1,-2,0,-1,5.42
1085,1,5,-1,-1,0,-1,0,-1,5.425
1086,0,-5,-2,-3,0,-3,-1,-1,5.43
1087,-2,6,-2,0,-1,0,-1,-2,5.4350000000000005
1088,0,2,-2,-1,-1,1,1,-2,5.44
1089,-2,-6,0,0,-2,-1,-1,-1,5.445
1090,4,19,1,-1,0,1,0,-1,5.45
1091,0,-2,-4,0,-2,-4,-2,0,5.455
1092,1,3,-1,0,0,1,-1,-2,5.46
1093,-2,6,-2,-3,-1,-2,-1,-1,5.465
1094,-2,-5,1,0,0,0,1,0,5.47
1095,1,-4,0,-3,0,0,0,-1,5.4750000000000005
1096,-4,-3,0,-1,-1,0,0,-1,5.48
1097,2,-5,-5,0,-2,-2,-2,-1,5.485
1098,-4,-11,-4,-2,-2,0,-1,-1,5.49
1099,-1,2,0,-1,0,0,-2,-2,5.495
1100,-1,-5,-2,-2,0,0,1,0,5.5
1101,1,5,5,-1,-1,-1,-1,1,5.505
1102,-2,9,-1,-2,-2,-2,-2,-1,5.51
1103,-2,4,-1,1,-1,-1,0,-1,5.515
1104,-3,0,-2,-1,-2,0,-2,-3,5.5200000000000005
1105,2,2,-1,1,0,1,-1,0,5.525
1106,-1,-10,-3,-3,-2,-1,-1,0,5.53
1107,1,-1,1,-2,-1,-1,-2,1,5.535
1108,-2,0,-2,-3,-1,0,-2,-2,5.54
1109,0,-2,-2,-1,0,-1,-2,-1,5.545
1110,3,0,-7,-2,-3,-2,-3,-2,5.55
1111,-2,-5,-1,0,0,-1,-1,0,5.555
1112,0,0,1,0,0,0,0,1,5.5600000000000005
1113,-1,-1,-3,-2,-1,-1,1,-1,5.565
1114,2,9,-2,-1,0,0,0,-2,5.57
1115,0,-3,-4,-2,0,-1,-1,-1,5.575
1116,-3,0,2,-2,-4,-3,-1,0,5.58
1117,-2,-2,-1,1,-1,1,-3,-1,5.585
1118,-2,-15,1,-2,-1,0,0,2,5.59
1119,-2,1,-1,-1,-3,-1,1,-2,5.595
1120,1,1,-1,1,-1,-3,-2,-1,5.6000000000000005
1121,1,-1,-4,-1,-1,0,2,0,5.605
1122,-3,3,-3,2,0,0,-2,-1,5.61
1123,0,-4,-2,-2,-2,-2,-3,-1,5.615
1124,-1,-4,-2,1,2,-1,0,0,5.62
1125,-1,0,-2,-1,-1,-1,0,-1,5.625
1126,0,-1,2,3,0,-1,-2,0,5.63
1127,-3,0,0,1,0,1,1,-1,5.635
1128,1,6,1,-2,-3,1,-1,-2,5.64
1129,2,0,-2,0,-1,-2,-3,-1,5.6450000000000005
1130,-5,-6,-1,3,-3,-2,0,0,5.65
1131,2,6,2,16,-4,-1,-1,-1,5.655
1132,-2,-6,-5,-25,1,0,-3,-1,5.66
1133,-2,-1,1,-6,-3,1,-1,0,5.665
1134,-1,-4,3,14,-4,-2,0,-2,5.67
1135,2,0,-2,6,-4,-1,-2,-2,5.675
1136,-7,0,2,-6,9,2,1,0,5.68
1137,-2,-1,0,-16,-2,0,0,0,5.6850000000000005
1138,1,1,1,1,0,-2,1,-1,5.69
1139,1,-1,2,-2,-1,0,-3,0,5.695
1140,2,2,0,6,-7,-1,-1,-1,5.7
1141,-4,-1,1,10,3,0,0,0,5.705
1142,-3,-1,-1,-9,2,1,-1,0,5.71
1143,1,-2,0,-2,1,0,-1,0,5.715
1144,-2,-8,1,0,-2,-1,-2,-3,5.72
1145,-1,2,2,4,0,-3,-1,-1,5.7250000000000005
1146,0,5,0,-1,-1,0,0,-2,5.73
1147,-1,-1,-3,-9,0,-1,1,-2,5.735
1148,1,0,0,6,-1,-1,0,1,5.74
1149,-1,-4,-3,1,-1,-2,0,-2,5.745
1150,4,-2,-3,-4,-2,0,0,0,5.75
1151,-7,0,-3,-5,1,-2,-1,-1,5.755
1152,1,4,3,3,-1,0,-3,-1,5.76
1153,1,-4,-2,4,-2,-2,-1,0,5.765
1154,-4,-5,0,-12,0,-2,-4,-1,5.7700000000000005
1155,-1,-1,-3,-3,-2,-1,-1,0,5.775
1156,4,10,-4,4,-1,-3,1,-1,5.78
1157,-3,9,1,-3,-1,-1,0,-1,5.785
1158,-7,-5,-1,-1,-3,-1,-2,-4,5.79
1159,-1,-2,-1,1,2,1,-1,0,5.795
1160,1,1,-1,1,-1,-2,1,0,5.8
1161,4,29,3,-2,-1,0,0,1,5.805
1162,0,4,-3,-2,1,1,1,0,5.8100000000000005
1163,0,-5,-3,-3,-1,-2,-1,0,5.815
1164,2,-3,-1,1,-3,0,-3,-1,5.82
1165,-6,-12,1,0,0,0,0,-1,5.825
1166,-1,-14,-5,1,1,-1,-1,-2,5.83
1167,-2,6,-2,-5,0,0,0,-1,5.835
1168,-2,-11,-3,3,1,-2,1,-1,5.84
1169,-6,-12,2,-3,-1,0,-2,-1,5.845
1170,1,2,-1,2,0,0,-1,-2,5.8500000000000005
1171,-1,-9,-2,-4,0,1,-2,-2,5.855
1172,-6,-10,2,0,0,1,1,-1,5.86
1173,-1,-4,-2,0,0,0,0,-1,5.865
1174,-2,2,0,-2,0,-1,1,2,5.87
1175,0,-9,0,-3,-2,-1,-1,0,5.875
1176,-1,4,1,1,-3,-2,-1,0,5.88
1177,2,-4,0,1,3,2,0,1,5.885
1178,0,0,3,-4,-2,2,0,0,5.89
1179,0,4,-1,6,-1,-1,0,-2,5.8950000000000005
1180,-6,3,-1,-1,0,0,0,-1,5.9
1181,7,12,-6,-5,-3,0,-1,-1,5.905
1182,1,5,-2,0,0,-1,-1,0,5.91
1183,2,2,1,-3,-2,-3,-2,-1,5.915
1184,2,-13,-3,1,0,0,-2,1,5.92
1185,-3,8,-4,-1,-3,-2,0,-2,5.925
1186,-3,-3,1,1,1,-1,-2,-2,5.93
1187,-1,0,-2,-2,0,1,1,0,5.9350000000000005
1188,0,-7,-2,-3,-2,-2,-1,-2,5.94
1189,2,-13,1,0,0,1,0,0,5.945
1190,-7,-3,-6,-1,-3,-3,-3,-3,5.95
1191,-2,2,-1,0,0,1,-1,0,5.955
1192,2,2,2,-2,0,0,1,0,5.96
1193,-8,-3,-4,-4,-3,-1,-3,-1,5.965
1194,0,4,1,-1,-2,0,-1,-1,5.97
1195,-6,-10,1,2,0,0,-2,-1,5.9750000000000005
1196,-5,-2,3,2,1,1,0,-1,5.98
1197,1,-7,1,2,-1,-1,-2,-1,5.985
1198,1,-5,-1,-2,-1,-2,-1,0,5.99
1199,-1,0,0,-3,-3,-1,0,-1,5.995
1200,-1,6,0,0,0,1,0,0,6.0
1201,1,4,0,1,-2,-2,-1,-2,6.005
1202,0,1,-1,-1,-2,0,0,0,6.01
1203,1,2,-1,-1,0,-1,-1,0,6.015000000000001
1204,5,4,1,-2,-3,-2,-2,-3,6.0200000000000005
1205,-5,-6,-1,-1,-1,0,-2,-1,6.025
1206,0,3,2,-1,1,-1,0,-1,6.03
1207,0,1,-2,1,-1,-2,0,0,6.035
1208,-1,4,-4,-3,0,-3,-1,1,6.04
1209,-6,-16,1,0,-1,-2,-2,-2,6.045
1210,-1,-8,2,1,4,1,0,-1,6.05
1211,-2,-21,4,0,-1,2,0,0,6.055
1212,4,20,1,0,-1,-1,-1,0,6.0600000000000005
1213,-1,1,1,-1,3,0,-1,-1,6.065
1214,-2,0,1,1,-2,-2,0,0,6.07
1215,4,1,2,2,2,-3,-2,-5,6.075
1216,-5,-2,0,-1,-1,-1,1,0,6.08
1217,2,-6,-2,0,-1,1,2,0,6.085
1218,-1,-3,2,0,0,0,-2,-1,6.09
1219,-1,12,-1,-1,1,2,2,2,6.095
1220,-5,-6,-1,0,-1,0,-4,-2,6.1000000000000005
1221,5,-6,-3,-1,-2,0,0,-2,6.105
1222,5,5,2,-4,-2,0,-3,-1,6.11
1223,-3,2,-1,0,0,-2,-2,-2,6.115
1224,0,-11,-4,0,0,1,-2,-2,6.12
1225,-2,-3,0,0,1,0,1,1,6.125
1226,-2,-1,-4,1,0,-1,-1,-1,6.13
1227,1,-2,-2,-2,0,0,-2,-2,6.135
1228,-7,-5,0,-2,-2,-3,-2,-3,6.140000000000001
1229,10,13,1,-1,-1,0,0,1,6.1450000000000005
1230,-2,-4,-2,-1,-2,0,-1,-3,6.15
1231,-2,1,-2,-2,-1,-2,-1,0,6.155
1232,1,-9,2,0,0,0,1,0,6.16
1233,-2,2,0,1,-1,0,0,0,6.165
1234,1,-3,-1,-1,-1,0,-2,1,6.17
1235,-6,2,-1,-3,-3,-2,-1,-2,6.175
1236,0,25,2,-4,-1,-1,1,-1,6.18
1237,-4,4,-2,1,0,-1,0,-1,6.1850000000000005
1238,4,2,-2,-1,-1,1,1,1,6.19
1239,-5,0,1,2,0,0,0,0,6.195
1240,1,3,-2,0,1,1,0,0,6.2
1241,-3,-5,-2,-2,0,-2,-2,-1,6.205
1242,7,2,-3,-1,-1,1,1,-3,6.21
1243,0,2,-2,-4,-3,-1,-3,-3,6.215
1244,-1,-2,-1,1,-2,-2,0,-1,6.22
1245,-2,1,3,-1,0,0,0,0,6.2250000000000005
1246,-5,-9,-2,0,1,-1,-1,0,6.23
1247,-2,-10,-5,-2,-2,0,0,0,6.235
1248,-1,-8,2,1,-1,1,-1,-1,6.24
1249,-3,7,2,0,1,-1,1,-1,6.245
1250,-6,4,1,0,0,-1,0,-1,6.25
1251,1,2,-7,-3,0,1,0,-1,6.255
1252,-4,-5,-4,-5,0,-2,1,1,6.26
1253,1,-5,-2,0,-2,-1,-4,0,6.265000000000001
1254,-5,-3,2,3,1,-1,-2,-2,6.2700000000000005
1255,-6,6,5,2,0,0,1,0,6.275
1256,-1,-39,-5,-1,0,-1,0,-2,6.28
1257,-6,-1,0,-3,-2,-2,-1,-2,6.285
1258,-4,0,-1,0,-1,-1,-2,-1,6.29
1259,16,11,-2,-1,0,-3,-2,-2,6.295
1260,-1,-29,-2,3,2,0,-2,-1,6.3
1261,-6,1,1,-3,-2,-1,-1,-2,6.305
1262,-5,2,-4,-3,-1,-2,0,1,6.3100000000000005
1263,3,-8,0,1,-1,-2,-2,2,6.315
1264,2,9,-1,0,-2,-1,-1,0,6.32
1265,-2,-1,0,2,0,-2,0,-2,6.325
1266,13,1,0,-2,-1,-2,-2,-1,6.33
1267,-4,-11,-4,0,-1,1,-1,-2,6.335
1268,-2,8,2,0,0,-2,-2,-1,6.34
1269,-2,0,4,2,0,2,1,0,6.345
1270,-1,-1,-2,-2,0,0,1,-1,6.3500000000000005
1271,2,-1,3,1,1,1,0,0,6.355
1272,-5,11,1,-3,0,-1,-1,-1,6.36
1273,2,-6,-3,2,0,1,0,1,6.365
1274,3,-33,-4,-2,0,-2,-1,-1,6.37
1275,-4,-1,1,2,1,1,-1,0,6.375
1276,1,12,-2,0,-3,-1,0,-1,6.38
1277,1,-3,-1,-1,2,0,-3,-2,6.385
1278,-6,3,2,0,-1,-1,0,0,6.390000000000001
1279,-4,-2,0,-2,-2,1,1,-1,6.3950000000000005
1280,-2,2,-2,-2,-1,-1,-1,-1,6.4
1281,1,-12,-2,-3,0,-1,-2,-2,6.405
1282,-5,-8,2,0,-1,1,-1,0,6.41
1283,-10,-19,2,0,-2,-2,1,-1,6.415
1284,-4,11,0,-2,-1,0,0,0,6.42
1285,4,3,-5,-2,-2,-3,-2,0,6.425
1286,-1,3,-2,-1,-1,-1,1,1,6.43
1287,0,3,0,-1,-1,-2,1,-1,6.4350000000000005
1288,5,1,0,0,0,0,0,-1,6.44
1289,-8,-1,-2,-1,-2,-1,-3,-2,6.445
1290,5,7,4,2,0,-1,0,0,6.45
1291,-3,9,0,-5,-1,-1,-1,-1,6.455
1292,2,2,0,2,0,0,-1,-1,6.46
1293,-2,5,0,-3,-1,1,1,2,6.465
1294,-5,6,-1,0,0,0,0,-3,6.47
1295,1,-4,-2,-2,-3,-1,-1,1,6.4750000000000005
1296,1,-39,-1,-1,-1,-1,-2,-2,6.48
1297,-7,13,6,0,1,1,2,1,6.485
1298,-2,1,-5,0,-2,-1,-3,-1,6.49
1299,2,10,-1,-1,0,-2,-1,-3,6.495
1300,-3,-7,-3,-3,-2,-1,0,-3,6.5
1301,5,-2,-2,-2,-3,-1,0,1,6.505
1302,-8,-9,-4,-2,1,-1,-2,-3,6.51
1303,0,5,2,-1,-1,-3,-1,0,6.515000000000001
1304,2,11,0,-1,-1,-1,-2,-2,6.5200000000000005
1305,2,-3,-4,-2,-2,-1,0,0,6.525
1306,3,16,0,0,0,-1,0,-2,6.53
1307,1,-8,-6,-2,0,1,-1,2,6.535
1308,-1,14,-3,0,-1,-2,0,-1,6.54
1309,-2,-9,-2,-3,2,0,0,-2,6.545
1310,0,-6,-1,-1,-2,0,0,2,6.55
1311,1,24,3,-1,0,-1,-1,-1,6.555
1312,-2,6,2,-1,-2,-2,-2,-2,6.5600000000000005
1313,0,-6,-5,-3,-2,-2,-2,-2,6.565
1314,4,27,3,-2,-3,0,-1,0,6.57
1315,-3,-11,-3,-1,-2,-1,-2,-1,6.575
1316,4,8,0,2,1,0,0,2,6.58
1317,-2,4,-1,-3,-2,-1,0,-2,6.585
1318,1,-6,0,-2,-2,0,-2,-1,6.59
1319,-1,-8,-1,4,0,0,0,-1,6.595
1320,1,-8,-2,-1,-2,-2,-1,3,6.6000000000000005
1321,-3,-13,3,0,0,0,1,0,6.605
1322,1,-3,-1,1,0,0,1,-1,6.61
1323,7,16,-4,-4,-1,-4,-5,-2,6.615
1324,-2,-5,-8,-2,-1,3,2,0,6.62
1325,1,-1,-1,-1,-1,-2,-1,-1,6.625
1326,-3,4,1,-1,-2,-2,0,-1,6.63
1327,0,-21,-4,0,0,-1,0,-1,6.635
1328,0,11,0,-2,-1,-2,-2,-2,6.640000000000001
1329,0,0,-3,0,-2,-2,0,0,6.6450000000000005
1330,-1,-5,-3,-1,-1,-1,-1,-2,6.65
1331,-2,-2,2,-2,1,0,2,-1,6.655
1332,-3,1,0,-1,-1,0,-1,0,6.66
1333,-4,-8,3,1,1,1,-1,1,6.665
1334,-1,-13,0,1,0,0,-1,0,6.67
1335,-12,-21,3,0,0,0,0,-1,6.675
1336,-5,0,7,3,2,-1,0,-2,6.68
1337,-1,7,-3,-1,-1,-1,-1,-4,6.6850000000000005
1338,-1,-5,-1,0,0,1,1,1,6.69
1339,4,2,1,-1,-4,-1,0,0,6.695
1340,-6,0,1,-2,-2,-1,-1,-1,6.7
1341,0,0,0,0,-3,-1,0,-1,6.705
1342,-4,19,2,2,-1,-4,-2,-2,6.71
1343,-8,4,-2,-3,0,-2,-1,-3,6.715
1344,2,1,0,-2,-1,-1,-1,0,6.72
1345,1,-9,1,0,1,-2,0,1,6.7250000000000005
1346,0,-5,1,-1,1,0,0,0,6.73
1347,6,11,-1,-2,-2,0,0,0,6.735
1348,3,6,-6,-1,-1,-4,0,-3,6.74
1349,-4,-1,3,-1,-2,-2,-2,-1,6.745
1350,-3,-5,-5,-2,-1,0,1,0,6.75
1351,0,-5,2,1,3,2,-1,0,6.755
1352,-3,-8,-4,-3,-1,1,-1,-2,6.76
1353,8,4,-1,1,-3,-1,0,-1,6.765000000000001
1354,-4,-9,-2,-1,-1,-2,-2,-2,6.7700000000000005
1355,1,1,0,0,-2,0,0,1,6.775
1356,-7,-1,5,1,2,-1,-1,0,6.78
1357,1,-5,-6,-2,0,0,1,-1,6.785
1358,-3,5,-1,0,-1,-2,-1,-1,6.79
1359,-4,-4,0,1,1,0,-2,-3,6.795
1360,-1,-8,0,0,-2,-1,0,-1,6.8
1361,-4,7,3,1,-1,0,0,1,6.805
1362,-4,-32,0,-1,-2,-2,-1,-3,6.8100000000000005
1363,0,-5,-1,0,-1,0,1,1,6.815
1364,-5,8,-1,-2,-2,0,-1,-2,6.82
1365,8,0,-3,0,0,1,0,1,6.825
1366,-2,-8,-2,-3,-1,-1,-1,-1,6.83
1367,-5,-6,1,-1,-1,-3,-2,-1,6.835
1368,1,-2,0,4,1,0,0,-2,6.84
1369,2,6,-5,-2,-3,-1,-3,-2,6.845
1370,-1,-3,-3,0,0,1,-1,0,6.8500000000000005
1371,1,-2,-1,1,0,-1,0,-1,6.855
1372,2,6,-1,-2,-1,-1,0,0,6.86
1373,-2,-3,3,2,2,1,0,0,6.865
1374,-6,5,1,-3,-3,-1,-1,1,6.87
1375,4,6,-2,-6,-3,-2,-2,-5,6.875
1376,-3,-8,0,-3,-2,1,-1,7,6.88
1377,1,23,0,1,0,-2,-10,-7,6.885
1378,-1,5,-4,-2,1,-1,13,8,6.890000000000001
1379,10,-8,-3,-2,-3,-1,-4,-7,6.8950000000000005
1380,-2,10,5,-2,-2,-2,1,-2,6.9
1381,-7,-24,-3,-3,-2,-1,-1,0,6.905
1382,-5,-28,5,0,-2,-1,-7,-3,6.91
1383,-13,-11,0,4,2,0,1,2,6.915
1384,8,11,-4,-1,-3,-2,-2,0,6.92
1385,0,-2,-3,-3,0,4,7,-2,6.925
1386,6,14,1,-1,3,8,-42,8,6.93
1387,12,34,19,14,3,2,30,10,6.9350000000000005
1388,-23,-17,-25,2,-3,-9,-47,-5,6.94
1389,31,-2,-9,-12,0,-2,3,1,6.945
1390,-12,-1,7,6,-1,-11,26,2,6.95
1391,12,7,16,0,-2,-6,-5,-33,6.955
1392,7,14,-6,10,3,9,-4,1,6.96
1393,-13,23,-5,-4,-1,-3,1,28,6.965
1394,6,-21,0,-4,8,12,-2,0,6.97
1395,-13,-9,-13,17,-6,-3,2,2,6.9750000000000005
1396,-5,-14,3,-33,-4,-9,4,-16,6.98
1397,-6,0,30,12,2,-4,-19,-19,6.985
1398,27,17,12,0,3,7,16,22,6.99
1399,-27,29,1,6,1,1,3,2,6.995
1400,-4,-20,-7,-5,-2,5,5,19,7.0
1401,-2,-36,-4,-1,1,3,9,5,7.005
1402,32,21,0,4,-1,-2,8,53,7.01
1403,-14,-4,-8,-13,-6,-5,-28,-67,7.015000000000001
1404,-23,7,0,4,1,-3,-2,-27,7.0200000000000005
1405,-7,38,9,-6,0,-1,3,6,7.025
1406,-7,5,4,9,-6,-4,5,-20,7.03
1407,19,-30,-10,-18,1,3,-8,3,7.035
1408,-8,4,12,18,2,4,-4,9,7.04
1409,-2,-7,-2,-5,-2,-1,28,0,7.045
1410,9,0,0,3,0,-6,-28,-24,7.05
1411,-8,-3,-20,14,-5,0,5,35,7.055
1412,18,25,13,-33,0,3,33,38,7.0600000000000005
1413,20,1,-10,38,-1,-4,-21,-35,7.065
1414,-27,2,3,-26,0,-3,-29,-37,7.07
1415,16,-25,18,-2,-1,-2,0,-4,7.075
1416,16,8,10,9,2,-2,6,13,7.08
1417,9,25,-2,34,3,0,3,-12,7.085
1418,-26,30,-12,-35,-10,-4,12,-8,7.09
1419,-15,-10,-19,-9,-3,-4,-20,13,7.095
1420,7,-18,3,4,0,-1,3,-19,7.1000000000000005
1421,-18,-27,4,-9,0,3,4,16,7.105
1422,2,-10,4,16,-2,-4,-3,3,7.11
1423,8,17,-23,-9,3,6,18,14,7.115
1424,15,-5,-31,-4,-6,-2,-8,29,7.12
1425,-31,-9,8,-2,-1,-1,-12,-33,7.125
1426,-10,-12,-10,6,-4,-1,3,-8,7.13
1427,-3,-13,10,-7,4,0,1,36,7.135
1428,10,23,-4,-3,-1,-3,-3,-19,7.140000000000001
1429,7,-7,-11,3,-4,-2,-3,1,7.1450000000000005
1430,19,-8,-8,-3,-1,1,9,33,7.15
1431,2,8,3,-1,1,-1,-61,-11,7.155
1432,-4,-7,13,21,5,8,59,-25,7.16
1433,-13,-6,1,-19,-1,-6,-10,10,7.165
1434,5,-8,-1,4,-4,-9,0,-46,7.17
1435,-11,4,21,6,3,-1,-7,7,7.175
1436,7,-36,-26,11,-3,2,-22,12,7.18
1437,-21,4,6,-24,-5,-1,5,-10,7.1850000000000005
1438,-4,-30,-27,5,-1,5,12,4,7.19
1439,8,-10,3,-36,-8,-8,-2,-22,7.195
1440,3,16,-7,8,0,-1,1,26,7.2
1441,-31,-9,-14,-25,-4,-1,7,-16,7.205
1442,25,8,3,3,3,0,-6,15,7.21
1443,24,-4,1,20,-3,-2,18,-6,7.215
1444,-11,5,18,-8,1,2,4,16,7.22
1445,66,0,-4,29,6,-4,-17,-13,7.2250000000000005
1446,-75,10,-8,-28,-9,-7,-14,-35,7.23
1447,3,-4,-4,2,2,3,15,-1,7.235
1448,-10,-10,-1,-10,-1,-1,-3,-37,7.24
1449,14,-13,5,-4,0,3,1,16,7.245
1450,11,15,22,35,9,4,4,15,7.25
1451,20,39,-17,-15,-2,1,14,11,7.255
1452,-27,-2,6,-10,-5,-8,-16,-15,7.26
1453,-13,-16,-9,2,-1,1,-1,23,7.265000000000001
1454,0,-9,-4,-5,2,2,5,5,7.2700000000000005
1455,4,-3,11,12,-1,3,8,17,7.275
1456,-2,-24,2,16,1,-8,-25,-16,7.28
1457,-3,13,4,-7,-1,-2,-4,-11,7.285
1458,-2,8,-14,-24,-9,-11,-6,-10,7.29
1459,-15,-1,5,-3,2,3,6,0,7.295
1460,-3,-11,4,21,4,0,-6,-19,7.3
1461,1,-11,-21,-33,-4,-4,4,5,7.305
1462,4,-8,10,8,-1,-1,3,2,7.3100000000000005
1463,-14,-8,-13,-2,-2,-1,1,-3,7.315
1464,-9,33,-3,8,-6,1,13,8,7.32
1465,15,-2,-8,1,1,3,10,58,7.325
1466,-23,13,16,11,3,1,-12,-44,7.33
1467,4,22,3,-20,-4,-6,-18,-34,7.335
1468,14,12,10,14,3,1,-1,-1,7.34
1469,3,9,-3,-15,-2,-1,1,4,7.345
1470,5,-1,-3,52,8,9,11,19,7.3500000000000005
1471,55,-18,-15,-22,1,4,18,26,7.355
1472,-43,-23,-7,-34,-12,-8,-12,-1,7.36
1473,13,2,17,15,4,1,-3,-6,7.365
1474,18,4,-8,-8,0,0,2,25,7.37
1475,-32,14,20,29,4,2,1,-33,7.375
1476,10,9,-2,2,2,1,2,7,7.38
1477,-16,-14,-4,-33,-5,-2,-2,-11,7.385
1478,-2,5,-1,-5,-4,-2,-3,-4,7.390000000000001
1479,-10,15,-5,6,-3,-8,-10,17,7.3950000000000005
1480,7,-5,-10,5,3,7,7,0,7.4
1481,-11,10,-5,13,-1,-2,-4,-15,7.405
1482,2,-13,-6,-28,-7,-5,1,5,7.41
1483,-8,-8,7,-2,-2,0,-1,6,7.415
1484,15,29,5,35,7,3,12,13,7.42
1485,35,0,13,12,7,8,-6,12,7.425
1486,-41,-18,-13,-22,-1,-3,-6,-15,7.43
1487,-4,1,6,12,1,3,5,31,7.4350000000000005
1488,-2,-7,1,-2,-1,4,-1,-11,7.44
1489,15,7,-7,26,0,-5,6,11,7.445
1490,-10,22,1,-18,-5,-2,-5,-33,7.45
1491,-10,-26,-3,9,1,1,10,18,7.455
1492,-12,-16,4,17,2,2,1,14,7.46
1493,7,10,-20,-40,-12,-6,-11,-16,7.465
1494,1,-27,-7,-1,-3,-1,-3,-1,7.47
1495,19,17,3,12,1,-1,-4,-9,7.4750000000000005
1496,-13,-10,-1,-31,0,1,5,12,7.48
1497,-5,18,31,28,4,4,3,6,7.485
1498,5,-8,-12,4,7,3,2,-2,7.49
1499,-22,-6,-16,-17,-10,-6,-1,-10,7.495
1500,32,-12,-9,-13,-4,-5,-1,3,7.5
1501,-25,-5,-3,-9,-8,-4,-4,-13,7.505
1502,32,-7,15,-9,2,-1,-3,12,7.51
1503,-1,6,-4,7,-7,-8,-6,-6,7.515000000000001
1504,-1,2,2,13,11,7,-2,-13,7.5200000000000005
1505,-25,-19,12,7,9,9,11,3,7.525
1506,13,-29,-19,-32,-11,-5,3,10,7.53
1507,-9,40,23,6,4,3,-2,9,7.535
1508,9,4,-29,9,-11,-4,-2,-11,7.54
1509,5,-12,-6,-16,-5,-4,0,5,7.545
1510,-3,-2,10,34,8,7,12,-11,7.55
1511,-19,38,12,-10,1,2,-2,32,7.555
1512,47,1,1,-1,0,-3,-15,-18,7.5600000000000005
1513,0,35,13,19,1,-1,2,-12,7.565
1514,-3,-4,-10,16,2,-2,-5,22,7.57
1515,-10,-14,-25,-21,0,-2,2,-21,7.575
1516,-11,3,13,-14,-2,-2,0,15,7.58
1517,24,-1,-14,13,-4,-5,-5,10,7.585
1518,7,24,13,2,-1,1,7,5,7.59
1519,-2,-25,8,1,1,2,-7,-16,7.595
1520,-15,38,-10,-25,-10,-10,-11,-13,7.6000000000000005
1521,-25,-17,20,23,3,3,3,-3,7.605
1522,4,-16,-21,-35,-4,-5,-5,-1,7.61
1523,-4,-28,-7,1,1,0,3,-7,7.615
1524,4,3,21,15,5,4,2,-2,7.62
1525,-16,-16,-19,-26,-11,-5,1,-2,7.625
1526,3,26,10,5,4,2,1,4,7.63
1527,25,-7,8,18,3,2,-1,-10,7.635
1528,-17,-14,33,-9,0,-1,-1,3,7.640000000000001
1529,27,-19,-39,-10,-5,-1,2,-4,7.6450000000000005
1530,-13,-11,-13,-24,-8,-6,-2,20,7.65
1531,-2,-10,6,-1,0,-1,-4,-13,7.655
1532,18,-15,-2,2,-1,0,6,-4,7.66
1533,-54,-25,15,5,1,-1,-8,-23,7.665
1534,1,3,2,5,0,0,0,8,7.67
1535,-9,-2,-23,-5,1,-3,2,-5,7.675
1536,17,-15,3,-14,-9,-9,-13,-17,7.68
1537,4,4,-9,-8,-1,-2,-3,-5,7.6850000000000005
1538,-8,-18,16,36,5,2,3,-13,7.69
1539,-10,0,-3,-14,-1,-3,-5,7,7.695
1540,4,-2,4,8,2,3,2,-10,7.7
1541,3,32,-14,-11,-4,1,13,17,7.705
1542,-13,10,15,-15,-8,-7,-16,-20,7.71
1543,9,-27,-13,16,3,4,7,19,7.715
1544,-13,8,-2,-24,-5,-2,4,14,7.72
1545,-4,-1,15,24,2,-3,-10,-20,7.7250000000000005
1546,-11,23,8,0,0,0,2,-1,7.73
1547,2,27,-8,-15,-6,-4,-1,-8,7.735
1548,-10,-9,1,5,3,1,4,10,7.74
1549,4,9,10,-6,3,-3,0,7,7.745
1550,7,-3,-10,16,8,6,1,3,7.75
1551,-2,-19,20,16,0,-1,-3,-12,7.755
1552,-5,-10,-16,-19,-8,-9,-4,1,7.76
1553,-9,5,11,16,9,7,8,10,7.765000000000001
1554,13,-14,-28,-22,-3,5,1,-5,7.7700000000000005
1555,11,1,17,12,-1,0,1,2,7.775
1556,-6,4,-9,0,3,0,2,12,7.78
1557,-1,-7,3,-11,-2,-3,-6,-22,7.785
1558,-1,4,-4,3,0,1,8,3,7.79
1559,9,-18,2,-6,-4,-4,-14,-13,7.795
1560,-8,-40,-11,-5,-1,-2,-5,-5,7.8
1561,2,15,-1,-3,-5,-2,-2,-1,7.805000000000001
1562,-1,-16,11,12,-2,0,-3,10,7.8100000000000005
1563,12,24,-14,9,5,2,6,2,7.815
1564,-14,-1,6,-31,-2,-4,-5,1,7.82
1565,-6,-20,-13,4,-2,-4,-7,-2,7.825
1566,19,7,20,35,6,1,3,5,7.83
1567,-6,-37,-24,-46,-5,2,4,1,7.835
1568,-5,6,-2,12,1,-1,-8,1,7.84
1569,-13,10,-6,-7,-2,-4,1,5,7.845
1570,23,20,6,-2,-5,-6,-7,-4,7.8500000000000005
1571,-9,9,11,14,2,1,0,1,7.855
1572,0,13,-5,12,1,3,7,-4,7.86
1573,-3,-17,-4,-18,-2,0,-3,0,7.865
1574,-2,27,9,6,0,-2,-3,-1,7.87
1575,-4,3,-16,-12,-5,-2,2,-7,7.875
1576,-4,-1,-5,0,1,1,3,3,7.88
1577,4,-2,13,10,2,0,-7,-3,7.885
1578,-5,-5,3,-4,1,0,0,1,7.890000000000001
1579,2,-4,-4,-6,-1,0,0,2,7.8950000000000005
1580,-5,12,3,6,-1,1,-1,-7,7.9
1581,4,-1,-6,3,1,-1,1,3,7.905
1582,3,0,-9,-12,-5,-7,0,7,7.91
1583,-8,-1,1,0,-2,-1,-3,-4,7.915
1584,-4,-6,1,1,-3,-4,-4,-7,7.92
1585,13,3,3,1,-2,-2,0,4,7.925
1586,-2,-8,2,-4,1,3,-1,-5,7.930000000000001
1587,-7,-7,-2,1,-4,-4,-2,-1,7.9350000000000005
1588,0,-8,-5,-7,-1,-2,-1,3,7.94
1589,-1,-3,-6,-4,-1,0,-2,1,7.945
1590,-7,3,-1,18,-6,1,0,-3,7.95
1591,0,4,4,-14,2,-2,-3,1,7.955
1592,5,2,9,2,4,-4,0,-3,7.96
1593,-5,-16,3,-3,-1,-2,1,0,7.965
1594,-5,-18,-4,-4,0,0,1,-6,7.97
1595,-4,7,5,10,-1,3,3,4,7.9750000000000005
1596,5,4,-8,1,-5,0,-1,5,7.98
1597,0,-7,1,-5,-1,1,-3,-7,7.985
1598,-2,-11,-3,-2,-2,-4,-3,-1,7.99
1599,-2,-50,-5,-2,-2,-5,-4,-1,7.995
1600,0,10,-6,-2,0,3,2,-1,8.0
1601,-10,1,-4,2,-1,2,1,2,8.005
1602,-4,7,-2,-3,2,3,-1,-6,8.01
1603,-8,5,1,-2,-5,-5,-4,-3,8.015
1604,1,-1,5,-4,-4,-2,0,1,8.02
1605,-7,1,2,-5,-5,-7,-4,-2,8.025
1606,1,10,-9,-9,-1,1,0,-1,8.03
1607,-3,15,7,7,2,3,-1,0,8.035
1608,-1,-1,1,4,1,3,2,0,8.040000000000001
1609,20,12,-3,-1,-3,-1,1,6,8.045
1610,-12,-3,6,-1,3,-1,0,-5,8.05
1611,2,-3,-4,1,2,0,-3,-3,8.055
1612,2,0,-1,-3,-3,-3,-4,-6,8.06
1613,3,7,-3,-5,-1,1,3,4,8.065
1614,5,-3,-6,-3,-1,0,0,2,8.07
1615,-2,38,11,5,0,3,4,4,8.075
1616,-10,-15,-9,3,2,-1,0,-1,8.08
1617,6,7,2,-8,-4,-6,-6,-3,8.085
1618,-4,-2,-4,-5,-6,-8,-7,-4,8.09
1619,2,-1,-2,-1,-1,2,1,0,8.095
1620,1,3,0,-1,1,1,-1,2,8.1
1621,-3,7,-2,6,3,5,4,3,8.105
1622,3,-3,-3,-4,0,0,2,2,8.11
1623,1,-13,-3,-5,-4,-6,-6,-6,8.115
1624,-8,-1,-1,2,-3,-2,0,-3,8.120000000000001
1625,-1,-11,-3,0,1,1,-2,-2,8.125
1626,1,23,1,0,0,1,0,-7,8.13
1627,6,-9,-8,4,3,4,4,8,8.135
1628,0,-12,4,1,-2,-2,1,-3,8.14
1629,-13,-2,2,-4,-4,-4,-4,-2,8.145
1630,-1,-7,0,0,2,-1,-2,0,8.15
1631,4,-2,-5,-1,-2,-2,-1,-3,8.155
1632,10,10,4,1,2,4,0,-2,8.16
1633,-1,-7,-1,5,0,2,2,1,8.165000000000001
1634,1,-17,0,-4,-1,0,0,1,8.17
1635,0,25,1,2,-1,-1,1,2,8.175
1636,-2,-1,0,-4,-3,-5,-4,-1,8.18
1637,8,21,0,-3,1,1,2,-1,8.185
1638,-3,1,-6,-4,-4,-4,-4,-4,8.19
1639,9,-4,-3,-2,-3,-6,-3,-4,8.195
1640,-2,6,-3,0,0,3,1,0,8.2
1641,-4,18,-1,0,2,1,0,1,8.205
1642,4,15,1,1,0,-1,-2,1,8.21
1643,-8,-5,-5,-1,-3,-4,-3,-2,8.215
1644,2,-6,-4,-1,-2,-3,-3,-2,8.22
1645,2,-8,-1,0,-1,-2,-1,-1,8.225
1646,-9,-6,4,3,2,1,-1,2,8.23
1647,6,-1,6,0,0,0,-1,-3,8.235
1648,-5,2,6,0,0,1,1,-1,8.24
1649,-5,-15,1,1,1,2,3,1,8.245000000000001
1650,-11,-31,2,-1,-2,-3,1,-1,8.25
1651,-10,-5,-2,-4,-2,-2,-3,-3,8.255
1652,6,6,2,1,0,-2,0,0,8.26
1653,8,-4,-1,-2,-2,0,-1,0,8.265
1654,1,-8,4,-2,-2,-1,0,2,8.27
1655,-3,-11,-3,1,-1,1,1,2,8.275
1656,3,-4,-7,1,3,3,1,-1,8.28
1657,-7,9,-5,0,-1,-1,-1,0,8.285
1658,1,12,-2,-2,-3,-7,-5,-7,8.290000000000001
1659,-7,3,1,-1,1,0,0,0,8.295
1660,-2,0,-4,-3,-2,0,-2,-1,8.3
1661,-1,-5,-4,-2,0,1,-1,-1,8.305
1662,8,13,0,3,1,3,4,5,8.31
1663,6,7,0,-2,-4,-1,-1,-1,8.315
1664,-19,2,1,-3,-4,-7,-4,-4,8.32
1665,4,-3,2,0,2,-1,-1,0,8.325
1666,-1,-3,0,-3,0,-1,-2,-2,8.33
1667,-1,-8,-2,1,3,4,2,0,8.335
1668,2,8,3,0,0,1,0,1,8.34
1669,16,-34,0,1,0,0,2,3,8.345
1670,-13,-2,-1,-4,-2,-1,-3,-3,8.35
1671,-10,-4,1,-2,-1,-1,-3,-4,8.355
1672,-2,-14,-3,-4,-2,-1,-3,-4,8.36
1673,-7,-8,1,0,0,-2,-1,-3,8.365
1674,3,3,-3,3,2,4,2,1,8.370000000000001
1675,-1,-4,-1,0,-2,-5,-4,-2,8.375
1676,-1,-2,0,0,-1,-1,0,2,8.38
1677,0,3,-3,-1,-2,-1,-1,0,8.385
1678,9,3,-1,-1,1,-3,-2,-1,8.39
1679,-5,9,4,0,0,-1,0,0,8.395
1680,12,0,6,1,-1,-2,-1,0,8.4
1681,-11,15,4,2,2,-1,0,-3,8.405
1682,0,8,-7,-2,-2,-1,-2,-1,8.41
1683,3,-14,-4,-3,-2,-2,0,-1,8.415000000000001
1684,2,-7,-3,-1,0,-1,-1,-1,8.42
1685,-1,-4,-8,-4,-2,-1,-2,-1,8.425
1686,-3,0,2,3,-1,-3,-2,-2,8.43
1687,0,-15,4,3,2,3,1,-1,8.435
1688,-10,14,1,-3,-1,1,0,0,8.44
1689,-5,4,-3,-3,-4,-3,-3,-2,8.445
1690,0,-8,2,2,0,1,-1,0,8.45
1691,-4,-18,-2,1,0,0,1,-1,8.455
1692,5,0,3,3,1,0,2,2,8.46
1693,13,6,0,-1,-1,-4,-3,-3,8.465
1694,-4,2,-1,-3,1,1,0,-1,8.47
1695,-2,17,0,-2,-1,-2,-3,-3,8.475
1696,-6,-11,0,-2,-2,-3,-3,-2,8.48
1697,2,-13,1,-2,-2,-1,0,1,8.485
1698,5,-8,-3,-1,-1,-2,-2,-2,8.49
1699,-14,10,1,1,1,3,1,1,8.495000000000001
1700,5,-2,-6,-5,-1,0,-2,-2,8.5
1701,-8,5,6,0,-2,-1,0,0,8.505
1702,5,-28,-1,0,0,0,2,0,8.51
1703,-10,-11,-3,1,0,0,-2,-1,8.515
1704,1,-1,-3,-1,2,1,0,-1,8.52
1705,5,7,2,1,1,-1,-2,-4,8.525
1706,-6,-6,-8,-6,-2,-1,-1,0,8.53
1707,10,18,-3,-2,-2,-5,-1,0,8.535
1708,-6,-4,-1,1,-1,-1,-2,0,8.540000000000001
1709,-1,-2,0,0,1,2,-1,1,8.545
1710,-3,10,1,-1,-4,-2,-2,-3,8.55
1711,3,1,0,0,-1,1,-1,2,8.555
1712,3,0,0,1,1,1,1,1,8.56
1713,-6,-10,-1,-2,0,-2,-1,-1,8.565
1714,3,9,-2,-1,-1,0,0,2,8.57
1715,4,4,0,0,-1,-1,0,-1,8.575000000000001
1716,6,7,-1,-1,-1,0,0,2,8.58
1717,-4,-9,-11,-7,-2,1,0,-2,8.585
1718,-3,44,3,-3,-4,-1,-2,0,8.59
1719,7,16,-9,-3,-3,-3,-3,-2,8.595
1720,4,3,-2,-2,-2,-1,1,1,8.6
1721,-6,10,-1,2,-1,-1,0,-1,8.605
1722,8,-5,2,1,1,0,1,0,8.61
1723,0,-1,3,-2,0,1,-1,-2,8.615
1724,-6,1,-3,-1,-4,-3,-2,-3,8.620000000000001
1725,-4,-3,0,-1,1,-2,-1,0,8.625
1726,3,-14,-2,-1,1,-3,-1,-1,8.63
1727,9,0,1,4,3,1,0,-1,8.635
1728,-8,4,2,-2,-4,0,0,-2,8.64
1729,-2,-19,-3,-2,-4,-2,-1,-2,8.645
1730,-4,-17,-5,2,0,1,2,0,8.65
1731,-6,-9,0,-1,0,-1,-1,0,8.655
1732,5,-1,0,0,2,1,0,1,8.66
1733,5,8,-2,-1,-3,-2,-3,-2,8.665000000000001
1734,-2,10,4,2,-2,0,-2,-1,8.67
1735,-3,-9,-2,-3,-2,-2,-1,-1,8.675
1736,5,17,-3,-1,0,-2,0,-1,8.68
1737,-4,2,6,4,1,1,1,0,8.685
1738,2,-10,-7,-2,-1,-3,-4,-3,8.69
1739,-7,10,-2,-1,0,0,0,0,8.695
1740,3,-6,-3,-2,-2,-1,-2,-2,8.700000000000001
1741,8,8,1,1,-1,0,0,-2,8.705
1742,-18,-2,0,-1,-1,-2,0,-3,8.71
1743,-6,-11,1,-3,-5,-3,-1,-3,8.715
1744,11,-12,2,4,1,-2,-2,0,8.72
1745,-3,-2,-11,-6,-1,0,1,2,8.725
1746,-4,-11,4,1,-1,1,1,1,8.73
1747,-5,-5,4,3,2,3,1,2,8.735
1748,-5,-7,-4,-2,0,1,1,-1,8.74
1749,-8,-1,0,-1,0,0,-3,-1,8.745000000000001
1750,2,8,0,-1,1,1,-1,0,8.75
1751,4,-14,-4,0,-1,-1,-1,-3,8.755
1752,-6,-31,1,-4,-3,2,0,-1,8.76
1753,2,6,-1,-1,0,-2,-2,-2,8.765
1754,-3,5,-2,-4,-2,-1,-2,-1,8.77
1755,2,9,3,1,0,-3,-1,-2,8.775
1756,-5,0,-1,-2,-2,-2,0,3,8.78
1757,-20,-31,1,-3,-2,-4,-2,-4,8.785
1758,12,-5,-4,0,-1,-1,-1,0,8.790000000000001
1759,2,3,-2,-1,0,0,1,0,8.795
1760,-1,4,-4,-1,2,0,-1,0,8.8
1761,1,17,0,1,-1,1,-1,1,8.805
1762,4,16,1,-1,-1,1,-1,-2,8.81
1763,-7,-2,-1,-1,-1,0,1,0,8.815
1764,8,7,1,0,0,-3,1,-3,8.82
1765,0,3,0,-2,-1,0,-1,-1,8.825000000000001
1766,4,-1,2,-2,-1,-1,-3,-2,8.83
1767,-7,1,2,2,0,0,0,-3,8.835
1768,-4,11,-6,-1,3,3,-1,-2,8.84
1769,3,0,0,0,-1,-1,-1,-1,8.845
1770,-3,-13,0,0,0,-1,1,2,8.85
1771,6,7,-2,-1,0,-1,0,2,8.855
1772,-10,-8,-1,2,-2,-2,-2,-3,8.86
1773,1,0,0,1,0,-2,-2,1,8.865
1774,-2,-5,-3,0,0,0,0,-1,8.870000000000001
1775,-1,0,3,-1,-3,-2,-5,1,8.875
1776,7,7,3,-3,-2,-2,-1,1,8.88
1777,-15,3,-3,1,2,2,1,0,8.885
1778,-6,-2,9,-1,-1,1,1,0,8.89
1779,-9,18,8,-2,-1,-2,0,-1,8.895
1780,-11,-1,-4,-4,-4,-1,-4,-4,8.9
1781,1,1,-2,-1,1,0,1,0,8.905
1782,5,7,-4,-1,0,-1,1,1,8.91
1783,-2,-13,2,-1,0,1,-1,-1,8.915000000000001
1784,-2,3,1,1,-1,0,-1,-2,8.92
1785,5,10,0,0,-1,-1,-2,0,8.925
1786,0,-11,-3,-1,-1,-2,-1,-1,8.93
1787,8,-3,-4,-2,-1,-2,-3,0,8.935
1788,-3,-1,-1,-2,0,-1,-4,-1,8.94
1789,4,-3,2,1,0,3,1,-2,8.945
1790,-4,-5,2,0,0,0,0,1,8.950000000000001
1791,12,13,-3,0,-1,-1,0,2,8.955
1792,11,30,-5,-2,1,2,3,1,8.96
1793,-6,-19,4,-2,-5,-6,-5,-4,8.965
1794,-5,5,1,1,-1,-1,-1,-1,8.97
1795,-5,2,-1,-1,-1,-2,-4,-2,8.975
1796,5,-15,2,2,0,-1,0,1,8.98
1797,9,10,-1,-1,-1,1,1,1,8.985
1798,1,4,-4,0,1,0,-1,-1,8.99
1799,4,-9,-3,-2,0,0,-1,1,8.995000000000001
1800,-3,-4,0,2,0,-2,0,0,9.0
1801,-1,-15,0,0,-2,-1,0,-1,9.005
1802,-6,-5,3,1,-1,-3,-2,-2,9.01
1803,9,-10,-4,-2,-1,0,0,-1,9.015
1804,-8,-12,-3,-3,1,2,0,-1,9.02
1805,-5,-23,-4,-3,-1,-3,-3,-2,9.025
1806,-2,15,0,-3,-2,0,-2,-2,9.03
1807,-5,-5,-1,-1,-1,-1,-1,-1,9.035
1808,1,2,0,1,-2,0,-2,-1,9.040000000000001
1809,20,10,0,1,0,-3,0,2,9.045
1810,-2,-1,-2,0,-1,-1,0,-3,9.05
1811,-2,-6,-1,-1,0,-1,-1,-1,9.055
1812,-6,-3,2,-2,-1,-1,0,-1,9.06
1813,-2,-1,-2,-3,-2,-2,-3,0,9.065
1814,4,6,4,1,-1,-2,-3,-2,9.07
1815,-13,-21,-2,0,-1,0,1,-1,9.075000000000001
1816,1,4,0,-1,0,-3,-1,1,9.08
1817,1,2,-4,-1,1,3,3,-1,9.085
1818,-4,13,-5,-2,0,-1,-2,1,9.09
1819,6,0,-1,-1,-1,-2,-2,-1,9.095
1820,-3,-3,1,0,-1,-1,-1,-2,9.1
1821,1,7,2,1,0,1,0,-1,9.105
1822,-3,-8,0,-1,-2,0,1,-1,9.11
1823,-1,-1,1,0,-1,-1,0,1,9.115
1824,12,-9,0,0,-3,-1,-1,-3,9.120000000000001
1825,1,12,1,0,0,-1,0,0,9.125
1826,-5,-7,-2,-3,-1,-2,-2,-2,9.13
1827,-2,-9,1,-3,1,1,-1,-1,9.135
1828,4,-5,-3,0,-1,-4,-2,-2,9.14
1829,-4,-4,-5,0,0,2,1,1,9.145
1830,-2,-1,-4,-1,0,-1,0,-1,9.15
1831,-2,7,-1,-3,-4,-2,-2,-2,9.155
1832,-11,0,0,1,0,2,0,0,9.16
1833,7,-4,0,-2,-3,-2,-2,-2,9.165000000000001
1834,-7,-14,1,0,-1,0,0,-1,9.17
1835,-1,3,1,0,0,0,0,0,9.175
1836,1,0,0,0,0,2,-1,1,9.18
1837,-5,12,1,0,-3,-2,-2,0,9.185
1838,5,-2,1,1,-1,0,0,0,9.19
1839,5,2,-8,-1,-1,-2,-2,-3,9.195
1840,-10,0,2,-1,1,-2,-2,-2,9.200000000000001
1841,-12,3,-1,-1,1,0,1,2,9.205
1842,4,2,-3,-1,-2,0,0,0,9.21
1843,0,-4,-1,-4,-3,-3,-3,-3,9.215
1844,-6,-11,-4,-1,0,-1,-1,-1,9.22
1845,-1,0,0,2,0,-1,-1,-2,9.225
1846,-2,2,-2,0,-1,0,-1,-1,9.23
1847,-6,3,-1,0,1,-3,-1,0,9.235
1848,4,3,2,1,0,-1,-1,0,9.24
1849,-7,-2,0,-2,-3,-1,-2,-3,9.245000000000001
1850,3,-20,3,1,0,2,1,0,9.25
1851,-4,-8,-6,1,1,0,1,0,9.255
1852,-4,3,2,0,-1,-2,-1,0,9.26
1853,1,19,-2,0,-2,-1,-1,-1,9.265
1854,0,-14,-1,1,-2,1,-1,-1,9.27
1855,-6,3,5,2,2,1,1,-1,9.275
1856,-5,3,1,-4,0,0,0,0,9.28
1857,2,-9,-5,-1,2,1,0,0,9.285
1858,4,7,-2,-1,0,-1,0,0,9.290000000000001
1859,-2,4,-1,-2,-3,-2,-2,-2,9.295
1860,4,4,0,-5,-5,-2,-1,-1,9.3
1861,-8,-11,2,0,1,2,2,1,9.305
1862,20,23,1,-3,-1,-3,-3,-2,9.31
1863,-7,-7,-5,-3,-2,0,-1,-1,9.315
1864,-3,-3,4,4,0,-1,1,0,9.32
1865,-3,-6,-1,0,-1,0,-2,-3,9.325000000000001
1866,-9,4,-2,-1,0,0,-1,0,9.33
1867,5,2,2,-1,-2,-1,0,0,9.335
1868,3,-1,0,1,-2,1,-1,-1,9.34
1869,1,3,-1,-2,-1,-2,-1,1,9.345
1870,-10,-13,-5,1,2,-2,0,-2,9.35
1871,8,26,1,-2,-3,-4,-3,0,9.355
1872,-6,-12,-7,-2,-1,1,1,-1,9.36
1873,3,-7,-1,0,-2,-2,-1,0,9.365
1874,5,2,0,-2,-2,-1,-3,0,9.370000000000001
1875,-8,-4,0,1,-1,3,2,2,9.375
1876,-2,-4,-1,0,-1,-2,-2,-1,9.38
1877,11,18,1,-3,-2,-3,-3,-1,9.385
1878,-3,-15,-6,-1,-1,0,-2,-2,9.39
1879,-3,-2,-2,-1,0,-1,0,1,9.395
1880,-3,3,-3,-2,0,-1,0,2,9.4
1881,19,-5,0,-2,1,-1,-1,-1,9.405
1882,-16,-3,0,-3,-3,0,-4,-1,9.41
1883,2,-1,1,1,2,1,2,2,9.415000000000001
1884,18,10,-3,-2,0,-3,-1,-1,9.42
1885,-10,-8,-4,-3,-1,2,2,-1,9.425
1886,5,-7,0,-3,-2,-3,-2,-1,9.43
1887,-2,-13,-1,1,-3,0,-1,-3,9.435
1888,-4,-16,-1,-2,1,1,-1,1,9.44
1889,2,24,-4,0,0,-3,-1,1,9.445
1890,4,0,-1,0,0,0,2,0,9.450000000000001
1891,-7,4,-4,-2,-2,0,-2,1,9.455
1892,2,-6,-1,-1,-1,-2,-2,-2,9.46
1893,-5,-17,0,-1,-1,-1,-2,-2,9.465
1894,2,-3,0,-2,-4,-3,-1,-2,9.47
1895,0,-8,5,1,0,1,-2,-1,9.475
1896,-5,-2,-5,-2,-1,-1,0,0,9.48
1897,-5,0,3,2,-1,1,2,0,9.485
1898,2,4,-3,-1,-1,1,1,-1,9.49
1899,-2,-4,0,-1,-1,-1,0,1,9.495000000000001
1900,5,5,-1,1,-2,0,1,-1,9.5
1901,-6,-2,2,0,-1,0,-2,-2,9.505
1902,-5,5,1,2,0,-1,-2,-1,9.51
1903,7,0,0,-3,0,-1,-4,-1,9.515
1904,-10,7,2,0,0,-1,-2,-1,9.52
1905,2,-5,-2,0,-1,-4,-1,1,9.525
1906,-9,15,6,3,2,2,3,-1,9.53
1907,8,1,-2,-1,1,-1,0,-2,9.535
1908,-1,8,5,0,0,1,-1,0,9.540000000000001
1909,4,-13,-5,-2,-5,-3,-2,-1,9.545
1910,-3,0,0,-1,2,-1,0,1,9.55
1911,3,8,0,-1,-1,-1,0,-1,9.555
1912,0,-2,-2,-1,0,0,-1,-3,9.56
1913,0,0,1,1,1,1,-1,-2,9.565
1914,1,3,-1,-2,-1,-2,0,-1,9.57
1915,1,-3,0,0,-1,-1,1,-1,9.575000000000001
1916,1,-5,-3,-3,-2,-1,1,2,9.58
1917,-15,-5,-2,-4,-2,-1,0,-1,9.585
1918,8,-10,-3,1,0,0,0,1,9.59
1919,-8,0,2,-2,-2,-2,-1,-2,9.595
1920,-6,0,-2,0,0,0,-2,0,9.6
1921,2,10,-1,-2,0,-1,-1,0,9.605
1922,-13,-14,-2,-2,-3,-2,-2,0,9.61
1923,-1,7,2,3,1,4,1,-2,9.615
1924,-2,-13,-5,-2,-1,2,0,-2,9.620000000000001
1925,3,-5,-2,-1,-3,-4,-1,0,9.625
1926,3,6,-3,-1,0,0,1,0,9.63
1927,-2,-3,-1,1,1,0,0,-1,9.635
1928,1,-2,1,0,-2,-3,-1,-2,9.64
1929,-1,-3,0,-2,0,1,-2,0,9.645
1930,3,-1,-3,-4,-3,-2,-4,-2,9.65
1931,6,9,-1,-2,-3,-1,-2,0,9.655
1932,2,1,-4,-1,-1,-1,-2,-4,9.66
1933,-8,-8,-8,-3,1,4,2,1,9.665000000000001
1934,6,7,-1,-2,-3,-1,0,-1,9.67
1935,-2,-5,0,-2,-2,-1,1,3,9.675
1936,6,7,2,1,1,-4,0,0,9.68
1937,-7,5,2,0,-3,-3,-1,-1,9.685
1938,-6,-5,-2,0,0,1,0,-2,9.69
1939,-2,-10,-4,-4,-3,-2,-2,-2,9.695
1940,-3,-4,1,1,-1,1,0,0,9.700000000000001
1941,4,-1,1,2,1,0,0,0,9.705
1942,5,0,4,-1,1,0,1,-1,9.71
1943,-7,0,0,1,-1,-3,-3,-2,9.715
1944,3,41,3,-1,0,1,1,1,9.72
1945,3,-5,-1,1,1,0,-1,-2,9.725
1946,-3,-11,1,2,-1,1,-1,1,9.73
1947,-1,4,-4,-1,-1,-3,0,-1,9.735
1948,-2,-26,-8,-7,-1,0,-3,-2,9.74
1949,2,1,1,1,-1,-1,-1,0,9.745000000000001
1950,-1,11,1,0,2,0,-2,0,9.75
1951,-2,-19,-1,0,0,-1,1,-1,9.755
1952,-1,-8,1,2,0,-1,0,-1,9.76
1953,8,2,2,-3,-1,0,2,0,9.765
1954,-23,-10,-6,-4,-2,-3,-3,-3,9.77
1955,14,-8,-2,-1,-1,-1,-1,-1,9.775
1956,-8,-3,0,1,0,-1,-1,2,9.78
1957,-2,9,-1,-1,-1,-2,-2,-3,9.785
1958,8,8,-1,-2,-1,-3,-2,-2,9.790000000000001
1959,-3,2,-2,-1,2,0,0,0,9.795
1960,2,-19,-3,1,-1,-1,1,-1,9.8
1961,0,-5,-2,0,-2,-3,-1,-2,9.805
1962,0,5,-1,1,-1,0,1,2,9.81
1963,1,2,0,0,-2,-1,-3,-1,9.815
1964,-2,2,2,-3,-1,-2,-1,-1,9.82
1965,-7,1,0,-1,1,-2,0,1,9.825000000000001
1966,7,-8,-1,1,0,0,-1,-2,9.83
1967,-3,23,5,2,-1,-3,0,0,9.835
1968,3,10,6,3,1,1,1,0,9.84
1969,-4,-8,-3,-4,-2,-1,0,-2,9.845
1970,4,-6,-3,-3,-1,0,0,1,9.85
1971,-1,3,-3,1,0,2,1,0,9.855
1972,-3,-8,-3,-2,-3,-3,-4,-2,9.86
1973,-4,8,2,1,0,0,1,-1,9.865
1974,7,4,0,1,1,-2,0,0,9.870000000000001
1975,4,-2,-1,-3,-1,0,0,-1,9.875
1976,-9,-3,1,1,2,0,-1,-2,9.88
1977,4,15,5,-5,-3,-1,-1,1,9.885
1978,1,-15,2,2,2,3,1,-1,9.89
1979,-7,-5,-5,-2,-1,-2,-2,-2,9.895
1980,-2,-5,-1,-3,-2,0,-1,0,9.9
1981,-3,-5,0,1,1,0,0,0,9.905
1982,6,5,3,-2,-2,-2,0,0,9.91
1983,-6,-2,-1,0,-2,-1,-1,-1,9.915000000000001
1984,4,3,1,0,0,0,-1,0,9.92
1985,1,-6,-2,1,-1,1,0,-1,9.925
1986,-6,27,-2,-4,-3,-3,0,1,9.93
1987,-6,-13,-3,0,0,0,0,-1,9.935
1988,5,-5,-1,-3,-6,-4,-1,0,9.94
1989,2,10,0,0,0,0,-1,0,9.945
1990,-4,-6,-1,0,-2,2,-2,-1,9.950000000000001
1991,4,-8,1,2,-1,-1,0,0,9.955
1992,-11,-18,13,4,2,0,2,1,9.96
1993,-7,-6,-7,-7,-2,-4,-4,-3,9.965
1994,-3,-10,-3,-5,-5,-4,-3,-5,9.97
1995,-7,7,-1,-3,-2,-2,-4,-3,9.975
1996,1,-4,-4,0,0,1,-1,-1,9.98
1997,1,-2,0,3,2,1,2,1,9.985
1998,-3,3,-2,-2,-2,-2,-1,0,9.99
1999,0,1,0,-2,-1,0,0,1,9.995000000000001
2000,3,-1,-2,-1,0,-1,1,0,10.0
2001,-7,1,1,0,-1,1,-1,-1,10.005
2002,-2,1,2,4,3,2,-1,-3,10.01
2003,4,-10,-4,-4,2,-1,0,-2,10.015
2004,0,7,-2,-3,-2,-1,1,-1,10.02
2005,-4,2,-4,-1,-2,-3,-1,-1,10.025
2006,2,-4,-2,0,-1,1,0,1,10.03
2007,0,2,1,1,1,1,1,2,10.035
2008,-4,-1,-2,-3,-1,-2,-2,-2,10.040000000000001
2009,11,-13,0,0,0,-2,-1,-2,10.045
2010,-7,-1,-1,-2,-2,-3,0,-1,10.05
2011,-2,-3,0,2,0,-1,-1,0,10.055
2012,-9,-22,1,-3,0,0,0,-1,10.06
2013,6,17,-2,-1,0,3,1,1,10.065
2014,1,2,-4,0,-1,-3,-2,-1,10.07
2015,0,0,-1,0,0,-1,1,-1,10.075000000000001
2016,4,5,0,0,-4,-2,-3,-3,10.08
2017,-4,-4,0,2,0,0,0,1,10.085
2018,-4,-4,2,-1,-1,-1,-1,-2,10.09
2019,3,-6,-1,-3,-2,0,-1,0,10.095
2020,4,8,-4,0,1,0,0,-1,10.1
2021,-3,1,-1,-1,-3,-1,0,1,10.105
2022,13,-19,-3,-5,0,-1,0,0,10.11
2023,-2,19,-1,-5,-4,-2,-2,-2,10.115
2024,6,15,-6,-1,-1,-2,-1,1,10.120000000000001
2025,-2,-10,-3,-1,0,0,0,-3,10.125
2026,-6,-4,-1,0,0,-1,0,0,10.13
2027,9,1,2,3,1,0,-1,0,10.135
2028,-7,7,3,-4,-3,-1,0,-4,10.14
2029,-2,-10,-2,-2,-2,1,0,-2,10.145
2030,-5,11,0,-2,0,-1,0,-1,10.15
2031,1,-6,-3,-1,1,0,-1,1,10.155
2032,-2,5,2,2,2,0,-1,0,10.16
2033,-6,-5,1,0,-1,-1,-1,-1,10.165000000000001
2034,1,1,0,-2,-1,1,-1,-1,10.17
2035,-2,6,2,-1,-1,-1,-1,0,10.175
2036,-3,-16,-6,-1,0,0,0,-1,10.18
2037,-3,11,0,-1,-1,0,-2,-1,10.185
2038,7,0,0,4,0,1,3,3,10.19
2039,-5,-4,1,-3,-2,-1,-1,-2,10.195
2040,-3,-3,-4,2,-4,0,-1,-1,10.200000000000001
2041,-2,1,0,2,1,-1,0,0,10.205
2042,-1,16,-3,-2,-2,-2,-2,-1,10.21
2043,12,23,2,0,-1,0,-2,0,10.215
2044,-5,-2,-1,-3,-1,-1,0,-1,10.22
2045,0,-11,-1,0,-2,-2,-3,-2,10.225
2046,-3,-1,1,0,-2,0,-2,-1,10.23
2047,1,-11,0,-1,0,0,0,-1,10.235
2048,-5,2,2,0,-2,-1,-1,-3,10.24
2049,8,-5,-1,-1,0,0,-1,1,10.245000000000001
2050,-3,-13,-1,0,1,0,0,-1,10.25
2051,-10,-6,1,-2,-2,-1,0,0,10.255
2052,6,7,1,0,0,0,1,1,10.26
2053,4,-5,-1,-2,-2,-3,-3,-3,10.265
2054,-1,-6,-1,0,1,1,-2,-1,10.27
2055,-6,-6,-2,-2,0,-1,-1,-1,10.275
2056,2,5,-1,0,1,1,0,0,10.28
2057,-1,6,4,1,0,0,-1,2,10.285
2058,4,11,-2,-5,-4,-2,0,-1,10.290000000000001
2059,-11,-1,-1,0,0,-2,-1,-1,10.295
2060,8,8,-2,0,1,2,-1,1,10.3
2061,-15,-8,0,0,0,-1,0,-2,10.305
2062,-3,-17,1,-2,-3,0,-1,-2,10.31
2063,-1,-6,4,1,1,1,1,-1,10.315
2064,-1,-12,-5,-4,-4,-2,-1,0,10.32
2065,-3,-3,-3,-3,-2,-1,0,-1,10.325000000000001
2066,-7,-7,-2,-1,0,-3,-1,-2,10.33
2067,9,-7,-3,0,-1,0,0,-2,10.335
2068,0,2,4,-1,1,-1,-3,-2,10.34
2069,3,0,-2,-3,-2,0,0,0,10.345
2070,-5,0,3,3,1,-1,0,-1,10.35
2071,7,-5,-1,-1,0,-1,-1,-2,10.355
2072,-2,1,-2,1,1,-1,0,1,10.36
2073,-2,0,-3,-5,-2,-4,-2,-2,10.365
2074,9,9,-2,-1,-2,-2,-1,0,10.370000000000001
2075,-2,-2,-2,-1,2,-1,1,-1,10.375
2076,2,-7,-2,0,-1,-2,0,-2,10.38
2077,-3,-8,1,1,-1,0,-1,-3,10.385
2078,1,-1,-1,-1,-1,0,0,1,10.39
2079,-4,4,-3,-2,-1,-2,-1,-2,10.395
2080,1,14,-1,-1,-2,-1,-1,-1,10.4
2081,1,1,1,1,-2,-1,0,-2,10.405
2082,-8,14,-4,-5,0,0,-1,-2,10.41
2083,-4,-3,-2,-2,-1,-1,-2,1,10.415000000000001
2084,-3,-8,-2,-3,0,0,-1,0,10.42
2085,2,8,-1,1,-2,-1,-2,1,10.425
2086,-2,-4,0,1,-1,-1,0,-2,10.43
2087,-3,1,2,-1,1,-1,1,0,10.435
2088,1,0,0,-2,1,-1,-1,0,10.44
2089,-4,-1,1,1,1,-2,0,-3,10.445
2090,-3,-5,2,0,-2,-2,0,0,10.450000000000001
2091,8,2,-6,-2,-3,-2,-3,-3,10.455
2092,-12,-15,2,0,-2,-2,-1,-2,10.46
2093,6,8,-3,-3,-2,1,-1,0,10.465
2094,-6,-7,1,-2,-1,-1,-1,-2,10.47
2095,-4,4,-1,0,-2,0,0,0,10.475
2096,-2,4,2,0,-1,-1,1,-1,10.48
2097,0,-8,-3,1,0,-2,0,0,10.485
2098,4,2,-2,-1,-1,-1,-2,0,10.49
2099,1,-9,-1,-2,-2,-1,0,-1,10.495000000000001
2100,-11,0,1,0,-1,0,-2,-3,10.5
2101,-4,-4,0,-2,1,-2,1,0,10.505
2102,5,38,5,1,1,0,0,1,10.51
2103,-4,-2,2,0,-1,-1,-1,0,10.515
2104,6,8,-2,0,-1,1,0,0,10.52
2105,-1,9,0,1,-2,2,0,1,10.525
2106,-5,-11,0,2,0,0,0,-3,10.53
2107,-2,-2,0,-2,-2,-1,-1,0,10.535
2108,5,-8,-2,-2,-2,-4,-3,-1,10.540000000000001
2109,-4,-9,0,-1,-1,-2,-1,-2,10.545
2110,-2,-8,10,1,1,1,0,0,10.55
2111,-7,1,-7,-3,-1,-1,-1,-2,10.555
2112,3,-1,1,0,0,-1,2,0,10.56
2113,-3,1,0,0,0,0,0,0,10.565
2114,-5,-4,-1,-3,-1,-1,-2,-1,10.57
2115,-1,-5,1,0,0,0,1,-2,10.575000000000001
2116,1,-1,-1,-1,0,0,0,1,10.58
2117,0,10,6,0,0,-1,-1,-1,10.585
2118,5,3,-6,-2,-1,-3,-2,0,10.59
2119,0,7,2,2,2,2,-1,0,10.595
2120,7,3,-3,-4,-1,-2,-1,0,10.6
2121,7,12,-4,-2,-2,-1,0,0,10.605
2122,0,-7,-6,-2,0,-3,-3,-1,10.61
2123,-6,2,-2,-2,-1,-3,-2,-2,10.615
2124,10,-8,-1,2,0,1,1,0,10.620000000000001
2125,-17,-9,0,-2,-1,2,-1,0,10.625
2126,2,-9,-2,-2,-2,1,3,-1,10.63
2127,1,-16,-1,-1,-2,-2,-2,-2,10.635
2128,-5,-2,0,-1,-2,-1,-1,-2,10.64
2129,6,-5,-2,0,0,-2,0,0,10.645
2130,-7,1,-3,1,0,0,0,1,10.65
2131,1,-3,0,-2,-2,-1,-1,-2,10.655
2132,-2,-2,-2,0,0,-2,-1,-3,10.66
2133,0,2,0,-2,-1,-1,-1,-1,10.665000000000001
2134,4,-4,-1,-2,0,0,1,-1,10.67
2135,-3,3,-2,1,-1,0,0,-1,10.675
2136,-5,2,3,1,1,2,0,-1,10.68
2137,5,-3,-2,1,0,0,-1,-1,10.685
2138,-3,-4,-1,-1,-1,-1,-3,-1,10.69
2139,5,17,1,0,-1,-1,-1,0,10.695
2140,7,23,1,-2,-1,2,1,-1,10.700000000000001
2141,0,-4,0,1,0,0,0,1,10.705
2142,-8,-8,0,0,-2,-1,-1,-2,10.71
2143,-2,0,2,0,1,-1,-1,-1,10.715
2144,-8,-4,-3,-1,0,-1,0,0,10.72
2145,6,-21,-2,-1,-1,-1,0,-2,10.725
2146,6,10,-1,-1,0,-3,-2,-2,10.73
2147,5,-11,-3,1,1,0,2,2,10.735
2148,-8,2,-2,-1,-1,-2,-1,-1,10.74
2149,-3,-1,-2,-4,-3,-1,-1,0,10.745000000000001
2150,-1,-7,-4,-2,-3,-2,-1,-2,10.75
2151,3,0,4,-1,-1,0,-1,0,10.755
2152,-12,-4,2,0,-1,0,-1,0,10.76
2153,13,7,-2,-1,-2,-1,-2,-1,10.765
2154,-2,-2,1,1,0,0,1,1,10.77
2155,-1,6,-4,-3,-1,-2,0,0,10.775
2156,2,-26,2,-1,0,1,-1,0,10.78
2157,-4,-1,-2,1,-1,0,-1,-1,10.785
2158,5,-5,-1,0,0,1,0,-1,10.790000000000001
2159,-6,-7,1,1,-1,0,1,-1,10.795
2160,-6,-2,-3,-2,-2,-2,-1,-1,10.8
2161,-1,-2,0,-1,0,0,-2,0,10.805
2162,9,3,-1,-1,-2,-2,0,0,10.81
2163,-15,-10,5,1,1,1,1,1,10.815
2164,-1,1,-5,-2,-2,-4,-2,-1,10.82
2165,-3,11,0,0,1,0,1,1,10.825000000000001
2166,-10,-11,-4,-3,-1,-2,-2,-2,10.83
2167,13,12,-4,-3,0,-1,-4,-3,10.835
2168,2,-7,-1,-4,-3,-2,-2,-3,10.84
2169,-6,1,0,1,0,0,0,-2,10.845
2170,0,0,3,2,1,3,2,4,10.85
2171,2,1,-4,-3,-2,-1,0,-2,10.855
2172,-3,7,1,0,-1,-1,-2,-1,10.86
2173,-4,-9,-2,-2,0,-3,1,-1,10.865
2174,-1,6,-1,-3,-2,-1,-1,-3,10.870000000000001
2175,-5,-9,1,1,0,-2,-2,-2,10.875
2176,6,-14,-3,1,1,0,-1,0,10.88
2177,-7,-4,2,0,-2,-2,-2,-1,10.885
2178,-3,5,-2,-1,-1,0,-1,-2,10.89
2179,2,-2,-4,-3,-2,-1,-2,-1,10.895
2180,-3,22,0,-3,-2,-1,0,-1,10.9
2181,-3,1,-4,-1,0,1,0,0,10.905
2182,0,-10,-4,0,-2,-1,-1,-2,10.91
2183,-3,-20,1,0,1,0,0,-1,10.915000000000001
2184,-8,-9,5,2,0,3,3,0,10.92
2185,3,4,-1,-3,-1,1,-2,0,10.925
2186,-7,2,-1,-2,-2,-1,-1,0,10.93
2187,4,5,-3,-5,-3,-2,0,0,10.935
2188,-3,0,-4,0,-1,-3,-2,-2,10.94
2189,-1,-3,-1,-3,0,-1,0,-1,10.945
2190,1,-2,5,5,1,-1,-1,1,10.950000000000001
2191,2,21,4,-1,-1,0,-1,1,10.955
2192,1,-31,-2,0,-1,-3,-2,-2,10.96
2193,2,3,-4,-2,-3,-3,-2,-2,10.965
2194,-1,9,-1,0,0,-1,0,-1,10.97
2195,-10,-5,3,0,-3,0,-1,0,10.975
2196,9,6,-4,-2,-1,-1,-1,-1,10.98
2197,-15,-20,6,1,-2,0,0,0,10.985
2198,1,0,-2,1,0,-2,-1,0,10.99
2199,3,6,-1,0,-1,0,0,-1,10.995000000000001
2200,-3,1,-3,-2,-1,-1,0,-1,11.0
2201,0,2,5,0,-2,-1,-2,-2,11.005
2202,-2,3,2,-3,0,0,0,0,11.01
2203,-1,-4,0,0,-2,-4,-1,0,11.015
2204,8,18,-3,1,-1,0,-1,-1,11.02
2205,2,1,-2,-2,-1,-2,-1,-3,11.025
2206,-3,-8,1,0,-1,0,1,0,11.03
2207,1,4,3,3,2,-1,0,-1,11.035
2208,-1,3,0,-3,-1,1,0,1,11.040000000000001
2209,2,4,1,1,0,-1,-1,-1,11.045
2210,0,-26,-5,-1,-2,-1,0,-1,11.05
2211,-10,-10,1,1,-1,1,2,1,11.055
2212,-2,2,1,2,3,0,0,3,11.06
2213,8,-5,-1,-1,0,-1,-1,-1,11.065
2214,-6,-7,1,-4,-3,-1,-1,-2,11.07
2215,5,-6,-7,-1,1,-2,-2,0,11.075000000000001
2216,-4,1,-3,-1,-1,0,-1,-1,11.08
2217,4,4,3,0,-1,1,2,0,11.085
2218,-1,6,0,3,1,0,0,-1,11.09
2219,-5,-9,-4,-2,-2,-4,-3,-3,11.095
2220,-2,1,1,0,-2,-3,-1,-1,11.1
2221,2,-12,0,-2,1,1,0,-1,11.105
2222,4,16,-2,-1,-1,-1,-2,-1,11.11
2223,3,15,-5,-3,-3,-1,1,-1,11.115
2224,-4,4,0,-2,-4,-2,-1,-2,11.120000000000001
2225,-4,-4,1,-2,-2,-2,-2,0,11.125
2226,-1,-7,-1,-1,-2,-3,0,0,11.13
2227,-1,14,1,2,-1,-1,-5,0,11.135
2228,-2,-10,-6,-3,-2,-1,3,-2,11.14
2229,0,-3,0,-1,0,-2,2,0,11.145
2230,1,-1,1,-1,0,0,-1,1,11.15
2231,-8,4,-2,-2,0,-2,-1,-2,11.155
2232,-6,-6,0,-1,0,1,-2,0,11.16
2233,7,-11,-8,1,-1,-2,-4,-2,11.165000000000001
2234,-6,9,-1,-7,-3,-1,-2,0,11.17
2235,0,-14,2,0,0,1,1,0,11.175
2236,-2,-3,-2,-3,-2,-1,0,0,11.18
2237,-10,6,-3,-1,0,-2,1,-2,11.185
2238,14,3,0,2,-1,-1,0,1,11.19
2239,0,1,-2,-3,-1,-2,-4,-1,11.195
2240,8,1,0,0,0,1,-3,-4,11.200000000000001
2241,-3,-1,2,-1,-3,-2,-1,1,11.205
2242,-5,10,0,0,0,0,-1,0,11.21
2243,14,-2,-2,-2,-2,0,0,-2,11.215
2244,3,-8,-2,1,1,2,1,0,11.22
2245,-18,-13,0,0,-1,6,3,-4,11.225
2246,-8,0,-3,0,-2,-3,-2,-3,11.23
2247,3,14,1,-2,-2,-4,4,10,11.235
2248,13,-7,2,1,-1,-3,6,-2,11.24
2249,-3,11,-2,-1,-2,-10,-21,-2,11.245000000000001
2250,-13,-2,2,1,3,5,4,-9,11.25
2251,1,-6,-5,-2,-1,2,-1,-2,11.255
2252,2,-11,-2,0,-2,-3,-4,5,11.26
2253,2,3,7,3,0,3,4,2,11.265
2254,-2,11,-4,-3,-4,-4,-3,-1,11.27
2255,3,19,-1,-3,-2,-1,-4,-6,11.275
2256,-12,-1,-1,-1,-1,0,-2,-1,11.28
2257,4,-6,-9,0,1,2,3,3,11.285
2258,-1,15,10,3,1,0,2,1,11.290000000000001
2259,3,4,5,3,-1,1,5,-3,11.295
2260,4,0,-2,-4,-4,-5,-12,-8,11.3
2261,-9,2,-1,-5,-2,-2,-1,-2,11.305
2262,9,-16,-3,0,0,-1,0,2,11.31
2263,-7,-2,-1,3,0,1,-1,-2,11.315
2264,-5,2,-2,-1,-1,-2,-1,1,11.32
2265,11,4,3,-2,-2,-3,-2,-1,11.325000000000001
2266,-2,-4,4,-1,2,-1,0,-4,11.33
2267,1,-21,-10,16,-4,0,2,0,11.335
2268,14,14,-2,-18,-3,-3,-2,1,11.34
2269,-5,6,3,4,0,0,2,0,11.345
2270,-22,25,-1,-7,0,2,0,3,11.35
2271,11,-2,-5,3,-1,-3,-2,-2,11.355
2272,-12,-14,-9,1,0,3,6,7,11.36
2273,28,9,1,-2,-1,1,-1,-5,11.365
2274,-16,-27,6,-3,-5,-3,-2,-9,11.370000000000001
2275,-19,-4,1,-5,0,-1,-30,-23,11.375
2276,23,4,10,7,3,0,9,15,11.38
2277,1,21,5,26,0,-3,12,10,11.385
2278,13,13,-8,-31,-5,-3,5,44,11.39
2279,-16,-26,12,-11,-3,1,3,-14,11.395
2280,-49,3,-1,1,-2,-2,-18,-49,11.4
2281,14,-23,13,1,6,2,-3,-2,11.405
2282,1,-21,-13,11,-4,-2,-1,22,11.41
2283,-13,-2,-15,-7,-2,-1,9,-6,11.415000000000001
2284,20,11,0,7,2,1,5,38,11.42
2285,0,-11,-5,-5,-4,-2,-3,-31,11.425
2286,0,15,1,3,-3,-3,-5,-14,11.43
2287,1,12,3,1,2,0,2,10,11.435
2288,-17,-6,-6,9,1,3,3,-1,11.44
2289,-4,-5,-2,-12,-4,-2,-5,2,11.445
2290,10,-3,-6,16,-2,-5,-6,-3,11.450000000000001
2291,-5,-29,-8,-25,2,0,4,-1,11.455
2292,9,8,12,-1,-1,-5,-3,-2,11.46
2293,0,38,-1,-10,-5,-1,-2,12,11.465
2294,3,-8,-15,-9,-2,0,2,-8,11.47
2295,-32,-13,5,8,-2,-4,-7,-10,11.475
2296,11,-3,0,8,-1,-1,-3,-8,11.48
2297,-14,15,10,-18,3,3,11,14,11.485
2298,-1,-7,0,7,1,0,-5,17,11.49
2299,10,-1,-1,7,-1,0,2,-12,11.495000000000001
2300,9,-1,2,-15,-3,-1,-7,-19,11.5
2301,-25,-2,-6,3,-1,0,-4,-12,11.505
2302,31,8,4,-6,0,0,3,12,11.51
2303,-8,10,12,11,5,2,2,20,11.515
2304,2,-5,-11,-17,-3,-4,-5,-32,11.52
2305,-15,-27,-3,7,2,2,3,16,11.525
2306,2,39,-8,4,0,0,0,-20,11.53
2307,2,11,-5,-9,2,2,-1,9,11.535
2308,10,11,8,13,-2,-2,2,5,11.540000000000001
2309,-11,-21,-15,-11,-3,-1,-4,4,11.545
2310,-2,-27,11,25,4,3,-4,-9,11.55
2311,6,18,6,-15,2,2,3,-1,11.555
2312,-10,18,-11,4,-4,0,2,13,11.56
2313,5,1,-8,5,2,3,3,8,11.565
2314,-8,-1,12,-8,-4,-3,-1,-13,11.57
2315,4,-6,-2,53,5,5,3,14,11.575000000000001
2316,7,-11,-18,-65,-7,-5,-6,2,11.58
2317,-10,11,1,4,-1,-2,-2,8,11.585
2318,8,-10,-11,-10,-3,-3,-3,-33,11.59
2319,-17,11,-1,-7,-5,-3,-2,4,11.595
2320,-18,-4,13,26,5,4,2,2,11.6
2321,7,-13,-14,-12,-5,-6,-9,-4,11.605
2322,19,-6,8,-8,-1,-3,-3,10,11.61
2323,1,47,16,-7,-5,-2,-1,-2,11.615
2324,1,-9,-16,10,-2,1,4,7,11.620000000000001
2325,-24,-4,3,2,1,0,-1,-15,11.625
2326,31,4,6,9,3,1,2,4,11.63
2327,-2,-28,-18,-16,-4,-9,-5,11,11.635
2328,3,-9,24,53,12,12,5,8,11.64
2329,12,8,-10,-42,-9,-4,1,-7,11.645
2330,-23,-5,-16,-36,-1,0,-3,14,11.65
2331,8,10,-3,-3,-4,-3,-3,-27,11.655
2332,-8,2,9,-5,0,0,0,-3,11.66
2333,7,-6,17,30,5,1,0,-11,11.665000000000001
2334,1,-21,-9,14,-3,-2,5,12,11.67
2335,2,9,7,-8,-1,0,-8,-7,11.675
2336,-28,-11,-22,-6,-4,-2,1,34,11.68
2337,26,7,0,3,1,-1,-8,-26,11.685
2338,-27,23,24,13,2,3,1,-31,11.69
2339,-12,15,3,-1,2,1,10,-7,11.695
2340,19,-3,-13,-2,-2,-4,-10,-25,11.700000000000001
2341,-14,40,5,5,0,1,-1,16,11.705
2342,-21,-5,-1,2,0,-2,-3,5,11.71
2343,6,-19,-23,12,-3,-1,1,-2,11.715
2344,26,8,19,-7,0,6,13,10,11.72
2345,-33,-9,-13,-33,-5,-5,-1,22,11.725
2346,-15,-20,-2,-1,1,0,-3,-11,11.73
2347,0,10,2,-2,-9,-3,-8,7,11.735
2348,29,8,-8,-2,-2,-3,5,8,11.74
2349,19,-5,6,29,3,2,3,6,11.745000000000001
2350,11,2,-3,-14,-3,2,4,25,11.75
2351,-18,-37,-3,-16,1,-2,-17,-46,11.755
2352,-16,9,15,-1,-2,-6,-18,-26,11.76
2353,1,-30,-11,-18,-3,-3,7,-10,11.765
2354,4,24,17,9,6,6,8,40,11.77
2355,9,-28,-30,-17,-7,-3,9,38,11.775
2356,-9,-9,4,9,1,-2,-13,-1,11.78
2357,-11,18,17,6,0,0,-6,-50,11.785
2358,6,-2,-10,-12,0,3,9,-4,11.790000000000001
2359,30,7,22,22,5,2,1,35,11.795
2360,-26,-7,-33,-20,-3,-8,-5,-9,11.8
2361,-6,3,9,2,-1,2,-11,-2,11.805
2362,4,11,9,20,-1,1,2,-19,11.81
2363,-31,-2,-15,-39,-5,-2,4,-2,11.815
2364,43,22,21,15,1,0,7,14,11.82
2365,8,0,-10,-2,3,3,6,30,11.825000000000001
2366,-6,6,-21,-5,-5,-5,-9,-11,11.83
2367,22,5,12,15,1,-1,1,9,11.835
2368,-6,-2,21,5,4,5,6,-3,11.84
2369,-12,-12,-28,-21,-10,-9,-9,-9,11.845
2370,-11,-26,4,7,-2,-3,-4,-11,11.85
2371,15,31,-5,-4,3,4,2,6,11.855
2372,-16,-21,0,7,-2,-7,-11,-24,11.86
2373,14,-8,26,35,8,10,10,6,11.865
2374,5,12,-2,-18,-7,-6,-6,1,11.870000000000001
2375,-4,-6,-17,-22,-6,-5,4,4,11.875
2376,-12,1,-8,1,-4,3,7,33,11.88
2377,30,-8,0,-12,-6,-4,-6,3,11.885
2378,-28,-8,5,6,6,-4,-12,-3,11.89
2379,0,-13,15,20,6,3,-8,-63,11.895
2380,21,4,-21,-3,-6,-1,5,34,11.9
2381,-11,1,-13,3,-2,0,7,14,11.905
2382,31,11,-7,2,-6,-7,1,-17,11.91
2383,-46,-8,26,-1,1,-2,-4,7,11.915000000000001
2384,-27,-9,0,14,6,2,-6,-34,11.92
2385,4,1,4,-19,-7,-5,-5,-21,11.925
2386,-1,-12,-30,-30,-4,1,5,8,11.93
2387,4,-21,12,7,3,2,2,20,11.935
2388,1,30,-3,-10,-8,-2,-1,-8,11.94
2389,9,8,11,5,5,2,8,6,11.945
2390,20,15,3,13,3,0,-5,3,11.950000000000001
2391,8,-4,-7,-8,-6,-5,-3,-6,11.955
2392,-32,-5,9,9,3,3,2,23,11.96
2393,-25,10,-4,20,3,1,-5,-33,11.965
2394,2,9,2,-9,-3,1,3,7,11.97
2395,31,18,-8,14,3,-2,0,-4,11.975
2396,9,23,3,2,5,3,4,-2,11.98
2397,-14,2,6,-16,-4,-2,-4,1,11.985
2398,-9,-25,4,6,1,-2,-4,5,11.99
2399,-16,10,-12,-13,-6,-4,-3,-12,11.995000000000001
2400,13,0,9,5,-1,-4,1,-4,12.0
2401,7,3,-2,-2,5,3,14,49,12.005
2402,-19,-20,8,48,7,3,-11,-67,12.01
2403,20,34,-14,-45,-5,-2,-5,-14,12.015
2404,-6,1,-16,-35,-7,-4,-5,-9,12.02
2405,21,-14,-13,3,-3,-3,1,-5,12.025
2406,-11,-39,8,2,4,5,9,18,12.030000000000001
2407,-2,-3,18,30,10,6,-2,9,12.035
2408,-2,-12,-19,-17,-7,-1,-4,-10,12.040000000000001
2409,3,29,10,-4,-1,-7,-9,16,12.045
2410,-8,12,10,18,-3,4,18,-7,12.05
2411,-7,-27,-23,-26,-4,-3,-14,-23,12.055
2412,49,-11,12,-14,3,0,-5,-9,12.06
2413,-47,-26,-19,-7,-4,-4,-10,24,12.065
2414,2,-1,7,-30,-3,-2,-5,-10,12.07
2415,1,-6,-8,23,1,5,18,15,12.075000000000001
2416,-7,2,14,25,3,1,5,16,12.08
2417,9,3,-8,-19,-5,-4,-2,-28,12.085
2418,-7,27,3,-1,-1,-1,-3,61,12.09
2419,-8,-14,8,51,6,3,-9,-52,12.095
2420,-24,-4,-7,-50,-5,-4,-7,-4,12.1
2421,-1,-4,27,48,4,6,4,-28,12.105
2422,14,-1,-43,-49,-7,-4,4,17,12.11
2423,11,-4,14,15,1,4,10,45,12.115
2424,21,-13,12,13,-3,-5,-7,-15,12.120000000000001
2425,-26,-16,-3,9,1,1,-10,-14,12.125
2426,-11,16,40,42,4,-3,-9,-34,12.13
2427,20,7,-15,-45,-7,-3,27,87,12.135
2428,-16,18,-22,10,-1,-2,1,8,12.14
2429,-3,3,0,-11,-2,-3,-22,-65,12.145
2430,13,35,19,17,4,-2,-10,-7,12.15
2431,-6,-4,10,12,3,5,3,-26,12.155000000000001
2432,12,-1,37,38,9,9,10,47,12.16
2433,-6,8,-36,-77,-22,-15,-11,20,12.165000000000001
2434,-25,-27,-20,-16,-1,-2,-13,-44,12.17
2435,-16,-28,-21,-26,-5,-2,20,-4,12.175
2436,-27,-17,20,-2,3,-2,0,33,12.18
2437,-1,-11,12,40,1,1,-18,-42,12.185
2438,21,-2,-28,-41,-9,-4,5,-10,12.19
2439,1,15,7,24,-1,-3,-11,59,12.195
2440,-13,3,-5,-21,0,2,10,-33,12.200000000000001
2441,8,-6,-2,0,5,4,13,34,12.205
2442,-5,-3,16,11,2,1,-3,1,12.21
2443,14,-12,-11,3,2,0,9,37,12.215
2444,5,-6,-22,-21,-6,-6,-14,-17,12.22
2445,30,5,3,15,-1,-3,0,-21,12.225
2446,19,-5,6,-2,6,9,13,40,12.23
2447,-27,4,5,12,-4,-3,-12,-53,12.235
2448,3,15,-11,16,-5,-3,0,15,12.24
2449,-2,4,3,-10,5,7,17,-2,12.245000000000001
2450,6,-13,-12,-9,-3,0,11,11,12.25
2451,23,4,-1,-19,-7,-6,-20,-29,12.255
2452,10,24,-7,3,-7,-8,-13,-44,12.26
2453,9,5,21,35,8,7,15,49,12.265
2454,7,11,5,8,-2,1,4,-24,12.27
2455,3,6,-18,4,4,6,25,91,12.275
2456,-14,-11,-1,-23,-6,-3,-16,-56,12.280000000000001
2457,13,12,12,10,-1,-5,-23,-28,12.285
2458,-1,-30,-19,-25,-4,-6,3,1,12.290000000000001
2459,-9,-3,4,1,-5,-5,-10,2,12.295
2460,-16,-28,0,-3,3,4,12,-1,12.3
2461,-5,-9,-3,-2,1,-2,2,28,12.305
2462,-6,0,0,10,-2,-3,-9,-8,12.31
2463,2,23,6,20,2,0,0,-21,12.315
2464,6,-11,-8,1,0,3,8,9,12.32
2465,8,-32,-24,-16,-2,-1,0,-5,12.325000000000001
2466,-21,0,6,-1,1,-4,-1,10,12.33
2467,-5,-4,4,-3,1,0,-3,-29,12.335
2468,0,-5,5,3,2,0,-5,-1,12.34
2469,8,9,-4,-6,-2,0,8,31,12.345
2470,-7,5,1,6,0,-2,-4,-13,12.35
2471,-13,-2,-1,-12,-6,-6,-12,-21,12.355
2472,-5,-5,-2,3,-1,1,1,-1,12.36
2473,9,-19,11,6,-1,-1,5,13,12.365
2474,-9,-8,-5,-13,-3,-2,-4,5,12.370000000000001
2475,6,11,-1,1,-1,-4,-4,-10,12.375
2476,-7,-3,-5,-1,1,8,11,-1,12.38
2477,23,12,3,108,-50,-11,-12,-12,12.385
2478,8,37,-11,-98,68,17,8,13,12.39
2479,-8,-11,19,41,0,-11,-10,-17,12.395
2480,-3,-5,-1,6,-1,-6,3,19,12.4
2481,-9,-9,-7,-3,6,0,5,0,12.405000000000001
2482,16,5,-1,18,-29,-1,3,35,12.41
2483,1,3,5,-15,-1,3,-16,-43,12.415000000000001
2484,2,-3,0,-2,13,4,2,-5,12.42
2485,-20,1,8,-20,-2,-3,-9,-12,12.425
2486,-5,-12,6,17,-5,-4,-2,-2,12.43
2487,4,4,-3,-27,4,5,10,7,12.435
2488,5,31,5,15,-8,2,-4,-2,12.44
2489,-8,-7,-8,-20,20,17,13,8,12.445
2490,-4,-14,-2,13,-15,-16,-3,3,12.450000000000001
2491,-13,-7,15,-5,-12,-21,-14,-6,12.455
2492,3,-13,4,-9,-9,-8,-6,-4,12.46
2493,6,7,-4,-16,12,8,8,11,12.465
2494,0,11,-7,17,4,13,2,-6,12.47
2495,5,-14,-19,-2,-4,6,3,-8,12.475
2496,-11,-16,-3,-11,-9,-13,-11,0,12.48
2497,-20,-15,-5,-28,2,-10,-6,-7,12.485
2498,10,2,7,23,-9,0,-3,-6,12.49
2499,-4,-4,-22,-13,3,3,3,2,12.495000000000001
2500,9,1,-10,3,10,11,8,6,12.5
2501,4,23,4,-1,4,2,6,8,12.505
2502,0,-2,3,1,-9,-9,-13,-15,12.51
2503,8,-12,2,-1,1,1,1,2,12.515
2504,-9,10,-4,-3,3,2,6,0,12.52
2505,0,-5,-1,-2,-2,-6,-10,0,12.525
2506,-8,-3,-4,9,-3,-4,-6,-13,12.530000000000001
2507,15,16,6,4,8,7,7,6,12.535
2508,-10,-42,-2,-6,-8,-9,-5,5,12.540000000000001
2509,11,10,-4,-16,-8,-8,-6,-8,12.545
2510,-17,-11,9,5,-2,-6,-2,10,12.55
2511,-5,10,-7,5,-1,1,9,-18,12.555
2512,14,19,0,-1,2,5,4,-44,12.56
2513,-14,-21,-3,-1,4,0,-3,41,12.565
2514,-12,4,5,2,-1,-1,-8,-32,12.57
2515,2,-1,14,6,0,-1,-8,0,12.575000000000001
2516,-4,6,-8,-1,-4,-2,3,-1,12.58
2517,12,-10,-5,-10,-1,-5,-1,4,12.585
2518,5,-8,1,6,0,4,6,4,12.59
2519,-5,-2,-3,-1,-2,-1,-4,11,12.595
2520,5,11,-4,4,2,1,3,14,12.6
2521,-1,3,2,-4,-1,1,2,-17,12.605
2522,-6,31,-3,1,-4,0,0,12,12.61
2523,-4,-5,4,-3,-3,-5,-3,-5,12.615
2524,2,-20,6,-3,-3,-3,-6,10,12.620000000000001
2525,-10,-11,-5,-2,1,2,6,-15,12.625
2526,-1,-15,-1,-1,-2,-2,-7,3,12.63
2527,-7,7,2,-4,-1,0,0,-8,12.635
2528,1,30,4,4,0,-1,-3,4,12.64
2529,-12,14,12,1,2,0,1,6,12.645
2530,1,-5,-17,-2,-7,-2,14,1,12.65
2531,-4,3,-8,-14,-5,-5,-13,-15,12.655000000000001
2532,1,13,5,4,3,1,-1,4,12.66
2533,13,10,-5,0,2,2,0,3,12.665000000000001
2534,-7,-3,4,6,3,-1,-1,-4,12.67
2535,4,-15,2,7,1,2,5,15,12.675
2536,-5,-10,1,-3,-1,-1,-5,5,12.68
2537,-1,14,4,-3,0,1,1,-11,12.685
2538,2,-9,2,4,0,4,1,3,12.69
2539,14,-18,-2,1,0,2,11,17,12.695
2540,-15,-33,-5,-4,-6,-5,-10,-6,12.700000000000001
2541,6,4,-5,-5,1,-1,-2,-1,12.705
2542,-3,18,1,-2,-4,-3,-5,-6,12.71
2543,-2,11,1,3,3,2,2,2,12.715
2544,10,-16,1,3,3,2,3,23,12.72
2545,-4,0,5,0,-3,-3,-4,-39,12.725
2546,5,-6,0,-2,1,-1,-2,-2,12.73
2547,-2,-1,0,1,0,1,0,-6,12.735
2548,-7,15,-7,1,-2,-2,2,2,12.74
2549,-1,-11,-5,-3,-2,2,1,16,12.745000000000001
2550,25,5,-7,-6,-1,-3,-3,1,12.75
2551,-18,3,10,0,-2,-1,-4,-10,12.755
2552,3,3,0,-2,-2,-1,-1,-1,12.76
2553,-8,-4,1,2,1,-4,-3,-3,12.765
2554,3,-13,3,7,5,7,3,0,12.77
2555,-1,10,-5,1,-1,0,3,9,12.775
2556,6,12,-4,-7,-3,-2,-6,-8,12.780000000000001
2557,-3,-19,3,3,0,0,-1,1,12.785
2558,-12,-18,-2,-7,-6,-5,-3,5,12.790000000000001
2559,-1,-39,4,1,1,0,-2,-9,12.795
2560,-7,7,2,4,1,1,4,4,12.8
2561,-7,9,-6,5,1,1,3,-7,12.805
2562,6,0,-4,-6,0,-1,-4,6,12.81
2563,5,-15,-1,-4,-3,-3,-4,-2,12.815
2564,-2,5,0,1,0,1,0,-7,12.82
2565,4,9,-1,0,-2,1,1,5,12.825000000000001
2566,-11,-4,0,-3,-6,-6,-5,-11,12.83
2567,3,20,0,-1,-1,-1,-1,3,12.835
2568,7,0,-2,4,4,5,2,0,12.84
2569,6,11,-4,-8,-1,-2,0,10,12.845
2570,-9,20,5,-1,-2,0,2,0,12.85
2571,3,-8,-15,4,3,2,1,0,12.855
2572,-1,-10,-7,-5,-4,-5,-1,-2,12.86
2573,5,-5,-9,0,-2,-2,-5,11,12.865
2574,3,1,3,-3,2,3,0,-10,12.870000000000001
2575,-7,-3,6,0,0,-2,-3,-3,12.875
2576,0,-6,4,1,0,-1,1,-3,12.88
2577,-15,-32,8,-3,-2,-5,-1,-5,12.885
2578,6,7,-4,-1,0,0,1,9,12.89
2579,-1,4,3,-1,-3,-1,-1,4,12.895
2580,-2,-8,-3,-3,-2,1,1,2,12.9
2581,1,-3,-4,-1,-3,-3,0,-4,12.905000000000001
2582,0,-7,3,1,-1,-3,-3,-4,12.91
2583,7,0,1,-2,-1,-3,-3,-5,12.915000000000001
2584,-7,-5,2,1,1,-1,0,-5,12.92
2585,-1,13,2,0,-3,0,0,2,12.925
2586,-3,-6,-2,5,2,2,3,2,12.93
2587,-4,12,-6,-6,-4,-3,-7,-5,12.935
2588,3,-10,2,0,1,-1,-2,2,12.94
2589,2,3,3,-1,-1,1,-2,-2,12.945
2590,-6,-5,-9,0,1,-2,1,-3,12.950000000000001
2591,0,-1,2,1,1,0,2,4,12.955
2592,-1,0,1,-1,-1,-1,-1,5,12.96
2593,-3,-10,-1,0,-3,-3,-4,-13,12.965
2594,4,26,2,-3,-2,-1,-2,0,12.97
2595,-1,-8,-13,-4,-1,1,2,4,12.975
2596,-2,1,-1,-3,-1,-2,-2,1,12.98
2597,6,2,1,-2,1,2,0,1,12.985
2598,-2,-2,6,0,0,-2,-3,-4,12.99
2599,11,15,6,0,-2,-2,-1,1,12.995000000000001
2600,-9,-6,-2,-3,0,-1,1,0,13.0
2601,4,3,9,2,0,0,0,-1,13.005
2602,-5,-8,-17,-5,-3,-3,-2,0,13.01
2603,-6,-6,-3,-1,0,1,0,0,13.015
2604,5,-5,-1,-2,-3,-3,-1,-2,13.02
2605,-6,-10,-2,0,0,-1,0,-2,13.025
2606,8,-2,2,2,3,1,1,0,13.030000000000001
2607,-5,8,3,-2,-4,-3,-1,-3,13.035
2608,-1,7,-5,-1,-2,-3,-2,-7,13.040000000000001
2609,5,-12,-4,-2,2,0,0,6,13.045
2610,2,-8,-4,-2,0,-2,-1,6,13.05
2611,-3,-2,-1,1,1,-1,-2,-8,13.055
2612,-12,-32,2,-3,-3,-2,-4,-2,13.06
2613,6,-13,2,1,-1,-2,1,-2,13.065
2614,2,-2,-5,-2,-2,0,-2,3,13.07
2615,1,0,0,0,-2,0,-1,2,13.075000000000001
2616,-14,-15,1,2,0,2,-1,1,13.08
2617,2,7,-5,1,0,0,1,-2,13.085
2618,1,2,6,1,-2,-1,0,-4,13.09
2619,3,3,-1,-2,0,-3,0,0,13.095
2620,-1,4,-4,-1,-1,-2,2,2,13.1
2621,2,19,-7,-7,-1,-2,-4,0,13.105
2622,-6,-1,6,4,1,0,2,0,13.11
2623,-1,15,-4,-3,1,1,2,0,13.115
2624,6,16,-4,-1,2,1,-3,-7,13.120000000000001
2625,-2,9,6,3,2,0,1,4,13.125
2626,-9,-15,0,-2,-3,-2,-2,-2,13.13
2627,-1,-4,2,-3,-2,-3,-5,1,13.135
2628,-2,8,-1,-2,-4,-4,-1,0,13.14
2629,-5,-6,0,1,1,-2,-2,-5,13.145
2630,2,-6,1,3,1,0,0,2,13.15
2631,-4,-4,0,0,1,4,4,3,13.155000000000001
2632,3,32,-3,0,-1,1,1,-1,13.16
2633,-16,3,0,-2,-2,-1,-1,-2,13.165000000000001
2634,8,0,0,-2,-2,-1,-2,-5,13.17
2635,-11,-38,-1,-1,0,-1,-4,-3,13.175
2636,2,0,-1,2,2,2,3,7,13.18
2637,14,3,-1,2,-2,0,-3,-7,13.185
2638,-10,-7,2,-2,0,1,1,1,13.19
2639,0,-1,4,3,0,-4,-3,-2,13.195
2640,5,14,-3,-1,-2,-2,1,2,13.200000000000001
2641,-6,-3,-4,-3,-4,-3,0,5,13.205
2642,-3,3,-4,-4,-1,-3,-2,-13,13.21
2643,6,6,0,1,-1,0,0,0,13.215
2644,1,-1,4,0,0,-1,-4,-7,13.22
2645,1,6,-2,1,1,-1,4,12,13.225
2646,11,-1,-5,-1,-2,-3,-3,-4,13.23
2647,-15,5,-5,-4,-1,-2,1,-1,13.235
2648,6,-6,3,-1,1,-1,-2,-5,13.24
2649,-19,-13,1,0,-3,2,1,-4,13.245000000000001
2650,8,1,0,0,0,2,1,7,13.25
2651,-4,-2,-3,0,-2,-1,-1,-2,13.255
2652,-7,-3,1,-1,0,-1,0,-1,13.26
2653,7,6,-2,-2,0,0,-1,-1,13.265
2654,-12,8,-4,-1,-2,0,2,4,13.27
2655,5,-2,-2,-1,-3,-4,-7,-17,13.275
2656,-1,-13,-10,-5,-5,0,0,6,13.280000000000001
2657,-13,-40,2,-4,-1,-1,-2,-2,13.285
2658,-1,19,2,0,2,2,0,0,13.290000000000001
2659,2,-1,-5,-2,-2,0,0,2,13.295
2660,2,6,3,0,-1,-1,-1,-1,13.3
2661,6,5,0,0,-1,-1,-2,-5,13.305
2662,-2,-6,0,-3,-1,-1,-1,-1,13.31
2663,-2,5,4,0,0,0,2,5,13.315
2664,5,8,8,1,1,-1,-3,0,13.32
2665,14,10,0,1,-2,1,2,0,13.325000000000001
2666,-20,-1,2,1,-3,-4,-3,0,13.33
2667,2,6,-2,-4,-1,2,0,4,13.335
2668,2,-18,-5,-6,-5,-5,-5,-10,13.34
2669,-17,1,-3,-5,-3,-1,-1,-4,13.345
2670,7,-7,1,0,0,0,-1,1,13.35
2671,4,-3,5,3,1,1,2,0,13.355
2672,-1,-1,-1,3,2,1,3,3,13.36
2673,8,8,1,2,0,0,1,1,13.365
2674,-8,1,-4,-3,-3,-2,-2,-2,13.370000000000001
2675,2,-5,1,1,0,-1,1,8,13.375
2676,4,-4,-2,-2,0,0,-3,-8,13.38
2677,7,9,4,-1,0,-5,-3,-3,13.385
2678,-5,-6,-5,-6,-5,-2,-2,-1,13.39
2679,-2,-11,-4,-1,0,0,-1,-4,13.395
2680,-5,16,-4,-2,0,1,2,10,13.4
2681,-8,-9,-2,0,-1,0,-2,-3,13.405000000000001
2682,6,-8,0,0,-1,-1,0,-2,13.41
2683,3,8,-1,1,-1,-1,-1,1,13.415000000000001
2684,1,2,-2,2,0,0,5,7,13.42
2685,4,-4,2,1,-1,1,-2,8,13.425
2686,-5,6,-3,-4,-3,-3,-6,-19,13.43
2687,3,3,-3,2,1,-2,-2,-3,13.435
2688,1,14,1,0,-1,0,-1,0,13.44
2689,4,-1,1,-2,0,1,3,5,13.445
2690,-2,-17,-7,-4,-3,0,2,5,13.450000000000001
2691,3,5,0,-1,0,-2,-1,-3,13.455
2692,-10,-4,0,-1,-3,-1,-2,-4,13.46
2693,2,9,-1,-1,2,-1,0,-3,13.465
2694,5,2,-1,1,1,0,0,0,13.47
2695,-4,-10,2,1,-2,-1,1,-3,13.475
2696,13,6,-1,-2,-3,-2,0,3,13.48
2697,-8,-23,-3,-2,-1,-2,-4,-4,13.485
2698,-13,7,7,-2,-2,0,0,5,13.49
2699,1,-4,-8,-7,-1,-1,-1,1,13.495000000000001
2700,-3,-18,4,1,1,-1,-2,-3,13.5
2701,10,17,-2,1,-1,0,-2,-4,13.505
2702,3,5,-1,4,1,1,1,1,13.51
2703,-2,3,-1,1,0,0,-1,2,13.515
2704,-1,2,1,1,-2,-1,-1,-4,13.52
2705,-2,9,0,0,-2,-2,-1,-1,13.525
2706,1,-10,3,1,1,0,0,1,13.530000000000001
2707,-7,-5,2,3,0,0,4,8,13.535
2708,13,-9,-2,-5,-1,-3,-4,-12,13.540000000000001
2709,-5,6,0,0,-3,-2,-1,-8,13.545
2710,12,-11,-10,-6,-4,-3,-5,3,13.55
2711,-7,-3,-8,-1,-1,1,0,-2,13.555
2712,-7,1,1,1,0,1,1,5,13.56
2713,-1,-1,-1,0,-1,0,2,0,13.565
2714,5,1,1,1,1,0,0,-1,13.57
2715,2,2,2,-2,-1,-1,-1,0,13.575000000000001
2716,-3,19,0,1,-2,-1,0,2,13.58
2717,-5,-4,-3,-4,-2,0,-1,-1,13.585
2718,-6,7,1,2,1,-3,0,-1,13.59
2719,7,11,1,-4,-1,1,-1,0,13.595
2720,-14,-21,-1,1,2,2,-2,-9,13.6
2721,0,-1,-1,-5,-5,-6,-4,0,13.605
2722,8,5,1,-1,-1,-2,-2,-1,13.61
2723,-2,-2,-1,-4,-3,-2,-2,-5,13.615
2724,1,-7,1,0,0,0,-1,2,13.620000000000001
2725,-7,-16,-2,1,2,1,0,-1,13.625
2726,0,1,4,1,2,2,-1,0,13.63
2727,-11,-17,1,2,1,1,-1,-2,13.635
2728,-3,-12,0,-1,-2,-2,-2,0,13.64
2729,2,-7,-3,0,-1,-1,-1,2,13.645
2730,-5,-7,-1,0,-2,2,1,1,13.65
2731,-1,-2,-10,-7,-3,1,-1,-1,13.655000000000001
2732,0,-6,-1,-1,-1,-3,0,0,13.66
2733,1,6,1,2,1,0,1,1,13.665000000000001
2734,2,2,-5,-3,1,-3,1,3,13.67
2735,-15,-13,3,2,0,-2,-4,-7,13.675
2736,8,-11,0,-3,-4,-5,-3,-2,13.68
2737,1,0,-1,-1,0,-1,1,-1,13.685
2738,2,4,0,3,-1,0,1,-2,13.69
2739,2,7,0,1,-1,0,1,4,13.695
2740,-5,10,-1,-1,1,1,3,1,13.700000000000001
2741,2,5,4,1,0,1,0,-2,13.705
2742,-2,-27,0,-2,-2,1,0,1,13.71
2743,-2,-19,2,-1,-2,-2,1,0,13.715
2744,-6,3,0,2,1,2,0,1,13.72
2745,4,1,1,-3,-1,0,-1,3,13.725
2746,-9,17,-11,-5,-1,0,-1,-4,13.73
2747,5,12,-1,-2,-1,-3,-1,-8,13.735
2748,-9,-2,0,-2,-2,-2,0,-1,13.74
2749,-1,-42,1,0,0,-1,-2,1,13.745000000000001
2750,-14,1,2,-1,-2,-2,-2,-3,13.75
2751,8,14,0,-1,-2,-2,-5,-5,13.755
2752,-4,6,-6,-2,0,0,-1,-2,13.76
2753,1,9,-4,1,-3,-1,-1,-1,13.765
2754,7,-4,3,3,1,-1,0,1,13.77
2755,1,0,-3,-2,-1,0,1,1,13.775
2756,8,16,-2,1,0,-1,0,3,13.780000000000001
2757,-14,4,3,1,0,-2,-1,0,13.785
2758,-3,-9,-2,1,1,-1,0,-2,13.790000000000001
2759,-7,-18,-6,-4,-2,-2,-1,-1,13.795
2760,3,-1,0,-2,-2,-1,0,2,13.8
2761,5,13,0,-2,0,0,0,-4,13.805
2762,-6,8,5,0,-1,-2,0,-1,13.81
2763,2,0,1,0,0,-3,-1,1,13.815
2764,3,-7,-1,0,0,0,-1,1,13.82
2765,-6,8,-3,-3,-3,0,-2,-5,13.825000000000001
2766,16,1,-1,0,-3,-1,-1,0,13.83
2767,-6,-9,5,2,0,1,-4,-5,13.835
2768,-3,-12,-4,-7,-3,-2,-2,-5,13.84
2769,-4,3,-2,0,0,2,1,1,13.845
2770,-1,-17,1,1,-2,-1,-1,-1,13.85
2771,3,19,0,2,0,-1,1,3,13.855
2772,-4,9,4,2,0,-2,0,2,13.86
2773,5,2,-3,1,2,0,-1,0,13.865
2774,-3,7,-1,-3,-1,0,1,0,13.870000000000001
2775,10,7,1,0,3,-1,1,3,13.875
2776,-10,-11,-2,-3,-1,-2,-2,-9,13.88
2777,-2,3,-2,-2,-1,0,0,0,13.885
2778,5,2,1,0,1,-4,-2,4,13.89
2779,-5,2,3,2,-1,0,1,1,13.895
2780,1,-9,-6,-1,1,-1,-1,2,13.9
2781,2,-6,4,0,-2,-1,-1,-3,13.905000000000001
2782,1,3,-4,-1,-1,0,-2,0,13.91
2783,3,-1,-4,-1,-1,0,1,-1,13.915000000000001
2784,7,6,3,0,0,-2,-1,0,13.92
2785,-9,7,1,0,-1,-2,-1,-2,13.925
2786,-10,-27,8,1,2,0,0,-4,13.93
2787,-3,-2,-4,-2,-1,0,-3,-1,13.935
2788,-1,3,-2,0,-1,0,0,-1,13.94
2789,3,18,-1,-2,0,-1,-2,0,13.945
2790,12,5,-3,-1,-1,0,-1,0,13.950000000000001
2791,1,5,0,0,-2,-3,1,-1,13.955
2792,-3,4,0,-2,0,-1,1,4,13.96
2793,-2,-11,2,3,0,0,-1,3,13.965
2794,-2,-15,-7,-2,-3,-3,-3,-4,13.97
2795,-5,11,-3,-4,-3,-1,-2,-1,13.975
2796,-4,-4,-5,-2,-2,-2,0,-4,13.98
2797,-4,-1,-1,-3,-1,-3,-2,-1,13.985
2798,3,1,-2,1,-1,2,0,0,13.99
2799,3,-2,-3,-2,-1,0,-2,-1,13.995000000000001
2800,2,4,3,-1,-1,-2,0,1,14.0
2801,-20,-13,1,1,-1,0,2,-1,14.005
2802,6,-11,6,3,1,-1,-1,-2,14.01
2803,-12,-15,-10,-4,-1,-2,-2,-4,14.015
2804,2,-29,-2,-2,-1,1,0,2,14.02
2805,1,4,-2,-3,-3,-3,-2,-1,14.025
2806,-3,1,-4,-2,0,0,1,-1,14.030000000000001
2807,-3,3,4,4,-1,0,0,1,14.035
2808,1,-5,3,3,-1,0,0,0,14.040000000000001
2809,4,-2,-2,-1,-1,-1,0,-7,14.045
2810,-6,11,0,-2,-1,-1,3,2,14.05
2811,9,3,2,-2,1,1,0,8,14.055
2812,-2,17,1,-1,-1,-2,-2,-10,14.06
2813,4,5,4,2,1,2,0,-2,14.065
2814,-6,19,0,-3,1,1,-1,-3,14.07
2815,0,-9,-3,0,-1,1,1,2,14.075000000000001
2816,1,10,-2,-1,-1,0,1,2,14.08
2817,3,-5,-1,0,-1,-2,-1,0,14.085
2818,-2,3,2,0,0,0,-1,1,14.09
2819,-3,14,3,-1,0,1,1,-2,14.095
2820,-5,9,2,-1,0,-2,-4,-2,14.1
2821,11,-25,-1,1,-1,-1,-1,-1,14.105
2822,-3,16,-3,-4,-3,-2,0,0,14.11
2823,-9,-21,-4,-1,0,1,-1,-6,14.115
2824,0,5,-3,-2,-1,1,0,3,14.120000000000001
2825,4,-1,-2,-1,-1,-2,0,5,14.125
2826,-1,5,-1,0,-1,-1,-1,2,14.13
2827,5,2,0,1,0,1,0,-3,14.135
2828,-2,-12,-1,1,0,0,-1,-2,14.14
2829,-6,0,0,-1,1,0,-1,1,14.145
2830,-1,-7,0,1,-1,-3,-3,-3,14.15
2831,5,16,5,3,1,0,0,2,14.155000000000001
2832,-5,8,6,4,2,3,2,2,14.16
2833,-2,-2,-2,-1,0,1,1,-1,14.165000000000001
2834,-2,8,-2,-3,-3,-3,-3,1,14.17
2835,-9,-4,-4,-2,-1,-2,-3,-9,14.175
2836,2,1,0,0,-2,-2,-1,2,14.18
2837,-5,8,0,0,1,0,-2,-1,14.185
2838,-1,-7,1,-1,1,0,0,1,14.19
2839,3,-8,-2,-2,-2,-2,-1,1,14.195
2840,5,-8,1,0,0,-2,-2,2,14.200000000000001
2841,-5,14,1,0,-1,0,-1,-4,14.205
2842,2,-1,0,3,-1,-1,-1,3,14.21
2843,-2,-8,-5,-7,-2,-2,-1,-2,14.215
2844,-3,-8,0,0,1,1,2,-4,14.22
2845,2,-8,-3,-2,-1,0,-1,2,14.225
2846,-1,-3,-2,-1,-1,0,1,-4,14.23
2847,5,6,3,3,0,-2,-2,0,14.235
2848,-3,12,0,-1,-2,-3,-2,0,14.24
2849,-1,-11,1,-2,1,0,0,1,14.245000000000001
2850,-5,-3,-2,-1,-3,-1,-3,-3,14.25
2851,-1,23,3,0,1,0,0,-1,14.255
2852,-7,-8,-7,-1,-3,0,-1,1,14.26
2853,0,-5,-3,-5,-1,0,0,-3,14.265
2854,0,-10,-1,-4,-2,-1,-1,-2,14.27
2855,2,-17,-1,1,-1,0,1,3,14.275
2856,5,0,2,-1,1,-1,-1,-4,14.280000000000001
2857,0,11,0,-1,-2,0,-2,1,14.285
2858,0,-5,-4,1,0,-2,0,3,14.290000000000001
2859,-16,-12,2,-1,-1,-2,-2,-1,14.295
2860,-4,-8,1,-2,-1,1,-2,-2,14.3
2861,4,8,-1,-2,-2,-4,-2,-3,14.305
2862,-4,-4,-3,-3,0,-2,-2,-4,14.31
2863,2,2,-1,-1,-1,0,-1,0,14.315
2864,-2,1,-4,0,0,-2,0,-1,14.32
2865,-1,-4,3,3,0,-1,1,1,14.325000000000001
2866,3,4,0,-1,-1,0,0,-4,14.33
2867,2,0,-2,-2,-1,-1,-1,1,14.335
2868,-1,0,-1,0,0,0,-1,1,14.34
2869,10,-6,0,-2,1,1,0,-1,14.345
2870,-6,17,3,-1,-2,-2,-3,-3,14.35
2871,-5,-8,-7,5,1,-1,0,5,14.355
2872,-10,-17,-3,-4,-4,-2,-4,-17,14.36
2873,-1,2,4,-1,-1,0,0,6,14.365
2874,5,-12,-6,-7,-3,-3,-2,-1,14.370000000000001
2875,1,-5,-1,-1,2,0,-1,1,14.375
2876,3,8,3,2,1,0,0,2,14.38
2877,-1,-7,-2,1,-1,-1,-2,-2,14.385
2878,0,-1,0,0,1,0,-1,-2,14.39
2879,-6,3,4,-2,0,-1,-1,-1,14.395
2880,12,1,-2,0,0,0,-1,1,14.4
2881,0,2,-2,-2,-3,-1,-2,-1,14.405000000000001
2882,-1,-5,0,1,0,1,-1,-9,14.41
2883,-6,-4,7,-1,-1,-2,-1,0,14.415000000000001
2884,3,-12,2,-2,1,1,0,2,14.42
2885,-7,11,-5,-3,-3,-4,-3,-1,14.425
2886,2,1,-2,-2,-1,-1,-1,0,14.43
2887,-1,-4,-2,-3,-1,-1,-1,-4,14.435
2888,2,4,-2,-1,-2,0,-4,0,14.44
2889,1,-1,1,1,2,0,0,-1,14.445
2890,-1,2,3,0,0,-1,1,1,14.450000000000001
2891,5,6,-1,-1,-2,-1,-1,0,14.455
2892,-5,-3,0,-3,0,-3,2,3,14.46
2893,7,26,-1,-1,-1,-3,-1,-3,14.465
2894,4,13,-4,-2,-2,-2,-1,-1,14.47
2895,-2,-9,-5,2,0,2,0,1,14.475
2896,4,12,-1,0,0,1,-1,-4,14.48
2897,-2,7,-5,-5,-3,-4,-2,-1,14.485
2898,-7,-1,0,0,1,-3,-2,-1,14.49
2899,26,7,0,-3,0,0,0,-2,14.495000000000001
2900,-25,-9,-2,-2,-3,-2,-2,-6,14.5
2901,1,-17,3,1,-2,-1,-1,6,14.505
2902,-2,-4,5,2,-1,0,0,0,14.51
2903,-2,-10,-4,0,-2,-2,-1,-1,14.515
2904,4,-14,0,2,2,-1,0,2,14.52
2905,-3,-10,-9,-1,-2,0,-2,-5,14.525
2906,-5,-13,2,0,-1,2,2,1,14.530000000000001
2907,-3,-1,-1,-2,-2,-1,-1,-2,14.535
2908,5,4,-2,0,-1,-1,1,1,14.540000000000001
2909,-8,12,-8,-5,-3,-4,-4,-1,14.545
2910,-2,-3,1,-1,0,0,-2,-3,14.55
2911,-1,25,2,-1,-1,-1,-2,1,14.555
2912,-5,0,5,-1,-3,-2,-2,-3,14.56
2913,0,-7,5,3,1,2,2,2,14.565
2914,5,-13,0,0,0,0,0,-1,14.57
2915,-3,8,-3,-2,-2,0,0,-4,14.575000000000001
2916,-5,7,-4,-1,-1,-4,-1,2,14.58
2917,19,9,3,6,2,3,2,2,14.585
2918,-5,-14,-4,-3,-2,0,0,3,14.59
2919,-1,-16,0,0,-1,-1,-2,-3,14.595
2920,0,-1,-6,-4,-3,0,-4,0,14.6
2921,0,2,1,-1,2,0,1,-2,14.605
2922,-8,4,-4,-1,0,-3,-1,-1,14.61
2923,-1,-2,2,0,0,-1,1,0,14.615
2924,12,11,2,0,-2,1,0,5,14.620000000000001
2925,-11,-8,2,0,0,0,-3,-12,14.625
2926,-2,10,1,0,0,-2,-1,-1,14.63
2927,5,-6,-3,-2,0,2,2,0,14.635
2928,-5,-10,-1,-1,0,-1,0,1,14.64
2929,3,-6,2,2,-1,0,2,2,14.645
2930,1,23,-2,1,-1,-1,-4,1,14.65
2931,-9,-2,-2,-1,-1,-1,0,-4,14.655000000000001
2932,5,-2,0,-2,0,-2,0,-3,14.66
2933,-2,-9,-3,-2,-2,-1,0,0,14.665000000000001
2934,-7,-4,2,-2,-2,-1,-1,-5,14.67
2935,-2,-11,5,1,0,0,1,0,14.675
2936,-3,-28,0,2,1,1,4,1,14.68
2937,-13,-4,-1,-2,0,-1,-1,-1,14.685
2938,7,-10,0,-1,0,0,1,0,14.69
2939,2,3,-2,3,-1,0,-2,0,14.695
2940,-3,7,2,-3,-2,-4,-3,-3,14.700000000000001
2941,-3,-11,2,-2,-1,-2,-1,1,14.705
2942,0,-9,2,1,0,1,1,1,14.71
2943,-10,1,1,-2,0,0,0,1,14.715
2944,-1,8,-2,4,2,1,0,0,14.72
2945,6,0,0,3,0,0,2,-1,14.725
2946,3,4,-2,-3,-2,-1,0,0,14.73
2947,4,2,-1,-1,-1,-1,-2,1,14.735
2948,-7,1,-1,0,-1,-2,-2,-1,14.74
2949,1,-3,-5,-3,-2,-3,-3,-1,14.745000000000001
2950,-1,-12,0,0,0,0,0,0,14.75
2951,2,21,1,3,2,0,-2,-2,14.755
2952,-5,7,-2,-2,-1,1,0,0,14.76
2953,-4,-6,-1,-6,-2,0,0,-2,14.765
2954,2,-10,-5,-2,0,-2,-2,-6,14.77
2955,-4,-10,-1,-2,-2,-3,-2,8,14.775
2956,17,24,-2,-2,-2,-2,-2,-3,14.780000000000001
2957,-10,2,-2,0,-1,-1,0,0,14.785
2958,8,19,-3,-3,-3,-3,-2,-1,14.790000000000001
2959,1,11,-3,-1,0,-2,1,-3,14.795
2960,-8,-11,1,1,-2,-2,0,0,14.8
2961,-1,-7,0,0,-1,-1,0,0,14.805
2962,3,4,1,-1,0,-1,-1,0,14.81
2963,2,-2,-1,-1,-1,-2,-1,-3,14.815
2964,-2,1,1,0,-1,0,0,1,14.82
2965,0,-2,-1,-2,-1,-1,-1,-1,14.825000000000001
2966,-2,-5,2,0,1,-1,-3,0,14.83
2967,-11,-8,-1,-1,-1,1,0,-3,14.835
2968,4,-15,0,-1,0,0,-1,-2,14.84
2969,-2,0,3,0,-1,0,-1,1,14.845
2970,-1,27,-5,-4,-3,0,-1,2,14.85
2971,-1,2,-5,-2,-1,-2,-1,-2,14.855
2972,-5,6,-1,0,0,0,-1,-1,14.86
2973,20,0,1,1,0,1,0,-1,14.865
2974,-5,-10,0,-1,-3,0,0,-1,14.870000000000001
2975,1,-7,0,0,-1,1,-1,-3,14.875
2976,-9,5,-2,-2,0,-3,-4,-3,14.88
2977,-2,0,0,0,-1,-1,1,0,14.885
2978,-1,-6,-1,-1,1,-2,-1,1,14.89
2979,-3,-10,-2,-2,-2,0,-2,5,14.895
2980,1,-6,0,1,0,1,-1,-4,14.9
2981,-4,6,-3,-4,-1,-1,-1,-3,14.905000000000001
2982,-2,-9,3,3,0,2,0,-1,14.91
2983,-4,-7,-1,-1,-1,-1,-1,2,14.915000000000001
2984,-3,-20,0,-2,-2,0,-1,-1,14.92
2985,-12,35,4,-1,0,-2,-1,-3,14.925
2986,7,0,-9,-1,0,1,1,1,14.93
2987,2,-3,0,1,-2,-2,-1,-3,14.935
2988,-14,-10,2,0,-1,-1,1,1,14.94
2989,2,8,-1,4,1,2,2,0,14.945
2990,-6,-3,-1,0,0,0,-1,-1,14.950000000000001
2991,1,-5,-1,-1,0,-1,-1,-1,14.955
2992,10,-3,-2,-2,1,-2,-2,1,14.96
2993,2,-7,-1,-3,-3,-2,0,1,14.965
2994,-3,3,-1,-1,-1,-1,-1,2,14.97
2995,5,3,-3,-2,-2,0,-1,-2,14.975
2996,-2,11,1,2,1,1,-2,0,14.98
2997,-6,-13,-4,-1,-3,-1,-2,-2,14.985
2998,1,-3,1,1,0,-2,2,3,14.99
2999,0,-4,-1,-3,-3,-4,-3,-10,14.995000000000001
3000,10,21,-4,-5,-4,-2,-1,2,15.0
3001,2,3,2,-3,0,0,-1,-6,15.005
3002,-3,0,-5,-4,-3,-2,-2,2,15.01
3003,-3,6,1,0,0,0,1,3,15.015
3004,1,6,1,-1,1,-1,-1,1,15.02
3005,1,-26,-1,1,0,-2,-2,-2,15.025
3006,-9,-14,-3,-3,-1,1,0,0,15.030000000000001
3007,3,-1,-2,-2,1,0,0,0,15.035
3008,2,31,-4,0,-2,-1,0,-1,15.040000000000001
3009,-2,-6,-1,1,1,0,1,3,15.045
3010,1,-3,4,0,0,-3,-4,-6,15.05
3011,-6,2,-5,-4,-1,-2,-3,-2,15.055
3012,-1,-19,0,-1,-1,1,-1,0,15.06
3013,-7,-4,2,2,1,2,0,2,15.065
3014,-1,8,-1,-1,-2,-2,0,-2,15.07
3015,-3,-7,-1,1,0,1,-1,0,15.075000000000001
3016,-1,16,0,-2,-3,0,1,4,15.08
3017,1,11,-3,-2,-1,-3,-3,-9,15.085
3018,1,-9,1,2,2,1,-1,-2,15.09
3019,-3,4,-1,-1,0,-1,1,2,15.095
3020,-8,-34,-3,-3,-1,-2,0,-7,15.1
3021,6,0,2,3,-2,1,1,4,15.105
3022,-3,2,-3,0,0,0,-2,-3,15.11
3023,3,-4,-3,-2,-2,-3,-1,0,15.115
3024,1,3,-2,1,0,2,-1,-2,15.120000000000001
3025,-3,-2,-2,-5,-2,-2,-1,-1,15.125
3026,2,-2,-1,-1,0,-1,-1,-2,15.13
3027,3,10,0,4,0,1,1,0,15.135
3028,3,1,-5,-2,0,-3,-1,-1,15.14
3029,2,-21,-4,0,1,0,0,0,15.145
3030,-1,5,-3,1,-1,0,0,0,15.15
3031,-2,0,1,-1,0,-2,1,-1,15.155000000000001
3032,0,-4,3,0,-1,-3,-1,2,15.16
3033,-4,-8,-6,-3,0,1,0,0,15.165000000000001
3034,8,-14,1,-1,-3,-3,-1,-1,15.17
3035,-2,6,2,-2,-2,0,-1,-1,15.175
3036,0,-2,-1,0,-1,-1,0,-4,15.18
3037,-4,6,0,0,0,-2,0,2,15.185
3038,0,9,4,0,0,1,0,0,15.19
3039,-3,-7,-1,-2,-2,-1,-3,-1,15.195
3040,2,1,-1,3,-1,0,0,4,15.200000000000001
3041,-11,8,-2,-2,-4,-4,-2,-9,15.205
3042,0,-14,0,-3,-1,-1,-1,2,15.21
3043,-2,-19,-2,1,1,-1,-1,-1,15.215
3044,2,13,-3,-1,-1,0,-2,-1,15.22
3045,-1,9,2,-3,-1,-3,-3,1,15.225
3046,7,0,-1,1,4,2,-1,-3,15.23
3047,-7,-3,-3,-1,-1,-2,-1,-1,15.235
3048,5,2,4,-2,-2,1,-1,-1,15.24
3049,-2,4,2,1,1,0,1,-3,15.245000000000001
3050,-8,8,0,-1,-4,-4,-1,2,15.25
3051,1,9,2,0,-1,-1,-2,7,15.255
3052,1,-14,0,-1,2,-1,0,-13,15.26
3053,0,4,2,-1,0,1,-1,2,15.265
3054,-7,9,2,-1,-1,0,-1,-4,15.27
3055,-3,-6,-4,-1,-2,-3,0,-4,15.275
3056,-2,-1,2,0,-1,-1,0,2,15.280000000000001
3057,6,-4,2,1,1,3,0,2,15.285
3058,-6,10,1,1,0,1,-1,-1,15.290000000000001
3059,-7,0,-1,0,0,0,-2,-4,15.295
3060,-4,-8,-2,-2,-2,-3,-3,1,15.3
3061,8,-4,-5,-5,-2,0,-2,0,15.305
3062,11,-9,-4,-1,-2,0,-3,-1,15.31
3063,-7,8,4,3,-1,1,-1,-3,15.315
3064,-5,-22,-1,1,2,1,3,2,15.32
3065,0,-4,-6,-1,1,-4,-1,1,15.325000000000001
3066,-5,-24,0,1,-1,-1,2,0,15.33
3067,1,-6,-6,-1,0,-1,-2,-2,15.335
3068,-6,-8,-2,0,-1,-1,1,-1,15.34
3069,3,-8,-1,-1,-2,-2,-3,-2,15.345
3070,8,8,-1,1,1,2,1,1,15.35
3071,-9,6,3,-2,-2,-1,2,-1,15.355
3072,0,-2,1,0,0,1,0,1,15.36
3073,-4,3,0,-3,-1,1,-1,-6,15.365
3074,-3,5,2,-1,1,-1,-1,3,15.370000000000001
3075,4,-1,-1,-2,-1,-2,-3,1,15.375
3076,-1,10,-1,-2,-2,-3,-2,3,15.38
3077,-3,3,1,0,-1,0,-1,-8,15.385
3078,-3,1,-3,-2,0,-1,-1,-1,15.39
3079,10,1,-2,0,0,2,0,-1,15.395
3080,-2,-8,-4,0,-2,0,1,1,15.4
3081,-2,-4,-3,-2,-1,-3,-1,3,15.405000000000001
3082,-6,-12,-4,-4,0,-4,-2,-5,15.41
3083,-5,2,1,1,-1,0,-1,1,15.415000000000001
3084,10,-6,0,1,1,1,-1,-2,15.42
3085,-11,-15,-3,0,-4,-1,0,1,15.425
3086,-1,-26,-1,1,-1,-1,0,-2,15.43
3087,11,1,-1,0,0,1,2,1,15.435
3088,-9,11,-1,-4,-1,-2,-2,-3,15.44
3089,5,7,0,1,-3,-2,-2,1,15.445
3090,-4,2,0,-2,-3,-2,0,0,15.450000000000001
3091,-1,-12,-1,-4,-2,1,-1,-3,15.455
3092,15,3,2,3,1,1,-1,0,15.46
3093,-5,5,0,0,-1,-1,0,1,15.465
3094,-2,12,1,-2,-1,-1,0,-1,15.47
3095,2,-11,-2,1,0,-3,-3,0,15.475
3096,-10,-22,1,0,2,2,1,-5,15.48
3097,-9,-5,1,0,-1,-1,-1,-3,15.485000000000001
3098,4,12,-3,-2,-3,1,0,0,15.49
3099,1,-9,1,0,1,1,1,1,15.495000000000001
3100,-2,2,-1,-2,0,-3,-1,0,15.5
3101,4,5,-2,0,0,-1,-2,-1,15.505
3102,-11,2,4,-2,-2,-1,-1,-1,15.51
3103,0,-4,-3,-2,-2,-2,-1,-2,15.515
3104,-6,7,0,-2,-2,-1,-3,-1,15.52
3105,0,1,-2,0,1,2,-1,0,15.525
3106,2,-3,-2,3,1,0,-1,1,15.530000000000001
3107,4,25,1,-1,-1,-1,1,1,15.535
3108,1,5,-3,-4,-4,-3,-2,-1,15.540000000000001
3109,-2,-25,-1,0,0,0,-1,-1,15.545
3110,2,2,-3,-1,1,1,0,-1,15.55
3111,-1,1,-5,-3,-2,-3,-2,-1,15.555
3112,4,18,0,-1,-1,-2,-1,1,15.56
3113,1,15,4,1,-1,-1,0,1,15.565
3114,3,-2,-2,-2,-2,-1,-2,0,15.57
3115,3,-10,3,2,1,1,-1,-2,15.575000000000001
3116,-9,-5,-1,-2,-3,-4,-2,-2,15.58
3117,-1,-1,1,-3,-3,-1,0,1,15.585
3118,-7,-14,3,2,0,-1,-1,0,15.59
3119,3,5,2,-3,-2,0,-1,-2,15.595
3120,0,-2,-2,-1,-2,-3,-1,1,15.6
3121,-7,-1,-5,1,1,0,0,-3,15.605
3122,0,-7,0,2,-2,-2,0,0,15.610000000000001
3123,4,18,2,1,0,1,1,5,15.615
3124,-5,2,1,-1,0,-2,0,-2,15.620000000000001
3125,0,-11,2,1,0,-1,0,2,15.625
3126,-7,12,-1,-4,-2,-3,-2,-2,15.63
3127,-5,-8,-4,-1,-1,-1,0,-1,15.635
3128,7,10,0,2,1,1,0,0,15.64
3129,11,3,-1,0,-1,0,0,4,15.645
3130,0,-17,0,-3,-1,-2,-1,-3,15.65
3131,-11,-4,0,0,-1,-1,-6,-2,15.655000000000001
3132,4,-14,-6,-4,-1,3,4,-2,15.66
3133,-14,-10,2,0,0,-1,2,-1,15.665000000000001
3134,2,19,1,2,1,0,-2,-4,15.67
3135,-6,-23,-5,-3,-1,0,3,-1,15.675
3136,-5,-3,-5,-3,-2,-2,-5,1,15.68
3137,6,2,-2,0,-1,0,0,-3,15.685
3138,3,17,-5,-2,-1,0,1,2,15.69
3139,6,-9,2,-1,-3,-3,-2,-2,15.695
3140,-8,9,0,-1,-1,-1,-1,-2,15.700000000000001
3141,4,2,2,-1,0,-1,0,1,15.705
3142,-1,-5,-3,-4,0,1,1,0,15.71
3143,2,19,0,2,1,-1,-7,0,15.715
3144,-9,-12,6,2,0,1,6,-5,15.72
3145,-5,-12,-1,-6,-1,-3,-3,-2,15.725
3146,10,6,-1,0,-3,0,-2,-1,15.73
3147,2,-6,-2,-2,1,0,1,-2,15.735000000000001
3148,6,-6,0,0,1,-1,-3,0,15.74
3149,-9,9,-3,1,-2,-1,1,2,15.745000000000001
3150,21,17,2,-1,-1,-1,0,-8,15.75
3151,-10,0,-2,-2,0,-3,-3,-1,15.755
3152,1,-3,-2,-6,-3,-4,-5,2,15.76
3153,2,10,-7,-1,-1,-1,3,1,15.765
3154,-7,-25,-3,1,3,0,2,0,15.77
3155,1,-1,-3,-2,-3,-2,0,1,15.775
3156,2,5,4,2,0,0,1,-2,15.780000000000001
3157,4,3,2,-1,-2,0,-5,5,15.785
3158,-14,-18,-2,-1,-1,-2,-6,-4,15.790000000000001
3159,0,30,5,0,-2,0,4,0,15.795
3160,-7,-2,-5,-2,-1,0,-1,1,15.8
3161,13,8,3,0,1,1,-2,-3,15.805
3162,-18,6,-3,-1,-2,-1,4,-7,15.81
3163,42,-1,6,3,0,1,0,5,15.815
3164,-25,9,5,0,0,-2,-1,1,15.82
3165,22,12,2,0,-1,0,1,4,15.825000000000001
3166,-13,4,-5,-5,-2,-1,-3,19,15.83
3167,-5,-10,0,-1,-1,-4,-5,-33,15.835
3168,10,5,7,4,2,2,1,-14,15.84
3169,-31,-3,-11,-5,-2,-1,2,12,15.845
3170,-19,8,0,-3,-3,-5,-5,-6,15.85
3171,0,-4,-4,-1,0,5,4,15,15.855
3172,10,-11,-1,-2,-2,-1,-1,2,15.860000000000001
3173,16,-2,1,1,-1,-2,-4,-15,15.865
3174,9,-12,0,1,0,2,1,13,15.870000000000001
3175,-1,9,-3,0,-1,-1,-1,6,15.875
3176,-4,-45,-2,-1,0,0,-2,-4,15.88
3177,-5,-1,-2,-2,-1,3,1,5,15.885
3178,11,-11,9,0,-2,-1,1,0,15.89
3179,-19,-18,9,1,0,-3,0,-9,15.895
3180,7,33,-2,-3,-4,-2,-5,2,15.9
3181,-4,-16,4,2,0,-1,0,-2,15.905000000000001
3182,16,-11,0,3,0,0,-3,-7,15.91
3183,-26,-14,-19,0,-2,0,0,-4,15.915000000000001
3184,4,-4,-4,-9,-1,2,0,7,15.92
3185,-3,27,-3,-2,-4,-2,-1,-3,15.925
3186,18,36,-2,1,-1,0,0,-7,15.93
3187,-3,-9,0,2,-2,1,0,9,15.935
3188,9,11,3,1,-1,-2,1,1,15.94
3189,-11,-15,-4,0,1,-2,-4,-10,15.945
3190,-11,-23,3,2,0,1,0,2,15.950000000000001
3191,-2,18,0,-3,2,0,1,-2,15.955
3192,-8,-23,7,10,2,1,-1,3,15.96
3193,16,3,-5,-2,-3,-1,-2,-8,15.965
3194,-24,-13,-18,-18,-5,-2,1,2,15.97
3195,13,-2,-3,-4,0,-1,0,6,15.975
3196,-9,-3,3,-4,2,0,-5,13,15.98
3197,-1,-5,12,26,1,0,4,-6,15.985000000000001
3198,14,0,-9,-4,-2,-2,-4,31,15.99
3199,17,-14,-8,-16,-9,-3,-4,-40,15.995000000000001
3200,-13,3,-1,-10,-2,-3,-4,24,16.0
3201,-21,-10,18,7,4,3,0,-50,16.005
3202,-35,16,-10,2,-3,-3,2,-1,16.01
3203,14,-39,1,-9,0,-2,-4,29,16.015
3204,-1,10,4,3,-2,3,-2,-20,16.02
3205,4,-4,-29,-9,-7,-5,3,24,16.025
3206,3,-2,3,-1,1,1,0,-17,16.03
3207,-20,6,1,2,-1,-3,-3,17,16.035
3208,21,4,-1,-8,-5,-3,2,-15,16.04
3209,13,-27,3,14,4,4,0,3,16.045
3210,3,-1,-13,-14,2,3,6,-14,16.05
3211,-3,12,-3,11,2,-4,-4,57,16.055
3212,-12,37,-3,0,-1,2,3,-10,16.06
3213,-1,7,-12,-13,-1,-2,-2,4,16.065
3214,-2,-32,10,9,0,-3,-6,-31,16.07
3215,-6,9,10,6,4,6,9,-2,16.075
3216,-7,-22,-7,10,0,-5,-1,-7,16.080000000000002
3217,6,-13,-4,-11,2,1,-6,-12,16.085
3218,10,-16,6,-1,1,0,1,18,16.09
3219,-20,24,13,13,-1,-2,-2,-25,16.095
3220,9,15,-10,-12,-1,-5,-2,-4,16.1
3221,0,-14,7,-1,-1,1,-5,-2,16.105
3222,3,-26,-3,-23,-4,-3,-4,0,16.11
3223,-5,35,-1,12,-1,-1,3,-6,16.115000000000002
3224,-9,-9,1,0,-2,0,5,6,16.12
3225,5,27,-4,-20,-3,-1,6,25,16.125
3226,-16,-2,5,16,-1,-3,-6,-6,16.13
3227,21,-18,-7,-1,-2,-3,-12,-25,16.135
3228,-9,-6,0,-3,-3,-2,-3,-6,16.14
3229,2,10,14,10,-3,-4,-2,-3,16.145
3230,11,17,2,4,2,3,5,14,16.15
3231,-14,-19,-5,22,0,-1,2,-4,16.155
3232,7,-25,-11,-12,-2,-2,-3,-4,16.16
3233,-12,0,6,-1,1,4,1,10,16.165
3234,-1,33,-1,0,-3,-1,1,3,16.17
3235,7,5,2,4,0,0,2,-5,16.175
3236,22,4,8,15,6,1,2,25,16.18
3237,-53,40,-4,-19,-7,-5,-7,-22,16.185
3238,14,14,6,17,4,4,0,-30,16.19
3239,-29,-26,-9,-20,-5,-5,-5,11,16.195
3240,36,42,10,4,-2,-3,8,22,16.2
3241,21,-22,-1,4,3,2,-3,-7,16.205000000000002
3242,3,36,5,8,0,2,-5,-13,16.21
3243,11,10,-4,-26,-8,-4,-6,-8,16.215
3244,-8,-10,-12,-3,0,1,0,-7,16.22
3245,17,-8,12,15,4,-1,2,10,16.225
3246,3,-21,-7,10,-1,-3,0,9,16.23
3247,-1,-10,-15,-5,2,3,2,0,16.235
3248,0,-11,3,7,-1,3,1,-4,16.240000000000002
3249,-5,16,-16,-28,-4,0,2,0,16.245
3250,-11,-47,7,7,3,0,-3,3,16.25
3251,9,21,6,-1,1,1,1,0,16.255
3252,-13,-11,24,18,7,4,-1,-14,16.26
3253,-5,5,-12,-11,-7,-6,-2,3,16.265
3254,-3,-14,-16,-18,-7,-4,0,6,16.27
3255,6,-10,-3,-2,1,-2,-2,-15,16.275
3256,-4,32,7,3,0,0,-2,-4,16.28
3257,-3,-8,19,10,3,2,2,-2,16.285
3258,25,14,-17,-18,-3,0,2,36,16.29
3259,-22,0,5,2,2,3,6,2,16.295
3260,-18,1,-8,-19,-1,-2,-4,-35,16.3
3261,18,-8,10,7,2,-1,2,3,16.305
3262,-8,-3,-10,-11,-4,-6,-8,-8,16.31
3263,3,24,11,19,1,1,1,8,16.315
3264,23,16,-3,9,-1,-3,4,31,16.32
3265,-10,-14,-4,-18,-3,2,-1,-11,16.325
3266,-16,4,6,6,2,1,-4,-33,16.330000000000002
3267,11,0,8,-12,0,-3,-7,-4,16.335
3268,-12,-13,-19,4,-4,0,0,4,16.34
3269,7,-2,-5,8,2,5,15,30,16.345
3270,26,30,28,25,4,2,-2,10,16.35
3271,11,15,10,-18,0,-2,-5,-9,16.355
3272,-25,9,-15,-18,-7,-3,-1,2,16.36
3273,-7,16,-6,6,-3,-3,-6,-12,16.365000000000002
3274,-6,8,14,36,7,7,9,-1,16.37
3275,-29,8,-3,-17,-3,-2,-2,-3,16.375
3276,23,-7,2,19,4,-4,-5,-6,16.38
3277,4,-4,-7,-14,0,0,0,-1,16.385
3278,5,-7,-2,-10,-4,-4,-1,4,16.39
3279,2,24,-1,21,1,4,7,19,16.395
3280,5,-30,-8,-24,0,-2,-1,-19,16.4
3281,-26,38,31,7,-1,2,-5,3,16.405
3282,-20,-18,-13,-11,-2,0,-3,-31,16.41
3283,3,-10,1,5,-2,-1,2,-6,16.415
3284,29,-14,-16,-30,-1,1,1,9,16.42
3285,-56,18,-8,14,-3,-5,-1,20,16.425
3286,4,-2,5,-9,-2,-4,-6,1,16.43
3287,0,-5,7,9,-1,0,5,7,16.435
3288,-40,-4,2,-3,-2,3,0,10,16.44
3289,48,-36,-27,24,1,-2,-8,-34,16.445
3290,-16,-4,-13,-22,-4,-7,-6,3,16.45
3291,-8,0,-1,-3,-2,-2,-3,-12,16.455000000000002
3292,19,15,13,7,2,2,3,-2,16.46
3293,-25,-8,14,13,0,-2,2,9,16.465
3294,-1,14,-5,0,-3,0,1,9,16.47
3295,31,36,-12,-11,-3,-3,4,18,16.475
3296,-19,-18,4,17,1,-1,-6,-28,16.48
3297,18,-1,-14,-18,-4,-5,-10,-2,16.485
3298,3,8,9,-29,-7,-3,2,1,16.490000000000002
3299,-3,-44,-19,-12,0,2,5,26,16.495
3300,-14,1,1,12,-3,-5,-5,-22,16.5
3301,0,-37,-12,-12,0,-2,-3,-3,16.505
3302,15,-11,-3,6,4,2,1,-2,16.51
3303,-22,-7,13,23,3,2,0,-9,16.515
3304,37,2,-13,-6,-5,-2,3,15,16.52
3305,-11,-12,-12,-14,-2,1,0,-4,16.525
3306,-15,-14,8,-5,-2,-3,-8,-20,16.53
3307,32,-5,13,17,-1,0,-4,0,16.535
3308,-39,-21,-14,-27,-3,-1,-3,-2,16.54
3309,-9,-11,23,17,4,0,4,11,16.545
3310,27,-19,-22,-4,0,4,8,32,16.55
3311,-18,-19,1,-2,-6,-6,-11,-38,16.555
3312,6,6,7,4,1,-1,-3,3,16.56
3313,2,2,8,-1,0,0,0,-10,16.565
3314,-13,-14,5,31,2,2,6,13,16.57
3315,11,1,-4,-14,-3,-4,-6,-9,16.575
3316,-13,-12,4,4,1,2,2,2,16.580000000000002
3317,20,15,3,4,5,3,4,8,16.585
3318,-19,26,1,-2,-2,-5,-7,-6,16.59
3319,21,-17,-18,6,3,5,2,25,16.595
3320,-3,2,-3,-23,-5,-7,-11,-6,16.6
3321,23,-9,-3,-6,-1,1,-4,-8,16.605
3322,-8,8,27,34,3,0,3,-2,16.61
3323,-12,12,-15,-50,-9,-7,-1,2,16.615000000000002
3324,20,28,0,-1,-1,-1,8,21,16.62
3325,-42,-26,-4,4,0,2,-4,-23,16.625
3326,20,2,7,-2,2,3,2,4,16.63
3327,-27,-20,-1,11,3,4,0,-12,16.635
3328,19,9,16,29,2,2,2,14,16.64
3329,9,3,3,-16,-4,-5,-5,-5,16.645
3330,-7,21,5,-3,-5,-4,-4,-7,16.65
3331,17,-12,-12,-36,-7,-2,-3,0,16.655
3332,-4,-5,-1,0,-1,1,-2,-10,16.66
3333,1,16,7,3,-2,1,2,7,16.665
3334,-14,0,-8,-10,2,0,0,7,16.67
3335,21,-2,13,21,5,2,3,-14,16.675
3336,-19,3,-6,-3,2,2,-4,12,16.68
3337,-7,-4,-8,-13,-2,-5,-4,-2,16.685
3338,14,19,9,4,3,1,1,-5,16.69
3339,-11,28,-8,-11,-8,-4,-1,-2,16.695
3340,-19,-8,0,1,-1,1,0,-19,16.7
3341,19,-19,-4,8,1,2,1,8,16.705000000000002
3342,2,22,-8,-18,-5,-1,2,1,16.71
3343,-22,26,26,20,4,-1,-5,-8,16.715
3344,1,-12,-17,10,-8,-6,-3,-1,16.72
3345,3,8,-10,-12,1,-12,-4,8,16.725
3346,-15,1,9,6,12,15,3,-7,16.73
3347,-6,-20,10,6,6,5,2,1,16.735
3348,5,12,5,17,3,5,4,3,16.740000000000002
3349,3,16,5,10,-6,-1,0,0,16.745
3350,-11,-41,-27,-17,-10,-10,-2,-5,16.75
3351,10,-37,1,2,2,-6,-3,-2,16.755
3352,-10,-4,2,-8,-3,-2,-1,0,16.76
3353,2,-1,-6,6,-2,-1,0,-4,16.765
3354,4,-2,1,-10,-3,-3,-5,-4,16.77
3355,-5,-9,-2,6,-1,2,0,-3,16.775
3356,-3,-7,2,-6,3,-1,2,0,16.78
3357,10,-4,-11,-21,-5,0,1,13,16.785
3358,-2,22,0,8,1,0,-1,9,16.79
3359,1,-39,-9,-3,-3,-6,-16,-41,16.795
3360,-6,-1,7,-7,0,-3,-3,-9,16.8
3361,-9,-9,2,12,0,0,-4,-3,16.805
3362,22,-13,-4,-7,-7,-4,6,1,16.81
3363,-6,39,-4,1,-2,-1,3,37,16.815
3364,16,-6,17,0,-4,-2,-4,-28,16.82
3365,5,-13,-28,-26,-5,-1,-3,-8,16.825
3366,-13,-28,-10,-1,-3,-4,-2,-2,16.830000000000002
3367,11,-7,0,0,2,3,5,8,16.835
3368,1,29,13,6,5,4,1,9,16.84
3369,-3,-26,-6,-3,-5,-3,-2,31,16.845
3370,-4,27,6,3,-3,0,-5,-30,16.85
3371,-17,-4,-3,8,3,6,7,-8,16.855
3372,14,-34,-18,-22,-3,-7,-4,10,16.86
3373,10,-6,12,5,0,1,2,-4,16.865000000000002
3374,-13,-20,-5,0,2,1,-2,13,16.87
3375,16,17,6,7,1,1,5,0,16.875
3376,-13,-20,-1,5,2,2,0,28,16.88
3377,1,-18,0,7,1,-3,-3,-26,16.885
3378,-3,-2,-5,-13,1,-2,-5,-7,16.89
3379,-2,3,-9,3,-4,-3,-4,-8,16.895
3380,-8,-13,-6,-4,0,0,5,13,16.9
3381,20,24,7,3,0,1,2,10,16.905
3382,6,-1,-5,3,-1,0,-2,-3,16.91
3383,-6,-4,-2,-5,0,-2,1,4,16.915
3384,-12,11,3,-5,-1,1,-5,-8,16.92
3385,-9,57,5,4,0,1,1,-7,16.925
3386,8,6,-2,5,-2,-6,1,2,16.93
3387,-1,-5,-1,-6,0,0,1,3,16.935
3388,11,-7,0,5,2,-1,-2,-7,16.94
3389,-6,0,7,0,1,4,3,-1,16.945
3390,-2,-14,-1,1,-2,0,-1,4,16.95
3391,-1,2,-6,-15,-9,-3,-3,0,16.955000000000002
3392,2,4,2,15,6,1,1,-4,16.96
3393,-3,-14,-8,-23,4,2,-1,-2,16.965
3394,-3,-7,-3,-2,-6,-2,-2,1,16.97
3395,-3,4,1,-10,-1,-3,-1,5,16.975
3396,-14,32,6,1,-10,-7,-5,-10,16.98
3397,-2,-1,1,4,-2,-3,-1,4,16.985
3398,9,1,4,-6,-1,-5,-4,-1,16.990000000000002
3399,-8,-14,-6,7,-5,-3,-3,-4,16.995
3400,4,-3,-2,-4,1,1,3,1,17.0
3401,2,-7,-8,5,0,2,2,0,17.005
3402,-8,6,2,8,-2,-1,-2,-3,17.01
3403,0,-20,7,-14,0,-4,-6,-6,17.015
3404,0,-6,-10,-4,-2,-2,-2,-6,17.02
3405,-9,-8,3,-7,-1,0,-2,-4,17.025
3406,4,30,3,7,1,2,3,6,17.03
3407,-9,6,-4,3,1,5,1,2,17.035
3408,5,-4,-1,-7,3,4,3,2,17.04
3409,-4,-5,4,7,-4,-4,1,-1,17.045
3410,-6,-84,5,-3,-2,-6,-4,-1,17.05
3411,-3,-1,-5,-2,1,-2,-1,-1,17.055
3412,3,16,-2,2,-2,-1,-3,-6,17.06
3413,9,15,-3,10,5,8,6,2,17.065
3414,9,9,4,-4,2,0,4,5,17.07
3415,-4,0,5,-5,-8,-14,-6,0,17.075
3416,0,-19,-1,-2,-5,-3,-2,2,17.080000000000002
3417,-1,-8,-4,-2,-2,-4,-4,-5,17.085
3418,-12,11,-4,1,5,7,4,0,17.09
3419,8,11,-2,5,2,2,3,3,17.095
3420,1,-34,-3,-3,0,-4,-4,-4,17.1
3421,-10,-6,2,-1,-5,-6,-5,-6,17.105
3422,2,6,-4,-1,0,3,0,-4,17.11
3423,3,20,1,5,2,4,3,12,17.115000000000002
3424,-14,-33,5,-4,-1,1,-1,-11,17.12
3425,-3,8,-7,-3,0,1,0,1,17.125
3426,6,-10,-7,0,-2,0,0,-2,17.13
3427,-5,-5,-5,-1,-4,-4,-5,-6,17.135
3428,2,-11,2,0,-1,0,1,4,17.14
3429,2,-13,-1,0,-2,-4,-2,-1,17.145
3430,-15,0,-3,-4,-3,-2,-3,-5,17.150000000000002
3431,5,-3,0,0,2,2,2,-1,17.155
3432,0,13,-2,2,1,2,1,2,17.16
3433,-9,19,-3,-1,-2,-2,0,0,17.165
3434,21,6,1,-1,1,2,2,4,17.17
3435,-5,-4,4,1,0,1,0,-2,17.175
3436,0,11,-2,-4,-3,-5,-1,-2,17.18
3437,2,-9,6,2,0,0,-1,-1,17.185
3438,4,9,-1,-1,0,-4,0,-1,17.19
3439,2,12,-1,-2,-1,0,-2,-1,17.195
3440,-9,-2,-5,-1,-3,0,-1,-1,17.2
3441,1,-7,0,-2,-1,-2,-3,-4,17.205000000000002
3442,-6,-10,-1,-1,0,-1,-1,6,17.21
3443,0,-14,-3,2,1,1,2,2,17.215
3444,2,4,-3,0,0,0,1,4,17.22
3445,-2,-17,2,-5,-3,-3,-2,-2,17.225
3446,-12,-6,-11,-3,-5,-2,-2,-1,17.23
3447,-13,-8,-5,0,0,-1,1,-4,17.235
3448,3,15,-1,1,1,-1,0,7,17.240000000000002
3449,2,-7,-1,1,0,-2,-1,-7,17.245
3450,-6,4,6,-3,-3,-4,-4,-6,17.25
3451,8,20,7,1,3,5,3,1,17.255
3452,-10,-9,-1,-2,0,0,-1,-2,17.26
3453,7,5,5,1,2,4,4,7,17.265
3454,-7,1,-6,-1,0,1,-2,-1,17.27
3455,-3,-7,0,0,-3,-4,-2,-2,17.275000000000002
3456,0,7,1,4,1,1,3,3,17.28
3457,0,6,-2,0,1,1,-2,1,17.285
3458,5,6,4,2,1,2,0,-2,17.29
3459,-7,-2,1,-1,0,2,2,-1,17.295
3460,15,10,1,1,-2,-4,-3,-3,17.3
3461,-3,13,-1,2,1,0,-2,1,17.305
3462,-6,1,-4,-6,-5,-2,-2,-1,17.31
3463,-4,-8,0,-1,0,-1,-4,-3,17.315
3464,-3,3,-3,-6,-3,-3,0,-2,17.32
3465,2,1,3,-3,-3,-3,-4,-3,17.325
3466,15,17,5,3,4,1,1,7,17.330000000000002
3467,-5,6,-1,-4,-3,-3,-3,-3,17.335
3468,7,-6,-2,-1,1,1,1,-3,17.34
3469,-15,2,-1,0,-2,1,2,1,17.345
3470,-1,11,1,-1,-2,-1,-1,-7,17.35
3471,-3,0,3,-3,-1,-1,-3,2,17.355
3472,5,2,3,1,-1,-1,-2,5,17.36
3473,-4,-7,-11,-3,-2,-6,-4,-10,17.365000000000002
3474,5,-5,-2,1,0,0,-1,-1,17.37
3475,7,-10,-1,3,3,4,3,1,17.375
3476,-12,-18,1,-6,-6,-3,-5,-5,17.38
3477,-1,-3,3,-1,-2,-2,-1,5,17.385
3478,-2,-12,3,0,-2,-3,-1,-1,17.39
3479,9,15,-5,-3,-2,-2,-1,-2,17.395
3480,2,6,-2,-2,-1,0,0,1,17.400000000000002
3481,-5,-8,3,1,1,2,1,1,17.405
3482,7,-1,-5,-5,-2,-1,-1,-1,17.41
3483,-8,6,4,0,0,1,1,-2,17.415
3484,1,9,-3,0,2,0,1,3,17.42
3485,-2,-16,-6,0,0,0,-1,-3,17.425
3486,-2,0,-5,-3,-2,0,-1,1,17.43
3487,0,-9,0,-1,-5,-5,-3,-1,17.435
