slno,emg1,emg2,emg3,emg4,emg5,emg6,emg7,emg8,Time
0,-1,-1,0,0,0,0,-1,-1,0.0
1,-1,0,-1,-2,-2,-1,0,0,0.005
2,-1,-1,0,-1,1,1,-1,-1,0.01
3,0,-2,-1,1,0,-1,-2,-1,0.015
4,-1,-1,-1,-3,-2,-2,-1,-1,0.02
5,-1,0,-1,-1,-1,-2,-2,0,0.025
6,0,0,-2,1,0,-1,1,1,0.03
7,-1,-2,-2,-3,0,-2,0,-2,0.035
8,-1,-1,-2,-3,-2,-1,0,0,0.04
9,0,-1,0,-1,-3,-3,-1,-1,0.045
10,-1,-1,-1,-1,0,1,0,-1,0.05
11,0,1,-3,-2,1,0,0,0,0.055
12,-2,0,0,0,0,-1,0,-1,0.06
13,0,1,1,-1,2,1,-1,1,0.065
14,0,0,0,-2,-2,1,-2,0,0.07
15,0,-1,0,0,-2,0,-2,-1,0.075
16,1,-1,1,1,-1,0,-1,0,0.08
17,0,-2,-1,0,1,1,-1,-1,0.085
18,0,-1,0,-2,0,-1,-2,-1,0.09
19,-1,-2,0,0,0,-1,0,1,0.095
20,0,-2,-5,-2,-2,-2,-1,0,0.1
21,-1,-1,1,0,-1,0,-1,-2,0.105
22,-1,-1,-4,0,0,0,-1,0,0.11
23,-1,0,-2,-1,-2,-2,-1,-2,0.115
24,0,0,1,1,0,-1,-2,-1,0.12
25,0,-1,-1,-1,0,0,0,0,0.125
26,-1,-2,0,0,-1,0,-1,-1,0.13
27,0,-1,-1,0,0,1,-1,-1,0.135
28,-2,-2,-2,-3,-2,-1,-1,0,0.14
29,-1,-1,-2,0,-1,-1,0,1,0.145
30,0,1,2,0,1,0,-1,0,0.15
31,0,-1,-3,-1,-1,-1,-1,-1,0.155
32,0,-2,-4,-5,-1,0,-1,0,0.16
33,-1,-3,-6,-1,-2,-1,0,0,0.165
34,-1,-3,-3,-3,-1,-2,0,-2,0.17
35,-2,0,0,-3,-1,-1,-1,0,0.17500000000000002
36,0,0,3,2,1,0,-1,-1,0.18
37,0,-1,0,-2,1,-1,-1,-1,0.185
38,0,0,-2,1,1,-1,0,0,0.19
39,0,0,-2,-2,-1,0,-1,-2,0.195
40,-1,1,0,-1,-2,-1,1,0,0.2
41,0,-1,-2,-1,-2,-1,-1,-2,0.20500000000000002
42,-1,0,0,3,1,1,0,-2,0.21
43,0,-1,3,1,-1,0,1,-2,0.215
44,0,-1,2,2,0,-1,0,-1,0.22
45,0,-1,-2,-2,-1,-2,0,-1,0.225
46,-1,-2,-2,-2,0,-1,-1,0,0.23
47,0,0,-3,0,-1,-1,0,-2,0.23500000000000001
48,0,-1,-1,1,-1,-1,-1,-1,0.24
49,0,0,4,-1,-2,-1,-2,-1,0.245
50,-1,-2,-2,1,-1,-1,-1,0,0.25
51,0,-1,-1,-1,-2,-1,-2,0,0.255
52,-2,-1,-3,-2,-1,-2,-2,-2,0.26
53,0,0,0,0,0,1,0,0,0.265
54,-1,0,2,1,-2,-1,0,0,0.27
55,-1,0,-4,-2,-2,-1,-1,0,0.275
56,-1,1,3,2,0,0,-1,-2,0.28
57,-1,-2,-3,-2,1,1,-2,0,0.28500000000000003
58,-1,-2,0,-2,-2,1,-2,-4,0.29
59,-2,-2,-2,-1,-2,-1,-1,-1,0.295
60,0,-1,-2,-1,-1,0,1,0,0.3
61,-2,3,4,-1,-2,-1,0,-1,0.305
62,-1,-1,-4,-3,-3,-2,0,-1,0.31
63,-2,-2,-1,-1,0,-3,-2,-2,0.315
64,0,-1,-1,-1,-1,-2,-1,1,0.32
65,-2,-2,0,-1,0,0,-1,-2,0.325
66,-2,-1,-2,-2,-1,-1,0,-2,0.33
67,0,0,5,2,2,1,-1,1,0.335
68,-2,-1,-2,-4,-1,1,-2,-1,0.34
69,-2,-1,-2,0,-1,-1,-1,0,0.34500000000000003
70,-2,1,2,1,0,0,-1,-2,0.35000000000000003
71,-2,-2,-4,-2,-4,-1,0,-1,0.355
72,-1,-1,3,1,-1,-2,-1,-1,0.36
73,0,0,-2,1,-2,-3,-1,-1,0.365
74,-2,0,1,-4,-1,-1,-2,-1,0.37
75,-3,-2,-4,0,-2,-1,0,-2,0.375
76,0,-1,-3,-2,-1,0,0,-1,0.38
77,-2,-1,0,-1,-1,0,0,-2,0.385
78,0,-2,-1,-2,-1,-3,0,-3,0.39
79,-1,1,4,0,3,2,-2,0,0.395
80,0,-1,-4,1,0,-1,-1,0,0.4
81,0,-1,-2,-1,1,0,-1,0,0.405
82,1,0,0,-3,-2,0,1,1,0.41000000000000003
83,-1,-1,2,0,-2,-2,0,0,0.41500000000000004
84,0,1,-2,-2,-2,-1,-1,-1,0.42
85,1,0,1,0,-1,-1,-1,-2,0.425
86,0,-2,-3,-3,-1,-1,0,0,0.43
87,-1,-2,-4,-2,-4,-3,-2,-1,0.435
88,-2,-2,-3,0,-1,-1,0,-2,0.44
89,-2,-2,1,1,-1,-1,-1,-1,0.445
90,-2,-3,1,-2,-1,-1,-2,1,0.45
91,1,0,-6,-1,2,1,1,1,0.455
92,-2,0,1,2,1,1,1,0,0.46
93,1,0,-1,0,1,-1,-1,-1,0.465
94,-1,-1,0,2,0,-2,1,0,0.47000000000000003
95,-1,0,2,0,-1,-2,0,-2,0.47500000000000003
96,-1,0,2,-1,1,-1,-1,0,0.48
97,1,-1,-3,-3,-2,-1,0,0,0.485
98,0,-1,-1,1,-1,0,-3,1,0.49
99,-1,1,2,1,-2,-2,-2,-3,0.495
100,1,-1,-1,-4,-1,0,1,0,0.5
101,-3,0,1,2,-1,0,2,-1,0.505
102,0,1,4,2,1,-1,-2,-2,0.51
103,-1,-1,-2,-3,-5,-1,-2,-1,0.515
104,-2,0,3,0,0,-1,-1,-2,0.52
105,-1,-2,-2,0,-1,-1,-1,0,0.525
106,0,1,1,-1,-1,0,1,-1,0.53
107,0,0,-1,0,2,1,-1,-2,0.535
108,-1,0,0,-1,-4,-3,-2,-1,0.54
109,-1,-2,-3,-2,-3,0,-1,-1,0.545
110,-2,-1,-2,1,0,0,-2,0,0.55
111,0,-1,1,0,1,-2,0,-1,0.555
112,-2,-2,-2,0,-1,0,0,-2,0.56
113,-2,0,0,1,1,0,1,0,0.5650000000000001
114,-1,-1,-4,-2,-2,-1,0,0,0.5700000000000001
115,0,-1,0,-1,-1,0,0,1,0.5750000000000001
116,0,0,-2,-2,-1,0,-1,1,0.58
117,-2,0,0,-1,0,-1,-3,-1,0.585
118,0,-1,3,0,-2,-1,0,-1,0.59
119,-2,-1,2,1,-2,-3,-2,0,0.595
120,1,-3,-5,-1,0,0,-1,-2,0.6
121,0,0,0,-2,0,1,0,0,0.605
122,-1,0,-2,-1,-1,0,-1,-1,0.61
123,0,0,0,-2,-1,0,0,-2,0.615
124,-1,1,1,1,-1,-2,-1,0,0.62
125,-1,-1,0,-1,0,-1,1,-1,0.625
126,0,-3,-3,-1,1,-1,1,-1,0.63
127,-2,-2,-3,-2,0,2,2,1,0.635
128,-2,-1,-3,-2,-1,-2,-2,0,0.64
129,0,0,0,0,-1,-1,0,-1,0.645
130,-1,-1,-2,-1,-3,-2,0,-2,0.65
131,-1,-1,-1,-1,-1,-1,-2,0,0.655
132,0,-2,1,-2,-2,0,-1,-1,0.66
133,0,-2,-1,1,0,2,-2,0,0.665
134,-1,0,-1,-1,0,-1,1,0,0.67
135,-2,-1,0,-2,-1,-1,0,-1,0.675
136,-1,1,-1,0,-1,1,-2,0,0.68
137,-1,1,-1,-2,-2,-1,-4,-2,0.685
138,-1,-3,-4,-2,0,0,-2,-1,0.6900000000000001
139,0,1,-3,0,0,0,1,0,0.6950000000000001
140,-2,-1,-1,-1,-1,-3,-19,-3,0.7000000000000001
141,-2,-2,0,-1,-2,-6,16,1,0.705
142,1,0,0,3,-1,5,2,-1,0.71
143,0,0,-1,-1,0,0,5,2,0.715
144,0,0,-2,-3,1,-1,6,1,0.72
145,1,2,0,0,0,0,-10,-3,0.725
146,-1,0,0,-3,-2,-3,-3,-2,0.73
147,0,-1,1,-1,-1,-1,-1,0,0.735
148,-1,-2,0,-2,-2,-1,-3,-1,0.74
149,-1,-3,-4,-2,-1,-3,-1,0,0.745
150,-1,-2,-1,-1,0,-1,-1,-2,0.75
151,0,-1,-1,0,-1,0,-4,-2,0.755
152,-2,1,1,-2,-2,0,3,0,0.76
153,-1,-1,-2,-1,1,0,0,0,0.765
154,-1,-1,-2,-2,-2,-2,-1,0,0.77
155,-1,-1,-1,1,1,-2,-3,-2,0.775
156,-2,1,0,1,1,-1,5,-1,0.78
157,0,1,-1,-1,-1,1,1,0,0.785
158,-1,0,-2,-2,-1,-3,-9,-3,0.79
159,0,0,-2,-3,-2,0,-3,-2,0.795
160,2,-2,-1,0,0,-2,-28,-9,0.8
161,0,0,-1,-2,-3,-8,-15,15,0.805
162,0,-1,-2,-1,-3,9,76,8,0.81
163,-1,-2,0,0,0,2,4,1,0.8150000000000001
164,1,0,-2,0,-1,1,7,-1,0.8200000000000001
165,-1,-3,-1,0,0,-2,-25,-6,0.8250000000000001
166,0,-1,0,0,-2,-5,-22,-3,0.8300000000000001
167,0,1,-1,-1,-1,-1,4,1,0.835
168,0,1,-3,0,0,-2,-3,0,0.84
169,-2,-1,0,0,1,1,3,-4,0.845
170,-2,-1,-1,-1,-2,-4,-9,0,0.85
171,-2,0,0,0,-1,-3,2,-4,0.855
172,0,-3,-5,-2,-2,-3,0,1,0.86
173,-1,2,-1,0,-2,0,10,-3,0.865
174,-1,-2,-3,-3,-1,0,-4,-1,0.87
175,-2,-1,3,1,-1,-1,-10,0,0.875
176,-2,-5,-4,-5,-2,-1,7,0,0.88
177,-1,-1,1,3,0,0,9,-2,0.885
178,-2,1,-1,-5,-1,-3,-24,-2,0.89
179,-1,-2,-3,-3,-2,-3,-14,-6,0.895
180,-2,0,0,0,-3,-3,-4,-6,0.9
181,-3,-1,1,1,0,-2,19,-8,0.905
182,-2,-2,-3,-4,-2,0,19,-16,0.91
183,1,1,6,-1,0,-1,-14,-4,0.915
184,-1,0,-1,0,-1,-1,14,11,0.92
185,1,3,6,-1,-1,1,-19,-4,0.925
186,0,1,2,5,-1,-2,-13,5,0.93
187,0,-1,-1,-5,-3,-1,5,-1,0.935
188,0,-1,0,-1,-1,-1,-7,-5,0.9400000000000001
189,-2,-2,1,0,0,0,-1,3,0.9450000000000001
190,-2,0,0,2,1,1,0,3,0.9500000000000001
191,0,-2,-4,0,-2,1,5,1,0.9550000000000001
192,-2,0,1,-1,-1,0,-1,-1,0.96
193,-1,-2,7,-3,0,0,4,1,0.965
194,0,-3,4,0,-1,-1,-2,1,0.97
195,-1,-1,7,-2,-1,-2,1,-1,0.975
196,-1,0,23,0,-1,0,5,3,0.98
197,0,-1,50,0,-1,-1,1,-1,0.985
198,1,-1,61,2,-1,-2,-8,-2,0.99
199,-1,1,48,-3,-2,-1,2,1,0.995
200,0,-2,39,-3,-1,0,5,-1,1.0
201,-1,0,-1,-2,-1,0,0,0,1.0050000000000001
202,0,-1,8,0,-1,-1,-6,0,1.01
203,-2,-1,-4,2,1,0,4,1,1.0150000000000001
204,-1,-2,-24,1,0,0,3,-1,1.02
205,1,-3,-44,0,-3,-1,-1,-2,1.025
206,1,-1,-61,-2,-2,-2,-2,0,1.03
207,-1,-3,-62,-1,-2,-2,3,0,1.035
208,0,0,-46,1,1,0,0,-2,1.04
209,-1,0,-35,-2,-2,-2,0,1,1.045
210,-1,0,-30,-2,0,0,-1,0,1.05
211,0,-1,-22,-3,-3,-2,0,1,1.055
212,0,-1,-11,2,1,1,0,0,1.06
213,-2,0,-8,0,-2,0,0,1,1.065
214,-2,1,-6,-5,-3,-2,-2,-1,1.07
215,0,-1,-5,-1,0,-1,0,-1,1.075
216,-1,0,-2,-1,-1,0,0,0,1.08
217,-1,-1,1,-1,0,-1,0,0,1.085
218,-2,1,9,4,0,0,-3,-1,1.09
219,-1,0,6,1,0,0,0,0,1.095
220,-1,0,1,-1,-4,-1,0,-1,1.1
221,0,1,3,0,0,-2,0,0,1.105
222,1,0,1,1,0,-1,0,0,1.11
223,0,-2,2,0,1,0,0,-1,1.115
224,-2,-1,0,-3,-2,-1,1,-1,1.12
225,-1,-1,2,-2,1,0,0,0,1.125
226,-1,-1,-3,1,0,-1,-2,-1,1.1300000000000001
227,-1,-1,2,-2,0,0,-2,-1,1.135
228,1,0,0,-1,-1,-1,-2,-1,1.1400000000000001
229,0,-2,1,-2,0,0,-1,-2,1.145
230,0,-1,-1,-1,-1,-2,-1,0,1.1500000000000001
231,0,3,5,4,1,0,-1,-1,1.155
232,-2,-3,-4,-4,-1,-3,-1,1,1.16
233,0,-1,-1,-4,-2,1,-1,-1,1.165
234,0,-1,-1,0,-1,1,-2,-1,1.17
235,-1,0,3,2,0,-1,-1,-2,1.175
236,-2,-1,2,-1,-1,-1,-1,-1,1.18
237,0,-2,-1,0,-2,-3,1,-2,1.185
238,-1,-1,2,-2,0,0,-1,-1,1.19
239,-1,-2,2,-1,-1,0,-1,0,1.195
240,1,1,5,-1,1,1,1,0,1.2
241,0,-1,-2,-2,-3,-2,-1,0,1.205
242,-1,-2,0,-2,-3,-2,1,-1,1.21
243,-1,-2,0,-1,0,-2,-2,1,1.215
244,-1,-1,5,3,2,0,-1,0,1.22
245,-2,-1,0,-1,-1,1,0,-1,1.225
246,-1,2,0,0,-2,-1,0,1,1.23
247,1,0,-4,0,-2,0,-1,-2,1.235
248,-1,0,-2,-3,-3,-3,-1,-2,1.24
249,-1,0,3,-2,-1,-2,-1,-2,1.245
250,-2,-3,-2,-3,-2,1,-1,-1,1.25
251,0,-1,1,-1,0,-2,-2,-1,1.2550000000000001
252,0,-1,1,1,-1,-1,-2,-1,1.26
253,-1,-1,1,0,-1,0,0,0,1.2650000000000001
254,0,0,1,-1,-1,-1,-1,-2,1.27
255,-1,0,-1,0,0,0,-1,-1,1.2750000000000001
256,0,-1,3,1,-3,1,0,-1,1.28
257,-1,1,1,-2,-2,-1,0,0,1.285
258,0,1,2,2,3,0,-1,1,1.29
259,-2,0,2,-2,-2,-1,-2,-1,1.295
260,-1,-1,-1,1,0,0,0,-1,1.3
261,-2,-1,2,0,0,-2,-1,-1,1.305
262,1,1,5,0,-1,-1,0,0,1.31
263,-1,-1,-3,-2,-1,-1,0,0,1.315
264,0,-1,-4,-4,0,-1,0,-2,1.32
265,-1,-1,2,3,0,-1,-2,-1,1.325
266,-1,1,5,3,0,-2,0,-2,1.33
267,-3,-3,-5,-4,-4,-1,-2,1,1.335
268,0,-1,-4,-5,-4,-2,-1,0,1.34
269,0,-2,-3,-2,1,1,0,0,1.345
270,-2,-1,-1,-1,-2,-2,-1,-1,1.35
271,-1,-2,-1,-1,-2,-1,2,-2,1.355
272,-1,-1,0,1,-2,-3,-1,-1,1.36
273,-1,-2,-4,-2,-2,0,-1,-1,1.365
274,-1,-2,-3,-3,-2,-3,-2,0,1.37
275,0,-2,0,1,-1,-1,0,-1,1.375
276,-2,-1,1,-2,0,0,0,1,1.3800000000000001
277,0,-1,0,0,-3,-2,1,-2,1.385
278,-1,-1,-3,-1,0,-1,-1,-1,1.3900000000000001
279,0,0,-1,-2,-1,0,0,-1,1.395
280,-2,1,1,0,1,-1,-1,-1,1.4000000000000001
281,-1,0,-5,-1,-1,-1,-1,2,1.405
282,-1,-1,-4,-3,-3,1,-1,-1,1.41
283,0,0,-1,-2,-1,-1,-1,1,1.415
284,-1,-1,0,0,-1,-2,-2,-1,1.42
285,-2,0,1,1,-1,-2,-1,-1,1.425
286,0,-2,-4,-3,0,-2,-1,1,1.43
287,-1,0,2,0,0,-1,0,-1,1.435
288,-1,0,-2,0,-1,1,-2,0,1.44
289,0,0,1,1,0,0,-2,-2,1.445
290,-1,-1,1,-1,0,-2,0,0,1.45
291,2,1,-1,-2,-1,0,-1,0,1.455
292,-4,-2,-1,-2,1,-2,-1,-1,1.46
293,-1,-1,1,-2,1,0,-1,-1,1.465
294,-2,5,0,-2,1,2,2,-2,1.47
295,-2,-14,2,-1,1,-2,-1,1,1.475
296,0,0,-6,-3,-1,-2,1,-3,1.48
297,0,-1,1,1,0,0,-1,0,1.485
298,-1,-3,-3,-1,-2,-1,-2,-1,1.49
299,-1,4,2,3,0,0,0,-1,1.495
300,0,-2,-7,-3,-2,0,0,0,1.5
301,-1,-2,-4,-4,-2,-2,0,-2,1.5050000000000001
302,1,2,4,0,2,0,-2,-1,1.51
303,-2,2,-1,-1,-2,-1,-1,-2,1.5150000000000001
304,-1,-2,2,1,-2,-1,-1,0,1.52
305,2,10,1,-1,0,-1,-1,0,1.5250000000000001
306,-1,-6,-1,-1,-1,0,0,1,1.53
307,0,2,5,-1,0,0,1,-2,1.5350000000000001
308,-2,-5,-16,-2,-1,-2,-2,-1,1.54
309,-3,-1,4,4,1,0,-1,-1,1.545
310,0,3,-6,-2,-4,-1,0,-1,1.55
311,-3,-3,-3,-2,0,-2,-2,-1,1.555
312,0,5,9,2,0,0,1,-2,1.56
313,-1,-11,-6,-3,-2,-3,0,-1,1.565
314,-1,-1,-5,-1,0,-1,0,-2,1.57
315,-1,-2,0,-2,-1,1,0,-1,1.575
316,1,2,3,0,-2,-1,1,0,1.58
317,0,0,-3,0,0,0,1,0,1.585
318,-2,-2,0,-1,-2,-1,-2,-1,1.59
319,0,-3,-5,-6,-1,-1,0,-1,1.595
320,-1,0,-1,6,0,-1,0,-1,1.6
321,0,-2,1,-1,-1,0,0,0,1.605
322,-3,-4,-5,-1,0,-2,-1,0,1.61
323,1,4,-1,1,-1,0,-2,0,1.615
324,1,2,0,-2,-2,-1,-2,0,1.62
325,-2,-2,0,-3,-2,0,-2,-1,1.625
326,0,-1,0,-2,-3,-1,-1,-1,1.6300000000000001
327,-1,0,0,4,1,0,-1,-1,1.635
328,0,-1,2,-2,-1,-1,-2,1,1.6400000000000001
329,1,-4,-4,-2,-2,-1,-2,-1,1.645
330,0,2,2,-2,-2,0,1,-1,1.6500000000000001
331,-2,10,0,1,-2,-1,1,-1,1.655
332,-2,-15,-1,-1,-2,0,0,0,1.6600000000000001
333,-5,-7,-7,1,-1,-4,-3,-3,1.665
334,-1,4,0,0,1,0,1,-1,1.67
335,-2,-2,2,-5,-1,-2,-1,-2,1.675
336,-2,4,1,2,2,0,-1,0,1.68
337,-1,-2,-3,-4,-1,0,-1,-1,1.685
338,0,1,6,3,-2,-1,-1,0,1.69
339,-1,-9,-8,0,0,0,-1,0,1.695
340,-1,4,3,1,-1,1,1,-1,1.7
341,-1,1,2,0,-2,1,-1,-1,1.705
342,-1,-2,-3,-2,-1,-2,0,-1,1.71
343,-1,1,0,-1,-2,-2,-1,1,1.715
344,-3,-5,-2,-1,-1,0,-2,-2,1.72
345,-1,3,-1,0,0,0,-1,-1,1.725
346,-1,-3,0,-1,1,-2,1,0,1.73
347,-1,-3,-1,-1,-1,-1,1,-1,1.735
348,0,-1,-2,0,-1,0,-1,0,1.74
349,-1,3,3,0,-1,-2,0,0,1.745
350,-2,-5,-2,1,-1,-1,-4,0,1.75
351,0,-3,-4,-4,1,-1,0,0,1.7550000000000001
352,1,0,-2,-2,-1,0,-2,-2,1.76
353,1,0,-1,0,0,0,0,0,1.7650000000000001
354,1,-3,-3,-1,-1,-2,-2,0,1.77
355,-1,-1,-1,0,-1,-1,-2,-1,1.7750000000000001
356,-1,-1,3,0,-2,-1,-1,-2,1.78
357,-1,1,-1,-3,0,-2,0,-1,1.7850000000000001
358,-2,-2,-2,-2,-2,0,-2,0,1.79
359,0,1,6,2,0,-1,-1,-1,1.795
360,-2,-5,-11,-4,-1,-1,-2,0,1.8
361,-1,-1,0,1,0,-1,0,1,1.805
362,-1,-1,-4,-1,-2,0,0,-2,1.81
363,0,0,-1,0,-2,1,-1,1,1.815
364,-2,1,1,-1,0,0,-1,1,1.82
365,-2,-2,1,-1,0,-2,-2,0,1.825
366,-2,-2,-6,-3,-2,-1,1,0,1.83
367,-1,-1,-2,-2,-1,-2,0,-1,1.835
368,0,-1,1,-1,-1,0,0,-1,1.84
369,0,-1,-3,-1,-1,-1,1,-3,1.845
370,1,-1,4,0,1,-1,-3,0,1.85
371,-3,-2,-2,-2,0,-2,-1,0,1.855
372,-2,1,3,0,0,1,-1,-1,1.86
373,-1,0,0,-2,-2,-1,-1,-1,1.865
374,0,-1,-2,0,-1,-2,-1,-2,1.87
375,-2,-1,-1,-1,-2,1,0,-1,1.875
376,2,-1,0,-1,0,-3,0,-2,1.8800000000000001
377,-1,4,2,0,-1,1,0,-1,1.885
378,-2,-2,-1,0,2,0,1,-1,1.8900000000000001
379,0,-2,0,-1,1,0,-2,-1,1.895
380,0,-1,0,-2,2,-1,0,-1,1.9000000000000001
381,1,-2,-2,1,1,-1,-1,-1,1.905
382,0,1,4,0,1,-1,-1,-1,1.9100000000000001
383,0,-2,-3,0,1,-1,0,-1,1.915
384,-1,-1,-3,0,-1,0,-1,0,1.92
385,-1,-1,-4,0,-1,-1,-1,0,1.925
386,-2,0,1,-3,1,0,-2,0,1.93
387,1,0,-4,-3,-2,-3,0,-1,1.935
388,0,-1,0,-1,-1,-2,-2,-1,1.94
389,-2,-2,-2,-1,0,1,-2,0,1.945
390,-2,-1,0,0,-1,0,1,-1,1.95
391,-2,2,0,0,0,1,0,-1,1.955
392,-2,-2,-1,-3,0,-1,1,-1,1.96
393,0,1,0,1,-1,-1,0,0,1.965
394,-1,-3,-2,-3,-4,-2,-1,-2,1.97
395,0,-1,0,-1,-1,-1,-2,-1,1.975
396,-2,0,2,0,1,-2,-1,-2,1.98
397,0,-2,0,-2,-1,-1,-1,1,1.985
398,1,0,1,0,1,1,0,0,1.99
399,-1,0,-3,0,-1,0,0,0,1.995
400,-2,-1,1,0,-2,0,0,-1,2.0
401,-1,-2,6,1,1,-3,-1,-2,2.005
402,-1,0,-5,-1,-1,0,-1,-1,2.0100000000000002
403,0,-1,-2,-2,-1,-2,0,-2,2.015
404,1,-1,-1,-2,-1,0,0,0,2.02
405,-1,3,-3,-5,-5,0,-1,-1,2.025
406,0,0,2,-1,-2,-1,-2,-1,2.0300000000000002
407,-1,0,0,1,-1,-2,-1,0,2.035
408,-1,0,-1,0,0,-3,-1,-1,2.04
409,-2,-6,-2,-2,0,-1,-2,-2,2.045
410,-1,-1,-1,-1,0,-1,0,-2,2.05
411,-1,-2,-1,-3,-1,0,0,-1,2.055
412,-1,1,0,0,0,-1,-2,-1,2.06
413,-2,0,-4,0,0,-1,-1,-1,2.065
414,-2,0,-1,0,0,0,-1,-1,2.07
415,0,-2,0,0,1,-1,0,0,2.075
416,-1,0,0,-1,0,-1,-1,1,2.08
417,-1,-1,0,0,0,1,0,0,2.085
418,0,-1,-1,-1,-1,-1,0,1,2.09
419,-1,-2,-1,0,-1,-1,1,0,2.095
420,0,-1,-2,-2,-1,-1,-1,-3,2.1
421,0,0,0,-1,-1,-1,0,-1,2.105
422,0,-1,-2,-1,0,-2,2,-3,2.11
423,1,0,1,-1,-3,-2,-1,-1,2.115
424,-1,0,0,-1,-4,-1,1,0,2.12
425,0,-1,-3,0,0,0,1,-1,2.125
426,-1,-1,1,2,0,0,0,-1,2.13
427,-2,-1,3,-1,0,1,-1,0,2.1350000000000002
428,0,0,-5,-2,1,0,0,-1,2.14
429,-1,-1,1,-1,-1,-1,-1,-2,2.145
430,-2,-1,-4,-4,-5,-2,-2,-2,2.15
431,-1,0,-1,0,-1,1,-1,1,2.1550000000000002
432,-2,-1,-2,1,1,0,0,0,2.16
433,-2,-1,0,0,-1,-1,0,0,2.165
434,0,-1,0,-2,1,-1,0,1,2.17
435,0,0,0,1,0,1,-1,-2,2.1750000000000003
436,-1,-1,-2,0,0,-1,0,0,2.18
437,-1,0,-3,-3,-2,-1,-1,-2,2.185
438,0,-1,0,-1,0,-1,0,0,2.19
439,0,-1,-2,-2,-2,-1,-2,-1,2.195
440,-3,0,1,-1,-2,-3,1,-3,2.2
441,0,-1,1,0,-1,0,-2,-1,2.205
442,-2,0,-1,1,-1,0,-1,0,2.21
443,-1,1,-2,2,2,-1,-1,-1,2.215
444,0,-3,-2,-1,-2,-1,-2,-2,2.22
445,0,-1,-1,0,-1,0,1,0,2.225
446,-1,-1,-2,-2,-1,-1,1,0,2.23
447,-1,1,1,1,-1,0,-1,0,2.235
448,-2,-1,1,-1,0,1,0,1,2.24
449,0,-1,-3,-1,-1,-1,-1,-1,2.245
450,0,-2,1,2,-2,-1,-2,-2,2.25
451,0,-3,-3,-2,-1,-2,0,-1,2.255
452,0,-1,-1,-2,-1,1,-1,0,2.2600000000000002
453,-2,-3,-2,0,0,-1,0,0,2.265
454,0,1,1,0,1,0,-1,-1,2.27
455,-1,-2,-2,-1,-3,-1,-1,-1,2.275
456,0,-2,-2,-1,-2,0,-1,1,2.2800000000000002
457,-1,0,0,0,-1,-2,-1,0,2.285
458,-1,1,0,0,0,-2,-1,-1,2.29
459,-3,-1,-3,-2,-1,-1,-2,-2,2.295
460,0,-1,-3,-1,0,0,-1,0,2.3000000000000003
461,0,0,0,-2,-1,-1,-1,-2,2.305
462,-1,-2,-4,-4,-3,-1,-1,0,2.31
463,1,-1,-2,0,-1,-1,1,-2,2.315
464,-1,2,3,0,0,0,-1,0,2.32
465,-1,-2,-2,-1,-3,-2,2,-1,2.325
466,0,-1,1,0,-1,-1,-1,-1,2.33
467,-1,0,1,-1,0,0,0,-1,2.335
468,1,-1,-2,-1,-2,-3,-1,0,2.34
469,-1,-2,-1,-2,-1,-2,-3,-1,2.345
470,1,0,-1,-1,-1,0,0,0,2.35
471,0,1,2,0,-3,0,0,-1,2.355
472,0,1,0,2,2,0,-2,-1,2.36
473,0,-1,-2,-2,-1,-1,0,-2,2.365
474,-1,0,-2,-1,0,-1,0,0,2.37
475,-1,-1,0,-1,-1,-2,-2,-2,2.375
476,0,1,-1,1,-1,-2,-2,-1,2.38
477,1,0,-1,1,-1,-1,0,1,2.3850000000000002
478,-2,-1,0,0,-2,-1,-1,-1,2.39
479,0,-1,0,1,0,0,0,0,2.395
480,-1,-2,0,-2,-1,-2,0,0,2.4
481,-1,-1,-1,-1,0,-1,-1,-1,2.4050000000000002
482,-1,0,-3,-1,0,0,-2,-1,2.41
483,-1,-2,0,-2,0,0,-2,0,2.415
484,-1,-1,0,-2,-3,-2,0,-1,2.42
485,-1,-1,-2,-2,-3,-1,0,0,2.4250000000000003
486,-2,0,-1,-1,-1,0,0,0,2.43
487,0,-3,-6,-2,-2,-1,-2,0,2.435
488,-2,-3,1,0,-1,0,0,-2,2.44
489,-1,-1,0,1,1,1,-2,-1,2.445
490,0,-1,1,0,-2,-1,0,-2,2.45
491,-1,-2,0,-2,0,-2,0,-1,2.455
492,-1,-1,-2,0,-1,0,-2,-2,2.46
493,-2,-2,-2,-1,1,-2,-2,0,2.465
494,-1,-1,-1,-1,-1,-1,-1,-1,2.47
495,0,-1,-2,0,-2,0,0,-1,2.475
496,-1,-1,-1,1,0,0,0,-1,2.48
497,-1,0,0,0,-1,-1,-1,-1,2.485
498,1,-1,-1,-2,-2,-1,-1,-1,2.49
499,-2,0,-2,-2,-1,0,-1,-1,2.495
500,-2,1,-2,-3,-1,-1,-1,0,2.5
501,-1,0,0,-2,0,1,0,0,2.505
502,-1,-1,-2,0,-1,-1,1,-1,2.5100000000000002
503,0,0,-1,1,1,-2,-1,-1,2.515
504,-2,0,-1,0,0,-1,-1,-2,2.52
505,0,0,1,1,0,-1,-1,-2,2.525
506,0,-1,-3,-1,-3,0,-2,-1,2.5300000000000002
507,-1,-2,0,1,-2,0,0,-1,2.535
508,0,-1,-1,-2,-1,-1,-1,0,2.54
509,-3,-1,-1,0,1,-2,-1,0,2.545
510,0,-1,-1,0,0,-1,-2,-1,2.5500000000000003
511,0,-2,0,1,0,-1,0,0,2.555
512,0,-1,0,-2,-1,-1,0,-1,2.56
513,-1,-1,-1,0,-2,1,0,-2,2.565
514,-1,-1,1,0,-1,-2,-2,2,2.57
515,-1,0,-1,-1,-1,-2,-1,0,2.575
516,-2,-3,-1,-2,-3,-2,-2,-1,2.58
517,0,-2,0,0,1,0,-1,0,2.585
518,-1,-1,-3,0,-1,1,0,-1,2.59
519,0,0,2,0,-2,0,-2,0,2.595
520,-3,-2,0,-1,1,0,-1,-1,2.6
521,-1,-1,-2,-1,-2,-1,-1,-1,2.605
522,-2,0,1,0,1,-1,0,1,2.61
523,0,-1,0,-2,-2,0,0,-2,2.615
524,2,0,-3,-1,-3,-2,-1,1,2.62
525,-1,-1,-2,-3,-3,-2,1,-2,2.625
526,-1,-2,-1,-2,0,0,-1,0,2.63
527,-2,0,-1,0,2,-1,0,0,2.6350000000000002
528,-1,-1,1,0,-1,1,-1,-2,2.64
529,-2,-2,0,0,-3,-2,-1,-1,2.645
530,-1,-2,-1,0,0,-1,-2,-1,2.65
531,-2,-1,-2,-3,-5,-3,0,-2,2.6550000000000002
532,-3,0,-1,0,-2,1,-2,1,2.66
533,0,1,-3,-1,2,0,-1,1,2.665
534,-2,-1,-2,0,-2,0,-1,-2,2.67
535,-1,-1,0,-2,-1,-1,-2,0,2.6750000000000003
536,-1,0,1,0,-1,-1,-1,-1,2.68
537,-1,-1,0,0,-1,-2,0,-1,2.685
538,-1,0,-1,0,1,0,0,-1,2.69
539,0,-1,-3,0,0,0,0,-1,2.695
540,0,-1,0,0,-2,-2,-1,-2,2.7
541,-1,1,1,0,0,0,-1,0,2.705
542,0,-3,1,-2,-1,-1,-1,-2,2.71
543,-1,0,0,0,1,-1,-2,0,2.715
544,-1,-1,-2,1,0,-1,0,1,2.72
545,0,-2,0,-2,-1,-1,-1,-1,2.725
546,-1,0,-2,0,-1,0,0,-1,2.73
547,0,0,0,-1,-2,-1,-2,-2,2.735
548,1,0,1,-1,2,-2,0,0,2.74
549,-3,0,2,-2,-2,1,-1,-2,2.745
550,-2,-2,1,-1,-1,-1,-1,-1,2.75
551,0,-3,-4,-1,-1,0,0,1,2.755
552,0,-2,-4,-3,-1,-1,-1,-3,2.7600000000000002
553,-1,-1,-3,1,-1,-1,-1,-1,2.765
554,-1,1,1,-1,-2,-2,-1,-1,2.77
555,-1,1,2,0,0,1,1,-1,2.775
556,0,-1,-1,-1,-1,0,0,-2,2.7800000000000002
557,0,-2,-2,-1,-1,-3,0,-1,2.785
558,1,0,0,1,0,-2,-1,0,2.79
559,0,-2,-5,-3,-1,-1,-2,-1,2.795
560,-1,-1,-2,-1,0,2,-2,1,2.8000000000000003
561,-1,-1,0,-2,-2,1,-1,-1,2.805
562,-1,-1,-1,-1,0,1,0,-1,2.81
563,0,-1,0,0,-3,1,0,0,2.815
564,-1,1,-1,-1,-2,1,-1,-2,2.82
565,1,-1,-4,-2,1,-1,0,0,2.825
566,-1,-1,0,0,-1,-2,1,0,2.83
567,-2,-1,0,-1,0,-2,-1,-1,2.835
568,-1,0,-3,0,-2,-2,0,0,2.84
569,0,-2,-1,1,-2,-1,-1,-1,2.845
570,0,-2,-2,-2,-2,-1,0,-2,2.85
571,0,-2,-2,-1,0,0,-1,-1,2.855
572,-1,0,-2,0,0,0,-1,0,2.86
573,-2,0,1,0,-1,-1,-1,1,2.865
574,-1,0,-1,-2,-1,-2,-2,0,2.87
575,-2,0,0,1,-1,1,-2,-1,2.875
576,-2,0,1,0,0,-1,1,-1,2.88
577,0,0,-1,0,0,-1,-1,0,2.8850000000000002
578,-1,-1,-3,-2,-2,-1,-2,-1,2.89
579,0,-1,0,0,1,-1,0,-1,2.895
580,-1,0,1,-1,-2,-1,0,-2,2.9
581,-1,1,-2,-1,0,-2,1,-1,2.9050000000000002
582,1,0,-2,-3,1,0,1,0,2.91
583,0,-2,0,-1,0,0,0,-1,2.915
584,0,-3,1,0,-1,0,0,-1,2.92
585,0,0,-2,-1,-1,0,-1,-1,2.9250000000000003
586,-2,-2,-1,-2,1,0,-1,-1,2.93
587,-1,-1,-1,-3,-2,-2,-1,0,2.935
588,-1,-1,-2,-1,1,0,-1,-1,2.94
589,0,0,1,-1,-2,0,-1,-1,2.945
590,-2,0,2,2,1,0,0,-1,2.95
591,-1,0,0,1,-1,-1,-3,-2,2.955
592,-2,-2,-1,-1,-1,-2,-1,0,2.96
593,0,-2,-3,-2,-1,-2,-1,-1,2.965
594,0,-1,-2,0,-1,-1,1,0,2.97
595,0,-1,0,0,-1,-1,0,0,2.975
596,0,-1,0,-1,-1,0,-2,-1,2.98
597,-1,-1,-1,0,-2,1,-2,-2,2.985
598,0,0,-2,-2,-2,-2,-1,-1,2.99
599,-1,-1,-3,0,0,-1,0,-1,2.995
600,-1,-1,-2,-1,-2,-1,0,-1,3.0
601,-2,0,1,1,3,2,1,0,3.005
602,0,-2,-1,-3,-2,0,-1,0,3.0100000000000002
603,-2,-1,-3,1,-3,0,0,0,3.015
604,1,0,-1,1,-1,-1,-1,-1,3.02
605,0,1,-1,-2,-1,1,0,-1,3.025
606,-1,1,1,2,-1,0,1,1,3.0300000000000002
607,-1,-1,-4,-1,0,0,-1,-1,3.035
608,0,-3,-2,0,1,0,0,-1,3.04
609,-1,0,1,-2,-2,-1,0,0,3.045
610,0,-2,-3,0,-2,-1,-1,-2,3.0500000000000003
611,-1,0,-3,-2,-1,-1,0,-1,3.055
612,-2,-1,-1,-2,-1,0,-2,0,3.06
613,0,-1,0,-1,-1,-2,-1,-1,3.065
614,-1,0,-2,-1,-1,0,-1,0,3.0700000000000003
615,1,0,1,0,-2,1,-1,-1,3.075
616,-1,-1,0,-1,1,-2,1,-1,3.08
617,0,-3,-2,-2,-1,0,-1,-1,3.085
618,-1,-1,-1,-2,-3,-1,-1,0,3.09
619,0,1,0,-3,-1,-2,-1,2,3.095
620,1,-1,-4,-3,-1,-1,0,0,3.1
621,-2,-1,1,0,1,0,0,0,3.105
622,-2,-2,-5,-1,-1,-1,0,0,3.11
623,-1,0,0,0,-1,-1,-2,-2,3.115
624,0,1,-1,0,-3,-1,-2,0,3.12
625,0,0,0,-2,0,-3,-2,0,3.125
626,1,-2,-1,-2,0,0,-2,-1,3.13
627,-2,0,-2,-1,-1,-1,0,-2,3.1350000000000002
628,-1,-1,-2,-2,-2,-1,-1,-2,3.14
629,0,0,-1,1,-1,0,0,-2,3.145
630,0,0,-1,0,1,0,0,0,3.15
631,1,-2,-4,0,1,0,0,-1,3.1550000000000002
632,-1,0,0,0,1,1,1,-1,3.16
633,-1,-1,-2,-1,-2,-2,-3,-2,3.165
634,-2,-2,0,0,-1,-1,1,-1,3.17
635,-1,-1,0,0,-2,0,0,-2,3.1750000000000003
636,-1,1,0,-1,-1,0,-1,-1,3.18
637,-1,0,0,-1,-1,-1,0,-1,3.185
638,0,0,0,0,-2,-1,-2,1,3.19
639,-1,-1,-1,-4,-1,-2,-1,-2,3.1950000000000003
640,1,-2,-1,-2,0,-1,0,-1,3.2
641,-1,0,1,-2,0,-1,-2,-1,3.205
642,-2,-3,0,-1,0,-3,-2,-1,3.21
643,0,-2,-1,-1,-1,-1,0,1,3.215
644,-1,-1,0,0,-2,-1,-3,-1,3.22
645,0,0,1,2,-1,-1,-1,-1,3.225
646,0,0,-1,0,0,2,0,-2,3.23
647,0,0,1,-1,0,-2,1,-1,3.235
648,0,-2,-3,-2,1,0,-1,-1,3.24
649,0,-2,-4,-3,0,0,0,0,3.245
650,0,0,1,1,-2,0,-2,0,3.25
651,0,-1,1,-2,-3,-1,-2,-1,3.255
652,0,-1,0,1,-1,0,-2,0,3.2600000000000002
653,-2,-1,0,0,-2,0,0,0,3.265
654,-1,0,-2,-1,0,-1,-1,-1,3.27
655,-2,-1,-2,1,1,-1,0,-1,3.275
656,0,-1,0,-1,-1,0,0,-1,3.2800000000000002
657,0,-1,-1,-2,-1,-2,0,-1,3.285
658,0,0,0,-1,-1,-2,0,-2,3.29
659,-1,-2,-3,0,0,1,-1,-1,3.295
660,-1,0,1,0,-2,-1,-1,1,3.3000000000000003
661,-1,-2,-4,0,0,0,0,-1,3.305
662,-3,1,-1,-1,-1,0,2,1,3.31
663,-2,-2,-1,-2,-2,-1,-2,-1,3.315
664,0,0,-1,-1,-1,-1,0,0,3.3200000000000003
665,1,-1,0,0,0,-1,-3,-1,3.325
666,0,-1,1,-1,1,0,-1,-1,3.33
667,-3,0,1,1,-2,-1,0,-1,3.335
668,-1,-2,-3,-2,-1,-2,-1,0,3.34
669,-1,-1,2,0,-1,0,-1,1,3.345
670,1,-1,-1,0,-2,-2,-1,-2,3.35
671,0,-1,0,-1,-2,-2,-1,-1,3.355
672,-2,0,0,-1,-2,0,0,-2,3.36
673,0,-1,1,-1,-2,0,0,-1,3.365
674,0,0,0,0,0,0,1,0,3.37
675,-1,-1,-1,-1,-1,0,-1,-1,3.375
676,-2,-1,-1,0,-1,-2,-1,-3,3.38
677,0,-2,-1,-3,-1,0,0,-1,3.3850000000000002
678,-1,0,1,0,-1,0,0,-4,3.39
679,0,1,-1,1,0,-1,1,-1,3.395
680,-2,0,-2,1,-1,-1,-1,0,3.4
681,-3,-1,-2,-1,-2,-2,-1,0,3.4050000000000002
682,-1,0,-3,-3,-2,-1,-3,-1,3.41
683,0,-1,-3,0,-1,-2,-1,-1,3.415
684,0,0,0,1,-1,0,-2,-1,3.42
685,0,0,-2,0,-1,0,0,0,3.4250000000000003
686,0,-2,-1,-2,-1,0,0,-1,3.43
687,0,-1,1,0,-1,-1,1,-1,3.435
688,-1,0,-2,-1,0,1,-1,1,3.44
689,-1,-1,-1,0,-2,-2,-1,-1,3.4450000000000003
690,-1,-1,-1,-2,-1,-2,-2,0,3.45
691,0,1,2,-1,1,-2,-1,-1,3.455
692,0,-2,-3,0,0,-1,0,-2,3.46
693,1,-2,-1,-3,-1,-1,0,-1,3.465
694,-1,-2,-2,-1,0,-1,-2,-1,3.47
695,1,-1,1,1,0,0,-1,1,3.475
696,-2,-2,-1,-2,0,-2,-1,-1,3.48
697,-2,0,-2,0,1,0,-2,-1,3.485
698,0,-1,-2,1,1,0,0,-2,3.49
699,0,-2,-3,0,1,-1,-2,-1,3.495
700,-1,-2,-1,-1,-1,-2,-1,0,3.5
701,0,-1,-2,0,-1,-3,-1,1,3.505
702,-1,-1,1,1,0,-1,1,0,3.5100000000000002
703,-2,-1,0,-1,0,-1,-1,0,3.515
704,0,-2,-2,-4,-4,-2,-1,0,3.52
705,-1,0,0,0,0,0,0,1,3.525
706,-1,-2,-2,-1,-2,-3,-1,-1,3.5300000000000002
707,-2,-1,-3,-2,0,-1,0,0,3.535
708,-1,-1,-2,1,0,0,0,1,3.54
709,-2,-2,-1,-2,0,-3,-2,-2,3.545
710,0,-1,0,-1,-2,-1,-1,-1,3.5500000000000003
711,0,-1,-2,1,-2,-1,-1,0,3.555
712,1,-2,-2,-2,0,-2,-1,0,3.56
713,-1,-2,-1,0,-2,-1,0,-2,3.565
714,0,-1,0,-1,-2,0,1,-1,3.5700000000000003
715,0,0,-3,-3,-2,0,0,-1,3.575
716,-1,-1,1,0,-3,1,2,-2,3.58
717,-1,0,0,0,0,0,0,-1,3.585
718,-2,0,1,0,0,-2,-2,1,3.59
719,-1,-1,-2,-1,-1,0,-1,0,3.595
720,-1,1,2,0,0,-1,-1,-1,3.6
721,-2,-1,-3,-3,-2,-2,0,0,3.605
722,-2,0,-2,0,0,-1,0,-1,3.61
723,0,0,0,-2,-2,-1,-2,0,3.615
724,-3,1,-3,0,-2,-2,-1,-2,3.62
725,0,-2,1,-1,1,-3,0,0,3.625
726,-2,-1,1,-1,0,0,-1,0,3.63
727,-1,-2,-1,0,-3,-2,-1,0,3.6350000000000002
728,-2,-1,-1,-2,0,1,-1,1,3.64
729,-1,-2,0,0,-2,-1,-2,-1,3.645
730,-1,-2,-2,-1,-1,-1,0,1,3.65
731,-2,-1,1,0,-1,-2,-1,0,3.6550000000000002
732,-1,0,0,-1,2,-2,0,-1,3.66
733,0,1,0,0,1,0,0,0,3.665
734,1,1,1,1,-2,0,0,0,3.67
735,-1,-1,-1,-2,-1,-1,-1,-1,3.6750000000000003
736,0,-1,0,2,0,0,-2,-1,3.68
737,2,0,-3,-1,-1,0,1,0,3.685
738,-1,-1,-2,0,-1,-2,-1,0,3.69
739,0,-2,-1,0,0,-1,2,-1,3.6950000000000003
740,0,-1,-1,-2,-2,0,0,-1,3.7
741,-2,-3,-1,-1,-1,-2,0,0,3.705
742,-1,-2,-2,-2,-1,-1,-2,-1,3.71
743,0,-1,1,-1,0,0,-2,0,3.715
744,-2,0,1,1,-1,0,-1,-2,3.72
745,-2,0,-2,1,-1,-1,-1,-2,3.725
746,-2,-2,-1,-2,0,-1,1,-1,3.73
747,-1,0,0,0,-2,0,-1,0,3.735
748,0,-1,-3,-2,-2,0,-1,-1,3.74
749,-1,1,2,-1,0,-1,-1,-1,3.745
750,0,-1,0,0,-2,-1,0,-2,3.75
751,-1,-1,-1,-2,0,-2,-1,-1,3.755
752,-1,0,1,1,-2,0,-1,-1,3.7600000000000002
753,-2,-1,-1,2,1,1,-1,1,3.765
754,1,-1,-5,-2,-2,-2,-2,-2,3.77
755,-2,0,-1,0,-1,-2,-1,-2,3.775
756,-1,0,1,-2,-1,-1,0,0,3.7800000000000002
757,0,-4,-1,-1,-1,-2,-3,-1,3.785
758,0,0,-1,0,-2,-1,-1,1,3.79
759,-1,-1,0,0,-1,2,-1,-1,3.795
760,-2,0,-1,1,0,-2,-1,0,3.8000000000000003
761,-1,-3,-1,-4,-4,-1,0,-3,3.805
762,1,-1,1,-1,0,0,-1,0,3.81
763,0,0,-2,-2,0,-1,0,-1,3.815
764,0,0,-3,-2,-1,0,-1,-1,3.8200000000000003
765,-2,-1,-1,0,-1,1,-1,-1,3.825
766,-1,-2,1,1,-1,-2,-1,-1,3.83
767,-1,-1,-2,0,1,-2,0,-1,3.835
768,0,-2,-1,0,-1,-3,-1,-1,3.84
769,1,1,-1,0,-1,-1,1,0,3.845
770,0,1,1,0,0,1,0,-3,3.85
771,0,0,-1,-1,-3,-1,-1,-1,3.855
772,-1,-1,-1,1,1,0,-2,-1,3.86
773,-1,-1,-2,-1,0,-1,1,-1,3.865
774,-3,-2,-3,-1,0,-3,0,-1,3.87
775,-2,-1,1,0,-1,-1,0,-1,3.875
776,-2,-1,-3,-2,0,-1,-1,-1,3.88
777,0,0,-1,-1,-2,-1,-2,0,3.8850000000000002
778,-1,0,-2,-1,-2,0,-1,-1,3.89
779,0,-1,-2,0,-2,-1,-1,-2,3.895
780,1,-1,1,-2,-3,0,0,-2,3.9
781,0,0,-1,0,0,1,-1,-1,3.9050000000000002
782,0,-1,-3,-1,-2,0,-1,-1,3.91
783,-3,-2,-1,1,-1,0,-2,0,3.915
784,0,0,-1,1,1,-1,0,-1,3.92
785,-1,-2,0,-2,-2,-1,0,-2,3.9250000000000003
786,-1,1,-1,0,0,-3,-1,-1,3.93
787,-1,0,2,-1,1,0,0,-1,3.935
788,1,-2,-3,-1,0,-2,0,1,3.94
789,-1,-1,0,0,2,0,-1,0,3.9450000000000003
790,1,-3,0,-1,-1,1,-1,0,3.95
791,-1,-2,-1,-3,-1,-1,-1,0,3.955
792,-1,-2,1,-1,-1,0,-1,-1,3.96
793,0,-1,-1,-2,-1,1,-1,-2,3.9650000000000003
794,0,-1,-2,-1,1,1,-2,-2,3.97
795,0,-1,0,0,-1,0,-1,-2,3.975
796,-1,-1,-1,-2,-2,-1,-2,-1,3.98
797,0,-2,0,-1,-2,-1,1,-2,3.985
798,-1,0,-1,1,0,-1,-1,1,3.99
799,-1,-2,-2,-1,-1,-1,-1,-2,3.995
800,-2,0,-1,1,-2,0,0,-1,4.0
801,-1,-1,1,1,0,0,-1,-2,4.005
802,-2,0,1,0,-3,0,-1,-1,4.01
803,2,0,-1,2,1,0,-1,1,4.015
804,0,-1,0,-1,-2,-2,1,-2,4.0200000000000005
805,-1,-1,0,0,-1,-4,-2,-2,4.025
806,-2,0,-4,-1,-1,0,0,-1,4.03
807,-2,-2,-2,-1,-1,0,-3,-1,4.035
808,-1,-1,0,-1,-1,0,-2,1,4.04
809,-3,1,-2,0,-1,-1,0,0,4.045
810,-2,-1,-3,-1,0,-1,1,0,4.05
811,0,0,-1,0,0,-1,-1,1,4.055
812,0,-1,-2,-1,-1,-1,0,-1,4.0600000000000005
813,-1,0,0,0,-1,-1,-1,0,4.065
814,0,1,1,1,-1,-2,-2,-2,4.07
815,-2,0,0,1,0,0,0,-2,4.075
816,-2,-1,-1,-2,-2,-2,-2,0,4.08
817,1,-2,-3,-1,0,0,1,0,4.085
818,0,-2,-1,0,-3,-1,-2,-1,4.09
819,0,0,-2,-1,1,-1,-1,-2,4.095
820,-1,-2,1,-1,0,-1,2,-1,4.1
821,-2,-2,-1,-2,-1,-1,0,-1,4.105
822,0,-3,0,-2,0,-1,-1,-3,4.11
823,-2,-2,1,-1,-3,-2,1,-2,4.115
824,-2,0,2,2,0,0,-1,-2,4.12
825,0,0,-3,-1,-2,-1,-2,-2,4.125
826,-1,1,0,-1,-2,1,-1,0,4.13
827,1,-1,-2,0,2,-1,-1,1,4.135
828,0,0,1,1,-2,-1,1,-1,4.14
829,-1,-1,1,0,-1,-2,-1,0,4.1450000000000005
830,-1,-2,-1,0,-1,0,0,0,4.15
831,0,0,-3,-3,-2,0,-2,0,4.155
832,-1,-1,-1,-1,0,-1,-2,0,4.16
833,0,1,2,0,0,-1,-1,-1,4.165
834,1,-1,-2,-1,1,-2,0,-1,4.17
835,0,0,1,-1,-1,1,-1,0,4.175
836,1,-1,-3,-2,-1,-2,-2,-2,4.18
837,-2,-1,-1,0,-1,-1,-1,-1,4.1850000000000005
838,-2,-1,-2,-2,-3,0,0,0,4.19
839,-3,-1,-1,-1,-1,-1,1,-2,4.195
840,-1,-2,0,1,0,-1,-2,-1,4.2
841,-2,0,-2,-2,0,0,-2,-1,4.205
842,0,-1,-3,-1,-1,-1,1,0,4.21
843,-1,-1,0,-1,0,-1,-1,-2,4.215
844,-1,-2,-4,-2,0,0,0,0,4.22
845,0,-1,0,1,0,-1,1,-1,4.225
846,-1,-1,4,0,0,-2,1,-1,4.23
847,2,-2,-2,-1,-2,0,1,-1,4.235
848,-2,1,-2,-1,0,0,-1,-2,4.24
849,-1,-1,1,0,-1,-2,-1,0,4.245
850,-1,-1,-3,-1,-1,-1,-1,-1,4.25
851,-1,-1,1,-1,-2,1,0,0,4.255
852,-1,-3,-4,-2,-2,0,0,0,4.26
853,-1,-1,-2,-1,-3,-1,-1,-1,4.265
854,0,0,-2,0,-2,0,-2,0,4.2700000000000005
855,0,-1,1,0,1,0,-1,0,4.275
856,-2,-1,0,-1,-3,-2,-1,0,4.28
857,-1,-1,-1,-1,-2,-1,-1,-2,4.285
858,-1,-1,2,1,-1,-1,0,-1,4.29
859,0,-2,-5,0,-1,-1,-2,-2,4.295
860,1,-1,0,0,0,-1,0,-1,4.3
861,1,0,1,-1,-1,-1,0,0,4.305
862,-1,-1,0,0,1,-2,1,0,4.3100000000000005
863,-2,0,0,-1,-2,-2,-2,1,4.315
864,-1,-2,-3,-2,-1,-2,0,-1,4.32
865,-1,-2,-3,-1,0,0,0,0,4.325
866,0,-1,-1,-1,-1,-2,-1,-1,4.33
867,0,-1,-2,-1,-1,-2,-1,0,4.335
868,0,0,0,-1,-1,0,-1,0,4.34
869,-2,-3,-2,-3,-2,-1,-1,-2,4.345
870,0,-2,0,-3,-1,0,0,-1,4.3500000000000005
871,-1,-2,-3,-1,-2,-2,0,0,4.355
872,-2,-1,0,-1,-2,0,-2,0,4.36
873,-1,1,0,0,0,1,-1,0,4.365
874,-3,0,-2,-1,-2,0,-2,-1,4.37
875,-2,1,1,0,-1,-3,-1,0,4.375
876,0,0,0,2,0,0,0,1,4.38
877,-2,-1,-2,-2,-1,-2,-1,1,4.385
878,0,-1,-1,0,-2,0,-1,-1,4.39
879,1,-1,1,-1,-2,-1,-2,-2,4.3950000000000005
880,-1,-1,-4,-2,-1,-2,0,-3,4.4
881,-2,-2,-2,-1,0,-1,-1,-1,4.405
882,0,0,-2,-2,-1,-2,-2,0,4.41
883,0,0,-2,0,-1,0,-1,0,4.415
884,-1,-1,0,0,1,0,0,-1,4.42
885,0,0,-1,-1,-1,0,1,-1,4.425
886,-2,0,-1,-1,-1,-2,0,0,4.43
887,-2,-1,-2,-2,0,0,0,-2,4.4350000000000005
888,-1,1,1,0,-1,1,-2,0,4.44
889,0,-1,0,0,-1,0,-1,1,4.445
890,-2,-1,0,-1,-2,0,-2,0,4.45
891,0,-1,-2,0,1,-1,0,-1,4.455
892,-1,-1,-1,-1,-2,-1,-2,2,4.46
893,-2,-2,-3,-2,0,-1,-1,-2,4.465
894,-1,-2,1,0,-1,1,-1,-2,4.47
895,-2,-1,-2,0,-1,-2,-1,-2,4.4750000000000005
896,0,-1,-1,-1,0,0,0,-1,4.48
897,0,0,1,-1,-3,-1,-1,-1,4.485
898,0,-2,-2,-2,-1,-1,-1,1,4.49
899,-4,-2,-1,-3,-3,-1,0,-1,4.495
900,-2,-1,1,0,0,-1,0,0,4.5
901,0,-3,-2,0,-1,-1,-1,-1,4.505
902,-2,0,-3,0,1,-1,-1,0,4.51
903,0,0,2,-2,0,-1,-1,-3,4.515
904,0,-1,-3,-2,0,-1,-3,0,4.5200000000000005
905,-1,0,-1,-2,0,0,-1,-1,4.525
906,0,-1,-2,0,-1,1,-1,-1,4.53
907,-1,-2,0,1,-1,0,-1,1,4.535
908,0,-1,0,-1,-2,-1,-1,-1,4.54
909,0,-1,-3,-3,0,-1,-1,-1,4.545
910,1,-1,2,0,-1,0,1,-1,4.55
911,-1,0,0,0,-1,1,0,-2,4.555
912,-1,-1,-1,-1,-1,-1,-1,-2,4.5600000000000005
913,0,-1,0,0,-1,0,-1,-1,4.565
914,-1,0,1,-1,0,-1,-1,-2,4.57
915,-1,-1,-1,-2,-2,-2,-2,1,4.575
916,1,-2,-1,-1,-2,0,-1,1,4.58
917,-2,-4,-1,-1,-1,0,-1,-1,4.585
918,0,0,1,-2,-2,-2,0,-1,4.59
919,-1,-1,-1,-1,1,1,1,-1,4.595
920,-1,-1,-3,-2,-2,-3,0,-2,4.6000000000000005
921,-1,2,0,0,-2,-2,-1,-1,4.605
922,0,-2,-2,0,0,0,-2,0,4.61
923,1,0,-1,-1,-1,-1,-2,1,4.615
924,-1,-2,-1,0,-1,0,0,-1,4.62
925,0,-1,1,0,0,0,-1,0,4.625
926,-2,-1,-1,-1,-1,-1,1,0,4.63
927,-1,1,-1,-2,-2,-1,-2,0,4.635
928,-1,-2,-2,0,-2,0,-2,0,4.64
929,-1,0,1,1,-3,-2,0,2,4.6450000000000005
930,0,-2,-2,0,-3,-1,-4,-1,4.65
931,-1,-1,-3,-1,0,-1,-1,0,4.655
932,0,-2,0,-2,-3,0,-1,-1,4.66
933,-1,-1,-1,0,0,0,-1,-1,4.665
934,-1,0,-2,-1,1,2,-1,0,4.67
935,-2,-2,-3,1,-1,0,0,-1,4.675
936,-1,2,1,2,2,0,0,-1,4.68
937,-1,0,-1,-3,-1,-1,-1,-1,4.6850000000000005
938,-2,-1,-1,-1,-2,-1,-2,-2,4.69
939,0,-1,-2,0,-2,-1,-2,0,4.695
940,0,-3,0,-1,-1,-1,0,-1,4.7
941,-1,0,2,0,0,0,0,-1,4.705
942,0,0,0,1,-1,0,0,-2,4.71
943,0,-1,0,-3,-1,-2,0,-1,4.715
944,-2,0,0,0,-1,0,0,-2,4.72
945,-1,-2,1,-1,1,1,-2,-1,4.7250000000000005
946,-1,0,-3,-1,-2,0,-1,-1,4.73
947,-1,0,-1,1,-1,0,0,-1,4.735
948,-2,-1,2,-1,0,0,1,1,4.74
949,0,0,0,1,-2,-2,-1,-1,4.745
950,-2,0,0,0,-1,-2,1,0,4.75
951,0,0,-2,-1,1,-1,-1,-1,4.755
952,0,-1,-1,-2,-1,-1,-1,1,4.76
953,-1,-2,-1,0,1,0,0,-2,4.765
954,-2,-2,0,-2,-1,1,-1,-1,4.7700000000000005
955,0,-2,0,-2,-1,-1,0,-1,4.775
956,0,-1,-3,-2,-2,-2,0,-1,4.78
957,1,-1,-1,1,-2,0,0,-3,4.785
958,0,0,-1,1,-1,-2,-2,0,4.79
959,-2,-1,1,0,0,0,-1,-2,4.795
960,0,-1,-3,0,0,-1,0,-1,4.8
961,-1,-1,-3,-2,-2,0,-1,0,4.805
962,1,-2,0,0,0,0,0,0,4.8100000000000005
963,0,-2,0,-1,0,-1,0,0,4.815
964,0,-1,-2,0,-4,0,-2,0,4.82
965,-1,-1,-1,-2,-1,0,1,-1,4.825
966,-2,-3,-2,-4,-4,-1,0,-1,4.83
967,0,-2,0,-1,-2,0,-2,-1,4.835
968,0,-1,-1,0,0,-1,0,0,4.84
969,0,-2,-4,-2,-3,-2,-1,0,4.845
970,1,0,2,0,2,-1,-1,-1,4.8500000000000005
971,0,-1,-4,-2,-2,-1,-1,0,4.855
972,-2,-1,0,-1,-1,1,0,0,4.86
973,-2,-1,-1,-2,0,-1,-1,0,4.865
974,-1,-2,-4,1,-1,-2,1,0,4.87
975,-2,0,3,2,-1,0,-1,0,4.875
976,-1,-1,1,1,-1,0,-1,-2,4.88
977,-1,-1,-1,-1,0,0,0,0,4.885
978,-1,-2,-2,-3,-3,-1,-2,-3,4.89
979,-2,0,0,-2,-1,-3,-2,0,4.8950000000000005
980,-1,0,-1,0,-3,-1,-2,-1,4.9
981,-1,-1,1,-1,-1,-1,0,-2,4.905
982,0,-1,0,-1,-1,-2,0,-1,4.91
983,-1,0,1,0,-1,-1,0,-1,4.915
984,0,0,-2,-1,0,-2,-1,-2,4.92
985,0,-1,-1,0,0,-1,0,-1,4.925
986,-1,-1,-3,-2,-1,0,0,0,4.93
987,-2,-1,0,-1,-1,-1,-1,0,4.9350000000000005
988,-2,-1,-1,0,-1,-2,-1,0,4.94
989,0,-1,-1,-1,-1,0,-2,-1,4.945
990,-1,1,0,-1,0,-2,-1,0,4.95
991,1,-2,0,-2,-1,0,0,-2,4.955
992,-2,-2,0,1,1,-2,0,-2,4.96
993,-2,1,0,0,-2,0,0,1,4.965
994,-1,0,-1,0,0,-1,-1,-1,4.97
995,-1,-1,1,-4,-3,-1,-1,-1,4.9750000000000005
996,0,0,0,-1,-3,1,-1,-1,4.98
997,-1,-1,1,-1,-2,0,-1,-1,4.985
998,0,0,1,-1,0,-1,-1,-1,4.99
999,-1,-1,-1,1,0,-1,-1,0,4.995
1000,-1,1,-2,0,0,1,0,1,5.0
1001,-3,-1,0,0,0,0,-1,0,5.005
1002,0,-1,0,1,-2,1,0,0,5.01
1003,0,-1,-6,-1,0,-1,-1,-1,5.015
1004,-1,-1,0,-2,1,0,-1,-1,5.0200000000000005
1005,-1,-1,-1,-1,-1,-2,1,0,5.025
1006,-1,-1,1,0,0,-1,-1,-1,5.03
1007,-1,0,-1,2,2,-1,-1,-1,5.035
1008,-1,-1,-2,-2,-3,-1,-2,-2,5.04
1009,-1,1,-1,-1,-1,-2,-1,-1,5.045
1010,0,-2,2,-1,1,0,-1,-2,5.05
1011,0,0,-1,-1,-1,-2,0,-1,5.055
1012,0,-1,0,0,0,-1,-1,-1,5.0600000000000005
1013,-1,-1,-2,-1,-2,-3,-3,-1,5.065
1014,0,0,-2,0,-2,-1,0,0,5.07
1015,-1,0,1,0,-2,-1,0,-3,5.075
1016,-2,-1,1,-1,-2,-1,1,-1,5.08
1017,0,-2,-1,0,0,0,-1,-1,5.085
1018,-1,-3,-3,-1,-3,-1,-2,-2,5.09
1019,-1,0,-2,-1,0,-1,-1,0,5.095
1020,-2,0,-1,-1,-2,-1,-1,0,5.1000000000000005
1021,0,-2,-2,-1,0,0,-2,-1,5.105
1022,-3,0,0,0,0,-2,-1,-1,5.11
1023,-1,-2,0,0,-1,0,-2,-1,5.115
1024,0,1,1,-1,-2,-1,0,-1,5.12
1025,-2,0,0,-2,-1,-1,0,0,5.125
1026,-1,0,-2,-2,0,0,0,-1,5.13
1027,-1,-2,-1,0,0,1,-1,-1,5.135
1028,-1,-2,-3,-1,0,-2,-1,-1,5.14
1029,0,-1,-2,0,-1,-1,1,0,5.1450000000000005
1030,-1,-1,-1,-1,0,-1,1,0,5.15
1031,0,-1,1,-1,-4,-1,-1,-1,5.155
1032,2,-1,-1,2,3,2,-1,-2,5.16
1033,-1,-1,-1,-2,-4,-3,-3,-1,5.165
1034,-1,0,-1,-1,-1,-1,-2,-1,5.17
1035,-2,-1,-2,1,-1,-1,-2,1,5.175
1036,-2,0,-1,0,0,0,-2,-1,5.18
1037,-1,-1,2,1,0,1,0,0,5.1850000000000005
1038,-1,0,0,-1,-1,-1,0,0,5.19
1039,-1,-1,-2,-2,0,-1,0,-2,5.195
1040,-2,0,-1,-1,-2,-3,-2,-1,5.2
1041,0,0,-3,0,1,0,0,-1,5.205
1042,-1,-1,0,0,-2,0,-2,0,5.21
1043,-1,0,0,-1,-1,-1,0,1,5.215
1044,0,-2,-1,0,-1,-1,1,1,5.22
1045,1,0,0,0,-1,0,-1,0,5.2250000000000005
1046,-1,-1,-1,-1,-2,-2,0,0,5.23
1047,0,0,0,0,0,-1,0,-2,5.235
1048,-2,-1,0,-4,-2,1,0,-1,5.24
1049,-1,0,-4,-2,1,0,-1,-1,5.245
1050,-1,-1,-3,-1,-3,1,0,0,5.25
1051,-2,-1,-3,1,-1,0,-1,0,5.255
1052,-2,1,-1,0,0,-2,-2,-1,5.26
1053,1,-1,-1,1,-1,1,0,-1,5.265
1054,-1,-1,1,-1,1,-1,1,0,5.2700000000000005
1055,0,0,-1,-1,-2,0,0,-1,5.275
1056,0,0,-1,-2,-2,0,-1,1,5.28
1057,-2,-2,-1,-2,-3,-2,0,-2,5.285
1058,0,0,0,0,-2,-2,-2,-2,5.29
1059,-2,-1,-4,-3,-4,-1,-1,0,5.295
1060,0,-1,0,0,0,0,-1,0,5.3
1061,-1,-1,1,-1,0,-1,-2,0,5.305
1062,-1,0,-1,-2,0,0,0,-1,5.3100000000000005
1063,-1,-1,1,0,0,-2,-2,-1,5.315
1064,-1,-2,-1,0,-2,-1,-2,0,5.32
1065,-1,0,-1,-3,0,-2,1,-1,5.325
1066,-1,0,1,0,-1,0,0,0,5.33
1067,0,-1,0,1,0,0,1,0,5.335
1068,-1,0,0,-1,-2,-2,0,-1,5.34
1069,-1,-1,0,0,0,-1,-1,-2,5.345
1070,-1,-3,-4,-3,-2,-3,-1,0,5.3500000000000005
1071,-1,-1,0,-1,-1,-2,0,0,5.355
1072,-1,-1,-2,0,-1,-1,-2,-1,5.36
1073,-1,-2,0,-1,-3,-1,-2,-1,5.365
1074,0,1,0,-1,0,1,-1,-2,5.37
1075,-1,-1,-1,-1,-2,0,-1,0,5.375
1076,0,-2,-3,2,0,0,0,-1,5.38
1077,-2,0,-1,-2,-2,0,0,-1,5.385
1078,-2,-1,-3,1,0,0,0,1,5.39
1079,-2,0,0,-2,-1,-2,0,-1,5.3950000000000005
1080,-1,0,-1,0,-2,-1,0,0,5.4
1081,1,-2,2,-2,1,-1,-2,-2,5.405
1082,-3,-1,1,0,0,-1,-2,-2,5.41
1083,-1,1,0,1,0,0,0,-1,5.415
1084,-2,-2,-3,-2,-3,-2,-1,-2,5.42
1085,-1,-1,-2,-1,-2,-2,-1,-1,5.425
1086,-1,-2,0,-2,-3,-1,0,-1,5.43
1087,-1,-1,-2,-1,0,-1,-2,0,5.4350000000000005
1088,1,0,0,-3,0,-2,0,-1,5.44
1089,-1,0,-1,0,-1,-1,-1,-2,5.445
1090,-1,-1,0,0,1,-1,0,-1,5.45
1091,-1,-1,0,0,0,0,-1,-1,5.455
1092,-1,-1,0,0,0,1,-3,-2,5.46
1093,-2,0,-2,-1,-1,-1,-1,-1,5.465
1094,0,-1,-2,0,-1,-1,0,0,5.47
1095,-1,-1,-2,-1,0,-1,0,-1,5.4750000000000005
1096,-1,-2,-1,-1,-1,0,1,-1,5.48
1097,0,-1,-3,0,1,-1,0,-1,5.485
1098,0,-1,0,0,1,1,-1,-2,5.49
1099,1,-2,0,-2,-2,-2,-1,-2,5.495
1100,0,0,-1,-3,-1,-1,0,-2,5.5
1101,1,-1,-3,0,0,-1,0,1,5.505
1102,0,0,0,0,0,-1,-2,0,5.51
1103,0,-2,0,1,0,0,-1,-2,5.515
1104,0,0,1,0,-1,0,-2,1,5.5200000000000005
1105,-2,-2,-5,-3,-1,0,-1,0,5.525
1106,-2,-1,-3,-1,-3,-2,-1,-1,5.53
1107,-2,0,-2,0,1,-1,-1,0,5.535
1108,-1,-1,-2,-1,-2,-1,-1,-1,5.54
1109,-1,0,0,-1,0,-1,0,-1,5.545
1110,-2,-2,0,1,-3,-1,1,-1,5.55
1111,0,-1,-1,-2,-2,0,-1,-2,5.555
1112,-1,-1,-1,0,0,0,0,1,5.5600000000000005
1113,-2,-2,-1,-1,0,-1,-1,0,5.565
1114,0,1,1,-2,0,0,-1,0,5.57
1115,-1,0,-3,-3,-4,-2,-2,-1,5.575
1116,0,-2,0,-2,0,-2,0,0,5.58
1117,-1,-1,0,1,0,0,-1,-1,5.585
1118,0,0,-4,-3,0,-3,0,0,5.59
1119,-1,-1,0,2,0,0,0,-2,5.595
1120,-1,1,0,0,-1,0,2,-2,5.6000000000000005
1121,-1,-1,-1,0,-2,0,0,0,5.605
1122,0,0,-2,-1,1,-1,1,-3,5.61
1123,0,0,0,0,-2,-2,-1,0,5.615
1124,-2,-2,-1,0,-1,-2,-1,-1,5.62
1125,0,-1,-2,0,0,0,0,-1,5.625
1126,-2,-2,-4,-1,-3,-1,0,0,5.63
1127,-1,-1,-1,-1,-2,-2,1,-1,5.635
1128,-2,-2,0,-1,0,-1,-1,0,5.64
1129,0,0,0,0,0,0,0,0,5.6450000000000005
1130,0,-1,-1,1,1,0,0,0,5.65
1131,-2,0,1,-1,0,-1,-1,-2,5.655
1132,-1,-1,-1,0,-1,-1,-1,-1,5.66
1133,0,-1,0,-1,-1,-1,-1,0,5.665
1134,0,-1,-3,-1,0,1,-2,-2,5.67
1135,0,-1,0,0,-1,0,0,1,5.675
1136,0,0,0,0,-1,0,0,-3,5.68
1137,0,0,0,-1,-3,-2,0,-3,5.6850000000000005
1138,-1,-2,-3,-1,-2,-1,-2,1,5.69
1139,0,-1,0,-2,-1,1,0,-1,5.695
1140,-1,-1,-2,1,0,0,-2,0,5.7
1141,-1,0,0,0,-2,-2,-1,-2,5.705
1142,-1,-2,0,-1,1,0,-1,-2,5.71
1143,-1,0,0,-4,-2,-1,0,-1,5.715
1144,1,-1,-1,-2,-2,-3,-2,1,5.72
1145,0,0,-1,-2,-1,-1,0,-1,5.7250000000000005
1146,-1,-2,0,-1,-1,-2,-2,-2,5.73
1147,1,0,-2,-1,1,-1,-1,-1,5.735
1148,-2,-1,-1,1,-1,-1,-2,-2,5.74
1149,-1,-1,-1,-2,0,0,-1,0,5.745
1150,-1,0,0,1,-1,-2,0,-1,5.75
1151,-2,-1,-2,-1,0,-1,0,-1,5.755
1152,-2,-2,1,-2,0,-1,-1,0,5.76
1153,-1,1,0,1,0,-2,-1,-1,5.765
1154,0,-2,-3,-2,0,-2,-2,-1,5.7700000000000005
1155,-2,-2,-1,-2,-2,0,-1,-1,5.775
1156,-2,0,1,0,-3,-2,0,0,5.78
1157,0,0,0,0,-1,0,-1,0,5.785
1158,-1,0,2,-1,-2,-1,1,-1,5.79
1159,-1,-2,-3,1,-3,-2,-1,-1,5.795
1160,0,-2,-3,-2,-2,0,0,0,5.8
1161,0,-3,0,-1,-1,0,-2,-2,5.805
1162,0,-2,0,-1,-1,0,-1,0,5.8100000000000005
1163,-1,0,-2,-1,2,2,0,0,5.815
1164,0,0,-1,1,0,0,0,-1,5.82
1165,0,0,-1,-1,-1,-2,0,0,5.825
1166,-1,0,-2,0,0,-1,-2,-1,5.83
1167,0,-2,-1,1,3,-1,-1,0,5.835
1168,0,0,0,-2,0,-1,-2,-1,5.84
1169,-2,-1,-2,-1,-1,0,-1,-1,5.845
1170,0,0,0,0,-2,0,0,-1,5.8500000000000005
1171,-1,0,2,-2,-2,0,-2,0,5.855
1172,-2,-1,-4,-2,-2,-2,-1,-2,5.86
1173,-1,-3,-2,-2,0,0,-1,-1,5.865
1174,-2,0,0,-1,-1,-1,0,-1,5.87
1175,-2,-1,-1,1,-2,0,-1,-1,5.875
1176,-1,0,-1,-1,0,1,0,-1,5.88
1177,-1,0,-1,0,-2,0,-1,0,5.885
1178,1,-2,0,0,-1,0,0,-2,5.89
1179,-1,0,0,0,-1,-1,0,-1,5.8950000000000005
1180,0,-1,-2,-1,-1,0,-2,0,5.9
1181,-2,-1,-1,-1,-1,-2,0,0,5.905
1182,-1,-1,-1,0,1,-1,0,-1,5.91
1183,-2,-2,-3,-3,-2,-4,-2,-2,5.915
1184,0,-1,0,-1,0,0,-1,-2,5.92
1185,0,-1,-1,0,-2,-1,-1,1,5.925
1186,-2,0,1,0,-1,-2,-1,0,5.93
1187,1,-1,0,1,-2,0,0,0,5.9350000000000005
1188,0,1,0,-2,-1,0,-2,-1,5.94
1189,-1,-2,-2,-2,0,-1,2,-1,5.945
1190,-2,-2,0,-2,0,0,1,-1,5.95
1191,-1,-1,0,0,1,-2,-1,-1,5.955
1192,-1,-1,-2,0,-2,-1,1,-1,5.96
1193,1,-1,0,-1,1,0,-1,-2,5.965
1194,0,-1,-1,-2,-1,0,-1,0,5.97
1195,0,0,-4,-2,0,0,0,-1,5.9750000000000005
1196,0,0,0,0,-1,-2,-2,0,5.98
1197,0,-1,-1,-1,0,-1,-3,-1,5.985
1198,0,1,-2,-1,-1,-1,-1,-1,5.99
1199,0,0,1,1,0,0,-2,0,5.995
1200,-1,0,1,-1,-2,1,-3,-2,6.0
1201,-1,-2,-3,0,-2,-1,0,0,6.005
1202,-1,0,1,-1,-2,-2,-1,0,6.01
1203,0,-1,0,-2,-2,0,-1,0,6.015000000000001
1204,-2,-2,-3,-2,-1,-2,2,-1,6.0200000000000005
1205,-2,-1,1,-1,0,0,-2,0,6.025
1206,0,-1,-3,-2,-2,0,-2,-1,6.03
1207,-2,1,0,0,-1,-1,0,-1,6.035
1208,0,-1,-2,0,1,0,2,-2,6.04
1209,-2,0,-1,-3,-5,-2,-1,-1,6.045
1210,-2,0,-3,-1,0,0,1,0,6.05
1211,0,1,-1,0,0,-2,-2,0,6.055
1212,-1,-2,-2,-1,1,0,-1,-1,6.0600000000000005
1213,0,1,1,-1,0,2,-1,-1,6.065
1214,0,-1,-1,-1,-3,-2,-1,0,6.07
1215,-1,-2,1,-1,-1,0,-1,-1,6.075
1216,-3,-1,0,0,0,0,0,0,6.08
1217,0,-1,-2,0,-2,-2,1,-1,6.085
1218,-2,-1,0,-2,-2,-2,-3,-1,6.09
1219,0,-1,-2,1,0,0,0,-2,6.095
1220,1,0,1,-1,-1,-2,-1,0,6.1000000000000005
1221,-1,-1,0,0,-2,-1,0,-2,6.105
1222,-1,-2,-1,-2,0,-1,-1,-3,6.11
1223,-1,0,-1,-4,-1,0,0,-1,6.115
1224,0,-1,-1,0,-1,-1,-2,-1,6.12
1225,0,0,-2,0,0,-1,-1,-1,6.125
1226,0,-1,-2,-2,-2,-1,0,1,6.13
1227,0,0,-1,0,-2,-1,0,1,6.135
1228,-2,-1,0,0,-1,0,-1,-2,6.140000000000001
1229,-1,0,-2,-1,1,-1,0,0,6.1450000000000005
1230,0,-1,-1,0,1,0,-2,-1,6.15
1231,-1,-1,-1,0,-2,-1,-1,-1,6.155
1232,-1,-2,-4,-2,0,1,0,0,6.16
1233,0,-1,1,1,0,-1,-2,-1,6.165
1234,-1,-1,-5,-3,-2,-1,-1,-2,6.17
1235,-1,2,-2,-2,-1,0,-1,0,6.175
1236,-2,1,0,-1,1,-1,-2,0,6.18
1237,-1,-2,0,-1,-1,0,-2,-1,6.1850000000000005
1238,0,-2,0,0,-1,0,0,-1,6.19
1239,-2,-2,-3,-1,-1,-1,-1,0,6.195
1240,0,0,0,-1,-2,-1,-1,-3,6.2
1241,-1,-1,-2,-2,-1,-1,-1,-1,6.205
1242,2,-1,3,1,0,-1,-1,-2,6.21
1243,-1,-1,-1,0,-1,-1,-1,-1,6.215
1244,-1,-1,1,1,0,0,0,0,6.22
1245,-2,0,-1,0,-1,1,0,-1,6.2250000000000005
1246,-3,-1,-1,-1,-1,-1,1,0,6.23
1247,-1,-1,0,0,-1,-1,-1,-1,6.235
1248,0,-1,0,0,-2,0,0,0,6.24
1249,-1,1,-2,-2,-1,-1,0,-2,6.245
1250,-1,-1,-1,-1,-1,-1,-1,0,6.25
1251,-1,2,1,-1,0,1,0,-2,6.255
1252,1,1,-1,0,0,-2,-1,0,6.26
1253,0,0,0,1,1,-2,0,0,6.265000000000001
1254,-1,-2,-2,-1,-1,-1,0,-1,6.2700000000000005
1255,0,-1,0,-1,-1,0,-1,-1,6.275
1256,-1,0,0,0,-1,-1,-1,0,6.28
1257,1,-3,-3,1,0,-1,-2,0,6.285
1258,-1,-1,3,-3,-4,1,-1,1,6.29
1259,0,0,-3,0,1,1,-1,-1,6.295
1260,-1,0,-1,-1,-2,-1,-1,0,6.3
1261,-2,-2,1,-2,0,-1,-1,0,6.305
1262,0,-2,1,-1,1,0,-2,0,6.3100000000000005
1263,0,-3,-1,-3,-2,-1,-1,-1,6.315
1264,-1,-1,0,0,-3,-1,1,-2,6.32
1265,-1,0,-1,-1,-1,0,-2,-2,6.325
1266,-1,-1,-1,0,-2,-1,-1,-2,6.33
1267,-1,-1,-2,-2,-1,-1,-2,-2,6.335
1268,-2,-1,-1,0,-1,-2,0,1,6.34
1269,0,2,-2,-2,-2,0,1,0,6.345
1270,0,-2,-5,-2,-1,0,0,-1,6.3500000000000005
1271,-1,-1,1,0,0,-1,-1,-2,6.355
1272,-1,-2,-1,-3,-3,1,-3,-1,6.36
1273,-2,0,-1,2,-1,0,-1,-1,6.365
1274,-1,1,1,2,-2,-1,-1,-1,6.37
1275,0,-1,-1,1,0,-2,0,0,6.375
1276,-1,1,-2,0,1,-1,0,-1,6.38
1277,1,-2,0,-3,-3,-2,-2,0,6.385
1278,-2,-1,1,-3,-1,-2,-2,-2,6.390000000000001
1279,-2,-1,-2,-1,1,-1,-1,0,6.3950000000000005
1280,1,-2,-2,-1,0,-1,0,-1,6.4
1281,-1,-2,-1,0,-1,-3,-1,-1,6.405
1282,-1,1,2,1,0,-1,-1,-2,6.41
1283,-1,-2,-4,-3,-2,-1,0,1,6.415
1284,1,0,0,-2,-2,-1,-1,-1,6.42
1285,-1,-1,-1,0,0,0,-1,-1,6.425
1286,0,-1,-1,-2,-1,-1,0,0,6.43
1287,-1,-1,0,2,0,-1,-1,0,6.4350000000000005
1288,-1,-1,0,-2,-2,-2,0,-1,6.44
1289,0,-1,-1,-1,0,-1,-1,0,6.445
1290,0,-1,-1,1,1,0,0,0,6.45
1291,1,-1,-1,0,1,1,0,-1,6.455
1292,-1,-1,1,0,1,-3,0,-1,6.46
1293,0,-1,2,-2,-2,0,-1,-1,6.465
1294,-1,0,-2,-2,-1,-2,0,-1,6.47
1295,-1,-1,-2,-1,-2,0,-1,-1,6.4750000000000005
1296,-2,0,0,0,-1,-1,-1,0,6.48
1297,0,-2,0,0,-1,-2,-1,-1,6.485
1298,2,-1,0,-1,-1,0,-1,1,6.49
1299,0,-1,2,-2,-3,-2,-3,-2,6.495
1300,-1,-1,-3,-2,0,-1,-1,-2,6.5
1301,-1,-1,-1,-1,0,-1,-1,-2,6.505
1302,-1,-2,-3,-1,-2,0,-1,1,6.51
1303,-2,0,1,0,-1,0,0,0,6.515000000000001
1304,-1,-1,2,0,1,1,0,-1,6.5200000000000005
1305,0,-1,0,-2,-2,0,-1,0,6.525
1306,0,1,-1,1,-1,-1,-1,-1,6.53
1307,1,-1,-1,0,1,-1,0,1,6.535
1308,-1,1,-3,-1,-2,0,-2,0,6.54
1309,1,1,0,1,-1,0,0,-2,6.545
1310,-2,0,1,-2,-1,-1,0,-2,6.55
1311,-1,0,0,-1,-1,0,-2,0,6.555
1312,0,-1,0,0,-1,0,0,-3,6.5600000000000005
1313,0,0,0,-1,-1,0,0,0,6.565
1314,1,-1,-2,0,-1,1,0,-1,6.57
1315,-1,-1,-1,-1,-2,-1,-1,-3,6.575
1316,1,0,-1,-1,1,-1,-1,-1,6.58
1317,-3,0,-2,0,0,0,0,0,6.585
1318,0,-2,-3,0,-2,0,-1,-1,6.59
1319,0,0,1,-1,-2,-2,-1,-1,6.595
1320,-1,-2,-1,-1,1,0,-2,1,6.6000000000000005
1321,1,-1,-1,-1,0,-1,-2,-1,6.605
1322,-2,-2,0,-1,0,0,-2,1,6.61
1323,-1,-1,-1,0,0,-1,-1,-1,6.615
1324,-1,-1,-1,-1,-2,0,0,0,6.62
1325,0,-1,0,-4,-1,-1,-2,-1,6.625
1326,-1,0,-1,-1,-2,-1,-1,-1,6.63
1327,0,0,0,-1,0,-1,-2,-2,6.635
1328,0,0,1,1,-1,-2,-1,-1,6.640000000000001
1329,-1,-3,-3,1,-1,-1,0,-1,6.6450000000000005
1330,0,0,-2,1,0,1,0,-2,6.65
1331,-1,1,-1,-2,-3,-2,-2,0,6.655
1332,-2,-2,0,0,-3,-1,-1,-1,6.66
1333,-3,-2,-1,-2,-2,0,-1,1,6.665
1334,-1,0,1,-3,-1,-1,-1,1,6.67
1335,0,-1,-2,-1,1,0,1,-1,6.675
1336,0,-1,-1,-2,-1,-1,-1,-1,6.68
1337,0,0,0,-1,-2,-1,1,-1,6.6850000000000005
1338,0,0,-2,-2,-1,-3,0,-1,6.69
1339,0,-1,-1,-1,-1,0,0,-1,6.695
1340,-1,-1,-2,-1,0,-1,-1,-1,6.7
1341,-1,0,-3,0,0,0,-2,-2,6.705
1342,-2,-1,1,0,1,-2,-1,0,6.71
1343,-2,0,0,0,-3,-1,0,0,6.715
1344,-1,-1,0,0,-2,0,0,-1,6.72
1345,0,0,-1,0,-3,-2,0,-2,6.7250000000000005
1346,-1,-2,0,-1,-1,0,0,0,6.73
1347,-1,-2,-3,0,-1,-2,0,1,6.735
1348,0,1,1,1,0,0,1,1,6.74
1349,-1,-3,0,-2,-1,0,0,-1,6.745
1350,0,-1,-3,-3,-1,-1,0,-1,6.75
1351,-1,0,0,-1,-1,-1,-1,-2,6.755
1352,-1,-1,-2,-1,0,-1,1,0,6.76
1353,0,-2,-1,0,-1,-1,-1,-1,6.765000000000001
1354,0,-1,0,2,1,-1,-1,-1,6.7700000000000005
1355,-1,0,2,0,2,0,-1,0,6.775
1356,-1,0,-1,0,-1,-2,0,0,6.78
1357,-1,0,-3,-2,-1,0,0,-1,6.785
1358,0,0,0,0,-1,-1,0,-3,6.79
1359,0,-4,-5,-3,-1,0,0,0,6.795
1360,0,0,-3,-2,-2,-2,-1,-1,6.8
1361,0,-1,2,-1,0,-2,1,2,6.805
1362,0,-3,-2,0,-1,0,-1,0,6.8100000000000005
1363,-2,0,1,-2,-1,-1,-2,-3,6.815
1364,-2,0,-2,-1,-1,-2,-1,-1,6.82
1365,-1,-1,1,1,1,0,0,-1,6.825
1366,0,1,1,-2,-1,-2,0,-1,6.83
1367,0,-1,-1,1,0,0,0,1,6.835
1368,0,-2,-1,-1,-2,1,-1,0,6.84
1369,-2,1,-2,0,-1,-2,-1,-1,6.845
1370,0,-3,-4,0,-1,-2,-1,-1,6.8500000000000005
1371,-2,0,0,1,-2,1,0,-1,6.855
1372,-2,-2,-1,-1,-1,0,-3,-1,6.86
1373,-1,0,0,0,-2,-1,-2,-1,6.865
1374,-1,1,0,-1,1,-1,0,0,6.87
1375,-1,-2,-5,-2,-2,-1,-1,-2,6.875
1376,-1,0,2,1,2,0,0,-1,6.88
1377,-1,0,-1,-1,0,0,1,-1,6.885
1378,-2,0,-1,-2,1,-1,0,0,6.890000000000001
1379,0,-1,2,-2,-2,-2,-1,0,6.8950000000000005
1380,1,-1,0,-1,0,-1,-1,0,6.9
1381,-1,-1,-1,-1,-1,-2,0,1,6.905
1382,-2,-1,-1,1,-1,0,-1,0,6.91
1383,-1,1,1,-2,-2,0,0,0,6.915
1384,0,-1,-2,-1,-1,0,-1,-2,6.92
1385,-1,-1,-1,-3,0,-1,0,-3,6.925
1386,0,-1,-2,-1,-2,-1,1,0,6.93
1387,-2,-1,-1,1,-2,-2,0,-1,6.9350000000000005
1388,-1,-2,-4,-2,-2,-1,0,0,6.94
1389,0,0,-1,-1,-1,-1,1,0,6.945
1390,-1,-1,-1,0,0,1,0,-1,6.95
1391,1,-2,-3,0,0,-2,-1,0,6.955
1392,0,0,2,-2,0,0,1,-2,6.96
1393,1,0,-1,-2,-3,-1,-3,-1,6.965
1394,-2,-2,-2,-1,-1,-1,-1,-2,6.97
1395,0,-1,1,0,1,-1,-1,-1,6.9750000000000005
1396,-1,-1,-1,-2,-1,-2,-2,0,6.98
1397,0,-2,-2,-1,-1,-1,-1,0,6.985
1398,-1,-2,2,-2,-2,-1,-1,-2,6.99
1399,-1,0,1,0,-1,-1,0,0,6.995
1400,-1,-5,-4,1,-2,-2,-1,-1,7.0
1401,-1,-1,2,-1,-1,1,0,-1,7.005
1402,0,-1,-2,-2,-1,0,0,0,7.01
1403,-2,-1,0,0,0,0,-1,-2,7.015000000000001
1404,0,0,0,1,-1,0,-2,-1,7.0200000000000005
1405,-2,0,1,1,-2,-1,-1,-1,7.025
1406,-1,-2,-4,-3,-1,-1,-2,0,7.03
1407,-1,-1,-3,-2,-2,1,0,-1,7.035
1408,-1,0,-1,-2,-1,-1,1,-1,7.04
1409,-1,-2,1,0,0,-1,-1,-1,7.045
1410,-2,-1,-2,-2,-1,-2,0,0,7.05
1411,0,1,0,-1,0,-1,-2,-1,7.055
1412,-1,-2,-3,1,-2,0,-1,-1,7.0600000000000005
1413,-1,-2,-3,0,0,0,-1,-1,7.065
1414,-2,0,1,0,-1,1,-1,0,7.07
1415,-1,-2,-3,-2,0,0,0,1,7.075
1416,0,0,-1,-1,0,-2,-2,-1,7.08
1417,0,2,2,-1,-2,-2,-2,-1,7.085
1418,-2,-2,1,2,0,-1,0,-1,7.09
1419,0,-1,-2,-1,-2,-2,0,-1,7.095
1420,1,0,-1,-1,0,0,0,0,7.1000000000000005
1421,-1,0,-2,-2,-1,0,-1,0,7.105
1422,-1,-1,0,0,-2,0,-2,-1,7.11
1423,1,-1,0,0,-1,-1,0,-1,7.115
1424,-2,-1,0,-1,-1,0,-1,-1,7.12
1425,0,-1,-2,0,0,-2,0,0,7.125
1426,1,0,1,-1,-1,-2,-1,0,7.13
1427,-1,-1,-2,-1,-2,-2,0,-2,7.135
1428,-2,-1,3,0,-2,-2,1,0,7.140000000000001
1429,1,-2,-3,-1,0,1,1,0,7.1450000000000005
1430,-1,0,-1,-2,-1,-1,0,-1,7.15
1431,1,0,1,0,-1,1,0,0,7.155
1432,0,0,-1,-1,1,-2,-1,-1,7.16
1433,-3,-3,-1,1,0,-1,0,0,7.165
1434,-1,3,-1,-2,-1,-1,0,1,7.17
1435,0,1,-1,-1,-1,0,-1,0,7.175
1436,-2,1,0,-1,-2,0,-1,-1,7.18
1437,-2,-2,0,0,0,0,-1,-2,7.1850000000000005
1438,1,-2,-1,0,0,-1,-3,-5,7.19
1439,-1,0,-1,0,1,-1,-2,0,7.195
1440,-1,0,2,-2,-2,-1,-1,-2,7.2
1441,0,0,-3,1,-1,-1,-1,-1,7.205
1442,-1,-1,-2,0,0,0,-1,0,7.21
1443,-1,-1,-1,-3,-2,-1,-1,-1,7.215
1444,-2,-1,-1,-1,-1,0,0,-1,7.22
1445,0,0,0,-2,-3,-1,-1,1,7.2250000000000005
1446,-2,0,1,-1,-1,-1,-1,-1,7.23
1447,-2,-2,-1,0,0,-2,-1,-3,7.235
1448,-1,-2,-2,0,0,0,-1,-1,7.24
1449,2,-1,1,-1,-1,-2,-1,-2,7.245
1450,0,-1,-1,1,0,0,-1,0,7.25
1451,0,-1,-1,-1,0,0,-1,1,7.255
1452,0,0,-1,-2,-1,0,0,-1,7.26
1453,0,0,-1,-1,-1,0,1,-2,7.265000000000001
1454,-1,0,1,-2,-2,-2,-1,0,7.2700000000000005
1455,0,-3,-1,0,0,1,0,-1,7.275
1456,-2,-2,-4,0,-1,0,0,-1,7.28
1457,-2,-2,-1,-1,1,1,0,-1,7.285
1458,-1,-2,0,-2,0,0,-1,1,7.29
1459,-1,-1,0,-1,-2,0,-1,-2,7.295
1460,-1,0,0,0,-1,0,-2,-1,7.3
1461,-2,1,-2,-1,-3,-3,-1,0,7.305
1462,0,-2,-4,-1,0,0,0,-1,7.3100000000000005
1463,0,-1,-1,1,1,-1,0,0,7.315
1464,-2,0,-1,0,-3,-3,0,-1,7.32
1465,-1,-2,-1,0,-1,0,1,0,7.325
1466,0,-1,-1,-2,-1,0,0,0,7.33
1467,1,-3,-3,-1,-2,0,-2,-1,7.335
1468,0,-2,-1,-1,-1,-1,0,0,7.34
1469,-1,0,0,-2,1,0,-2,2,7.345
1470,0,-1,-3,1,0,-1,-1,-1,7.3500000000000005
1471,-3,1,0,-1,0,-1,0,-2,7.355
1472,-1,-1,-1,-2,-3,-2,-1,0,7.36
1473,0,1,1,-2,-2,-1,-1,-2,7.365
1474,0,-2,-3,-2,-1,0,-2,0,7.37
1475,0,1,0,0,-1,-1,-1,0,7.375
1476,2,-1,-1,0,0,0,-1,-2,7.38
1477,0,-2,-1,-1,0,0,1,0,7.385
1478,-2,-1,0,0,-1,-2,0,-2,7.390000000000001
1479,-1,-3,-1,0,-2,0,-2,0,7.3950000000000005
1480,-2,-1,-1,0,0,0,-1,-1,7.4
1481,0,-1,-1,-2,0,-2,-3,-1,7.405
1482,-2,-1,-2,-1,-2,0,0,-1,7.41
1483,0,1,-1,0,-2,-2,-2,-2,7.415
1484,0,-1,-1,0,1,-1,-2,0,7.42
1485,-2,0,0,0,-1,0,-1,-1,7.425
1486,-1,-1,0,1,0,0,0,1,7.43
1487,-1,-3,-3,-2,-1,-1,-1,-2,7.4350000000000005
1488,0,-2,0,0,-1,0,-1,0,7.44
1489,-1,-1,-2,0,-1,-1,-1,-1,7.445
1490,-1,0,2,-2,-3,-2,-2,-1,7.45
1491,-2,1,0,-1,0,-2,-1,0,7.455
1492,-2,-2,-2,-1,1,0,0,0,7.46
1493,0,-1,-1,-1,-2,-2,-1,-4,7.465
1494,-1,0,0,0,1,-2,-1,-3,7.47
1495,1,-2,-2,0,2,0,-1,-1,7.4750000000000005
1496,0,0,-1,-3,-3,2,-1,0,7.48
1497,-1,2,-1,-1,-1,0,0,-1,7.485
1498,-1,-1,-1,-2,-2,-2,0,-2,7.49
1499,-1,0,2,-2,0,-1,0,-1,7.495
1500,-3,-1,0,-2,0,-2,0,-1,7.5
1501,-2,-2,0,-1,-1,-1,0,-1,7.505
1502,-1,0,-2,-1,-2,0,-1,-1,7.51
1503,-1,-2,0,-2,-2,0,-1,0,7.515000000000001
1504,0,-1,-2,-1,0,-1,-2,-2,7.5200000000000005
1505,0,0,-1,-1,-1,0,-2,1,7.525
1506,0,-1,0,0,-1,-1,0,0,7.53
1507,-2,0,2,0,-2,-2,0,-1,7.535
1508,0,-2,-4,-1,-1,-2,0,-1,7.54
1509,-2,0,-1,-1,-1,0,0,-2,7.545
1510,-1,-1,0,0,0,1,0,-2,7.55
1511,-1,0,-1,-1,-2,2,-1,0,7.555
1512,0,1,1,1,-2,-2,0,-3,7.5600000000000005
1513,-1,-1,-1,0,0,-1,-1,-1,7.565
1514,-2,-1,-5,-3,-2,0,-1,1,7.57
1515,-1,-2,-2,0,-2,-1,-2,-2,7.575
1516,-2,-2,-4,-3,-1,0,0,-2,7.58
1517,1,-1,-2,-2,-1,-1,0,0,7.585
1518,1,2,8,1,-2,0,0,-2,7.59
1519,-1,-3,-7,-2,-2,0,-1,0,7.595
1520,0,-1,-3,-3,-3,-3,-2,-1,7.6000000000000005
1521,-1,-2,1,2,-3,-1,0,-2,7.605
1522,0,-1,3,1,0,-1,-2,-1,7.61
1523,-1,1,2,2,-1,-1,-2,0,7.615
1524,0,0,-3,0,1,0,1,0,7.62
1525,-1,-3,-3,-8,-5,0,0,0,7.625
1526,-1,-1,-4,7,2,-1,-2,-2,7.63
1527,2,-1,-6,-2,3,1,2,2,7.635
1528,-6,-1,5,5,-2,-1,0,-6,7.640000000000001
1529,3,-2,-3,-18,-6,-4,-1,0,7.6450000000000005
1530,0,0,-5,9,3,0,1,-1,7.65
1531,-1,-2,-1,-7,0,-1,-2,-1,7.655
1532,4,0,-2,23,7,0,-1,6,7.66
1533,-7,-4,1,7,7,2,-1,-5,7.665
1534,0,1,6,5,-4,0,-2,-2,7.67
1535,-6,-24,-10,-32,-13,-4,2,-1,7.675
1536,1,23,4,-13,-8,-1,-3,-1,7.68
1537,-4,-1,-2,4,-1,-1,-2,5,7.6850000000000005
1538,5,-2,-2,5,4,2,6,3,7.69
1539,-6,-1,4,16,3,3,0,-7,7.695
1540,2,-3,-2,-1,-1,0,2,9,7.7
1541,1,4,0,11,2,-1,-1,-12,7.705
1542,-8,-8,1,-21,0,-2,-7,-9,7.71
1543,2,1,0,-23,-13,-7,-1,6,7.715
1544,-4,-7,2,-3,1,0,-2,-9,7.72
1545,2,5,9,-4,-4,0,-2,0,7.7250000000000005
1546,-2,-4,0,15,5,-1,-1,2,7.73
1547,5,12,-4,10,3,1,-2,-6,7.735
1548,-4,-6,-3,-6,-2,0,0,1,7.74
1549,-5,-6,-4,7,-1,-2,-2,2,7.745
1550,0,0,-4,0,-4,-4,-3,-5,7.75
1551,8,8,3,-14,-8,-2,3,5,7.755
1552,-6,-7,1,3,-1,-2,-2,-3,7.76
1553,9,16,2,-5,0,1,1,-2,7.765000000000001
1554,0,-5,0,-6,-1,1,-3,3,7.7700000000000005
1555,-5,-2,1,11,7,1,-1,-2,7.775
1556,1,-2,-2,8,0,0,2,-3,7.78
1557,-1,-3,2,-8,-2,-2,-2,-1,7.785
1558,-4,-2,-12,-18,-7,0,0,0,7.79
1559,0,3,-1,13,6,-1,-1,-4,7.795
1560,-4,-6,-2,7,4,0,-2,-5,7.8
1561,-6,-10,-6,7,1,1,-1,1,7.805000000000001
1562,10,8,2,-5,-4,-1,0,3,7.8100000000000005
1563,5,4,-2,0,4,0,0,-1,7.815
1564,6,7,-2,-12,-5,-3,-2,0,7.82
1565,-3,-9,0,2,3,-1,0,-6,7.825
1566,-1,9,-3,-5,0,0,0,-3,7.83
1567,-2,-2,-1,12,3,1,2,6,7.835
1568,2,-1,1,-4,-2,-1,3,-3,7.84
1569,-1,-5,-1,2,0,-2,-3,-1,7.845
1570,-2,-3,-1,1,3,-3,-2,-2,7.8500000000000005
1571,-3,-5,2,-11,-4,-4,-5,-4,7.855
1572,-3,4,2,15,1,-1,0,3,7.86
1573,4,3,-2,-42,-12,-1,1,7,7.865
1574,-17,-20,0,11,2,0,0,0,7.87
1575,0,0,-2,17,2,0,-3,-2,7.875
1576,4,-4,1,-17,-4,-2,-5,-1,7.88
1577,1,7,0,16,3,-1,0,-2,7.885
1578,-2,-3,-3,-5,-2,0,1,1,7.890000000000001
1579,-5,-5,-3,-10,0,0,3,1,7.8950000000000005
1580,12,17,5,14,3,0,-4,-4,7.9
1581,0,-14,-5,5,2,0,1,2,7.905
1582,-7,2,-1,2,-2,-3,-4,-2,7.91
1583,-4,-1,3,-18,-11,-2,-1,-2,7.915
1584,3,0,-3,1,3,1,1,2,7.92
1585,-8,1,-1,10,2,0,-2,5,7.925
1586,3,3,-4,-7,0,2,5,3,7.930000000000001
1587,0,-2,4,-6,-7,-5,-6,-13,7.9350000000000005
1588,-4,-5,-1,-9,-3,-3,-5,-13,7.94
1589,-1,-2,-2,3,-1,-1,-1,-7,7.945
1590,2,2,3,7,4,0,1,2,7.95
1591,1,2,1,8,3,-1,-1,1,7.955
1592,-4,-9,-5,-10,-4,-2,1,4,7.96
1593,2,5,2,-6,-5,-1,1,5,7.965
1594,1,4,-4,3,0,-1,-1,-8,7.97
1595,2,-4,-1,13,6,2,-1,3,7.9750000000000005
1596,-1,-7,-2,-11,-4,-2,1,2,7.98
1597,-6,3,-1,12,7,2,0,-5,7.985
1598,-5,-10,0,-15,-9,-3,-3,1,7.99
1599,2,20,0,-3,0,-2,2,0,7.995
1600,-8,-8,-7,7,6,2,1,1,8.0
1601,13,1,-3,-9,-6,-2,-1,0,8.005
1602,6,3,2,1,0,-1,-1,-3,8.01
1603,-4,-8,-4,-6,-3,-1,-1,0,8.015
1604,0,2,1,9,1,-1,-1,0,8.02
1605,-1,1,-2,-3,-1,0,-1,1,8.025
1606,0,0,-4,-7,-4,-1,-1,2,8.03
1607,0,-4,0,13,6,1,-3,-5,8.035
1608,-2,-1,0,-22,-11,-4,-3,2,8.040000000000001
1609,-3,-5,-3,-3,-1,-1,-1,-6,8.045
1610,4,6,3,6,3,0,2,5,8.05
1611,-9,-8,-2,-6,-6,-2,-1,-11,8.055
1612,-1,-11,-2,5,3,1,0,8,8.06
1613,-5,-2,1,-3,-3,-2,-3,0,8.065
1614,0,0,-4,-6,-3,-2,0,3,8.07
1615,-3,-8,-2,0,3,-1,-1,-10,8.075
1616,-2,-10,4,1,0,0,2,4,8.08
1617,-9,-11,0,8,2,1,1,-1,8.085
1618,7,6,1,5,4,1,0,3,8.09
1619,1,2,-2,-1,-2,1,-1,9,8.095
1620,11,0,2,13,1,0,-1,-7,8.1
1621,-30,-5,-8,-10,-6,-3,-1,-6,8.105
1622,-3,0,3,-12,-9,-2,-1,-5,8.11
1623,5,11,2,4,0,-1,0,7,8.115
1624,-10,-11,-4,2,0,-2,-5,-6,8.120000000000001
1625,6,-6,2,-4,2,1,1,7,8.125
1626,5,13,1,6,1,0,0,-7,8.13
1627,4,7,8,4,1,0,-3,-3,8.135
1628,-4,8,-3,-13,-2,-2,-1,-1,8.14
1629,3,-1,0,50,12,0,-1,-4,8.145
1630,-8,-9,-1,-35,-15,-4,-5,0,8.15
1631,4,-7,-7,7,3,1,2,9,8.155
1632,-10,-4,2,-11,-1,0,1,-3,8.16
1633,23,20,3,6,3,0,-3,2,8.165000000000001
1634,-7,1,4,3,0,-4,-3,-10,8.17
1635,-1,0,2,2,-2,0,1,9,8.175
1636,-9,7,-2,6,2,0,-2,-46,8.18
1637,18,6,1,-21,-6,-3,6,50,8.185
1638,0,-9,-3,9,4,2,1,2,8.19
1639,-9,-17,-7,-12,-4,-3,-2,-28,8.195
1640,8,3,2,1,1,-2,2,14,8.2
1641,-12,-1,3,15,7,1,0,-12,8.205
1642,-2,-12,-4,-25,-15,-5,-5,0,8.21
1643,-3,-2,1,-10,-7,-1,-1,-8,8.215
1644,6,5,-4,10,3,1,0,-3,8.22
1645,0,-8,-5,-21,-6,-1,2,-1,8.225
1646,-3,2,7,13,5,-1,2,5,8.23
1647,4,6,-1,-3,-3,-1,0,-5,8.235
1648,1,4,0,-10,-2,-1,-4,1,8.24
1649,-2,-2,-5,-8,-4,-1,-1,-1,8.245000000000001
1650,3,-5,-2,7,2,-3,-5,-7,8.25
1651,0,4,0,1,2,0,0,9,8.255
1652,-6,-13,-1,6,-4,-3,-1,0,8.26
1653,-7,0,0,-5,-2,-2,-4,-1,8.265
1654,1,-1,-1,6,1,3,1,-18,8.27
1655,-1,0,-3,6,4,1,9,30,8.275
1656,18,13,0,-10,-7,-3,-4,-30,8.28
1657,6,-4,-3,5,2,1,3,-2,8.285
1658,-6,3,-3,-10,-5,-2,1,17,8.290000000000001
1659,3,-14,-3,-7,-5,-2,0,1,8.295
1660,-5,10,1,16,5,1,0,2,8.3
1661,-2,0,7,-9,-2,-4,-9,-22,8.305
1662,3,5,-2,3,3,1,-1,3,8.31
1663,-2,-4,-1,6,-1,-2,-3,-9,8.315
1664,-4,2,-2,-11,-3,-1,3,23,8.32
1665,-13,0,-2,2,-1,0,-3,-20,8.325
1666,9,-1,0,-1,-2,-2,2,24,8.33
1667,-1,5,-1,3,2,-1,0,4,8.335
1668,1,-2,-2,0,-2,-2,-2,-3,8.34
1669,-5,-10,-7,-11,-7,-3,-4,-24,8.345
1670,-14,5,1,3,2,1,-1,-3,8.35
1671,17,7,1,2,-2,1,7,44,8.355
1672,-3,2,7,-5,0,2,0,7,8.36
1673,-4,-6,-2,11,6,0,0,-13,8.365
1674,11,4,-1,5,-1,-1,-2,4,8.370000000000001
1675,-30,-16,-2,-5,-4,-2,-7,-32,8.375
1676,4,-1,0,10,4,3,5,27,8.38
1677,4,4,5,-29,-11,-6,0,25,8.385
1678,1,-4,-1,8,4,0,-4,-22,8.39
1679,-5,10,-1,18,7,3,-3,-19,8.395
1680,0,-4,-1,-40,-17,-7,-1,11,8.4
1681,7,6,0,18,8,4,4,9,8.405
1682,-3,-4,-3,-20,-7,-4,0,5,8.41
1683,-2,-6,-5,-2,-3,-5,-6,-25,8.415000000000001
1684,-13,-9,-2,11,3,2,-1,-2,8.42
1685,2,7,-3,-1,-2,0,0,-3,8.425
1686,11,14,1,1,4,2,-1,-19,8.43
1687,2,-1,2,4,2,2,0,20,8.435
1688,1,-7,1,13,2,-1,1,4,8.44
1689,2,2,-7,-27,-10,-4,-1,3,8.445
1690,-1,-2,2,14,5,1,-2,-19,8.45
1691,0,4,-1,-20,-8,-3,-3,-2,8.455
1692,-1,-8,-6,0,0,-2,-2,-8,8.46
1693,1,5,1,-1,-1,-1,-1,0,8.465
1694,-8,-10,-8,6,1,1,1,3,8.47
1695,7,1,1,-1,1,0,1,8,8.475
1696,3,-4,-4,-2,-1,-2,-1,-9,8.48
1697,-9,-3,4,4,-2,-2,-4,-1,8.485
1698,6,-1,0,1,2,2,5,20,8.49
1699,-19,1,3,4,1,-1,-4,-42,8.495000000000001
1700,19,8,-2,1,-2,-1,3,46,8.5
1701,11,0,-3,-2,-1,-2,1,4,8.505
1702,-5,-5,-1,3,1,0,-2,-2,8.51
1703,9,1,-2,-7,-2,-2,1,11,8.515
1704,-9,-2,-4,-9,-3,-1,-2,-12,8.52
1705,6,0,-2,4,2,-3,-4,-4,8.525
1706,-4,-2,-7,4,0,1,3,7,8.53
1707,8,2,-2,-10,-2,-3,-2,-2,8.535
1708,-9,1,4,2,0,-1,-4,-16,8.540000000000001
1709,-4,-8,1,2,0,1,-1,-4,8.545
1710,1,1,-3,-5,-3,-2,0,0,8.55
1711,-1,0,0,2,0,0,-2,1,8.555
1712,-1,2,0,-1,0,-2,0,-3,8.56
1713,-8,-5,1,16,1,1,0,0,8.565
1714,2,-2,-2,-17,-3,-3,-1,-1,8.57
1715,1,-2,-4,-11,-6,-2,0,8,8.575000000000001
1716,-17,-6,0,3,2,1,-6,-24,8.58
1717,13,8,0,2,2,1,7,35,8.585
1718,-5,-4,1,1,1,-2,-2,-8,8.59
1719,1,-4,4,4,0,-2,2,6,8.595
1720,1,2,-5,-3,-1,-1,-4,-8,8.6
1721,-5,-3,-8,-1,-2,1,-3,-18,8.605
1722,-3,0,5,-7,-6,-2,-3,-6,8.61
1723,-7,0,0,2,3,1,-3,-7,8.615
1724,13,-3,0,0,0,1,4,20,8.620000000000001
1725,-3,-3,3,-2,-1,-1,-2,-5,8.625
1726,-1,0,1,-1,-3,-3,0,3,8.63
1727,-2,-3,-2,6,1,0,-7,-10,8.635
1728,-5,2,-3,-5,0,1,0,-12,8.64
1729,7,4,0,-2,-2,-1,1,8,8.645
1730,-4,-11,-5,1,-1,0,-3,4,8.65
1731,-7,0,-1,-3,-3,-2,-2,-7,8.655
1732,-3,-2,1,2,2,-1,1,1,8.66
1733,-3,-3,2,-3,-3,-3,-2,-2,8.665000000000001
1734,-4,0,-2,5,1,-1,-1,-7,8.67
1735,4,-1,-2,0,-1,0,-2,-8,8.675
1736,1,0,-1,-2,-4,-1,3,28,8.68
1737,-1,0,-2,-3,-2,-2,-1,-3,8.685
1738,1,0,0,-3,-3,-1,-1,-3,8.69
1739,0,-1,-1,2,0,-1,1,3,8.695
1740,-7,1,-2,-3,-3,-2,-4,-16,8.700000000000001
1741,4,-1,-1,-1,0,0,0,20,8.705
1742,-9,0,2,2,2,-2,-4,-3,8.71
1743,12,0,-1,-1,-1,0,6,32,8.715
1744,-2,2,1,1,0,0,-3,-5,8.72
1745,-7,-4,-6,-3,-3,-2,-2,-17,8.725
1746,5,-1,2,1,0,0,2,12,8.73
1747,0,-1,-3,-3,-3,-1,0,3,8.735
1748,0,1,-3,-2,-2,-2,-1,-9,8.74
1749,-4,0,3,-1,0,1,-1,-5,8.745000000000001
1750,3,1,-2,0,-1,0,1,-1,8.75
1751,-7,-2,-4,0,-2,0,-2,-11,8.755
1752,1,-1,-1,-1,-1,-4,-2,2,8.76
1753,-2,-4,0,-2,0,-1,-1,-6,8.765
1754,0,0,-1,0,1,0,0,1,8.77
1755,1,-1,1,-2,-2,0,-1,2,8.775
1756,-1,0,0,-1,0,-1,-2,-2,8.78
1757,-2,0,-3,0,1,-1,-3,-1,8.785
1758,-4,-1,-2,0,-1,-1,-3,-5,8.790000000000001
1759,6,-1,0,0,1,-1,1,7,8.795
1760,2,-2,0,-1,-2,1,0,-2,8.8
1761,-3,-1,1,-2,-3,-1,-2,-6,8.805
1762,-1,0,0,0,-1,-2,-2,3,8.81
1763,-2,1,0,1,1,-2,-1,-6,8.815
1764,-1,1,-2,-1,-1,-1,-1,-1,8.82
1765,2,-1,0,-1,0,-1,0,1,8.825000000000001
1766,-1,-2,-2,0,-1,0,-2,-7,8.83
1767,-2,-1,-1,-1,-1,-3,-2,1,8.835
1768,0,0,-2,-2,0,-1,0,-1,8.84
1769,-2,-1,-2,0,-1,-1,1,-2,8.845
1770,-1,-1,-2,-1,-2,-2,0,-1,8.85
1771,0,0,1,1,0,-1,-2,-3,8.855
1772,1,0,1,0,1,0,1,1,8.86
1773,-2,0,0,0,-1,-2,-2,-3,8.865
1774,1,-1,1,-2,0,-1,-1,-1,8.870000000000001
1775,-2,-1,-3,-2,-3,-1,-2,1,8.875
1776,-1,-2,0,-2,-2,-2,-1,0,8.88
1777,-1,0,-1,-3,-3,0,0,0,8.885
1778,1,-1,0,1,-1,-2,-1,1,8.89
1779,-3,-1,-1,1,-2,0,-3,1,8.895
1780,0,-1,-3,-3,-1,1,-1,-3,8.9
1781,-2,-1,0,-1,-1,-1,0,-3,8.905
1782,-1,-1,1,1,-2,0,2,1,8.91
1783,1,1,0,-2,1,-1,0,-2,8.915000000000001
1784,-2,-2,-2,-1,0,0,1,-1,8.92
1785,-1,-2,-3,-1,-1,-1,-1,-1,8.925
1786,-2,0,-2,-3,0,-1,0,0,8.93
1787,1,-1,1,-1,-1,-1,0,1,8.935
1788,0,0,0,1,-2,-2,-1,-1,8.94
1789,-2,-1,-2,-2,0,-3,-4,0,8.945
1790,-1,-1,0,0,-1,0,-1,1,8.950000000000001
1791,-3,-1,-2,0,-2,-1,0,-1,8.955
1792,-2,-1,-1,-1,-1,-3,0,1,8.96
1793,0,-2,0,0,0,0,-1,-1,8.965
1794,0,-2,-3,-1,0,0,-1,0,8.97
1795,0,-2,-1,0,1,-1,0,-1,8.975
1796,-2,-2,2,1,-2,-1,-2,-2,8.98
1797,-2,-1,-3,-3,-1,-1,0,-1,8.985
1798,-2,-1,0,0,-1,-2,-2,-1,8.99
1799,-1,-1,-1,-2,-2,-1,1,-2,8.995000000000001
1800,0,-2,-1,0,0,0,-1,-1,9.0
1801,0,0,1,1,0,0,-2,-1,9.005
1802,-2,-1,0,-2,-1,1,-2,-3,9.01
1803,-2,-1,-2,-2,-1,-1,2,-1,9.015
1804,-1,0,-3,0,0,0,-1,1,9.02
1805,1,0,1,1,-1,-2,-1,0,9.025
1806,0,2,-1,-1,-1,-1,0,-1,9.03
1807,0,0,-1,-2,-1,-2,-1,0,9.035
1808,0,-2,-2,0,1,-1,1,-1,9.040000000000001
1809,0,-2,1,0,-1,0,0,-1,9.045
1810,1,0,-2,0,0,-2,0,0,9.05
1811,-1,1,-1,-2,-2,-1,-1,-1,9.055
1812,-2,-2,-2,-2,-1,0,-1,1,9.06
1813,-2,-2,-2,-2,-1,0,0,-1,9.065
1814,-2,-2,0,-2,-1,1,-2,0,9.07
1815,0,-1,2,0,0,-1,0,0,9.075000000000001
1816,0,-1,-2,-1,-2,0,0,-3,9.08
1817,0,1,-2,-1,-2,-1,0,-1,9.085
1818,1,0,0,-2,0,0,-1,-1,9.09
1819,-2,-1,-1,-1,-2,0,0,1,9.095
1820,1,-1,2,0,0,1,-1,-1,9.1
1821,0,0,1,0,0,-1,-1,0,9.105
1822,0,-1,-1,-2,0,0,0,-1,9.11
1823,0,0,-3,0,0,-1,-2,-2,9.115
1824,-2,-1,-1,-2,-1,-2,0,-1,9.120000000000001
1825,0,-2,-3,0,0,0,-1,-2,9.125
1826,0,-1,-2,-1,-3,-3,0,0,9.13
1827,-1,-2,0,-1,-1,-2,-1,-2,9.135
1828,1,0,0,-2,-2,0,0,0,9.14
1829,-2,0,-1,-1,0,-1,0,-1,9.145
1830,-1,0,0,0,0,-1,-1,-2,9.15
1831,-1,-1,-2,-1,-3,-1,-2,1,9.155
1832,-1,1,2,3,0,0,0,-3,9.16
1833,-2,-2,-4,-5,0,0,0,-1,9.165000000000001
1834,0,0,0,-1,-2,0,-1,0,9.17
1835,0,-1,0,-1,0,-1,-1,0,9.175
1836,-1,-1,2,-1,-1,-2,-1,0,9.18
1837,-1,-1,-2,-1,0,-1,0,-1,9.185
1838,0,-1,1,-1,-1,0,-1,-1,9.19
1839,0,1,-3,-1,0,0,-1,-2,9.195
1840,-1,1,-1,-1,0,-3,1,-1,9.200000000000001
1841,-1,-1,2,0,-2,1,0,-2,9.205
1842,0,-1,-4,-1,-1,-1,1,-2,9.21
1843,-1,0,1,0,-1,0,1,0,9.215
1844,-1,-4,-4,-2,-1,-2,0,0,9.22
1845,0,1,1,0,-2,-2,-1,0,9.225
1846,-1,-2,-2,-2,-1,0,-1,0,9.23
1847,-1,0,-1,0,-1,0,-2,-1,9.235
1848,-2,1,1,-1,-1,0,-2,0,9.24
1849,0,-2,-4,-2,-1,-1,0,2,9.245000000000001
1850,1,0,1,-1,-2,0,0,0,9.25
1851,0,-2,-1,-1,0,-2,1,-1,9.255
1852,-2,-1,-1,-1,2,1,-2,0,9.26
1853,0,-1,-1,0,-2,0,-2,-4,9.265
1854,-1,-1,4,0,-1,-2,-1,-1,9.27
1855,-1,-2,-2,-2,-1,-1,-1,-1,9.275
1856,0,0,0,-4,-2,-1,-2,-1,9.28
1857,0,-1,-1,0,0,-1,-2,-1,9.285
1858,-2,-1,0,0,0,-2,-1,0,9.290000000000001
1859,-1,-1,0,-1,-3,-2,-1,-1,9.295
1860,-2,0,-1,0,-1,-1,0,1,9.3
1861,-1,0,0,-1,-1,0,-1,0,9.305
1862,-2,-2,-5,0,-1,0,-2,-1,9.31
1863,-2,0,-4,-3,-2,0,-1,-1,9.315
1864,1,0,-1,0,-1,-2,-2,-2,9.32
1865,-1,-1,0,0,0,0,0,-1,9.325000000000001
1866,-3,-1,-1,-1,-3,-2,0,-1,9.33
1867,0,-1,-2,0,0,0,0,0,9.335
1868,-1,-1,-1,-2,0,0,-1,0,9.34
1869,1,-1,-1,-1,0,-2,-1,-1,9.345
1870,-1,-1,-1,0,0,0,-1,0,9.35
1871,-1,-2,-1,0,0,0,-2,-2,9.355
1872,-1,-2,-1,-1,0,1,-1,-2,9.36
1873,0,-2,0,-1,1,1,-1,2,9.365
1874,0,0,-2,-1,-1,-1,0,-1,9.370000000000001
1875,-1,0,0,-2,-1,-1,0,-1,9.375
1876,-1,-1,-2,0,1,-2,-1,-1,9.38
1877,-1,-1,-2,0,-2,0,-1,-2,9.385
1878,-2,-1,-1,0,-2,0,0,0,9.39
1879,0,-1,0,-2,0,0,0,-1,9.395
1880,0,-2,1,-1,0,-1,0,0,9.4
1881,-2,0,-2,0,-2,-1,0,1,9.405
1882,1,-1,-1,-1,-2,-1,-1,-1,9.41
1883,-1,0,1,1,0,-1,-2,-1,9.415000000000001
1884,1,0,-3,0,-2,-2,0,-1,9.42
1885,-1,-2,-1,0,-1,0,1,-2,9.425
1886,-1,0,-2,-3,0,-3,-1,-2,9.43
1887,-2,0,0,0,-1,1,-1,-1,9.435
1888,-1,1,-2,-1,-3,0,1,0,9.44
1889,0,-1,0,-2,-1,-1,-2,0,9.445
1890,0,-1,-2,-1,0,-1,-1,1,9.450000000000001
1891,0,-1,-1,-2,0,-3,-1,0,9.455
1892,-1,-2,-3,1,-1,-1,-1,-2,9.46
1893,0,-1,-1,1,-2,-1,0,-1,9.465
1894,-1,-1,-1,-1,-1,0,0,-1,9.47
1895,1,1,-2,0,-1,-1,-1,0,9.475
1896,-1,-1,-4,-2,-2,-3,-2,0,9.48
1897,0,0,0,1,0,-1,0,0,9.485
1898,-1,0,2,2,1,-1,0,-2,9.49
1899,0,-2,-2,0,-2,0,1,-1,9.495000000000001
1900,-1,-2,-2,0,-1,0,-3,-1,9.5
1901,-2,-1,0,-3,-2,-1,-1,-2,9.505
1902,-2,-2,-2,0,0,-1,-1,0,9.51
1903,-2,-3,-1,-1,-2,-1,-2,-1,9.515
1904,1,0,-1,-1,0,-1,0,0,9.52
1905,-1,-1,-1,0,-1,-1,-2,-3,9.525
1906,-2,-2,0,-1,-2,1,-1,-1,9.53
1907,-1,-1,-1,-1,0,-1,1,-1,9.535
1908,0,0,-1,-1,-1,0,-1,0,9.540000000000001
1909,-2,-1,-1,0,1,-2,0,-1,9.545
1910,-1,1,0,-1,0,-3,-1,0,9.55
1911,-2,0,1,2,0,-1,-1,-1,9.555
1912,-2,-2,1,-1,-2,0,-2,0,9.56
1913,-1,-1,-2,-1,-2,-2,0,-1,9.565
1914,1,-1,-2,-2,0,-2,0,-1,9.57
1915,1,-2,1,0,1,-1,0,-1,9.575000000000001
1916,-1,-1,-1,0,-1,-1,0,-2,9.58
1917,0,0,-1,-1,-1,0,-2,1,9.585
1918,0,0,-1,0,1,-1,-2,-2,9.59
1919,0,-1,-2,1,-1,1,-1,0,9.595
1920,-1,0,3,0,0,0,-1,-1,9.6
1921,-1,1,1,1,-1,-2,-1,-1,9.605
1922,0,-1,-3,-2,-2,0,0,-1,9.61
1923,-1,0,-1,-1,-1,-2,-1,1,9.615
1924,-1,-1,-2,-1,0,-1,-1,-2,9.620000000000001
1925,0,1,0,-2,0,0,1,0,9.625
1926,-1,-2,-2,-1,-2,-2,-2,-1,9.63
1927,-1,-1,-1,0,-1,-1,-1,-1,9.635
1928,0,-1,-1,-1,-2,-2,-1,0,9.64
1929,-1,-1,-2,-4,-3,0,0,1,9.645
1930,-1,-1,-1,-2,-3,-2,-2,-1,9.65
1931,-1,0,-3,1,0,0,-1,-1,9.655
1932,-2,-1,0,-1,-1,-1,-2,-2,9.66
1933,-1,0,-2,-2,1,1,-1,-2,9.665000000000001
1934,-2,0,0,0,-2,-1,1,0,9.67
1935,0,0,0,-2,1,0,1,-1,9.675
1936,-1,0,-1,-1,-2,-1,-1,-1,9.68
1937,-1,0,-1,1,-2,-1,-1,0,9.685
1938,-1,-1,0,0,2,-1,1,0,9.69
1939,-1,0,1,-1,0,0,-2,-1,9.695
1940,1,0,-1,0,-1,-2,2,-1,9.700000000000001
1941,0,-1,0,0,0,0,0,0,9.705
1942,-3,-1,0,0,-2,-1,-2,-1,9.71
1943,0,-1,-1,-2,-3,-1,-1,-1,9.715
1944,0,-2,-2,-1,-1,0,0,0,9.72
1945,1,-1,-1,1,-1,-1,-1,0,9.725
1946,0,0,1,-1,1,-1,0,0,9.73
1947,-2,-1,0,-1,-2,0,0,-2,9.735
1948,-1,1,-1,-1,0,1,-1,-1,9.74
1949,0,-2,-1,0,-1,-2,-2,-2,9.745000000000001
1950,0,-1,0,0,1,0,0,0,9.75
1951,-2,-2,-2,-1,0,-3,0,-2,9.755
1952,-2,1,2,0,-1,0,0,1,9.76
1953,-1,-3,0,1,1,-1,0,-3,9.765
1954,0,-2,-2,-1,-4,0,-2,-2,9.77
1955,-1,-1,-1,-2,-2,-2,-1,0,9.775
1956,0,-1,-1,-2,-1,-1,1,-2,9.78
1957,-1,0,1,-2,0,-1,-1,-1,9.785
1958,-1,-2,-2,0,-1,0,0,0,9.790000000000001
1959,1,0,0,0,-1,-1,0,-1,9.795
1960,0,-1,1,-1,0,0,-1,0,9.8
1961,-1,0,-1,-1,-1,0,0,0,9.805
1962,0,0,1,-1,0,0,-1,-1,9.81
1963,-2,-1,0,-1,-1,-1,-2,0,9.815
1964,0,-1,1,3,0,0,0,0,9.82
1965,1,0,-2,-4,-1,-2,-1,0,9.825000000000001
1966,1,-1,0,0,-1,0,-1,-1,9.83
1967,-3,-1,-2,-2,0,-1,0,-1,9.835
1968,-1,-1,1,0,0,0,-2,-1,9.84
1969,-1,-1,-1,0,-3,0,0,-1,9.845
1970,-1,-1,0,0,0,0,-1,-1,9.85
1971,1,-1,1,-2,-1,0,-1,-1,9.855
1972,0,-1,-3,-1,-1,-2,-1,-2,9.86
1973,-1,0,0,-1,-1,-1,-1,-1,9.865
1974,-1,-1,-1,-1,-3,-2,-2,0,9.870000000000001
1975,0,-1,-4,0,0,-1,0,1,9.875
1976,-2,-2,-1,-1,-1,-2,0,-1,9.88
1977,0,-1,0,1,1,-1,-1,0,9.885
1978,0,-2,-3,-3,-1,0,-1,-1,9.89
1979,1,-1,0,-1,-2,0,0,-2,9.895
1980,-2,-1,-2,-2,-2,-2,-1,-1,9.9
1981,0,0,-1,-1,0,1,0,-1,9.905
1982,0,-1,-2,-2,-2,-1,-2,-1,9.91
1983,1,-1,-3,-1,0,0,0,0,9.915000000000001
1984,-1,-1,-1,-1,-1,0,0,0,9.92
1985,-2,-2,0,-1,-2,-1,0,-2,9.925
1986,-1,-1,-2,0,-1,0,0,0,9.93
1987,0,-1,2,0,-2,-1,-1,-1,9.935
1988,-1,0,-2,-1,0,-1,-1,1,9.94
1989,0,-1,0,0,0,-1,-1,0,9.945
1990,0,1,2,-1,0,-3,0,0,9.950000000000001
1991,-1,-1,-2,-1,-1,-1,-2,-1,9.955
1992,-1,-2,-3,0,-1,-1,-1,0,9.96
1993,-1,-3,-2,-1,-1,-1,-1,-2,9.965
1994,0,-1,1,0,-2,-1,0,-2,9.97
1995,-2,0,0,0,0,0,-1,0,9.975
1996,-1,-1,0,-2,-2,0,-2,1,9.98
1997,0,-1,-1,0,0,-1,-2,1,9.985
1998,0,-2,-2,0,0,0,0,-1,9.99
1999,-1,-1,-1,-2,-1,0,-1,0,9.995000000000001
2000,0,-1,-2,0,-3,0,-2,-1,10.0
2001,0,-2,-2,-1,-1,-1,0,0,10.005
2002,0,0,0,1,0,-1,-1,-1,10.01
2003,0,1,1,1,-1,0,0,0,10.015
2004,-1,-1,0,-2,1,-1,0,-1,10.02
2005,0,1,-1,-1,-1,-2,-2,-1,10.025
2006,0,0,-2,-1,-1,0,0,0,10.03
2007,-3,-1,-1,0,-2,-2,0,0,10.035
2008,-1,-2,-3,1,-1,-2,0,1,10.040000000000001
2009,-1,0,-4,-3,-3,-2,-1,0,10.045
2010,-1,-1,-1,-2,0,1,0,0,10.05
2011,-2,-1,0,-2,0,-1,-1,-3,10.055
2012,-1,-1,1,-1,-1,0,0,-1,10.06
2013,0,-1,-1,1,0,0,1,0,10.065
2014,-3,-3,-3,1,-2,-1,-1,-1,10.07
2015,-2,-3,-1,0,-1,-2,-1,-2,10.075000000000001
2016,-1,-1,2,-1,0,0,-2,-1,10.08
2017,-1,-2,1,0,1,0,-1,-1,10.085
2018,0,0,3,-1,0,2,0,-1,10.09
2019,0,0,0,0,0,-1,-1,0,10.095
2020,0,1,-3,-2,0,-1,-1,-2,10.1
2021,0,0,2,-1,0,-1,-2,-1,10.105
2022,1,-1,-2,-1,-2,-2,-2,1,10.11
2023,-2,-1,1,0,-2,-1,-2,-1,10.115
2024,-2,0,0,-1,0,0,0,1,10.120000000000001
2025,-1,-2,-1,-2,-3,-2,0,-1,10.125
2026,-1,0,0,-1,0,-1,-1,-2,10.13
2027,0,-1,-1,-2,0,-1,-1,2,10.135
2028,0,0,0,-1,-2,-3,0,-1,10.14
2029,0,-1,-1,1,1,-2,0,-1,10.145
2030,-2,-1,0,0,-2,-2,-2,0,10.15
2031,1,-1,-1,-1,0,1,0,1,10.155
2032,-1,-1,1,0,-1,-1,-2,0,10.16
2033,0,-3,-1,0,-1,-1,0,0,10.165000000000001
2034,-2,-1,1,0,0,-1,0,-1,10.17
2035,0,-2,-2,-4,0,0,1,-1,10.175
2036,0,0,-1,-1,0,0,1,-2,10.18
2037,-1,1,1,-1,-1,-1,-1,-2,10.185
2038,-1,-1,1,-1,-1,0,0,-1,10.19
2039,-1,-2,-3,0,-2,0,-2,-2,10.195
2040,-1,-1,-3,1,-1,-1,0,-1,10.200000000000001
2041,-1,-1,-1,1,-1,1,-1,0,10.205
2042,0,-1,-3,-1,1,1,-1,-1,10.21
2043,-1,-1,-1,-2,-2,-1,-1,-2,10.215
2044,1,0,0,-2,0,0,-2,0,10.22
2045,-1,0,-1,-1,-1,-1,0,0,10.225
2046,-1,-1,-1,-1,-1,-2,-1,-1,10.23
2047,0,-2,-2,0,-2,-1,0,-2,10.235
2048,-3,-1,-2,0,-1,0,-1,-1,10.24
2049,-1,-1,-2,0,-1,1,1,-2,10.245000000000001
2050,-1,-1,-2,1,0,-1,-2,-1,10.25
2051,0,-2,-1,1,-2,-2,-1,1,10.255
2052,-2,-3,0,0,-2,-1,-2,-3,10.26
2053,0,-1,1,-1,-1,0,0,0,10.265
2054,-2,-1,-1,-1,0,-1,0,-2,10.27
2055,-2,0,1,0,1,1,-1,-1,10.275
2056,-1,0,0,-1,-2,-1,-1,-1,10.28
2057,-2,-1,-3,-3,-1,-1,-4,-1,10.285
2058,0,-1,-1,0,-1,0,0,-1,10.290000000000001
2059,-1,-1,2,0,-1,-1,-2,1,10.295
2060,0,0,-1,1,1,-2,0,1,10.3
2061,-1,0,-1,-1,-1,1,1,0,10.305
2062,-1,1,-1,0,-2,-1,1,0,10.31
2063,0,0,-3,-1,-1,1,0,-1,10.315
2064,-1,-1,-1,0,1,1,0,1,10.32
2065,0,-1,-1,-2,-2,-2,-3,1,10.325000000000001
2066,0,0,1,0,0,-1,-1,-2,10.33
2067,0,-1,-1,0,-1,0,0,0,10.335
2068,-1,-1,-1,-1,-2,0,-1,-1,10.34
2069,1,0,0,0,-3,-3,-1,-2,10.345
2070,0,-1,-2,-2,-2,0,-1,1,10.35
2071,-1,0,-1,0,0,0,-1,-1,10.355
2072,-1,-2,-1,0,0,-2,-2,-1,10.36
2073,-1,-1,1,-1,1,-2,0,-2,10.365
2074,-1,-3,-1,1,0,1,-1,1,10.370000000000001
2075,-1,-1,-1,-3,-1,-1,-1,-1,10.375
2076,-2,-1,0,-2,-2,0,0,0,10.38
2077,0,-2,-4,1,1,-1,-2,0,10.385
2078,-1,0,1,0,0,-2,0,-1,10.39
2079,0,-1,-2,-2,-2,-1,0,-1,10.395
2080,-1,-1,4,-1,-1,-1,0,-1,10.4
2081,-2,-1,-1,-1,-1,-1,-1,-1,10.405
2082,1,0,0,-3,-2,-2,-3,0,10.41
2083,-2,-3,0,1,0,-1,-1,0,10.415000000000001
2084,0,-1,-3,-2,-1,-1,-1,-1,10.42
2085,-1,-1,-2,0,-1,-1,1,-1,10.425
2086,0,0,-2,0,-1,-1,-1,-1,10.43
2087,-1,-2,-1,-2,-2,0,-2,-2,10.435
2088,-1,0,-1,1,2,-1,0,0,10.44
2089,1,-2,1,-3,0,-1,0,-1,10.445
2090,-1,-1,-1,-1,0,-1,0,-3,10.450000000000001
2091,1,1,0,0,-1,1,0,-2,10.455
2092,0,0,-2,0,-1,-1,-1,-1,10.46
2093,-2,0,0,0,-2,0,-1,0,10.465
2094,-1,1,-2,0,0,-1,0,-1,10.47
2095,-2,1,-4,-1,0,-1,1,-2,10.475
2096,-1,-1,-1,-1,0,1,-2,-2,10.48
2097,-1,-3,-2,1,0,1,-1,-1,10.485
2098,0,-2,-1,-1,-1,-1,-1,0,10.49
2099,-1,-1,-1,2,0,0,-1,0,10.495000000000001
2100,-2,-2,0,-2,0,0,0,-1,10.5
2101,-2,-2,-1,-1,0,-1,-1,-3,10.505
2102,-1,-2,-3,0,1,-2,-1,0,10.51
2103,-1,1,0,-1,0,-1,-1,-2,10.515
2104,1,2,-1,-1,0,-1,-1,0,10.52
2105,-1,0,-2,0,-2,-1,-3,-1,10.525
2106,-2,-2,-2,-2,-2,0,1,-2,10.53
2107,-1,-2,-1,-2,-2,-2,-2,-1,10.535
2108,-1,1,-2,-1,0,-2,0,-1,10.540000000000001
2109,-2,-1,0,0,-1,0,-2,0,10.545
2110,0,-1,-1,-1,0,-1,-2,-1,10.55
2111,0,-1,1,0,1,0,-1,-2,10.555
2112,0,-3,-3,-3,-2,-2,1,-2,10.56
2113,0,1,-2,-1,-2,-2,-1,-1,10.565
2114,-2,0,0,0,0,-1,-1,-1,10.57
2115,-2,-2,-1,-2,-1,0,-2,0,10.575000000000001
2116,-2,-2,0,0,1,0,-1,0,10.58
2117,-1,-2,-1,-2,-1,0,0,-1,10.585
2118,0,0,2,-1,-1,1,-1,-1,10.59
2119,0,0,-1,1,0,-3,-1,1,10.595
2120,-1,-1,-3,-1,-1,1,0,-1,10.6
2121,-1,-1,0,0,1,0,-1,-1,10.605
2122,0,0,1,-1,-1,0,-2,-2,10.61
2123,0,1,-1,-2,-1,1,0,0,10.615
2124,-1,-1,1,0,-2,1,-2,-1,10.620000000000001
2125,1,-2,-1,-2,-1,-1,0,-1,10.625
2126,-2,-2,-3,-1,-1,0,0,-2,10.63
2127,-1,-2,2,-1,0,-2,1,0,10.635
2128,-1,-2,-3,-2,-4,0,-2,-1,10.64
2129,0,0,-1,-1,2,-1,0,-1,10.645
2130,-1,0,-1,1,0,-1,-1,-2,10.65
2131,-1,0,-2,-1,-2,-1,0,-1,10.655
2132,-1,1,1,0,-1,-2,0,0,10.66
2133,-1,-1,1,-1,0,0,0,-2,10.665000000000001
2134,-1,0,-2,-2,-1,-1,-1,-1,10.67
2135,-1,-1,-4,0,0,0,-1,-1,10.675
2136,1,-1,0,0,0,-1,-1,-1,10.68
2137,0,-1,-1,0,-2,-1,0,-1,10.685
2138,-2,-2,0,-1,-1,-2,1,-1,10.69
2139,-1,0,-1,-1,-1,0,-1,-1,10.695
2140,-1,-1,-2,0,0,-3,0,-1,10.700000000000001
2141,0,-1,-4,-1,-2,-2,-1,-1,10.705
2142,-1,-1,-2,-1,-1,-2,-2,0,10.71
2143,-1,-2,-3,-1,0,0,0,-1,10.715
2144,0,-1,-1,-3,1,1,-2,-2,10.72
2145,-2,0,-2,-1,0,-1,-1,0,10.725
2146,-2,-1,1,-1,-1,1,0,0,10.73
2147,-3,-2,1,1,-1,-1,-2,-2,10.735
2148,-1,-1,0,1,-1,-3,-2,0,10.74
2149,-2,-1,-1,-1,-2,0,-1,-1,10.745000000000001
2150,2,0,-3,0,-1,0,-1,-1,10.75
2151,1,0,1,0,1,0,-1,0,10.755
2152,-1,-1,-3,-2,-1,-1,1,-1,10.76
2153,1,0,1,1,-2,-2,-1,0,10.765
2154,-1,0,-1,1,0,-2,2,0,10.77
2155,-1,-2,-3,-2,-1,0,-1,0,10.775
2156,-1,-1,0,0,-1,0,-1,-3,10.78
2157,-4,-1,1,0,1,0,0,0,10.785
2158,0,-1,0,-2,0,0,-1,-1,10.790000000000001
2159,-1,-1,-1,0,-2,-1,-1,-2,10.795
2160,-1,-2,-2,0,-2,0,-1,0,10.8
2161,1,-2,-2,-1,-2,1,-1,0,10.805
2162,0,-1,-2,0,-1,-1,-2,0,10.81
2163,0,0,2,-1,-1,-1,0,0,10.815
2164,-1,0,1,0,1,0,-1,0,10.82
2165,-1,-1,0,-2,1,-2,0,-2,10.825000000000001
2166,-1,0,-1,-1,-2,-1,0,-1,10.83
2167,0,-2,-1,-2,-1,-1,-1,-1,10.835
2168,-1,-3,-3,-2,-2,-1,0,-2,10.84
2169,-1,1,0,-1,-1,-1,0,-1,10.845
2170,0,0,-3,-2,0,0,-2,-2,10.85
2171,-1,-1,-1,1,0,1,0,-3,10.855
2172,-1,-1,-1,1,-1,-1,-1,1,10.86
2173,-2,-1,-2,0,-2,-1,0,-1,10.865
2174,-1,-1,0,-1,-1,-1,0,0,10.870000000000001
2175,-1,-1,0,-1,-2,-2,-1,1,10.875
2176,-2,-2,-2,-1,0,0,-1,0,10.88
2177,-2,-2,-2,1,1,0,1,-1,10.885
2178,-2,-1,0,-2,-1,-1,-1,-1,10.89
2179,-2,0,1,0,1,0,-1,-2,10.895
2180,0,0,-4,-1,0,-1,0,0,10.9
2181,0,0,-1,-1,0,-2,-1,1,10.905
2182,-1,-2,-3,0,-1,-1,-1,-1,10.91
2183,0,0,-2,1,0,-2,-1,0,10.915000000000001
2184,-1,0,1,-2,0,-1,0,-1,10.92
2185,-1,-1,0,0,0,-1,0,0,10.925
2186,-1,-2,1,0,-1,-1,-2,0,10.93
2187,-1,0,-3,-2,-2,-2,-2,0,10.935
2188,-1,1,1,1,-2,-1,0,-1,10.94
2189,0,-1,-2,0,-1,-1,-1,-1,10.945
2190,-1,-3,-3,-3,-2,-2,-2,0,10.950000000000001
2191,-2,-2,0,0,-3,-2,0,-2,10.955
2192,-2,-2,-3,-2,-3,-1,-1,-1,10.96
2193,-2,0,2,-1,0,-1,-1,-1,10.965
2194,-1,1,1,1,-1,1,1,-1,10.97
2195,1,0,-1,-1,-1,-1,2,1,10.975
2196,0,-1,2,0,-2,-3,0,-1,10.98
2197,0,1,1,0,-2,-1,0,-3,10.985
2198,-2,-1,-3,0,-1,-2,-1,-1,10.99
2199,-2,0,-1,-1,-1,0,-2,-1,10.995000000000001
2200,-1,-1,0,-1,1,-1,-2,0,11.0
2201,-1,-3,-3,-2,0,-1,-1,0,11.005
2202,0,-1,1,0,-1,0,-1,1,11.01
2203,0,-1,-1,0,0,0,0,-1,11.015
2204,0,-2,-1,-2,-2,-2,-1,-1,11.02
2205,0,-2,-4,-2,0,0,-2,-1,11.025
2206,1,-1,0,-1,-1,-1,0,0,11.03
2207,-2,-1,2,-1,-1,-3,-2,-2,11.035
2208,1,-1,-2,-2,1,0,0,0,11.040000000000001
2209,0,-1,0,0,-1,0,-2,-2,11.045
2210,0,0,-1,-2,-1,0,0,-2,11.05
2211,-2,0,-3,-2,-1,0,-1,-1,11.055
2212,0,0,-1,0,0,-3,-1,0,11.06
2213,1,-1,0,1,0,0,-1,0,11.065
2214,-3,-1,0,-3,-1,-1,-1,-1,11.07
2215,1,-1,-3,-1,0,-1,0,0,11.075000000000001
2216,-1,0,-3,0,-2,0,1,-2,11.08
2217,0,1,1,-1,-1,-1,0,-1,11.085
2218,-3,-1,-2,0,0,-3,-1,-2,11.09
2219,0,-1,1,-1,-3,-3,-1,0,11.095
2220,0,0,-2,1,0,1,0,-1,11.1
2221,0,-1,0,1,-1,-1,0,1,11.105
2222,2,-2,0,-1,0,-1,0,-2,11.11
2223,-1,-1,0,0,1,0,0,-1,11.115
2224,-1,-2,-1,0,0,0,-3,0,11.120000000000001
2225,-3,0,-3,-3,-2,-3,0,-1,11.125
2226,-1,-1,0,0,-2,0,-1,0,11.13
2227,0,-2,-2,0,-1,1,0,0,11.135
2228,-2,-2,0,0,-1,-1,-1,0,11.14
2229,-1,2,0,0,1,-1,-1,-1,11.145
2230,-2,-1,-2,-1,-2,0,-1,-1,11.15
2231,-2,0,-2,0,-1,0,-2,-1,11.155
2232,0,-1,0,0,-1,0,0,-2,11.16
2233,0,-1,-1,-1,-1,-1,-1,0,11.165000000000001
2234,-1,-1,-1,-2,-2,-3,0,-1,11.17
2235,0,-1,0,0,-1,0,-1,-1,11.175
2236,-2,-2,-2,0,1,-1,-2,0,11.18
2237,0,-1,0,-2,-2,-2,-1,-1,11.185
2238,-2,-1,-2,-2,-1,0,-1,-1,11.19
2239,-3,-1,2,0,-1,0,1,0,11.195
2240,2,-1,-3,0,-2,-1,0,-10,11.200000000000001
2241,-1,-2,1,0,-1,0,-1,1,11.205
2242,-1,0,-1,0,-1,1,-2,0,11.21
2243,0,1,-2,-1,0,-2,0,1,11.215
2244,-3,-1,-2,-1,-3,-1,0,-3,11.22
2245,-1,0,0,0,-2,-1,0,-2,11.225
2246,3,1,0,-1,0,0,1,-1,11.23
2247,-1,0,-1,0,1,0,-2,-1,11.235
2248,-2,-2,-1,-3,-1,0,-1,1,11.24
2249,0,-3,-2,0,-2,-1,-2,1,11.245000000000001
2250,0,-1,2,-1,0,-1,-1,1,11.25
2251,-2,-1,-1,-2,0,-1,0,0,11.255
2252,-2,-1,2,-1,-2,0,0,2,11.26
2253,0,0,1,-2,-1,-2,0,-1,11.265
2254,-1,-2,-2,-1,0,-2,-2,-2,11.27
2255,1,-1,-3,0,-2,-1,-1,-2,11.275
2256,-1,-1,0,-4,-1,-1,-2,1,11.28
2257,-1,-1,0,0,0,0,-2,-2,11.285
2258,-1,-1,-1,1,-2,0,1,-1,11.290000000000001
2259,1,1,1,-1,-1,-1,1,-1,11.295
2260,-1,1,0,0,-1,-2,0,1,11.3
2261,-1,-1,-5,-1,-1,0,-1,0,11.305
2262,-1,-1,0,0,-1,-3,-1,-2,11.31
2263,-1,-1,-3,0,-1,0,-2,-2,11.315
2264,0,-2,2,3,0,0,-1,-1,11.32
2265,-3,-2,-1,-2,-1,-2,0,-1,11.325000000000001
2266,0,0,0,1,0,-1,1,-2,11.33
2267,-2,-1,0,-2,-1,-2,0,0,11.335
2268,0,0,1,-1,0,-1,0,1,11.34
2269,1,-1,-4,-1,-1,-2,-1,-1,11.345
2270,-2,-1,-3,0,-1,-2,0,1,11.35
2271,-2,-1,2,-2,-1,-1,-2,-1,11.355
2272,1,1,0,2,-1,-2,0,-2,11.36
2273,-1,-1,1,-1,-2,-1,-1,-2,11.365
2274,0,-1,-1,-3,-3,-1,-2,-2,11.370000000000001
2275,-1,-1,1,-1,-2,0,-1,0,11.375
2276,-1,-1,-3,-3,-2,-1,-2,0,11.38
2277,0,-2,-1,0,-2,0,-2,-1,11.385
2278,-1,1,-1,-1,1,-1,0,-1,11.39
2279,-1,0,-2,1,0,0,0,-2,11.395
2280,-1,0,-1,-1,-1,0,-1,0,11.4
2281,-3,0,0,0,0,-1,-1,-1,11.405
2282,-1,-1,0,-1,-1,-1,-3,0,11.41
2283,1,-1,-3,-1,0,-1,0,1,11.415000000000001
2284,0,-1,-1,1,-1,2,1,0,11.42
2285,-1,1,-1,-3,-2,0,0,0,11.425
2286,-1,-2,0,-1,-2,-1,-2,0,11.43
2287,0,0,0,-1,0,0,-1,-2,11.435
2288,-1,-1,1,-1,-1,-2,-3,-1,11.44
2289,-1,-2,-1,-1,-1,-2,-1,0,11.445
2290,1,-1,-1,-1,0,0,0,-1,11.450000000000001
2291,0,0,0,0,-1,0,0,-1,11.455
2292,1,-1,-1,-1,0,1,-1,0,11.46
2293,0,-1,1,-2,0,0,-1,-1,11.465
2294,0,-2,-1,-1,-1,0,0,0,11.47
2295,0,0,-1,0,-2,-2,-1,0,11.475
2296,0,-1,-2,-1,-1,-1,-1,-1,11.48
2297,0,0,2,0,-1,-1,-1,-2,11.485
2298,-2,0,-4,0,1,0,-1,0,11.49
2299,-1,-2,-2,-3,-2,-1,-1,0,11.495000000000001
2300,-2,-3,-1,0,0,-1,-1,-2,11.5
2301,-1,0,0,1,0,-2,-1,1,11.505
2302,0,-3,-2,1,-1,0,-2,-2,11.51
2303,-1,0,-1,0,0,0,0,-1,11.515
2304,1,-2,1,-1,1,-2,-1,-1,11.52
2305,1,-2,-2,0,-1,1,0,0,11.525
2306,-3,0,1,0,-2,-2,-2,-1,11.53
2307,-1,-2,0,2,-1,0,-1,-1,11.535
2308,0,0,1,0,-1,-2,-2,1,11.540000000000001
2309,-1,0,-3,-3,-2,0,-1,-2,11.545
2310,-1,0,0,-2,-2,-1,-2,0,11.55
2311,-1,0,-1,-1,0,-1,1,-3,11.555
2312,-1,0,-4,1,-1,1,0,-1,11.56
2313,0,-3,0,0,-2,1,-1,0,11.565
2314,1,-1,-2,1,0,1,-1,0,11.57
2315,-1,-1,-1,-1,1,-3,-2,0,11.575000000000001
2316,-1,-1,-3,-2,-1,1,0,0,11.58
2317,-2,-1,-1,-1,-1,-2,0,1,11.585
2318,-1,-1,-4,-2,-2,-2,-1,-1,11.59
2319,-1,-1,1,-1,-2,0,-1,-1,11.595
2320,0,-1,-2,0,-2,-3,0,-1,11.6
2321,-1,-2,0,1,0,-1,-1,-1,11.605
2322,-3,0,1,0,-1,-1,1,-2,11.61
2323,-1,-3,-3,-2,0,-1,0,0,11.615
2324,-1,0,1,-1,-1,-1,0,-1,11.620000000000001
2325,-1,1,0,2,1,-1,-1,0,11.625
2326,-2,-2,-3,-4,-3,-1,-1,0,11.63
2327,0,-1,1,-1,-1,2,-1,-2,11.635
2328,-1,-1,-1,0,0,-1,-1,-1,11.64
2329,1,-1,-3,-2,0,-2,-1,-2,11.645
2330,1,0,1,0,0,-1,0,-1,11.65
2331,-2,-2,2,-1,0,-3,0,-1,11.655
2332,-1,-1,-3,-3,-1,0,1,0,11.66
2333,-1,0,-2,0,0,-1,-2,-1,11.665000000000001
2334,-2,0,1,-1,-3,-1,-1,0,11.67
2335,1,-2,-3,-1,-1,1,-1,-1,11.675
2336,0,-1,0,0,0,-1,-1,-2,11.68
2337,-1,-1,-3,-2,-2,-1,1,-1,11.685
2338,-1,0,2,0,2,0,-1,-2,11.69
2339,-1,-1,-1,0,-1,-1,-2,-1,11.695
2340,-2,-1,-1,0,-2,-2,0,0,11.700000000000001
2341,-1,0,1,-1,1,2,0,0,11.705
2342,0,-2,-4,0,0,-1,-1,1,11.71
2343,-1,-1,1,0,-1,-2,-1,1,11.715
2344,-1,-2,0,-1,-1,-3,-2,-1,11.72
2345,-1,-1,-2,0,0,-1,-3,-1,11.725
2346,0,2,2,0,2,0,-1,0,11.73
2347,-1,-2,-2,-2,-1,-1,0,-2,11.735
2348,-1,-1,-1,-4,-3,-3,-1,-2,11.74
2349,0,-3,-2,-4,-4,0,0,-4,11.745000000000001
2350,0,0,-1,0,-2,-1,0,-1,11.75
2351,-2,-1,-3,-1,0,1,-1,0,11.755
2352,-1,0,1,-1,1,0,1,-1,11.76
2353,0,-1,0,0,-3,-1,0,-1,11.765
2354,1,-1,-4,-1,-2,-1,-2,-1,11.77
2355,-1,-1,-2,-1,-2,-1,0,-1,11.775
2356,0,-2,-2,-1,-1,-1,-1,-1,11.78
2357,-1,-1,3,-2,-1,-1,0,-1,11.785
2358,-1,-1,1,1,0,0,-1,1,11.790000000000001
2359,-1,0,-2,-1,1,-1,1,0,11.795
2360,-1,-1,-1,0,-1,-1,-2,0,11.8
2361,-1,1,-2,-5,-1,-1,1,0,11.805
2362,-2,0,-2,4,0,-2,0,0,11.81
2363,0,0,4,0,0,0,0,0,11.815
2364,-3,0,-2,0,0,1,-1,-1,11.82
2365,-2,-3,-5,-5,-1,-2,0,1,11.825000000000001
2366,-5,-8,-1,3,-1,0,0,-1,11.83
2367,2,15,6,-4,-5,-3,-2,-3,11.835
2368,1,1,-1,-1,1,1,1,1,11.84
2369,0,0,0,-1,-2,-2,-2,0,11.845
2370,0,9,1,-6,-4,-1,0,-1,11.85
2371,-3,-17,-4,8,0,0,-1,0,11.855
2372,4,-3,2,0,-1,-2,0,-2,11.86
2373,-2,-5,-4,-4,-3,-2,-1,1,11.865
2374,3,9,1,-2,1,-3,-2,-3,11.870000000000001
2375,-6,-1,-5,-4,-1,0,-1,-2,11.875
2376,-4,-21,-2,10,5,1,2,1,11.88
2377,4,35,0,6,2,3,2,0,11.885
2378,9,11,3,-13,-7,-5,-1,-2,11.89
2379,-10,-18,-6,5,0,0,-1,0,11.895
2380,-5,-9,2,-2,2,-2,-2,2,11.9
2381,-2,1,-1,0,-2,-2,-1,1,11.905
2382,3,-6,-1,-1,0,-1,0,-8,11.91
2383,-7,13,3,-3,0,-1,-2,-4,11.915000000000001
2384,-2,1,0,12,1,1,0,-3,11.92
2385,-4,-11,0,-4,3,1,0,2,11.925
2386,-11,6,-10,-12,-7,-1,-1,1,11.93
2387,2,-20,1,7,3,0,0,2,11.935
2388,9,13,1,17,5,2,1,-1,11.94
2389,-4,-4,-1,-36,-10,-4,-1,7,11.945
2390,-4,-12,-5,4,4,1,-3,-12,11.950000000000001
2391,4,-1,2,-7,-1,-1,-1,-2,11.955
2392,-12,-1,2,9,0,-1,-3,-12,11.96
2393,3,-4,-5,4,0,0,0,3,11.965
2394,10,17,5,5,-1,1,2,-8,11.97
2395,1,1,-4,-9,-3,-1,0,2,11.975
2396,5,-9,4,6,5,0,1,5,11.98
2397,-14,-20,-5,-8,-9,-4,1,2,11.985
2398,5,-8,-2,2,1,4,8,28,11.99
2399,2,11,-4,43,13,3,0,-2,11.995000000000001
2400,-5,9,0,-45,-18,-8,-10,-12,12.0
2401,7,0,0,3,3,0,-3,-11,12.005
2402,-11,-12,3,7,3,1,-1,-1,12.01
2403,6,8,2,11,-3,-1,3,9,12.015
2404,-2,-9,-4,-4,3,0,2,4,12.02
2405,-4,23,9,18,4,0,-3,-7,12.025
2406,-6,-9,0,-24,-8,-2,-1,4,12.030000000000001
2407,3,-10,-1,-7,0,-1,-2,-8,12.035
2408,3,-1,-6,9,0,0,1,0,12.040000000000001
2409,0,-4,3,20,1,-1,-1,-5,12.045
2410,13,12,2,-12,-4,-2,-1,3,12.05
2411,-26,-12,-9,-6,5,1,1,-7,12.055
2412,23,-9,6,0,-2,-1,-2,-2,12.06
2413,-18,-15,-8,1,0,2,-1,-6,12.065
2414,-12,-11,-1,32,13,1,0,-2,12.07
2415,19,16,0,-48,-20,-7,-2,16,12.075000000000001
2416,-3,7,-2,1,-2,2,4,-8,12.08
2417,8,-5,6,25,7,0,-6,-8,12.085
2418,-5,2,-4,-45,-19,-7,-5,-11,12.09
2419,-2,10,4,-8,0,-2,-4,-3,12.095
2420,-5,9,-3,25,5,0,1,8,12.1
2421,-6,3,-5,-30,-6,-1,1,2,12.105
2422,1,-14,-3,-9,-2,-1,3,12,12.11
2423,-8,-6,1,6,2,-2,-4,-26,12.115
2424,-7,10,-5,-22,-7,-5,-7,-10,12.120000000000001
2425,-7,-19,-4,12,0,0,-1,-6,12.125
2426,5,-2,2,43,16,5,1,-3,12.13
2427,6,3,1,-55,-15,-2,3,11,12.135
2428,-10,-3,-7,7,3,-3,-2,3,12.14
2429,10,-5,0,12,-1,0,0,-1,12.145
2430,26,19,-2,-6,1,-1,0,7,12.15
2431,-19,-8,-2,21,-1,0,1,-1,12.155000000000001
2432,-2,-16,-3,-7,-5,-3,1,-2,12.16
2433,-9,1,-5,-19,-4,-2,-4,-8,12.165000000000001
2434,2,0,6,7,2,0,2,17,12.17
2435,14,21,-1,21,10,2,1,11,12.175
2436,-7,0,-8,-19,-3,1,-1,-20,12.18
2437,-1,-6,1,-14,-2,-1,-2,-10,12.185
2438,6,-4,-1,3,0,-2,-4,-7,12.19
2439,-9,-14,2,-5,-3,-1,1,0,12.195
2440,3,9,3,4,1,-1,4,12,12.200000000000001
2441,13,12,10,24,14,4,1,1,12.205
2442,-11,-6,-11,-20,-7,-4,-1,2,12.21
2443,0,-11,-1,22,5,1,1,5,12.215
2444,2,3,-1,-18,-4,3,6,25,12.22
2445,0,1,0,-1,-1,-2,-3,-21,12.225
2446,-6,-1,4,-12,-3,-2,-4,-9,12.23
2447,3,-1,8,36,5,-1,-3,-3,12.235
2448,-6,-2,-4,-64,-18,-2,-3,-13,12.24
2449,0,0,6,25,4,2,1,20,12.245000000000001
2450,-18,-19,-9,-2,-2,1,2,12,12.25
2451,-1,7,-7,-15,-2,-2,-2,-15,12.255
2452,32,26,6,21,2,0,-2,19,12.26
2453,10,-7,-1,-1,0,2,7,9,12.265
2454,-11,-18,0,17,-1,-2,-4,-20,12.27
2455,-5,12,1,-19,-4,-3,-1,4,12.275
2456,-17,-10,0,6,0,-1,2,14,12.280000000000001
2457,21,19,-9,-28,-8,-2,-1,-8,12.285
2458,-10,9,4,17,9,1,-4,-25,12.290000000000001
2459,8,1,-5,-15,-1,-2,-4,-12,12.295
2460,-5,-8,-3,14,2,-1,-2,-9,12.3
2461,-4,-5,-2,-1,-1,0,0,8,12.305
2462,-3,2,-9,1,-1,1,4,0,12.31
2463,-4,-5,2,19,5,1,-1,-4,12.315
2464,3,1,4,-20,-10,-2,-1,3,12.32
2465,-3,-8,-9,9,-1,0,0,9,12.325000000000001
2466,-6,16,0,-33,-3,-2,-4,-7,12.33
2467,-4,-9,-5,2,1,1,4,18,12.335
2468,8,1,2,32,13,5,2,-3,12.34
2469,9,27,5,-42,-21,-6,-7,-25,12.345
2470,-2,-9,0,5,1,-2,4,15,12.35
2471,-24,-8,-2,-7,-2,1,-2,-28,12.355
2472,2,3,-3,30,8,-2,-8,-11,12.36
2473,-10,-8,7,-23,-9,-6,-6,-18,12.365
2474,8,5,1,32,7,1,3,5,12.370000000000001
2475,4,-17,-3,-20,-10,-2,1,3,12.375
2476,-11,11,6,6,3,1,0,-4,12.38
2477,-1,-1,-13,0,-1,-3,-2,-3,12.385
2478,6,-2,8,37,4,0,-2,6,12.39
2479,4,-4,-6,-30,-9,-3,0,6,12.395
2480,-12,-8,3,-11,-3,0,-6,-10,12.4
2481,-2,-2,-2,15,4,-1,3,28,12.405000000000001
2482,0,7,2,-5,0,0,0,-4,12.41
2483,4,-6,3,7,3,0,2,10,12.415000000000001
2484,-12,-4,-2,-13,-7,-3,0,1,12.42
2485,-8,-8,0,9,6,2,0,-13,12.425
2486,20,13,-1,-14,-3,-1,0,19,12.43
2487,9,19,8,12,4,1,-2,-2,12.435
2488,-5,-8,-6,-7,-2,-1,2,-1,12.44
2489,-3,-5,-4,7,1,0,2,14,12.445
2490,-2,5,-6,-31,-13,-6,-7,-18,12.450000000000001
2491,-6,-6,-3,8,3,0,-2,-9,12.455
2492,-5,-6,-1,11,0,-1,2,10,12.46
2493,5,2,-1,9,2,0,0,3,12.465
2494,-2,-2,-4,-12,-5,-1,0,1,12.47
2495,-17,-4,-1,10,0,-2,-7,-43,12.475
2496,31,18,-6,-8,-2,3,12,73,12.48
2497,-10,5,12,34,12,-2,-7,-21,12.485
2498,-9,-13,-1,-29,-15,-4,-4,-13,12.49
2499,-3,10,-1,5,2,-1,-1,-18,12.495000000000001
2500,-10,-21,-6,-11,-3,-1,-2,3,12.5
2501,11,-4,4,7,3,1,3,15,12.505
2502,-14,1,-10,-5,1,-1,-2,2,12.51
2503,16,-5,1,-1,-2,-3,1,5,12.515
2504,-5,7,5,8,5,1,-3,-35,12.52
2505,4,-7,-6,-18,-6,-1,5,30,12.525
2506,-7,-10,6,12,6,2,0,-5,12.530000000000001
2507,-3,5,3,-15,-3,-3,-3,10,12.535
2508,2,-7,-10,7,-2,1,-5,-25,12.540000000000001
2509,-3,-2,6,7,1,0,-1,1,12.545
2510,3,-4,2,-15,-8,-4,1,-5,12.55
2511,-1,3,-3,9,4,2,1,19,12.555
2512,8,8,4,-5,0,1,1,-4,12.56
2513,-4,-1,-3,-7,-4,-3,-3,-7,12.565
2514,-17,0,-2,28,10,2,-3,-19,12.57
2515,37,18,-1,-2,-2,-1,10,78,12.575000000000001
2516,-22,-21,-3,-8,-9,-5,-6,-20,12.58
2517,3,-5,-9,-15,-2,2,3,1,12.585
2518,-11,0,4,-17,-2,-1,-1,-10,12.59
2519,-4,-8,-9,6,1,2,-3,-16,12.595
2520,-2,-4,-1,5,1,-1,-3,-6,12.6
2521,5,0,-2,7,-2,0,1,8,12.605
2522,-3,-11,1,0,-1,0,1,7,12.61
2523,-10,-5,-1,-6,0,0,-2,-29,12.615
2524,4,4,2,-4,0,-1,2,4,12.620000000000001
2525,-2,-2,-8,-8,0,1,2,-1,12.625
2526,-8,-9,-3,-12,-9,-6,-6,-26,12.63
2527,14,3,-1,6,1,1,-5,-13,12.635
2528,-3,3,-1,4,3,0,3,20,12.64
2529,-3,0,4,-5,-1,-1,-1,2,12.645
2530,5,4,1,11,8,3,1,8,12.65
2531,-10,-11,-15,-4,-7,-5,-5,-5,12.655000000000001
2532,-18,-21,1,0,-3,-3,-4,-16,12.66
2533,26,15,3,0,1,1,3,18,12.665000000000001
2534,3,3,0,3,1,-1,-2,5,12.67
2535,4,1,4,6,-2,-1,0,-1,12.675
2536,-1,-1,-2,-16,-3,-3,-1,2,12.68
2537,-19,-8,-3,10,1,-1,-3,-14,12.685
2538,8,1,-3,-1,-1,-3,0,10,12.69
2539,9,-5,4,-2,1,1,0,10,12.695
2540,2,4,0,1,-4,-2,-2,-15,12.700000000000001
2541,-21,0,-3,-6,-3,-5,-7,-9,12.705
2542,13,12,-3,2,-1,0,1,-1,12.71
2543,-22,-33,-6,-5,-2,-2,2,1,12.715
2544,3,2,-2,-7,-1,-2,-4,-1,12.72
2545,-3,-4,3,-7,-1,-3,-2,-16,12.725
2546,1,-8,-1,1,0,2,2,6,12.73
2547,-6,6,3,7,-3,-1,1,0,12.735
2548,1,3,-1,1,0,0,-1,-12,12.74
2549,-2,-5,1,-3,-1,-1,0,0,12.745000000000001
2550,-1,2,-3,1,3,0,-1,-4,12.75
2551,5,6,0,-1,-3,-1,-2,4,12.755
2552,-12,-13,0,3,0,-3,-4,-9,12.76
2553,-4,7,2,-11,-5,-2,-4,-14,12.765
2554,15,0,0,10,1,1,6,48,12.77
2555,5,6,2,-5,-1,-2,1,3,12.775
2556,2,-1,1,4,-1,0,2,-2,12.780000000000001
2557,-11,-2,-3,-4,-1,-1,-2,-5,12.785
2558,0,-4,-1,4,-1,1,0,3,12.790000000000001
2559,-2,3,1,-3,-1,-2,-4,-3,12.795
2560,7,5,-3,-5,-2,-1,0,5,12.8
2561,-2,-5,-2,-1,1,2,0,5,12.805
2562,-1,4,1,3,0,1,-3,-16,12.81
2563,-2,1,-2,-1,1,-2,0,-3,12.815
2564,3,4,-1,-1,1,1,0,1,12.82
2565,0,-3,-3,-3,1,0,-1,-4,12.825000000000001
2566,-6,-6,-1,-2,0,-1,-2,-4,12.83
2567,-4,0,0,-3,-1,0,0,-5,12.835
2568,0,1,-2,2,-1,0,0,5,12.84
2569,3,-3,-2,-1,0,0,0,3,12.845
2570,-3,0,-2,2,0,-1,-1,-6,12.85
2571,-1,1,1,-1,2,-1,0,-1,12.855
2572,3,5,-2,-2,-2,-2,-1,1,12.86
2573,-2,-4,-2,1,-2,-2,-1,0,12.865
2574,-4,-4,-1,-1,-3,0,-2,-8,12.870000000000001
2575,-1,0,-3,0,-2,0,-1,-3,12.875
2576,-1,0,0,1,0,-1,2,3,12.88
2577,-1,0,-1,-2,-1,-2,0,-1,12.885
2578,-2,-1,1,0,1,-1,-1,-5,12.89
2579,0,-2,0,-2,-1,-2,-1,2,12.895
2580,-1,0,-2,-1,-2,0,-2,-1,12.9
2581,0,-1,-1,-1,-1,1,0,0,12.905000000000001
2582,-1,-3,-3,-2,-2,-1,-2,-4,12.91
2583,-2,1,-1,1,0,0,0,-1,12.915000000000001
2584,2,0,-2,0,0,0,-1,-2,12.92
2585,0,1,2,-2,-3,1,-2,-1,12.925
2586,-1,-1,-1,-1,-1,-2,-1,-1,12.93
2587,0,-1,0,0,0,-1,0,-2,12.935
2588,0,-1,1,-1,1,-1,-1,0,12.94
2589,-2,-1,0,-1,-1,-1,-1,0,12.945
2590,-1,1,-1,0,-1,1,0,-2,12.950000000000001
2591,-2,-1,-1,-3,-3,-1,0,-1,12.955
2592,0,-2,0,-2,-1,-1,0,-1,12.96
2593,-1,0,0,1,-3,-1,-1,2,12.965
2594,-1,-2,-2,-2,-3,-2,-1,-3,12.97
2595,-2,0,0,-1,-1,-2,-1,-1,12.975
2596,0,2,4,0,-1,0,-1,1,12.98
2597,-1,-1,-3,-1,-1,-1,0,-1,12.985
2598,0,1,0,-2,0,-1,0,-1,12.99
2599,0,-3,-6,-2,-4,-3,-1,-2,12.995000000000001
2600,0,0,-3,-1,-1,-1,1,-1,13.0
2601,1,-1,-2,-1,-2,-2,1,0,13.005
2602,-1,-1,-3,0,-1,-2,-2,-1,13.01
2603,0,0,1,1,0,-1,-1,-2,13.015
2604,-1,-1,-1,-2,-3,-1,-1,-1,13.02
2605,-1,-2,-1,-1,0,-1,0,-3,13.025
2606,0,0,0,-1,-1,-1,-1,-1,13.030000000000001
2607,-1,-2,1,-1,0,-1,0,-2,13.035
2608,1,0,0,0,-1,0,-1,0,13.040000000000001
2609,1,0,-1,1,0,0,0,1,13.045
2610,-2,0,-1,0,-2,-2,0,-1,13.05
2611,-1,-1,-2,0,0,-1,0,1,13.055
2612,0,-1,-3,-1,1,-2,1,0,13.06
2613,-1,-1,1,-1,-2,-2,1,-1,13.065
2614,-2,-1,0,-1,-2,0,1,0,13.07
2615,-1,-2,0,-1,-1,0,0,1,13.075000000000001
2616,-2,0,0,-1,-2,-1,-1,-1,13.08
2617,1,0,0,-1,-2,-1,-2,-2,13.085
2618,1,-3,-3,-1,1,-1,-1,-1,13.09
2619,-1,-1,-3,-1,1,-1,-1,0,13.095
2620,-1,-1,-1,0,-1,0,1,0,13.1
2621,0,0,1,2,0,0,-1,0,13.105
2622,0,-1,-2,-2,0,0,-2,-1,13.11
2623,-1,0,1,1,0,0,-2,0,13.115
2624,-1,-1,-2,-1,0,-1,-2,-1,13.120000000000001
2625,0,1,1,1,0,-2,-2,0,13.125
2626,0,0,4,-1,-1,0,0,0,13.13
2627,-1,-2,-2,-1,0,-1,-1,-1,13.135
2628,0,0,1,-2,0,0,-2,-2,13.14
2629,-1,-3,-7,-1,0,1,1,-1,13.145
2630,-1,-2,-1,-1,-1,-3,0,-1,13.15
2631,0,1,2,-1,-1,1,0,-1,13.155000000000001
2632,-1,0,-2,-2,-1,0,0,-1,13.16
2633,-1,0,1,-1,0,1,-1,-1,13.165000000000001
2634,-1,1,0,1,-1,-1,-2,-1,13.17
2635,-2,-2,-1,0,-2,-1,-1,0,13.175
2636,0,-1,0,1,-1,-1,-1,-1,13.18
2637,0,0,-1,-1,-1,-1,-1,1,13.185
2638,1,-1,-1,-1,-1,-1,1,-1,13.19
2639,0,0,-1,-1,-1,-2,-1,0,13.195
2640,-1,-1,0,1,0,-1,-2,-2,13.200000000000001
2641,-1,-1,-2,0,-1,-2,-3,0,13.205
2642,1,-3,-1,-1,-3,0,-1,-2,13.21
2643,-1,0,0,0,0,0,-1,-1,13.215
2644,0,-1,-3,-1,-1,0,-1,-1,13.22
2645,0,0,-1,-1,2,-1,2,-1,13.225
2646,-1,0,-1,-1,-1,-1,-1,0,13.23
2647,-1,0,0,-3,-2,0,1,-1,13.235
2648,-1,-1,-2,-1,-2,-1,0,1,13.24
2649,-1,-1,0,-1,-2,-1,-1,0,13.245000000000001
2650,-1,-1,-4,-1,0,1,-1,-1,13.25
2651,-1,-1,1,-2,-1,-2,-1,0,13.255
2652,-1,-1,-2,0,-2,-1,0,0,13.26
2653,1,-2,-1,-2,0,-3,1,0,13.265
2654,-2,0,1,-2,-2,-1,0,-1,13.27
2655,1,0,-2,-2,-2,0,0,1,13.275
2656,-1,-2,2,-1,0,-1,0,1,13.280000000000001
2657,0,-2,0,1,0,-1,-1,-1,13.285
2658,-2,-1,1,1,0,-2,0,-1,13.290000000000001
2659,0,-2,-4,-2,0,0,-2,-2,13.295
2660,0,-1,-1,0,0,0,-1,0,13.3
2661,0,-1,-1,-1,-3,-1,0,-2,13.305
2662,-3,-3,-2,-1,0,0,-1,-1,13.31
2663,0,1,0,0,-1,0,0,-1,13.315
2664,-1,1,1,-2,0,0,-1,-1,13.32
2665,-2,-1,1,-2,-2,0,0,-1,13.325000000000001
2666,0,-1,-1,-1,2,-1,-2,-1,13.33
2667,0,-2,-3,-1,-1,0,-1,-2,13.335
2668,-1,-2,-2,-2,0,-3,-2,0,13.34
2669,-1,-1,0,2,0,-2,-1,-1,13.345
2670,-1,-1,-2,-1,-2,0,-1,-1,13.35
2671,-1,-1,2,-2,0,-2,0,-1,13.355
2672,-1,1,-4,-3,0,-1,0,-1,13.36
2673,-1,0,-1,-1,-1,1,-1,-2,13.365
2674,-1,-1,-1,0,0,-1,-2,1,13.370000000000001
2675,-1,-2,0,0,-2,-1,-1,-2,13.375
2676,0,0,3,2,0,0,0,-1,13.38
2677,1,0,-4,-3,-2,0,-1,-1,13.385
2678,0,1,-1,0,-1,0,-2,-1,13.39
2679,-2,-1,-2,-1,0,-1,-1,-1,13.395
2680,-1,-2,0,-2,-1,-1,0,0,13.4
2681,-2,0,-2,-1,-1,-3,-2,-1,13.405000000000001
2682,1,-1,0,-2,-1,0,-1,-2,13.41
2683,0,-2,-3,-2,-3,0,-2,0,13.415000000000001
2684,0,-2,-3,-2,-2,0,0,-2,13.42
2685,-2,0,-1,-1,-1,-1,0,1,13.425
2686,-3,-1,-2,-1,-3,-2,0,-1,13.43
2687,-1,0,1,1,1,1,-1,-1,13.435
2688,0,-1,-2,0,0,-1,-2,0,13.44
2689,-2,-1,2,0,0,-1,-1,-1,13.445
2690,1,-1,-5,-1,0,-2,-1,1,13.450000000000001
2691,0,0,-1,1,1,0,0,0,13.455
2692,0,-2,-2,1,-1,-1,1,-2,13.46
2693,0,-2,0,-2,1,1,-2,-1,13.465
2694,-2,0,1,0,0,-2,0,-2,13.47
2695,0,0,-1,-1,-1,-1,-1,-1,13.475
2696,1,-1,0,0,-1,-1,-1,0,13.48
2697,-1,0,-2,-1,0,-1,-1,1,13.485
2698,-1,-2,1,-1,-1,1,-1,0,13.49
2699,0,0,1,1,-1,0,-1,-2,13.495000000000001
2700,-2,-1,-3,-1,0,-2,1,0,13.5
2701,-1,-1,-1,-1,-1,-1,-1,1,13.505
2702,-1,0,0,-4,-2,-1,-1,-2,13.51
2703,-2,0,-1,-1,0,-1,0,-1,13.515
2704,-2,-2,1,0,0,-1,-1,-1,13.52
2705,1,0,0,1,-1,1,0,-1,13.525
2706,0,0,-2,1,0,1,-1,0,13.530000000000001
2707,-2,-2,-3,-1,0,-3,-1,-1,13.535
2708,-2,-1,-3,0,-3,-1,-1,-1,13.540000000000001
2709,-2,0,-2,-1,-2,-2,0,-2,13.545
2710,1,-1,-1,-2,-1,-1,1,0,13.55
2711,-1,-2,0,-1,-2,-1,0,-1,13.555
2712,-1,1,1,-1,-2,0,-2,0,13.56
2713,-1,-1,-2,-1,1,0,-1,-1,13.565
2714,-1,0,0,0,-1,-1,0,-2,13.57
2715,-1,-3,-3,-2,-1,0,0,0,13.575000000000001
2716,0,0,2,-2,0,-2,-2,-2,13.58
2717,-1,-3,0,0,-1,2,0,-1,13.585
2718,-1,-1,-1,1,0,-1,-2,-1,13.59
2719,-1,-1,-2,-3,-2,0,0,-1,13.595
2720,-2,-1,-2,0,0,-1,-1,-2,13.6
2721,-1,0,0,-1,0,-2,0,-2,13.605
2722,0,-3,-1,-2,-2,-1,-2,0,13.61
2723,-1,-2,-3,-1,-1,0,-2,0,13.615
2724,0,-1,-3,-2,-1,1,-1,1,13.620000000000001
2725,0,-2,0,0,0,-1,-1,-1,13.625
2726,-1,0,0,0,0,-1,0,-1,13.63
2727,0,0,2,-1,-1,-1,-2,-1,13.635
2728,0,-1,1,0,-1,0,-1,0,13.64
2729,-1,-1,-2,-1,0,1,-1,-2,13.645
2730,-1,1,2,-1,-1,0,-2,-1,13.65
2731,0,1,0,-1,-2,-1,-1,-1,13.655000000000001
2732,-1,-1,-4,0,1,0,0,-2,13.66
2733,-1,-1,-3,-2,-2,0,1,0,13.665000000000001
2734,-2,-1,-2,-2,-1,-1,-2,1,13.67
2735,-1,0,0,-1,0,-1,-1,-2,13.675
2736,0,-2,-3,-1,-2,-1,-1,0,13.68
2737,-1,0,0,1,0,-2,-1,0,13.685
2738,-1,-1,0,-1,-1,0,0,-1,13.69
2739,-1,0,-3,0,-2,-2,0,-1,13.695
2740,0,-1,-1,-2,-1,-2,-1,-2,13.700000000000001
2741,0,-2,0,-1,-1,-2,-1,0,13.705
2742,0,0,1,-3,-2,-2,1,-1,13.71
2743,0,-2,-1,1,0,-1,-2,-1,13.715
2744,0,1,0,2,-1,-1,1,0,13.72
2745,-1,-1,-3,-4,-3,-3,1,-1,13.725
2746,-2,-2,-1,0,-1,-1,-2,0,13.73
2747,-2,0,1,-1,0,-2,-2,-1,13.735
2748,-1,-1,0,-1,-1,-2,-1,-2,13.74
2749,-2,-1,0,-1,-3,-1,-1,-1,13.745000000000001
2750,0,0,-3,0,-1,0,-1,-2,13.75
2751,-1,0,-1,-1,-2,-1,0,-1,13.755
2752,0,-1,0,0,0,0,-1,-1,13.76
2753,-1,-1,0,0,-1,1,-2,-1,13.765
2754,-1,-3,-2,0,-1,-1,0,0,13.77
2755,-2,0,-1,-2,-1,0,-2,0,13.775
2756,-1,0,-1,0,0,-1,-2,1,13.780000000000001
2757,0,1,2,0,1,-1,-1,0,13.785
2758,1,-2,-3,-3,-1,0,0,0,13.790000000000001
2759,-1,-3,-2,1,0,-2,1,0,13.795
2760,0,-2,0,-2,-2,-1,1,0,13.8
2761,1,-1,-1,0,-1,-2,-2,1,13.805
2762,-3,1,0,1,0,1,-1,-1,13.81
2763,0,0,0,0,0,0,0,-2,13.815
2764,-1,-1,-2,0,1,0,0,0,13.82
2765,0,-2,-2,-1,0,0,0,0,13.825000000000001
2766,1,1,-1,0,-3,-1,0,-1,13.83
2767,-1,0,0,-2,-1,0,0,0,13.835
2768,-1,-2,0,-2,0,-1,-1,0,13.84
2769,-2,-1,0,0,-2,-1,1,0,13.845
2770,0,-2,-1,-1,-1,-3,0,0,13.85
2771,-2,-2,-1,1,0,-1,-1,0,13.855
2772,-2,-1,3,0,0,-1,-1,-2,13.86
2773,-1,-2,-4,-3,-3,-1,-1,0,13.865
2774,-1,-2,0,-2,-1,-1,1,0,13.870000000000001
2775,-1,0,0,0,-2,0,0,0,13.875
2776,2,0,0,2,0,0,0,-1,13.88
2777,-1,0,-1,0,-2,-1,-1,0,13.885
2778,-1,0,-1,-1,0,0,-1,-1,13.89
2779,-1,-1,0,-1,-2,-2,-2,0,13.895
2780,-1,1,-3,-2,0,0,-1,0,13.9
2781,0,0,-1,0,-3,-1,-1,-1,13.905000000000001
2782,-1,-2,-3,-1,0,-1,0,-1,13.91
2783,-1,-1,0,-1,0,1,0,-2,13.915000000000001
2784,-1,-2,-1,-1,-1,-1,-1,-2,13.92
2785,0,-2,-1,1,1,1,-1,-1,13.925
2786,-2,-1,-1,1,0,-1,-2,-1,13.93
2787,-2,-1,1,1,-2,-1,1,0,13.935
2788,-1,0,1,1,0,1,-2,0,13.94
2789,0,-1,1,-3,-1,-2,1,-3,13.945
2790,0,-1,-1,-1,-2,1,-1,0,13.950000000000001
2791,-1,0,-1,0,1,0,-1,-1,13.955
2792,-1,1,0,-1,-1,-2,-2,0,13.96
2793,0,1,-1,-1,0,0,-1,-2,13.965
2794,-1,-1,-1,0,1,0,-1,0,13.97
2795,0,-1,0,-1,0,-3,0,0,13.975
2796,-1,-3,-2,-5,-3,-1,-2,-2,13.98
2797,0,0,-1,1,2,0,-3,2,13.985
2798,0,-1,1,0,-2,0,-1,-1,13.99
2799,-1,1,-3,-2,-2,0,-2,0,13.995000000000001
2800,-1,-2,-3,0,0,-2,0,-1,14.0
2801,0,-2,0,-2,-1,-1,-1,-1,14.005
2802,0,-2,0,-3,-1,-1,-1,1,14.01
2803,-1,-1,-2,-1,0,1,0,0,14.015
2804,-2,-1,0,-2,-2,0,-1,1,14.02
2805,-2,-2,-1,0,-2,0,0,-2,14.025
2806,-2,-1,-1,0,-1,-1,0,-1,14.030000000000001
2807,0,0,0,-2,-4,-1,-1,-1,14.035
2808,0,0,-1,1,0,0,-1,-2,14.040000000000001
2809,-2,0,1,0,-1,-1,-2,-1,14.045
2810,-2,-1,-1,-2,-1,0,-2,-2,14.05
2811,-2,-1,-2,0,-1,-1,0,-2,14.055
2812,-2,-1,-3,-2,-1,0,-1,-1,14.06
2813,0,0,0,-1,0,0,-1,-1,14.065
2814,1,0,-1,-1,-1,-2,1,-1,14.07
2815,0,-1,0,-3,1,-2,-2,-1,14.075000000000001
2816,0,-1,-2,-2,-2,1,0,-1,14.08
2817,-1,1,-1,1,1,-1,1,0,14.085
2818,-1,-2,-2,-1,-2,-1,-1,0,14.09
2819,-2,-1,-1,-2,1,0,-1,-2,14.095
2820,0,-3,2,-1,-2,-2,-1,-2,14.1
2821,-1,-2,-2,0,0,0,-1,-1,14.105
2822,0,1,-1,0,-1,-1,-2,-2,14.11
2823,-1,-1,1,2,0,-2,-1,-1,14.115
2824,-1,0,-1,-2,-1,-1,0,-1,14.120000000000001
2825,-1,-3,-5,0,0,-2,-1,0,14.125
2826,-2,-1,2,0,1,-2,1,0,14.13
2827,-1,-2,-4,-3,-2,1,-2,-2,14.135
2828,0,-1,-2,-1,1,-2,0,-1,14.14
2829,0,0,0,-1,-2,-2,0,-2,14.145
2830,0,0,-1,0,0,0,0,-2,14.15
2831,-3,-1,1,-1,0,0,-1,-1,14.155000000000001
2832,-2,0,-1,0,-1,0,0,-2,14.16
2833,-1,-1,-1,-2,-3,-1,-1,-1,14.165000000000001
2834,0,-3,-1,-2,-1,-2,-1,-1,14.17
2835,0,-1,0,1,1,1,0,-1,14.175
2836,0,0,1,1,-4,-3,0,0,14.18
2837,-2,0,0,-1,0,0,0,-1,14.185
2838,-1,-1,-2,-2,-1,-1,-1,-1,14.19
2839,0,-1,0,-1,-1,-2,0,1,14.195
2840,-3,-1,-1,0,0,-1,-2,0,14.200000000000001
2841,0,-1,-1,-2,-1,0,1,0,14.205
2842,0,-1,-2,1,-1,-1,-1,-1,14.21
2843,-1,-1,-1,-1,-2,0,-1,-1,14.215
2844,0,-2,-1,-2,-1,-1,0,-1,14.22
2845,0,-2,3,-2,0,0,-1,-1,14.225
2846,0,0,-3,0,-1,0,-2,-2,14.23
2847,0,-1,-1,-1,-1,-3,-1,0,14.235
2848,-1,1,-1,0,1,0,1,-1,14.24
2849,-2,1,0,0,0,0,-2,0,14.245000000000001
2850,-1,-2,-1,-1,-2,-1,0,0,14.25
2851,-2,-2,-1,1,-1,0,0,0,14.255
2852,0,-1,-5,-1,-1,-1,0,-1,14.26
2853,-1,-2,-3,0,-2,-1,0,-2,14.265
2854,-1,-1,0,-2,0,1,-1,-1,14.27
2855,-1,0,-2,-1,-2,0,0,-1,14.275
2856,-1,0,0,-1,-1,1,-2,0,14.280000000000001
2857,-1,-1,-1,1,-1,-1,-1,-2,14.285
2858,-1,-1,0,1,1,-1,0,0,14.290000000000001
2859,0,-1,-1,0,0,-1,0,-1,14.295
2860,-1,-1,1,0,-2,-2,-1,0,14.3
2861,-1,-1,-4,-2,0,0,-1,1,14.305
2862,-3,-2,0,-3,-2,0,-1,0,14.31
2863,-1,0,0,-2,-1,-2,-1,-1,14.315
2864,0,-2,-1,1,-3,0,-2,-2,14.32
2865,1,-1,-1,-1,-1,-1,-1,-1,14.325000000000001
2866,0,-1,-6,-1,-2,0,-1,-1,14.33
2867,2,-1,-2,-1,-2,0,-1,0,14.335
2868,1,1,2,-1,0,-1,0,-1,14.34
2869,-2,0,2,0,-2,-1,1,0,14.345
2870,0,1,1,-1,-1,0,-1,-1,14.35
2871,-1,0,4,0,1,2,-1,-1,14.355
2872,-1,-3,-5,-3,-1,-3,-1,1,14.36
2873,0,-1,-2,-2,-2,0,-1,-1,14.365
2874,-1,0,3,-2,-2,0,0,-1,14.370000000000001
2875,-1,0,1,-1,-2,0,-1,0,14.375
2876,0,-1,0,2,1,0,0,-1,14.38
2877,-1,-1,-2,-2,-2,-1,-1,1,14.385
2878,1,0,-2,0,-2,-2,0,-1,14.39
2879,-1,-2,-3,0,-1,0,-2,-1,14.395
2880,-1,-2,1,0,-2,1,-1,0,14.4
2881,-1,0,-1,-3,-1,-1,-2,-2,14.405000000000001
2882,-1,0,0,0,0,-1,0,1,14.41
2883,-1,-1,0,-1,-2,-3,-1,0,14.415000000000001
2884,-1,-1,-2,-1,1,0,-2,-1,14.42
2885,0,-1,-1,0,-2,-2,1,0,14.425
2886,0,1,-2,0,0,1,0,0,14.43
2887,0,-1,-1,-2,-2,-2,1,-1,14.435
2888,-2,0,0,1,0,0,0,-1,14.44
2889,-1,0,0,1,0,-1,-2,-1,14.445
2890,-2,-1,0,-1,0,0,-1,-2,14.450000000000001
2891,-1,-1,-3,0,-2,-1,0,-1,14.455
2892,0,-2,2,0,0,-1,0,0,14.46
2893,-1,0,0,-2,0,0,1,-3,14.465
2894,-2,-1,2,2,0,-3,0,-1,14.47
2895,-1,-1,-1,-1,2,0,-2,-2,14.475
2896,0,0,1,-2,-1,-1,-2,0,14.48
2897,-1,-2,-3,-2,-2,0,-2,-2,14.485
2898,0,-1,-2,0,0,-1,0,0,14.49
2899,-2,-2,-3,-2,-1,-1,0,-2,14.495000000000001
2900,-1,0,-2,-1,-1,-2,0,-2,14.5
2901,0,1,2,1,1,-1,-1,-1,14.505
2902,0,-1,-2,-1,-3,0,-1,0,14.51
2903,-2,-1,-2,-3,0,-2,0,1,14.515
2904,-2,-2,-4,0,-3,-1,0,-2,14.52
2905,-1,-1,-3,-1,-1,-1,1,-2,14.525
2906,-1,-3,-1,-1,-2,-2,-2,-1,14.530000000000001
2907,-1,1,0,0,-2,0,-1,0,14.535
2908,-1,0,1,1,-2,-1,-1,0,14.540000000000001
2909,0,-3,-2,0,1,0,-2,-1,14.545
2910,-1,-1,-3,0,0,0,-2,-1,14.55
2911,0,-2,0,-1,-1,0,-1,-1,14.555
2912,0,-1,-4,-2,1,1,0,-1,14.56
2913,0,0,2,-1,-1,-1,-1,0,14.565
2914,0,-2,-2,0,0,-1,-1,0,14.57
2915,-1,1,2,0,-2,0,-1,-1,14.575000000000001
2916,-1,-3,-2,-2,-3,-4,-2,-1,14.58
2917,-1,-2,0,-1,0,-1,-2,-2,14.585
2918,-1,-3,-3,-3,0,0,-2,0,14.59
2919,-1,0,-1,-2,0,0,0,-1,14.595
2920,0,0,-1,-1,1,0,2,0,14.6
2921,-2,0,2,-1,0,-3,0,-1,14.605
2922,0,0,1,-1,-2,0,-1,0,14.61
2923,1,-2,-2,-1,0,-2,-2,0,14.615
2924,-2,-1,1,-1,0,0,0,-2,14.620000000000001
2925,0,-1,-2,-1,-1,-1,0,1,14.625
2926,0,0,-4,0,1,2,1,0,14.63
2927,-1,-1,-3,1,-2,-1,-1,-1,14.635
2928,-1,-1,0,-2,0,1,0,-1,14.64
2929,0,-2,0,-1,-1,-1,-2,0,14.645
2930,0,-1,0,-2,-2,0,-1,-1,14.65
2931,-1,0,-1,-3,-1,-1,0,1,14.655000000000001
2932,-1,-2,1,-1,1,-1,-1,-1,14.66
2933,-1,0,-1,0,-1,-1,-1,0,14.665000000000001
2934,-2,0,-1,-1,1,-2,-2,0,14.67
2935,-1,-1,0,-2,-2,-3,-1,-1,14.675
2936,0,1,1,0,1,-1,0,-1,14.68
2937,-1,0,-2,-1,-3,1,1,1,14.685
2938,1,0,-2,-2,1,-1,-1,-2,14.69
2939,-1,-1,0,2,-2,0,-1,-2,14.695
2940,-1,-2,-3,-2,-1,-1,-2,-1,14.700000000000001
2941,-2,-1,-1,0,0,-1,-1,-1,14.705
2942,0,1,3,-1,0,0,-1,-2,14.71
2943,-2,-3,-1,-1,0,0,-1,1,14.715
2944,0,0,-1,-1,-1,-1,0,-1,14.72
2945,0,0,-1,1,0,0,0,-1,14.725
2946,-2,0,0,0,-1,-2,1,1,14.73
2947,-1,-2,-3,0,0,0,0,0,14.735
2948,0,0,0,1,-2,-1,-2,0,14.74
2949,1,-1,-3,-1,-1,1,-1,-1,14.745000000000001
2950,-3,-1,1,1,-2,-1,-2,-2,14.75
2951,-1,0,0,-2,0,0,0,0,14.755
2952,1,-1,-2,-1,-1,-1,-2,-2,14.76
2953,-2,-1,-1,-2,1,-1,0,-1,14.765
2954,0,-1,0,0,-2,-1,0,-1,14.77
2955,-1,-1,1,1,0,0,0,-1,14.775
2956,-2,-2,-4,-2,-4,0,-2,-2,14.780000000000001
2957,-1,-1,-1,-1,-1,-2,0,-1,14.785
2958,-1,-1,-1,-1,-2,-1,0,-2,14.790000000000001
2959,-1,0,-2,-1,-2,-1,-1,-1,14.795
2960,-2,-1,-1,0,-1,-2,-1,0,14.8
2961,-1,-1,1,-1,0,0,0,0,14.805
2962,-1,-3,-2,-2,-1,-1,-1,-1,14.81
2963,-1,-1,-3,-1,0,0,0,-1,14.815
2964,0,-1,-1,0,0,-1,-1,0,14.82
2965,-1,-2,-2,-1,-3,-1,0,0,14.825000000000001
2966,0,-2,-2,1,-1,0,-1,0,14.83
2967,0,-2,0,-1,0,0,0,-2,14.835
2968,-1,-2,-4,-2,0,1,0,0,14.84
2969,-2,-1,-2,-2,-3,-1,-2,-1,14.845
2970,2,1,2,-2,-1,0,-1,-1,14.85
2971,0,-1,-2,-1,-1,-2,0,-1,14.855
2972,-2,0,1,-1,-1,0,0,-1,14.86
2973,-1,0,0,2,-1,-1,0,0,14.865
2974,-1,-1,-2,0,0,-1,0,0,14.870000000000001
2975,-1,0,0,-1,0,-1,-2,0,14.875
2976,1,1,-1,1,-2,-1,-1,1,14.88
2977,-2,-2,0,1,1,1,-1,-1,14.885
2978,-1,-1,-1,-3,-2,-1,0,-2,14.89
2979,-2,0,-3,-1,-2,-2,0,-2,14.895
2980,-1,0,-1,-2,0,-1,0,-1,14.9
2981,0,-2,-3,-2,-1,-2,-1,-2,14.905000000000001
2982,-1,-1,-1,-1,-1,-1,-1,-1,14.91
2983,0,0,1,1,-1,1,-1,-2,14.915000000000001
2984,-1,-1,-1,-1,-1,-1,0,-2,14.92
2985,0,-1,-1,-2,0,1,-1,0,14.925
2986,-1,-3,0,-1,-2,0,-1,-1,14.93
2987,1,-3,-1,0,0,-1,-1,0,14.935
2988,-2,-1,2,1,-2,-1,-1,0,14.94
2989,-2,-1,-1,0,-2,-2,-1,1,14.945
2990,-1,0,1,1,-2,-2,0,-1,14.950000000000001
2991,-1,-3,-4,-3,-1,-1,0,0,14.955
2992,0,0,2,0,-1,-1,-1,-1,14.96
2993,0,-2,1,-1,0,-2,-1,0,14.965
2994,0,-1,2,1,0,1,1,-2,14.97
2995,0,-1,-2,-1,-2,-1,-2,-1,14.975
2996,-2,-1,1,-1,-2,0,-1,1,14.98
2997,-1,0,-1,-1,-1,-2,-1,-2,14.985
2998,-2,1,-1,-1,0,-1,-2,0,14.99
2999,-2,1,-1,0,0,-1,0,-1,14.995000000000001
3000,0,-1,-3,-1,-2,-3,1,1,15.0
3001,1,1,2,0,2,-1,1,-1,15.005
3002,-2,-2,-3,-1,-3,-1,1,-1,15.01
3003,1,1,-2,0,0,1,-1,-1,15.015
3004,-2,-1,-1,2,0,1,0,0,15.02
3005,-1,-2,-1,0,-2,1,-1,0,15.025
3006,0,-2,-2,-1,-1,-1,-1,-2,15.030000000000001
3007,1,0,5,0,-1,-1,-1,-1,15.035
3008,-1,0,-1,-1,-1,0,-2,-2,15.040000000000001
3009,-1,-2,-2,-3,-1,0,-4,0,15.045
3010,0,-1,-2,-1,2,1,1,-1,15.05
3011,-1,-3,-6,-3,-2,-2,1,0,15.055
3012,-1,0,-2,0,0,-1,-1,-4,15.06
3013,-2,0,0,-2,-1,-2,-1,-1,15.065
3014,-1,-2,-1,-2,-2,-1,-2,0,15.07
3015,0,0,1,-2,-1,-1,-2,-1,15.075000000000001
3016,-2,-1,1,-2,-1,-1,1,-1,15.08
3017,-1,-2,-1,1,-1,-1,-1,-2,15.085
3018,-2,-2,-2,-1,-2,0,0,0,15.09
3019,-1,-2,0,0,-1,-1,1,1,15.095
3020,1,-2,-2,0,-1,0,-1,-1,15.1
3021,-1,-2,-1,0,1,-1,0,-1,15.105
3022,0,-1,-2,-1,-3,-2,-2,-1,15.11
3023,-3,0,0,0,-2,-1,-1,-1,15.115
3024,-2,-2,0,-1,-2,-1,-2,0,15.120000000000001
3025,0,-2,-1,-1,-1,-1,-1,-1,15.125
3026,-1,-2,-5,0,1,-1,-1,0,15.13
3027,-2,-2,-1,-1,0,0,-1,0,15.135
3028,-2,-1,0,0,-1,-2,0,-1,15.14
3029,-1,-1,-1,-1,-2,0,-1,-2,15.145
3030,0,-1,0,0,1,-1,0,0,15.15
3031,-1,1,1,-1,-1,-1,-2,-2,15.155000000000001
3032,-3,-1,0,-2,-2,0,-1,-1,15.16
3033,-1,0,-1,-1,-1,0,0,-2,15.165000000000001
3034,-1,-1,1,-1,-1,-2,-2,-1,15.17
3035,-1,0,-3,-1,0,-1,-1,1,15.175
3036,0,-1,-2,-1,0,-1,-1,1,15.18
3037,0,-1,0,-1,-1,-3,1,-1,15.185
3038,-2,0,0,-1,-2,-2,0,-2,15.19
3039,0,-1,1,-2,0,-1,-1,-2,15.195
3040,1,-1,0,0,-1,-1,-1,-1,15.200000000000001
3041,0,0,-2,0,-1,0,-1,0,15.205
3042,0,0,0,-1,-1,-2,-2,1,15.21
3043,-1,-1,1,2,-1,0,0,-1,15.215
3044,-1,0,-1,-1,-1,-1,0,-1,15.22
3045,0,0,1,-2,-2,-1,-2,-3,15.225
3046,0,-1,0,-1,0,-1,-1,0,15.23
3047,-1,-1,0,1,0,0,0,0,15.235
3048,0,-2,-4,-3,-3,-1,-1,-1,15.24
3049,-1,-1,-2,0,0,0,0,-2,15.245000000000001
3050,0,0,0,-1,-2,1,-1,-1,15.25
3051,-1,-2,0,0,-2,-1,-1,-1,15.255
3052,-1,1,0,-1,1,-2,0,-1,15.26
3053,-2,-1,-3,1,-1,-1,-1,0,15.265
3054,-1,1,-2,-1,0,0,-1,-2,15.27
3055,0,0,0,-1,-2,0,-1,-1,15.275
3056,2,1,2,-1,-1,3,1,1,15.280000000000001
3057,-1,-2,-1,-1,-2,-1,0,2,15.285
3058,-1,-2,-1,0,-1,0,0,0,15.290000000000001
3059,-2,0,1,-1,-1,-2,-2,-1,15.295
3060,-1,-2,0,-1,-1,0,0,-2,15.3
3061,-1,0,1,0,0,-2,0,-1,15.305
3062,-1,-1,-1,-1,0,-1,-1,-1,15.31
3063,-1,-4,-5,-1,-1,0,-1,0,15.315
3064,0,-2,-3,0,-1,-1,-2,-1,15.32
3065,0,0,-1,0,0,-2,-1,0,15.325000000000001
3066,-2,-1,-1,-2,1,-1,0,0,15.33
3067,0,0,0,-2,0,-1,-1,-1,15.335
3068,-1,-2,-3,-1,0,1,-1,-2,15.34
3069,0,-1,-1,0,-1,1,1,-2,15.345
3070,-1,0,-1,0,0,-1,-2,0,15.35
3071,-1,0,2,-1,0,-1,-1,-1,15.355
3072,-1,-2,-2,-2,-2,-1,-2,0,15.36
3073,-2,0,-2,1,1,-1,-2,-1,15.365
3074,1,-1,-1,-1,0,1,1,-1,15.370000000000001
3075,-1,1,0,0,-2,0,0,-1,15.375
3076,-2,-1,2,1,-1,-3,-1,-2,15.38
3077,0,-1,1,-2,-1,-1,-1,-1,15.385
3078,-1,1,1,1,1,-1,-1,-2,15.39
3079,0,-2,-4,-3,-3,-2,0,0,15.395
3080,-1,1,2,1,0,-2,-2,0,15.4
3081,-2,-1,-3,-3,-2,0,-1,0,15.405000000000001
3082,-1,0,-3,-1,-1,-1,0,-2,15.41
3083,-1,-1,-3,0,0,1,1,0,15.415000000000001
3084,-1,-1,-3,2,-1,0,-1,-1,15.42
3085,-1,-2,0,0,0,-1,-2,-2,15.425
3086,0,0,0,0,0,-1,-2,0,15.43
3087,-1,-1,-2,1,-2,-1,0,-1,15.435
3088,0,-1,-2,1,-1,-1,-1,1,15.44
3089,0,-1,1,0,-1,0,-2,0,15.445
3090,-1,-1,0,1,-4,-2,-1,0,15.450000000000001
3091,0,1,1,-1,-2,0,-2,-1,15.455
3092,-2,-1,1,-1,1,-1,-2,-2,15.46
3093,-1,-1,-2,0,-1,0,-1,-2,15.465
3094,0,-2,-1,0,-1,-2,0,-1,15.47
3095,-1,1,0,-1,-1,-1,-1,-2,15.475
3096,-1,0,0,-3,-2,0,-1,0,15.48
3097,-1,1,-1,-2,0,0,-1,-1,15.485000000000001
3098,-1,-1,0,-2,-2,-1,-1,-1,15.49
3099,-2,-1,-2,0,-2,0,0,0,15.495000000000001
3100,0,-2,-2,-4,-3,0,0,0,15.5
3101,-1,-2,-1,-1,2,-1,0,-1,15.505
3102,-2,0,0,-1,-2,-1,0,1,15.51
3103,0,-2,-4,-2,-1,-1,-2,0,15.515
3104,-1,-1,0,-1,-1,0,-1,-2,15.52
3105,1,0,3,0,-1,0,-1,0,15.525
3106,-1,-2,-4,0,-2,0,-1,0,15.530000000000001
3107,-1,1,0,0,1,0,-2,-1,15.535
3108,-1,-1,-3,0,0,0,0,-1,15.540000000000001
3109,-2,-2,-1,0,-3,-2,-2,-1,15.545
3110,0,-1,-2,-1,0,2,-1,0,15.55
3111,-1,-4,-3,-2,-1,-1,-1,0,15.555
3112,-2,-1,-1,-3,0,-1,-1,-1,15.56
3113,-1,-1,-1,-1,-3,-3,-1,0,15.565
3114,-1,1,-2,0,0,0,-2,0,15.57
3115,-1,-2,-1,0,0,-1,-1,0,15.575000000000001
3116,0,1,1,1,-1,-2,0,-2,15.58
3117,0,-1,-3,-1,-2,-1,0,-1,15.585
3118,-1,0,1,0,-1,-1,-1,-1,15.59
3119,0,0,4,0,0,0,0,-1,15.595
3120,0,-1,1,1,0,-2,0,-1,15.6
3121,-1,-1,-1,0,0,0,-1,-2,15.605
3122,1,-2,1,-1,0,0,-1,-1,15.610000000000001
3123,-1,0,-1,-1,-1,-4,0,0,15.615
3124,0,-1,-1,0,-1,0,0,0,15.620000000000001
3125,0,1,-2,0,0,-1,0,-1,15.625
3126,0,-1,-1,-2,-2,-1,0,-1,15.63
3127,1,-2,-1,-1,1,1,-1,-1,15.635
3128,0,-2,0,-1,0,0,0,1,15.64
3129,0,0,2,-1,-1,0,-1,0,15.645
3130,-1,0,0,0,0,2,-1,-1,15.65
3131,-1,0,-2,-2,-3,-2,0,0,15.655000000000001
3132,0,-1,-3,-2,0,1,-1,0,15.66
3133,-3,0,0,-2,1,2,0,-1,15.665000000000001
3134,0,-2,-5,-1,-1,-2,0,1,15.67
3135,-2,-3,-1,-1,-1,-1,-1,0,15.675
3136,-3,-1,-1,0,0,-1,-1,0,15.68
3137,-1,-1,-1,0,0,2,-1,0,15.685
3138,-1,-1,0,0,-1,-1,0,-3,15.69
3139,0,0,0,0,0,-1,0,-1,15.695
3140,-1,1,0,-1,0,-2,1,0,15.700000000000001
3141,-1,1,0,0,-1,-1,1,1,15.705
3142,0,0,0,-1,0,1,-2,-1,15.71
3143,0,0,-1,0,-2,-2,-1,-1,15.715
3144,1,0,0,-1,0,0,-2,-1,15.72
3145,0,-2,-2,-3,-2,-3,-1,0,15.725
3146,-3,1,1,0,1,-1,-1,-2,15.73
3147,-2,0,0,0,-2,1,-1,-1,15.735000000000001
3148,0,-1,-3,-1,-1,-2,-1,0,15.74
3149,1,0,-3,0,-2,-2,-1,-1,15.745000000000001
3150,2,0,0,-1,-3,-2,0,1,15.75
3151,-1,-1,0,-1,0,1,-1,-1,15.755
3152,-3,-1,-1,-2,-2,-1,-1,0,15.76
3153,0,1,3,0,1,-1,-1,-2,15.765
3154,-2,-2,-1,-1,-2,-1,-1,-1,15.77
3155,0,0,2,-1,2,-1,0,-3,15.775
3156,-1,-1,-1,-2,-3,-1,-2,0,15.780000000000001
3157,-3,-3,-2,-3,0,0,0,0,15.785
3158,0,-1,-2,-2,-1,-1,0,-2,15.790000000000001
3159,1,-2,-1,1,-1,-1,-1,0,15.795
3160,-1,-1,-2,0,-1,-1,-1,-1,15.8
3161,-2,-1,-1,-1,-2,-2,-1,-1,15.805
3162,-2,-2,2,-1,0,-1,-1,-1,15.81
3163,0,-1,-6,-3,-1,-2,-1,0,15.815
3164,-1,1,-1,-1,0,1,-2,-2,15.82
3165,-2,0,0,-2,-2,2,-2,-2,15.825000000000001
3166,-1,-1,-3,-1,1,0,0,0,15.83
3167,-1,0,-2,0,-1,0,0,0,15.835
3168,-1,-1,0,0,0,0,1,0,15.84
3169,1,0,1,0,-1,-1,-1,0,15.845
3170,0,-1,2,-1,-2,-1,-1,-2,15.85
3171,0,0,4,-1,-1,1,-1,0,15.855
3172,2,-1,-2,-3,-3,-3,1,-1,15.860000000000001
3173,0,-1,0,0,1,-1,-2,0,15.865
3174,-1,1,-1,-2,-3,0,0,0,15.870000000000001
3175,-2,-2,0,-2,0,0,-1,0,15.875
3176,-1,0,1,0,-3,-1,-2,-2,15.88
3177,-2,-1,-3,-3,-1,-1,-1,-2,15.885
3178,-2,-2,-2,-1,0,0,-3,0,15.89
3179,-1,-1,-1,-1,-1,-1,-1,-1,15.895
3180,-2,-2,-1,1,-1,0,-1,-1,15.9
3181,0,-2,-2,-1,2,-1,0,0,15.905000000000001
3182,-1,0,0,1,1,0,-1,1,15.91
3183,0,1,-3,-2,-1,-1,-2,0,15.915000000000001
3184,-1,0,-1,-1,-1,-1,-2,1,15.92
3185,0,0,-2,0,-1,-1,1,0,15.925
3186,-1,1,1,-1,-1,-2,0,-1,15.93
3187,-1,0,-1,-1,-1,0,0,-2,15.935
3188,2,0,0,-1,0,-1,0,-1,15.94
3189,-1,0,-1,1,-1,1,0,-1,15.945
3190,-2,0,-3,-4,-4,-1,-1,-2,15.950000000000001
3191,-1,-1,-1,0,-1,-3,1,-2,15.955
3192,-2,-1,-1,-1,-1,-1,-1,-1,15.96
3193,0,0,-1,0,-1,-1,0,1,15.965
3194,-2,-1,-1,-1,-1,0,-2,-2,15.97
3195,-1,1,2,1,-1,0,-2,0,15.975
3196,-1,-2,-4,-3,-2,1,0,-1,15.98
3197,0,0,0,-2,-1,0,-1,-1,15.985000000000001
3198,0,-1,0,0,1,-1,0,-1,15.99
3199,0,-1,-1,-1,0,-1,-2,-2,15.995000000000001
3200,1,-1,1,-2,-1,-1,-2,-2,16.0
3201,-2,-1,-1,-1,-3,-1,0,-1,16.005
3202,-1,-1,-2,-1,-1,0,0,1,16.01
3203,-2,-2,0,0,-1,1,0,-2,16.015
3204,0,-1,-1,1,0,-2,-1,-1,16.02
3205,-2,1,1,-1,0,-2,-1,-2,16.025
3206,-1,-3,-3,-3,-4,-3,-1,-1,16.03
3207,-1,0,-4,-1,0,-1,-1,0,16.035
3208,0,1,-1,1,-1,-1,-1,0,16.04
3209,0,-2,1,-2,1,0,0,0,16.045
3210,-1,0,1,0,2,-1,-2,-1,16.05
3211,-1,-1,-3,0,-1,-1,0,0,16.055
3212,-2,-2,1,-2,0,0,1,1,16.06
3213,-1,0,-1,-1,-2,-2,-1,0,16.065
3214,0,-2,-1,0,-1,-1,-1,0,16.07
3215,0,-1,0,-2,0,1,-1,0,16.075
3216,-1,0,-1,-1,-1,-1,1,-1,16.080000000000002
3217,0,-1,2,-1,-1,0,-1,-2,16.085
3218,-1,0,-4,-1,-1,-1,-2,1,16.09
3219,-1,-1,0,-3,0,-2,-2,-2,16.095
3220,0,-1,1,0,0,-2,-2,1,16.1
3221,-1,-1,-3,5,0,-1,-2,-1,16.105
3222,1,-2,-1,-10,-1,-1,0,0,16.11
3223,1,0,1,2,-3,-2,-1,1,16.115000000000002
3224,-3,-3,-4,-23,-6,-1,-1,-3,16.12
3225,-2,1,-1,-9,-5,-1,0,0,16.125
3226,1,1,5,34,13,3,0,-1,16.13
3227,1,-1,-1,-3,-4,-2,-1,0,16.135
3228,-3,0,0,-31,3,3,-1,-2,16.14
3229,-3,-4,-8,-36,-8,-7,-3,-2,16.145
3230,0,-1,1,26,7,2,2,3,16.15
3231,-1,-1,2,-9,-6,-1,0,1,16.155
3232,-3,1,0,35,8,4,0,0,16.16
3233,-4,-4,-3,1,-1,0,-2,-1,16.165
3234,0,-11,-3,-2,2,-2,-3,7,16.17
3235,5,19,4,11,2,-2,-3,-3,16.175
3236,-29,-13,2,1,-2,-3,-12,-16,16.18
3237,22,46,1,-2,-1,1,24,-3,16.185
3238,0,-18,3,7,-6,-4,-30,-11,16.19
3239,-2,-11,0,31,2,3,44,25,16.195
3240,-2,-2,-5,-53,-20,-6,-1,3,16.2
3241,-9,-31,0,13,2,2,2,1,16.205000000000002
3242,-7,5,0,-19,-5,-3,-7,-11,16.21
3243,-6,12,0,-2,3,-5,-22,-11,16.215
3244,12,10,5,13,2,-1,-1,0,16.22
3245,-8,-15,4,10,0,0,-8,-5,16.225
3246,7,6,-4,27,6,0,10,6,16.23
3247,-11,-8,-7,-65,-20,-4,-9,1,16.235
3248,15,6,1,28,6,-2,5,12,16.240000000000002
3249,3,-4,-1,-19,-10,-6,-9,-3,16.245
3250,-11,3,3,12,2,4,5,-7,16.25
3251,3,-2,-6,1,1,-2,-4,-11,16.255
3252,7,-2,-7,6,6,1,1,5,16.26
3253,-12,2,-2,12,5,2,0,8,16.265
3254,14,7,3,29,6,-1,3,-6,16.27
3255,-4,-8,-1,-34,-17,-3,-5,-2,16.275
3256,4,4,3,-7,-6,-1,-1,0,16.28
3257,-15,-7,0,28,8,0,-4,-1,16.285
3258,-8,-12,-9,-55,-11,-3,6,4,16.29
3259,-10,17,-4,25,7,0,-9,-13,16.295
3260,28,-5,4,4,0,0,0,5,16.3
3261,1,-3,-4,20,5,2,4,-3,16.305
3262,-3,-2,0,-69,-24,-4,-5,-3,16.31
3263,-8,-12,3,16,8,-2,-12,-1,16.315
3264,-4,7,-4,-12,-7,1,9,-1,16.32
3265,12,10,4,7,2,-1,-3,-2,16.325
3266,-13,-20,0,38,9,1,1,-2,16.330000000000002
3267,10,-1,-4,-8,3,0,2,0,16.335
3268,4,2,2,12,-4,-4,-5,-2,16.34
3269,2,-7,-1,-22,-12,-1,-2,5,16.345
3270,-2,5,-3,-50,-12,-4,2,2,16.35
3271,8,9,-3,-1,-1,1,1,2,16.355
3272,4,9,-1,45,17,5,2,8,16.36
3273,-3,-6,9,-22,-19,-5,2,15,16.365000000000002
3274,17,33,-9,0,4,0,-5,-12,16.37
3275,-19,-29,4,17,-5,-3,-9,-11,16.375
3276,2,1,2,-57,-20,-5,5,-10,16.38
3277,-1,8,-9,13,9,3,-2,1,16.385
3278,12,5,-1,-24,-9,-3,5,15,16.39
3279,-18,-3,8,63,25,5,7,3,16.395
3280,-9,-3,2,10,-3,1,-2,4,16.4
3281,8,-10,-6,-59,-14,-8,-7,-1,16.405
3282,-9,-8,-5,33,7,3,6,-5,16.41
3283,6,3,-3,-68,-18,-7,-6,-7,16.415
3284,-1,-1,-3,13,9,4,0,1,16.42
3285,-2,-2,-4,-5,5,0,-5,-9,16.425
3286,-3,-3,0,55,2,-4,-8,-2,16.43
3287,-10,-8,-1,19,5,4,9,0,16.435
3288,-6,-5,-1,-44,-14,-8,-8,-5,16.44
3289,23,29,7,24,-2,2,0,1,16.445
3290,-19,10,-13,26,8,-2,-12,-3,16.45
3291,1,-24,-3,-11,-9,1,20,10,16.455000000000002
3292,-5,-13,1,28,0,1,0,7,16.46
3293,-22,-14,-4,114,28,9,0,-30,16.465
3294,17,19,1,-100,-18,-9,-15,-31,16.47
3295,7,-20,5,82,28,10,-4,8,16.475
3296,-12,-14,-9,-40,-25,-11,-5,-1,16.48
3297,6,-5,0,10,15,6,6,15,16.485
3298,6,36,0,-4,-4,4,9,10,16.490000000000002
3299,17,3,-4,-19,-1,2,-2,-1,16.495
3300,-9,3,-4,37,11,1,-2,5,16.5
3301,4,12,11,47,22,6,8,9,16.505
3302,-4,-23,3,-85,-41,-14,-9,-5,16.51
3303,7,10,-3,1,-12,-5,-4,1,16.515
3304,2,13,5,-2,1,-2,-6,-6,16.52
3305,0,4,8,-27,-10,-3,3,2,16.525
3306,1,-1,8,65,30,11,9,8,16.53
3307,6,10,3,-31,-7,-3,-3,7,16.535
3308,3,14,0,-51,-31,-8,2,3,16.54
3309,2,6,0,-8,7,-2,-11,-18,16.545
3310,-1,-27,-1,53,20,7,7,4,16.55
3311,-3,1,-3,-55,-25,-11,-8,-9,16.555
3312,-8,1,8,69,27,7,4,7,16.56
3313,18,-1,-7,-65,-24,-10,2,8,16.565
3314,-6,-13,-3,24,5,-3,-5,-10,16.57
3315,6,7,2,6,-2,-4,-4,-2,16.575
3316,-6,-7,-7,0,7,1,-2,-3,16.580000000000002
3317,-5,5,10,21,4,2,1,7,16.585
3318,-3,-24,-4,-14,-7,-5,-1,5,16.59
3319,1,6,-1,-18,3,-1,-1,-3,16.595
3320,-5,-7,-11,-2,5,-1,-3,-23,16.6
3321,-10,-18,-5,-48,-18,-2,-3,6,16.605
3322,-4,-9,-2,4,1,3,5,5,16.61
3323,-10,-20,-6,-5,-6,-3,4,9,16.615000000000002
3324,-3,18,0,11,9,0,-6,-19,16.62
3325,-11,-1,-10,1,-8,-5,-9,-2,16.625
3326,14,3,6,5,-3,-2,2,5,16.63
3327,-38,-15,-1,24,11,4,-1,-8,16.635
3328,1,-19,-6,-23,-7,-2,7,16,16.64
3329,-9,-7,-9,14,6,0,1,5,16.645
3330,-2,5,-2,-81,-28,-9,-7,-27,16.65
3331,6,1,0,65,23,7,0,1,16.655
3332,8,16,3,-23,-11,-6,-4,-4,16.66
3333,-15,-29,-1,-25,-5,-2,-2,1,16.665
3334,5,-6,-5,21,8,2,5,18,16.67
3335,8,13,0,1,10,0,-2,-5,16.675
3336,-4,-16,0,-39,-22,-5,-3,-2,16.68
3337,1,-10,-3,-10,-4,-2,-1,-1,16.685
3338,-1,22,0,20,7,2,0,6,16.69
3339,-1,5,1,-16,-3,1,1,-14,16.695
3340,6,4,8,37,5,2,-2,15,16.7
3341,4,17,2,-14,-2,-2,-3,-7,16.705000000000002
3342,-17,-13,2,55,10,-1,0,-2,16.71
3343,14,11,6,20,0,0,1,3,16.715
3344,-11,-15,-5,-5,-1,-1,-1,-4,16.72
3345,6,3,-7,-10,-5,-5,-6,-20,16.725
3346,-1,-2,3,-18,-2,0,1,12,16.73
3347,2,-1,0,-2,1,-1,-3,-1,16.735
3348,-7,-5,-3,-12,-3,-1,0,12,16.740000000000002
3349,4,5,7,19,2,2,2,-8,16.745
3350,0,-11,-3,-9,4,1,-2,-13,16.75
3351,10,20,3,-16,-15,-5,-3,-2,16.755
3352,-3,0,-5,21,15,4,1,-9,16.76
3353,25,-9,-5,-13,-4,-2,-1,3,16.765
3354,-1,13,3,15,2,2,2,-2,16.77
3355,1,-1,-3,15,5,1,-1,9,16.775
3356,5,-2,-5,17,10,3,3,2,16.78
3357,-13,-2,-12,-42,-14,-8,-2,1,16.785
3358,-4,-7,-2,-22,-11,-2,-2,1,16.79
3359,4,-1,3,10,1,-1,-5,3,16.795
3360,-2,-1,4,-5,-2,0,1,-4,16.8
3361,-13,-8,-1,11,4,2,0,4,16.805
3362,0,-7,-2,7,3,0,-2,-4,16.81
3363,-1,22,-8,-29,-15,-5,-1,0,16.815
3364,6,0,-5,42,16,3,-2,14,16.82
3365,11,4,0,7,1,5,4,2,16.825
3366,-13,5,9,8,5,0,-4,-18,16.830000000000002
3367,1,3,-13,-22,-5,-3,2,8,16.835
3368,8,-10,-1,3,0,0,0,-15,16.84
3369,7,-3,-8,22,2,-2,-4,-11,16.845
3370,6,24,5,-4,-3,-3,-2,-28,16.85
3371,5,-11,-1,38,3,2,6,48,16.855
3372,0,1,-3,-31,-3,-1,1,6,16.86
3373,-9,-3,6,8,-3,-1,1,5,16.865000000000002
3374,-1,5,5,-6,-1,1,2,1,16.87
3375,-13,-26,-2,7,2,-1,-3,-17,16.875
3376,-13,4,1,-11,-4,-1,-2,0,16.88
3377,-3,-9,1,1,-2,-1,-2,-2,16.885
3378,6,1,-5,-18,-2,-1,5,19,16.89
3379,-5,-5,-4,-33,-8,-5,-10,-17,16.895
3380,-9,-9,0,31,11,5,4,9,16.9
3381,5,7,2,-9,-4,-4,-6,-12,16.905
3382,-9,-8,-5,0,-3,0,-1,13,16.91
3383,9,3,3,18,11,3,7,0,16.915
3384,-3,10,0,-59,-20,-7,-7,-19,16.92
3385,-8,-3,0,15,-2,-2,-6,-17,16.925
3386,6,-12,-3,23,4,2,9,61,16.93
3387,-7,-2,10,16,-1,1,0,-6,16.935
3388,5,-3,-3,30,10,5,3,-3,16.94
3389,-1,8,-2,-46,-1,0,5,7,16.945
3390,-28,-20,-2,-1,-11,-7,-7,-34,16.95
3391,24,28,2,-4,2,2,4,24,16.955000000000002
3392,-3,1,3,-3,1,-3,-4,-19,16.96
3393,-1,1,2,-4,-11,-1,2,27,16.965
3394,-1,-3,-7,-23,-9,-1,-2,-25,16.97
3395,-13,-9,-2,-26,-7,-4,-3,-10,16.975
3396,6,-2,2,26,2,1,0,4,16.98
3397,-3,15,4,17,4,1,-2,3,16.985
3398,-1,4,-1,27,10,4,3,12,16.990000000000002
3399,9,-7,-2,-19,-9,-4,-4,-10,16.995
3400,2,3,0,48,16,4,2,-5,17.0
3401,-14,-17,-3,-38,-23,-9,-5,-2,17.005
3402,12,7,-4,6,5,3,2,10,17.01
3403,-14,-14,-6,1,4,1,-1,-14,17.015
3404,3,-6,0,37,6,1,-3,-3,17.02
3405,-4,3,4,14,7,2,4,-2,17.025
3406,6,2,3,-12,-4,-4,-4,9,17.03
3407,4,-8,-3,3,-6,-2,-3,-16,17.035
3408,1,-4,-12,-84,-17,-7,-1,-4,17.04
3409,-15,-8,0,9,-3,-3,-3,-2,17.045
3410,-13,0,-6,-10,-1,-3,-6,-29,17.05
3411,25,2,1,-13,-5,-1,7,48,17.055
3412,-3,0,3,1,-4,1,0,2,17.06
3413,12,3,-5,24,11,2,0,-5,17.065
3414,-5,-6,-1,-22,-4,-2,0,9,17.07
3415,-12,0,3,-8,1,-1,-5,-19,17.075
3416,0,-1,5,58,5,2,0,-3,17.080000000000002
3417,11,7,0,12,2,-3,-3,2,17.085
3418,-4,5,-2,2,-7,-1,0,-7,17.09
3419,-2,7,-1,-10,-1,0,1,-1,17.095
3420,1,2,4,-15,-6,-5,-1,4,17.1
3421,-4,-3,-3,2,-1,0,-2,-4,17.105
3422,7,-1,0,-18,-3,-1,1,12,17.11
3423,-4,1,0,17,4,1,-1,-12,17.115000000000002
3424,-16,0,-2,-12,-3,-2,-1,-9,17.12
3425,22,10,2,14,3,0,1,15,17.125
3426,10,3,2,8,2,-2,0,-2,17.13
3427,-6,-1,0,-5,-4,0,1,4,17.135
3428,17,8,0,-2,-4,-3,2,17,17.14
3429,-21,-21,-1,6,6,2,-5,-21,17.145
3430,18,8,1,-19,-8,-4,-4,6,17.150000000000002
3431,-11,0,-2,30,11,0,-3,-10,17.155
3432,2,4,-7,-21,-3,-2,-2,-6,17.16
3433,-4,0,-1,6,2,1,3,12,17.165
3434,-3,-12,2,8,3,3,0,-6,17.17
3435,-5,7,1,1,-4,-2,0,-10,17.175
3436,5,-7,-4,-17,-5,-2,-3,3,17.18
3437,-3,1,-8,-12,-2,0,0,0,17.185
3438,-4,-4,0,14,4,2,2,4,17.19
3439,0,-3,-1,2,-1,-2,-2,1,17.195
3440,-9,-7,-1,0,-2,-1,-2,-2,17.2
3441,4,4,-2,-15,-3,0,-1,8,17.205000000000002
3442,4,4,2,10,-1,-1,-1,0,17.21
3443,-12,-16,-1,-3,0,-1,-3,-12,17.215
3444,11,3,5,-13,-5,-1,-1,11,17.22
3445,-6,1,2,7,4,0,-1,-7,17.225
3446,1,-1,-1,-3,2,0,0,-2,17.23
3447,-2,-3,-1,-4,-3,-1,-2,1,17.235
3448,-4,-5,-3,-1,-1,-1,-2,-6,17.240000000000002
3449,-2,-3,-2,-6,0,-2,0,-1,17.245
3450,-1,1,0,0,1,-1,-2,4,17.25
3451,2,1,-1,-9,-3,-1,-1,0,17.255
3452,-2,0,-1,3,-1,0,-1,-2,17.26
3453,0,2,0,-2,-1,1,0,-1,17.265
3454,-5,-3,-1,-1,-2,-2,0,-3,17.27
3455,3,0,-3,-3,0,-2,-1,-1,17.275000000000002
3456,-3,-2,2,1,-2,-1,0,-2,17.28
3457,-1,-2,-2,-1,0,-1,-1,-2,17.285
3458,2,-2,-2,2,0,-1,-2,0,17.29
3459,1,1,-3,-5,-2,-2,-1,1,17.295
3460,-3,-1,-1,-3,-2,-1,1,-2,17.3
3461,-1,-2,-1,-2,-1,-1,-1,-2,17.305
3462,0,0,-1,1,0,0,0,0,17.31
3463,1,1,-2,-3,-1,-1,-1,-1,17.315
3464,-3,-1,2,1,-1,-1,-2,-3,17.32
3465,0,-1,-3,-1,0,-1,-2,-1,17.325
3466,-1,1,-1,-1,-1,-1,1,-1,17.330000000000002
3467,0,-1,-2,-4,-2,0,-1,0,17.335
3468,0,0,2,-1,2,1,-1,-3,17.34
3469,0,-1,0,-3,-2,0,0,-1,17.345
3470,-1,-1,-2,0,-2,-3,-3,-1,17.35
3471,0,1,0,-2,-1,0,0,-1,17.355
3472,-1,-4,-8,-1,-1,0,-1,-1,17.36
3473,-1,0,-1,-2,-1,0,-2,-1,17.365000000000002
3474,-3,1,-4,-1,-1,-2,-1,0,17.37
3475,0,1,0,-1,-2,-1,0,-1,17.375
3476,-2,0,-1,0,1,-2,-1,-2,17.38
3477,0,-1,-1,0,0,0,0,-1,17.385
3478,-1,-2,-1,0,-1,0,1,-2,17.39
3479,-2,0,-4,0,0,-1,-1,0,17.395
3480,0,-1,-3,0,-1,-2,-1,0,17.400000000000002
3481,-1,1,-2,0,-2,-2,-1,-1,17.405
3482,0,1,-1,0,0,0,-1,-2,17.41
3483,-1,-2,2,0,0,-1,-2,0,17.415
3484,-1,-2,1,-4,-2,1,-3,-2,17.42
3485,-2,0,-1,-1,1,-1,0,0,17.425
3486,0,-2,-1,-1,0,0,-2,0,17.43
3487,0,-1,-3,-2,-2,1,0,-1,17.435
3488,-1,-2,1,2,-1,1,1,-1,17.44
3489,1,0,0,-2,-1,0,1,-1,17.445
3490,0,-1,-1,0,-1,0,-1,-2,17.45
3491,-2,-3,0,-1,-1,-2,-1,0,17.455000000000002
3492,-1,0,-2,0,0,-2,-1,1,17.46
3493,0,-1,1,1,-1,-1,0,-2,17.465
3494,1,-1,-1,0,-1,-1,-2,-1,17.47
3495,-1,0,-1,-2,0,0,-1,-1,17.475
3496,-2,0,0,-1,0,-1,-1,0,17.48
3497,-1,-1,-3,-1,-1,-1,0,0,17.485
3498,0,0,-1,-2,-2,0,-1,-2,17.490000000000002
3499,-2,1,-2,-1,-2,0,0,-4,17.495
3500,-1,-1,0,-3,0,1,-1,-1,17.5
3501,0,-2,-1,0,0,-4,0,-1,17.505
