slno,emg1,emg2,emg3,emg4,emg5,emg6,emg7,emg8,Time
0,3,1,3,2,0,0,0,0,0.0
1,-1,-4,-10,-4,-4,-2,1,-1,0.005
2,0,0,0,1,-1,0,-1,-1,0.01
3,4,-2,-2,-4,-2,-3,-2,2,0.015
4,-6,1,0,1,-1,-3,-2,-3,0.02
5,3,0,-2,-1,-1,0,-1,0,0.025
6,-11,-7,-4,-1,-3,-2,-2,-4,0.03
7,4,-2,-5,-2,-3,-2,-2,0,0.035
8,-9,-6,-2,-3,-2,0,-2,-2,0.04
9,-2,2,3,1,2,2,2,-1,0.045
10,7,3,0,-3,-1,0,0,3,0.05
11,0,-2,-4,-2,0,-1,-1,0,0.055
12,-9,-1,2,0,-2,-1,0,-5,0.06
13,-2,-2,1,1,-2,0,-3,-2,0.065
14,2,0,1,-2,0,0,1,-1,0.07
15,1,2,4,2,0,-1,1,0,0.075
16,4,2,-1,-1,0,-1,0,1,0.08
17,0,-1,1,0,-1,-3,-3,0,0.085
18,-3,-3,-2,-2,-2,-2,-2,-1,0.09
19,1,2,5,0,-2,0,1,1,0.095
20,1,0,-1,-1,-1,0,0,0,0.1
21,-2,1,2,0,0,-3,1,-1,0.105
22,1,-1,-2,0,-1,-2,-2,-3,0.11
23,3,4,0,0,0,1,1,1,0.115
24,8,0,-1,-1,-1,0,0,2,0.12
25,-5,1,-2,-2,-2,-1,-4,-5,0.125
26,1,-1,-2,0,0,-2,-1,1,0.13
27,0,-1,-1,0,0,0,-1,-1,0.135
28,2,0,0,1,1,1,-1,1,0.14
29,-7,-6,-6,-2,1,0,0,-1,0.145
30,-1,0,1,-1,0,-1,0,-2,0.15
31,-3,0,0,-1,-1,1,0,0,0.155
32,5,-2,-2,-3,-2,-2,-1,-1,0.16
33,4,1,1,0,0,1,0,1,0.165
34,-3,-2,-2,-1,-1,-1,-1,-4,0.17
35,2,-1,-1,-2,0,0,0,0,0.17500000000000002
36,-2,0,3,2,0,-1,0,-1,0.18
37,2,-2,-2,-1,-2,-2,0,-1,0.185
38,-2,-1,-1,-2,0,0,0,-1,0.19
39,9,3,2,1,-1,-1,0,2,0.195
40,-15,-7,-6,-4,-3,-4,-3,-4,0.2
41,0,1,0,1,-1,-2,-1,-1,0.20500000000000002
42,0,2,-1,1,0,1,-1,0,0.21
43,-1,-1,-1,-1,-2,-2,-2,-1,0.215
44,2,-3,-8,-5,-3,-3,-1,1,0.22
45,-12,-2,-2,-1,0,1,0,-3,0.225
46,2,-1,0,-2,-2,-2,0,0,0.23
47,-1,0,-1,-1,1,0,-1,-2,0.23500000000000001
48,-2,-4,-3,-3,-1,0,-2,-2,0.24
49,3,2,2,0,-1,-1,-1,0,0.245
50,0,-2,-2,-1,0,0,-1,0,0.25
51,-7,-1,-2,0,-1,-1,-1,-2,0.255
52,4,2,0,1,0,1,1,1,0.26
53,2,-2,-3,0,-2,-1,-1,0,0.265
54,-3,-2,-2,-2,-3,-1,-2,-2,0.27
55,-1,-5,-3,-3,-1,-1,0,-1,0.275
56,1,3,1,0,0,0,1,0,0.28
57,2,2,0,1,1,1,-1,-2,0.28500000000000003
58,-8,0,1,2,1,-2,-3,-3,0.29
59,2,-2,-2,-3,-2,-1,-1,-3,0.295
60,-3,0,-2,-1,1,-1,1,-1,0.3
61,12,2,0,-2,0,-1,-1,5,0.305
62,-4,4,3,1,1,2,1,0,0.31
63,-2,-1,0,-1,-2,-1,0,0,0.315
64,-2,2,2,1,-1,0,-2,-2,0.32
65,-2,0,0,1,-1,-1,0,-2,0.325
66,7,1,-2,0,-2,1,-1,2,0.33
67,-4,3,1,1,-1,0,-2,-1,0.335
68,-3,-2,-2,-2,-1,-1,1,-1,0.34
69,2,0,1,-1,0,-1,1,2,0.34500000000000003
70,1,-2,-1,-1,0,-3,-1,-2,0.35000000000000003
71,-2,-2,-2,0,1,0,-1,-1,0.355
72,2,-1,0,1,-1,-1,0,-1,0.36
73,-1,-3,3,1,-3,-1,-1,1,0.365
74,1,-1,-2,-3,-1,-2,0,-2,0.37
75,4,3,3,2,2,0,-1,0,0.375
76,9,3,2,0,2,1,0,3,0.38
77,-40,-10,-6,-4,-2,-1,-4,-15,0.385
78,13,-2,-6,-3,0,0,0,2,0.39
79,-1,-1,1,0,-2,-3,-3,-1,0.395
80,-1,-3,0,-1,-1,-2,-2,-1,0.4
81,6,1,0,0,0,0,0,4,0.405
82,-4,0,5,1,1,0,-1,0,0.41000000000000003
83,-1,-3,-2,0,-1,-1,1,0,0.41500000000000004
84,-1,0,-1,1,-1,1,-1,1,0.42
85,-1,-1,1,0,-1,-1,-2,-2,0.425
86,-3,-1,1,1,0,-2,-1,0,0.43
87,2,1,-4,-3,-1,-2,-2,-1,0.435
88,-4,-2,-2,-2,-2,-2,-1,-1,0.44
89,5,2,2,1,2,0,0,0,0.445
90,-4,-2,0,0,-1,-1,-2,-1,0.45
91,2,-4,-3,-3,-1,-1,0,1,0.455
92,-4,0,0,0,0,-2,-1,-3,0.46
93,-19,-13,-7,-5,-4,-3,-2,-6,0.465
94,0,0,1,-1,-1,0,-1,1,0.47000000000000003
95,4,1,4,2,-1,0,0,1,0.47500000000000003
96,-2,-2,-1,-1,-2,-2,-2,-1,0.48
97,18,6,4,3,1,1,3,7,0.485
98,-6,-3,-7,-3,-4,-1,-2,-4,0.49
99,-4,-4,-2,0,-1,0,-1,-2,0.495
100,-3,-3,-1,-2,0,-1,-3,-2,0.5
101,11,2,-2,-2,-1,-1,-1,0,0.505
102,-6,-1,0,0,0,0,-2,-2,0.51
103,-2,1,-2,0,-1,0,0,-2,0.515
104,-2,-3,-2,1,0,-1,-1,-2,0.52
105,0,4,4,0,0,1,1,2,0.525
106,3,0,0,-1,0,-2,-1,-1,0.53
107,-6,-3,-3,-2,-2,-3,-4,-3,0.535
108,-4,1,2,1,0,0,0,0,0.54
109,6,-2,-5,-4,-3,-3,-1,1,0.545
110,7,0,-1,-3,-2,0,-1,1,0.55
111,-13,-2,0,-2,-2,-1,-3,-6,0.555
112,-1,-3,0,-1,-1,0,0,-1,0.56
113,0,-1,-2,-2,0,-2,-1,0,0.5650000000000001
114,1,-1,0,1,-1,0,1,-1,0.5700000000000001
115,0,-2,-2,-2,-2,-2,0,1,0.5750000000000001
116,0,1,-3,-1,0,-2,-1,-1,0.58
117,-9,-4,0,1,-2,-1,-2,-5,0.585
118,5,-2,0,1,-2,-1,-1,1,0.59
119,0,2,2,0,2,2,-1,0,0.595
120,1,1,1,-1,-3,-2,0,-1,0.6
121,0,3,0,-2,1,-2,1,0,0.605
122,-2,-3,-3,0,-3,-2,-1,-2,0.61
123,3,0,-2,0,-1,-2,-2,0,0.615
124,-3,-1,1,0,-3,1,-1,-2,0.62
125,2,0,0,0,-1,0,-2,0,0.625
126,-2,-3,-8,-4,-1,-2,0,-1,0.63
127,1,-2,-3,-4,-2,-2,-3,-1,0.635
128,-13,-6,-4,-2,0,-2,-2,-5,0.64
129,-1,2,1,0,-2,0,0,0,0.645
130,-2,1,4,1,1,-2,0,-1,0.65
131,-1,4,5,1,1,0,1,-1,0.655
132,9,-1,-2,0,0,-2,-2,2,0.66
133,-7,-5,-5,-1,1,-1,0,-3,0.665
134,-4,-3,-3,0,-1,-2,-2,-1,0.67
135,1,0,-1,0,-1,-1,0,-1,0.675
136,1,0,2,1,-1,0,-1,-1,0.68
137,3,-2,-3,-2,-2,0,0,-1,0.685
138,0,-2,0,0,0,1,-1,0,0.6900000000000001
139,5,-1,-2,0,-1,-2,-1,2,0.6950000000000001
140,-7,-2,-2,-3,-2,0,-2,-3,0.7000000000000001
141,1,-1,-2,-2,0,1,0,-2,0.705
142,-6,-2,-2,-4,-1,0,0,-3,0.71
143,0,0,-3,-1,-1,1,1,0,0.715
144,-1,-1,-1,0,-1,0,-1,0,0.72
145,-6,-3,-3,-1,0,-1,-3,-3,0.725
146,7,1,1,-1,0,0,-1,2,0.73
147,-15,-4,-3,-5,-1,-3,-4,-6,0.735
148,1,0,-1,-1,1,-1,2,-1,0.74
149,2,3,4,1,-1,-2,0,0,0.745
150,0,-2,0,1,0,-1,-2,-2,0.75
151,1,-3,-2,-2,-2,-1,-3,-1,0.755
152,6,3,0,0,0,1,0,2,0.76
153,-7,-3,-2,-1,-3,-1,-2,-1,0.765
154,-3,0,-2,-3,-1,-1,1,-1,0.77
155,0,-3,-2,0,0,0,1,1,0.775
156,0,3,3,1,-1,0,-1,-1,0.78
157,6,2,2,1,1,-1,-2,0,0.785
158,-2,-1,1,-2,-1,-1,-1,-1,0.79
159,4,-3,-3,-2,-2,0,0,1,0.795
160,-5,-1,-4,-2,0,-2,0,-1,0.8
161,0,-1,-2,-1,-3,0,-1,0,0.805
162,2,2,1,1,1,0,1,1,0.81
163,-2,-1,4,1,0,1,0,-3,0.8150000000000001
164,-4,-1,1,1,-1,-2,-1,-2,0.8200000000000001
165,1,1,-1,0,-1,1,0,1,0.8250000000000001
166,0,1,-1,-1,-3,0,-2,0,0.8300000000000001
167,-2,-3,-3,-3,-2,-1,-1,-2,0.835
168,4,-1,-3,-2,0,-1,-1,1,0.84
169,2,-1,-4,-5,-2,-1,-1,-1,0.845
170,-11,-5,-3,-1,-2,-4,-1,-5,0.85
171,1,1,-2,0,2,0,1,0,0.855
172,-2,0,0,-1,-2,0,-2,-1,0.86
173,1,-3,-2,-1,-2,-1,-1,1,0.865
174,1,0,0,-1,-2,-1,-2,1,0.87
175,0,-2,-4,-2,-2,-2,-2,-2,0.875
176,1,0,-2,-2,-2,-1,0,-4,0.88
177,-2,-4,-4,-3,0,-1,-1,-2,0.885
178,-1,-2,-4,-2,-1,-1,0,1,0.89
179,-1,0,3,0,0,0,0,-1,0.895
180,5,0,-2,0,0,0,0,4,0.9
181,-8,-2,1,0,-1,-1,-1,-6,0.905
182,-4,-1,0,-3,0,0,-3,-2,0.91
183,3,0,1,1,0,-2,0,-1,0.915
184,7,1,2,2,1,-1,-1,1,0.92
185,-6,-7,-10,-5,-2,-2,-1,-1,0.925
186,-4,1,-1,0,0,1,0,-2,0.93
187,10,0,-1,-2,-1,-2,-1,3,0.935
188,-7,-4,-1,-4,-1,-1,-1,-2,0.9400000000000001
189,3,4,6,2,2,-1,-1,1,0.9450000000000001
190,3,-1,0,0,0,-2,1,-3,0.9500000000000001
191,-11,-6,-4,-2,0,1,-2,-3,0.9550000000000001
192,-6,-3,1,1,0,-2,-2,-2,0.96
193,3,1,1,1,2,1,-1,1,0.965
194,2,3,3,1,0,0,1,1,0.97
195,1,3,2,1,-1,0,2,2,0.975
196,11,0,-4,-2,-2,-1,-1,4,0.98
197,-31,0,2,0,-1,-2,0,-10,0.985
198,-1,-3,-2,-1,0,-2,-2,1,0.99
199,0,3,1,-1,-1,-2,-1,1,0.995
200,-3,1,-1,0,-1,0,1,-1,1.0
201,9,1,-2,-1,-2,0,1,1,1.0050000000000001
202,5,4,4,4,0,-1,-2,-1,1.01
203,-7,-3,1,0,0,0,-1,-2,1.0150000000000001
204,-2,1,2,-1,-1,0,-3,0,1.02
205,9,2,2,0,0,-1,-1,1,1.025
206,-12,-8,-4,-5,-3,-1,-2,-3,1.03
207,2,1,1,0,2,2,0,-1,1.035
208,-4,-1,1,1,1,1,0,-3,1.04
209,7,0,-4,-4,-4,-4,-2,0,1.045
210,0,-3,-2,-3,-1,0,-2,-1,1.05
211,-2,-1,1,0,-2,-1,-1,-1,1.055
212,-4,0,0,0,-1,0,0,0,1.06
213,2,2,2,0,0,1,0,0,1.065
214,-7,1,1,3,2,2,1,-2,1.07
215,15,3,-2,-2,-1,0,-1,7,1.075
216,0,0,0,1,1,0,-1,-1,1.08
217,-3,-5,-3,1,-1,-3,-2,-4,1.085
218,2,-1,-1,-1,-1,0,0,0,1.09
219,-2,-1,-3,-2,-4,-2,-2,-2,1.095
220,-1,-2,-2,-3,-2,-1,-1,-2,1.1
221,4,-1,0,1,1,1,0,3,1.105
222,2,0,-1,0,-1,-2,-3,-2,1.11
223,-4,-5,-4,-2,-2,0,-2,-4,1.115
224,-3,-1,-4,-4,-1,-2,-1,-3,1.12
225,-6,-5,-3,-5,-2,0,-3,-3,1.125
226,2,2,3,0,2,-1,-1,1,1.1300000000000001
227,-4,-6,-5,-3,-1,-1,-2,-3,1.135
228,0,2,0,-1,-1,1,-1,0,1.1400000000000001
229,1,1,0,1,-1,-1,-1,1,1.145
230,1,0,0,-1,-1,-2,0,0,1.1500000000000001
231,0,2,3,-1,0,-1,0,-1,1.155
232,-3,-3,-1,-2,-1,-2,0,-2,1.16
233,12,0,0,0,1,1,1,6,1.165
234,-11,-3,-3,-4,-2,0,-4,-7,1.17
235,-6,1,1,0,0,0,-2,-3,1.175
236,-1,-1,2,2,-1,-1,0,0,1.18
237,2,0,0,-2,0,-2,-1,0,1.185
238,6,-1,-2,-2,-2,0,0,2,1.19
239,-1,2,2,3,1,2,0,1,1.195
240,-7,-1,-2,-2,0,-1,-2,-3,1.2
241,9,1,2,1,0,0,2,2,1.205
242,4,-2,-7,-4,-2,1,0,1,1.21
243,-8,-2,-1,1,-3,-1,-2,-1,1.215
244,-1,-1,-1,1,0,-1,0,-2,1.22
245,-8,2,2,0,1,-1,-1,-3,1.225
246,8,1,2,1,-3,0,1,1,1.23
247,1,0,2,1,1,-1,1,1,1.235
248,-5,-3,-5,-3,-3,-3,-2,-3,1.24
249,-1,0,-1,-1,-2,0,-2,-1,1.245
250,-2,-3,-1,0,-2,0,-1,-3,1.25
251,4,1,2,-1,0,-1,1,1,1.2550000000000001
252,-10,-4,-3,0,-3,-1,-2,-4,1.26
253,-2,-3,-4,-2,-3,-2,-2,-2,1.2650000000000001
254,-2,-1,-3,-2,-1,-1,-1,-1,1.27
255,-2,-2,-1,1,-1,0,-1,-2,1.2750000000000001
256,7,-1,0,-2,-1,1,-1,1,1.28
257,-12,-1,-1,1,1,1,0,-5,1.285
258,9,3,1,-2,1,-1,1,4,1.29
259,-3,-4,-8,-5,-4,-2,-2,-3,1.295
260,6,0,2,0,-1,0,0,1,1.3
261,-4,-1,-2,0,0,0,-1,-1,1.305
262,-3,-3,-2,0,-2,-1,0,-1,1.31
263,-3,0,1,0,2,0,1,-1,1.315
264,8,3,2,0,0,-1,1,4,1.32
265,-2,-3,0,-1,0,-1,-1,1,1.325
266,-5,-1,-2,0,0,-2,-3,-1,1.33
267,0,-3,-1,-3,-2,-2,-2,-1,1.335
268,5,-1,-1,-1,-1,-2,1,1,1.34
269,-13,-5,-1,-2,0,-2,-2,-5,1.345
270,-2,1,3,2,0,0,2,0,1.35
271,-1,-2,-3,-1,-1,-2,-1,-2,1.355
272,5,0,-2,0,0,-1,-1,0,1.36
273,5,-1,-1,1,-1,-1,-1,2,1.365
274,0,3,0,-1,-1,-1,-1,-1,1.37
275,-4,-3,-2,-1,0,0,-1,-1,1.375
276,-6,-3,-2,-2,0,0,0,-1,1.3800000000000001
277,4,-2,-5,-4,-3,-2,-1,-1,1.385
278,-6,-1,1,0,0,0,-1,-1,1.3900000000000001
279,-4,2,1,1,0,1,-1,-2,1.395
280,3,-3,-4,-2,-3,-1,-2,1,1.4000000000000001
281,-7,-2,0,-1,0,0,-1,-2,1.405
282,-5,-2,-3,-2,-1,-2,-1,-3,1.41
283,2,-1,-2,-3,-2,-3,-1,-1,1.415
284,-3,0,-1,0,0,1,0,-1,1.42
285,9,5,4,1,-1,0,0,3,1.425
286,-2,-1,-2,-1,0,0,-2,-5,1.43
287,-3,1,1,1,-2,1,-1,-2,1.435
288,-5,-1,1,-2,-1,-1,-1,-2,1.44
289,-2,-3,-8,-3,-2,-2,-1,1,1.445
290,6,-3,-2,-1,-1,-2,-1,2,1.45
291,1,-1,2,0,0,0,1,1,1.455
292,-4,1,3,0,-1,0,-4,-3,1.46
293,6,0,-1,-3,0,-1,0,0,1.465
294,-2,-2,1,2,-2,-2,-2,-1,1.47
295,1,-1,-3,-1,-2,-2,0,0,1.475
296,-3,0,-2,-1,-2,-1,0,-1,1.48
297,-2,-2,2,1,0,0,-1,-2,1.485
298,-1,-4,-3,-3,-1,-1,-2,-2,1.49
299,7,-1,0,1,-1,0,-2,2,1.495
300,-5,0,-1,-1,-1,0,-1,-2,1.5
301,3,-1,-2,-1,-1,0,-1,1,1.5050000000000001
302,-2,-4,-1,0,0,0,0,-2,1.51
303,-11,-2,0,-1,0,0,-1,-5,1.5150000000000001
304,-1,-3,-3,-1,-1,-1,-1,-1,1.52
305,-2,-2,1,-2,-2,-2,-1,-3,1.5250000000000001
306,1,0,1,2,-1,0,0,1,1.53
307,0,-2,-4,-2,0,0,-1,-1,1.5350000000000001
308,0,0,1,1,-1,1,0,0,1.54
309,-8,-4,-2,0,-1,-1,0,-3,1.545
310,-1,0,0,-1,0,1,1,1,1.55
311,1,-1,0,-2,-2,-3,-3,-2,1.555
312,3,1,0,-1,0,0,-1,1,1.56
313,2,3,0,1,0,1,-1,0,1.565
314,-2,-1,-1,0,0,0,0,-1,1.57
315,-1,-1,-4,-1,-1,-1,-2,-1,1.575
316,4,1,0,-1,-1,-1,0,0,1.58
317,-15,-5,-1,0,-1,-2,-2,-4,1.585
318,2,-2,-4,-2,-2,-1,-1,0,1.59
319,2,4,2,-1,-2,1,-1,1,1.595
320,-8,-5,-6,-4,-1,-3,-1,-4,1.6
321,-2,0,-6,-4,-1,-1,-1,-1,1.605
322,-1,1,-2,1,-1,0,0,0,1.61
323,-1,-1,1,1,0,0,-1,-1,1.615
324,3,-1,-1,-1,-2,-1,-1,1,1.62
325,2,2,0,0,0,1,1,1,1.625
326,-3,-3,-1,-2,0,1,-3,-4,1.6300000000000001
327,4,0,1,0,0,-1,0,3,1.635
328,-2,-3,-3,-3,-1,-1,-2,-4,1.6400000000000001
329,3,1,0,1,-1,0,0,-1,1.645
330,2,3,1,2,-1,0,-1,0,1.6500000000000001
331,-13,-1,-3,0,-2,-2,-1,-2,1.655
332,-1,-2,1,0,0,-1,-1,1,1.6600000000000001
333,-1,2,-1,0,-1,1,-1,0,1.665
334,-2,-2,-1,-1,0,-3,-2,0,1.67
335,0,0,2,-1,-1,1,1,-2,1.675
336,-10,0,-2,1,0,0,1,-2,1.68
337,12,0,0,-1,-1,-2,0,3,1.685
338,-6,-1,-1,1,-2,-2,-1,-2,1.69
339,6,2,3,1,0,0,0,2,1.695
340,2,-1,-1,0,0,0,1,0,1.7
341,5,3,-1,-1,-1,-2,-2,-2,1.705
342,-5,0,1,0,-1,1,-1,-1,1.71
343,0,0,-2,0,0,-1,0,-1,1.715
344,-2,-1,-1,-1,-2,0,-1,-3,1.72
345,-3,0,-2,-2,-1,0,1,-1,1.725
346,2,3,1,-2,-1,-2,-2,-1,1.73
347,-2,-3,-1,-2,0,-3,1,-1,1.735
348,-1,-1,0,-1,-1,-1,0,0,1.74
349,0,1,2,1,1,0,0,0,1.745
350,-2,-4,-6,-5,-1,-1,0,-1,1.75
351,4,-3,-4,-4,-2,-3,-2,0,1.7550000000000001
352,-2,1,1,0,-1,-1,-1,-1,1.76
353,3,-2,1,-1,-2,-1,-1,2,1.7650000000000001
354,-12,1,1,1,0,2,-1,-4,1.77
355,-2,-1,1,0,0,1,1,-1,1.7750000000000001
356,1,-4,-2,-2,-1,-2,0,0,1.78
357,-3,-4,-6,-3,-3,-1,-1,-1,1.7850000000000001
358,5,-1,2,2,-1,-1,-2,1,1.79
359,-1,-2,-4,-1,-2,-2,-1,-1,1.795
360,0,1,1,-1,0,0,-2,-1,1.8
361,0,0,-1,-2,1,-1,-1,-1,1.805
362,8,-1,-1,-1,-1,-2,-2,3,1.81
363,-12,-3,-1,-2,0,0,-1,-4,1.815
364,1,1,0,2,-1,0,0,1,1.82
365,-1,-2,-1,0,0,-1,-2,-1,1.825
366,0,0,1,1,-3,-1,0,0,1.83
367,1,1,-1,1,0,-1,-2,-1,1.835
368,-3,2,-2,-1,-1,0,-1,-1,1.84
369,2,1,-2,-1,-2,-1,1,0,1.845
370,-3,1,-1,-1,0,-2,0,0,1.85
371,-1,-3,-1,0,-1,0,-1,0,1.855
372,3,8,6,2,1,1,1,0,1.86
373,-1,-2,-4,-1,-2,0,-1,-1,1.865
374,6,-1,0,-3,-2,0,0,1,1.87
375,-13,-1,-2,1,0,-3,-3,-8,1.875
376,12,-3,-1,0,-1,-1,-1,1,1.8800000000000001
377,0,-2,-3,1,-1,-3,-1,-3,1.885
378,-1,1,2,-1,0,-1,0,0,1.8900000000000001
379,6,-2,-1,-1,-1,1,1,1,1.895
380,-15,-2,-3,-1,0,-1,-2,-5,1.9000000000000001
381,-3,1,1,2,-1,1,-1,-2,1.905
382,9,-4,-3,-2,-2,-3,-2,1,1.9100000000000001
383,-11,-1,0,-1,-2,-1,0,-3,1.915
384,-2,-4,-1,-2,-2,-2,-2,0,1.92
385,-1,0,3,0,0,-1,-1,1,1.925
386,-1,0,-4,-2,-1,-3,-1,-2,1.93
387,7,-1,0,-1,-2,1,1,1,1.935
388,2,0,-1,0,-2,0,1,1,1.94
389,-6,-1,1,-1,-1,-2,-2,-3,1.945
390,-2,1,2,2,0,1,-1,0,1.95
391,1,-4,-5,-3,-1,0,-2,0,1.955
392,2,0,0,-2,-1,-1,-1,0,1.96
393,-7,1,2,0,-1,-2,-1,-2,1.965
394,-3,-1,-1,0,1,-1,1,-2,1.97
395,3,4,4,1,1,0,-1,1,1.975
396,1,1,1,0,1,0,-1,1,1.98
397,-1,0,-2,-2,-1,1,-1,-1,1.985
398,-2,2,1,0,0,-1,0,-1,1.99
399,4,0,0,-1,0,0,0,2,1.995
400,-9,-2,-7,-1,-2,-1,-2,-5,2.0
401,1,1,2,-1,0,-1,-1,0,2.005
402,-4,-2,-4,-2,-1,0,-2,-3,2.0100000000000002
403,4,-1,1,1,0,-1,-1,1,2.015
404,4,-1,-2,0,1,-1,1,0,2.02
405,1,-9,-8,-2,-1,-3,-2,-2,2.025
406,-2,-8,-14,-4,-3,-1,-1,-3,2.0300000000000002
407,4,0,-7,-3,-2,-1,0,0,2.035
408,-12,-8,-5,-3,-2,-3,-3,-3,2.04
409,-3,-3,1,-1,-2,-1,-1,0,2.045
410,-1,-3,-2,-1,-1,-1,1,0,2.05
411,8,7,4,5,0,-1,-2,2,2.055
412,-5,-7,-3,-3,-2,-1,0,-3,2.06
413,1,0,1,1,0,1,0,1,2.065
414,-2,-1,7,1,0,-1,0,-1,2.07
415,-1,-2,-3,-3,-3,-1,-1,1,2.075
416,-3,2,2,1,-1,0,-1,-1,2.08
417,2,3,2,1,0,-1,-1,1,2.085
418,6,3,1,0,-1,0,0,2,2.09
419,-18,-5,-3,-4,-3,-2,-1,-3,2.095
420,7,1,-2,0,-1,-2,-2,1,2.1
421,-11,-3,-1,-2,0,1,0,-3,2.105
422,1,4,2,2,-1,0,1,1,2.11
423,-1,-2,0,-1,-2,-1,2,-1,2.115
424,2,5,4,2,-2,1,1,1,2.12
425,-1,-1,-5,-3,-3,-3,0,0,2.125
426,-3,0,-1,-2,-1,-1,-2,-2,2.13
427,0,0,2,0,-1,-1,0,-1,2.1350000000000002
428,-10,-3,-2,-1,-1,-2,-3,-4,2.14
429,1,-4,-3,-2,0,-1,1,-1,2.145
430,0,-3,-3,0,-1,0,1,-2,2.15
431,2,-1,-2,-2,-2,-2,-2,0,2.1550000000000002
432,-6,-6,-5,-5,-2,-2,-1,-2,2.16
433,3,-1,-1,1,0,-1,-1,1,2.165
434,-8,-3,-4,-3,-2,-2,-3,-3,2.17
435,1,-2,-4,0,0,1,0,1,2.1750000000000003
436,6,3,2,-1,-1,1,0,3,2.18
437,0,-2,-5,-3,-1,-1,-2,-1,2.185
438,-9,-2,0,1,0,0,-1,-6,2.19
439,-3,-2,0,1,-1,-2,-3,-2,2.195
440,3,1,2,-1,-3,-1,-1,0,2.2
441,11,5,5,1,0,1,1,3,2.205
442,-12,1,2,1,2,1,0,0,2.21
443,-6,-3,-2,-2,1,-2,-1,-5,2.215
444,12,3,2,3,1,0,0,4,2.22
445,-1,2,0,-1,-2,-2,-1,-2,2.225
446,7,0,-1,-2,-2,-1,0,1,2.23
447,-13,-4,-3,-3,0,-2,-1,-5,2.235
448,-3,-1,0,-2,-2,0,-1,-1,2.24
449,1,-2,-1,0,0,-1,-1,-2,2.245
450,3,2,1,1,2,0,0,1,2.25
451,3,2,-2,-1,-2,0,1,1,2.255
452,-1,3,0,0,1,-2,-2,-1,2.2600000000000002
453,-7,-2,0,-2,-2,-1,-1,-2,2.265
454,5,3,2,2,3,5,5,4,2.27
455,3,1,0,-1,1,1,0,-1,2.275
456,-4,2,4,-1,-3,-2,-2,-2,2.2800000000000002
457,-3,0,2,2,0,3,1,-1,2.285
458,0,-7,-8,-6,-5,-5,-4,-1,2.29
459,3,3,4,3,0,2,0,2,2.295
460,-2,-2,-1,1,-1,1,1,-1,2.3000000000000003
461,0,0,-1,1,2,0,1,2,2.305
462,-2,-1,-2,-3,-2,-2,-1,-2,2.31
463,-20,-7,-1,-1,-2,-1,-2,-7,2.315
464,10,-1,-3,-5,-4,-5,-3,2,2.32
465,-2,1,-3,-1,-1,-1,0,-2,2.325
466,5,1,-3,0,0,0,-2,1,2.33
467,3,1,-4,-1,-1,-2,-1,0,2.335
468,1,-2,-3,-2,1,0,1,1,2.34
469,-9,-4,-1,-3,-1,-3,-3,-5,2.345
470,1,1,2,0,1,-1,-1,0,2.35
471,7,2,1,0,-1,-1,-2,1,2.355
472,-10,-6,-6,-4,-1,0,0,-3,2.36
473,-5,-3,-2,-1,-2,-1,1,-1,2.365
474,-1,0,0,-1,-1,-2,-2,-2,2.37
475,4,-2,-6,-2,-1,-1,-1,-1,2.375
476,-2,-5,-8,-5,-3,-1,0,-1,2.38
477,0,-1,2,0,0,0,-2,1,2.3850000000000002
478,-5,-2,0,1,-1,-2,-1,-3,2.39
479,1,0,-3,-3,-2,0,1,2,2.395
480,4,1,2,4,2,-1,0,1,2.4
481,-9,-3,-5,-3,-3,-1,-1,-4,2.4050000000000002
482,0,-1,-1,-2,-3,-2,-1,-1,2.41
483,-4,1,2,0,0,0,-1,-1,2.415
484,6,-1,-6,-1,-1,-2,-2,0,2.42
485,9,1,3,-1,-1,-2,-2,3,2.4250000000000003
486,-12,-1,0,0,1,-1,-2,-5,2.43
487,2,-1,2,0,-2,0,0,0,2.435
488,-6,-2,-4,-2,-3,-1,-1,-5,2.44
489,2,0,-2,0,3,0,-1,1,2.445
490,4,-3,-3,-3,-2,0,-1,3,2.45
491,0,-4,-2,1,-2,-2,-1,0,2.455
492,-3,0,3,1,0,1,-2,-3,2.46
493,2,-2,-2,-1,-1,0,0,-2,2.465
494,2,1,-1,0,1,1,0,-2,2.47
495,1,2,4,1,2,-1,0,1,2.475
496,4,2,4,2,1,-1,-3,0,2.48
497,-17,-6,-1,-1,-1,0,-2,-5,2.485
498,-1,-3,1,2,0,0,0,0,2.49
499,9,1,-2,1,0,0,-2,1,2.495
500,2,-2,-1,0,0,1,0,3,2.5
501,7,7,3,0,-1,0,2,0,2.505
502,-1,-6,-4,-3,-2,-2,0,-1,2.5100000000000002
503,-3,-3,-4,-4,-2,-2,-1,-3,2.515
504,-1,-3,-1,-1,-1,-1,1,0,2.52
505,0,-2,-2,-1,-1,-2,-1,0,2.525
506,-1,1,-1,-2,-3,-2,0,0,2.5300000000000002
507,3,-1,1,-1,-3,-2,-2,0,2.535
508,-6,-1,0,1,-2,-1,-1,-3,2.54
509,0,-1,-1,1,-1,0,-2,-1,2.545
510,1,0,-1,-3,-2,-1,-1,-1,2.5500000000000003
511,-5,-1,1,2,1,-1,-4,-2,2.555
512,-4,-3,-4,-1,-1,-2,1,-1,2.56
513,2,0,-1,-1,-1,-1,-1,0,2.565
514,3,2,3,-1,-1,-3,-1,0,2.57
515,-4,-1,0,0,1,0,0,0,2.575
516,-3,-1,-1,-2,-2,1,-1,-1,2.58
517,6,5,4,-1,-1,-2,-1,2,2.585
518,-8,-4,-5,0,-1,1,-1,-3,2.59
519,-2,-2,-3,-3,-3,-2,1,-1,2.595
520,-1,-2,-3,-2,-1,0,-2,0,2.6
521,-2,-1,-4,-3,-2,-2,-1,-3,2.605
522,2,-1,1,1,0,1,-2,0,2.61
523,-3,-2,-3,-1,-2,1,1,0,2.615
524,4,1,-1,-1,0,0,0,1,2.62
525,1,2,1,1,0,0,0,0,2.625
526,-6,3,2,4,1,1,0,-2,2.63
527,1,2,-2,0,-1,-2,-1,1,2.6350000000000002
528,-1,0,0,-3,-1,-1,2,-2,2.64
529,-3,-3,-5,-4,-2,-1,-1,-1,2.645
530,14,0,-2,0,-2,0,-1,4,2.65
531,-5,-5,-2,-1,0,-1,-1,0,2.6550000000000002
532,-16,-1,2,1,-1,0,-3,-6,2.66
533,1,-1,1,0,-2,-1,0,1,2.665
534,-4,-1,-4,-2,0,-2,-2,1,2.67
535,4,5,5,3,2,2,1,-1,2.6750000000000003
536,4,-1,-1,0,1,-1,-1,2,2.68
537,-5,-4,-2,-1,-3,0,-2,-3,2.685
538,2,0,1,1,0,-1,-1,-2,2.69
539,4,-2,-3,-4,-3,-2,-1,-1,2.695
540,-14,-3,1,0,0,-1,-2,-6,2.7
541,-1,-2,-1,-1,-1,0,1,0,2.705
542,-1,0,0,-1,-1,-1,-3,-1,2.71
543,-13,-1,0,0,-1,-1,-1,-3,2.715
544,4,-2,-2,-1,-3,-1,-1,1,2.72
545,-3,-1,0,-1,-1,-1,-2,-1,2.725
546,-2,-2,0,-2,0,0,1,-1,2.73
547,1,-5,-6,-4,-4,-1,-2,-2,2.735
548,3,1,3,1,0,0,-1,1,2.74
549,0,0,2,3,0,-1,-1,-1,2.745
550,1,-6,-8,-6,-2,-2,-1,-2,2.75
551,0,0,1,-1,0,-2,-3,0,2.755
552,5,-1,-3,-2,-2,-2,0,2,2.7600000000000002
553,-2,0,-2,-2,0,-1,-2,-4,2.765
554,-2,1,0,1,-1,-1,-2,1,2.77
555,-4,0,2,1,0,0,1,-2,2.775
556,2,-4,-3,-2,-2,-1,0,1,2.7800000000000002
557,11,-1,-6,-2,-2,-1,0,3,2.785
558,-23,-4,1,-1,-2,-3,-1,-8,2.79
559,2,1,2,2,1,0,1,1,2.795
560,-2,-1,-1,1,1,0,0,1,2.8000000000000003
561,-3,-2,1,1,0,-1,-2,-1,2.805
562,10,-3,-6,-3,-1,0,0,3,2.81
563,-8,-1,0,-1,-2,-2,-2,-2,2.815
564,-1,0,0,-2,-1,-1,-2,-3,2.82
565,0,-2,-3,-1,-1,-1,-2,1,2.825
566,4,3,4,0,1,-1,-2,2,2.83
567,7,0,0,-3,-2,0,0,1,2.835
568,-4,3,-2,-2,0,0,0,-4,2.84
569,4,1,0,0,-1,0,-1,2,2.845
570,-1,1,-1,-1,-3,0,1,-2,2.85
571,2,-3,-3,-3,-2,1,1,0,2.855
572,-4,-1,2,0,0,-1,-1,-1,2.86
573,-4,-3,-1,-2,0,-1,0,-2,2.865
574,-2,2,2,-2,-1,-1,0,0,2.87
575,-1,-2,0,0,-1,-1,-2,1,2.875
576,2,1,0,-1,0,-1,0,0,2.88
577,-2,3,2,2,2,-1,0,0,2.8850000000000002
578,6,0,3,1,0,-1,1,2,2.89
579,-1,-1,-1,0,1,-1,-1,-2,2.895
580,17,4,-1,-2,-2,-2,-3,4,2.9
581,-30,-4,-1,1,1,-2,-1,-9,2.9050000000000002
582,1,-2,-3,-3,-1,0,-3,0,2.91
583,-3,0,-1,0,1,-1,0,-1,2.915
584,5,0,-1,1,-1,0,0,2,2.92
585,7,1,0,-1,-2,-2,1,2,2.9250000000000003
586,-1,1,3,2,0,0,2,-2,2.93
587,-5,-2,1,-1,-2,-1,-2,-3,2.935
588,-2,-4,-5,0,-3,0,0,-1,2.94
589,4,1,1,-1,0,0,-1,-1,2.945
590,-5,-1,2,0,0,-1,-2,-2,2.95
591,4,-3,-3,-2,-2,-1,-2,0,2.955
592,-5,0,2,1,-2,-2,0,-2,2.96
593,2,1,0,0,0,0,1,1,2.965
594,3,0,-2,-1,0,-1,-1,0,2.97
595,-1,-2,-3,-2,-1,-3,-3,-1,2.975
596,-3,-2,-1,-1,1,-3,-1,-2,2.98
597,-5,-6,-4,0,-2,-2,-1,-1,2.985
598,7,1,0,-1,0,-1,1,2,2.99
599,-8,0,2,0,0,-2,0,-4,2.995
600,-9,-2,-3,-2,0,0,0,-2,3.0
601,3,-1,0,0,-2,0,-3,0,3.005
602,3,-4,-6,-4,-1,-2,0,0,3.0100000000000002
603,-6,1,1,1,-1,-1,-2,-1,3.015
604,-1,-1,0,-2,-1,0,-1,0,3.02
605,6,1,1,-1,-2,0,0,0,3.025
606,-8,-3,-2,0,0,-1,-1,-2,3.0300000000000002
607,3,1,0,0,0,0,2,2,3.035
608,0,0,1,0,1,-1,1,0,3.04
609,-4,-1,0,-3,-2,-2,-3,-3,3.045
610,6,-2,0,0,-2,-1,-1,0,3.0500000000000003
611,3,-2,-5,-3,-1,-1,0,0,3.055
612,-4,0,0,0,0,-1,-2,-3,3.06
613,3,2,-1,-1,1,-1,0,-1,3.065
614,-6,-1,1,3,-1,-1,-3,-4,3.0700000000000003
615,1,-1,0,0,-2,0,-2,0,3.075
616,4,0,1,2,2,2,3,1,3.08
617,-2,0,-1,1,-1,0,-1,-1,3.085
618,-5,0,-2,-3,-2,-2,0,-1,3.09
619,1,-1,2,0,-1,-2,-1,0,3.095
620,-3,0,0,0,-1,1,-1,-1,3.1
621,11,0,-2,-1,-1,1,1,5,3.105
622,-21,-2,-2,1,0,-1,-4,-10,3.11
623,1,2,1,0,2,0,-1,1,3.115
624,-1,0,-1,-1,0,-1,0,-1,3.12
625,-6,-2,-2,-1,0,-1,-2,-1,3.125
626,6,1,1,2,0,2,2,4,3.13
627,-3,0,0,1,2,-1,-2,-2,3.1350000000000002
628,-2,1,3,-1,1,-1,-1,-1,3.14
629,-1,-4,-6,-4,-2,-2,-1,-2,3.145
630,-3,1,1,-2,-2,0,0,-1,3.15
631,4,1,1,0,-2,-1,-1,1,3.1550000000000002
632,2,0,-1,1,-2,2,-1,2,3.16
633,-3,-5,-2,-1,-1,-2,-1,-2,3.165
634,-1,-1,-1,1,0,-1,-1,-1,3.17
635,-1,-2,-3,-1,-1,-1,0,0,3.1750000000000003
636,1,-2,0,1,-2,-2,-1,-3,3.18
637,1,2,2,1,1,1,0,1,3.185
638,-2,-2,-5,-2,-3,-1,-2,-3,3.19
639,2,2,1,1,0,2,1,2,3.1950000000000003
640,-5,-2,-2,-1,-1,-1,0,0,3.2
641,2,0,1,0,0,-1,0,-1,3.205
642,-4,0,-3,-3,-1,0,-1,-3,3.21
643,3,-3,-5,-3,-3,-2,1,1,3.215
644,-4,-4,-3,-3,-2,-2,-1,-1,3.22
645,3,-1,2,-1,0,0,0,-1,3.225
646,10,5,6,-1,0,-1,0,5,3.23
647,-11,-5,-5,-4,-2,-2,-3,-7,3.235
648,-4,0,-2,0,0,1,-2,-3,3.24
649,-1,-1,1,-1,-1,-1,-2,-1,3.245
650,-3,0,2,2,1,-1,1,0,3.25
651,5,0,0,0,0,2,-1,1,3.255
652,2,-4,-3,-1,-1,-1,1,0,3.2600000000000002
653,-3,-4,-6,-4,-2,-1,-1,-2,3.265
654,0,-1,0,1,-1,-1,0,-1,3.27
655,-3,-1,-1,0,-1,0,1,-1,3.275
656,-1,-1,-1,-3,-1,-2,-2,-1,3.2800000000000002
657,5,-2,0,-1,0,-1,-1,-1,3.285
658,-8,-1,-2,-2,-2,0,-2,-3,3.29
659,1,-1,-3,-2,-2,-3,1,-1,3.295
660,6,-2,-1,0,-2,-1,-2,0,3.3000000000000003
661,-14,0,-1,-1,-1,-1,0,-5,3.305
662,6,-7,-4,-2,-1,0,-2,2,3.31
663,2,0,2,1,-1,-1,-1,0,3.315
664,1,-3,-3,-2,-1,-2,0,-3,3.3200000000000003
665,0,2,1,0,-2,0,1,0,3.325
666,5,-4,-7,-4,-4,-2,0,0,3.33
667,-10,1,-1,-1,0,0,-2,-3,3.335
668,-1,-1,1,0,-1,-1,-1,0,3.34
669,0,0,1,1,-1,1,-1,0,3.345
670,0,2,2,1,-1,0,0,-1,3.35
671,-2,-9,-14,-7,-2,-2,-2,-2,3.355
672,-5,0,0,-1,-1,0,-2,-2,3.36
673,-2,0,2,1,0,-1,-1,-1,3.365
674,1,1,2,0,0,0,-1,-1,3.37
675,2,1,2,2,1,-1,0,0,3.375
676,-3,-1,0,-1,-1,-1,-1,-1,3.38
677,8,-2,-3,-2,-1,-1,-1,2,3.3850000000000002
678,-2,0,-1,1,1,1,0,-3,3.39
679,-1,0,2,2,-1,0,0,0,3.395
680,-2,0,-2,-2,-2,-2,-1,-2,3.4
681,1,-2,-4,-1,-3,-2,-1,1,3.4050000000000002
682,1,-1,-1,-3,-2,-1,-1,1,3.41
683,0,0,1,0,0,-1,-1,-1,3.415
684,-1,-2,-2,0,-1,0,0,-1,3.42
685,-2,2,6,2,1,1,0,-3,3.4250000000000003
686,-2,-3,-3,-2,-1,-1,0,0,3.43
687,-3,-1,-1,-2,0,-1,0,-2,3.435
688,2,1,-2,-2,0,0,0,2,3.44
689,-6,-4,-3,-1,-1,-1,-3,-3,3.4450000000000003
690,3,0,-2,-1,-1,0,1,0,3.45
691,3,4,2,1,0,-1,0,1,3.455
692,-2,-1,1,1,1,0,0,-2,3.46
693,3,-1,-1,-1,-1,0,0,2,3.465
694,0,1,2,0,-1,-1,-2,0,3.47
695,-1,-1,1,-1,-1,1,-1,-2,3.475
696,2,5,2,0,-2,0,0,1,3.48
697,-4,-4,-3,-4,-1,-1,-1,-2,3.485
698,-3,-3,-2,-3,-1,-4,-2,-3,3.49
699,7,-4,-3,-2,-3,-1,-1,2,3.495
700,-6,0,1,-1,0,0,-1,-4,3.5
701,1,1,-1,0,1,-1,0,-1,3.505
702,2,1,-1,-1,1,-1,-2,-1,3.5100000000000002
703,0,3,2,1,0,0,1,1,3.515
704,4,-4,-4,-1,-2,-2,-1,1,3.52
705,-7,1,-1,-1,-3,-2,0,-3,3.525
706,-9,0,-1,-3,-1,1,-1,-2,3.5300000000000002
707,8,2,-4,-2,-1,-1,0,4,3.535
708,2,1,1,0,0,-2,0,1,3.54
709,-1,1,-1,-2,0,-1,-2,-1,3.545
710,5,-1,0,2,1,2,1,1,3.5500000000000003
711,-5,-2,0,-4,-2,0,-1,-4,3.555
712,-4,0,-2,-2,-2,0,-1,-1,3.56
713,3,-2,-3,-1,-2,-3,-2,0,3.565
714,-5,-1,1,0,-1,-2,1,-2,3.5700000000000003
715,-4,-2,-3,-3,-1,-2,-1,-1,3.575
716,-3,-1,-2,0,-1,-2,-1,-2,3.58
717,-3,-1,0,0,1,-1,-1,-2,3.585
718,4,-1,1,0,-1,-1,0,1,3.59
719,-14,-2,1,3,-1,-2,-1,-6,3.595
720,4,-3,-3,-1,0,-1,-1,-2,3.6
721,0,-2,-1,-1,-1,-2,-1,-1,3.605
722,-1,-3,-4,-2,-1,0,0,-2,3.61
723,6,1,6,1,1,0,0,3,3.615
724,-11,-2,-2,-2,-1,0,-2,-3,3.62
725,2,-2,-4,0,-1,0,-1,-2,3.625
726,3,2,-1,-1,0,-1,-1,0,3.63
727,0,-3,-4,-2,-3,-1,0,-2,3.6350000000000002
728,1,-2,-1,1,-1,0,0,-1,3.64
729,1,2,1,1,1,-1,2,-3,3.645
730,-1,-2,0,1,-1,-2,-2,-1,3.65
731,-1,1,1,0,0,-1,-2,-3,3.6550000000000002
732,-3,1,2,2,2,-1,-2,0,3.66
733,-1,-2,-2,-2,-2,1,0,2,3.665
734,-4,1,1,0,0,0,1,1,3.67
735,4,0,-4,-2,-2,-2,-1,-1,3.6750000000000003
736,-4,-4,-1,0,-2,-1,-2,1,3.68
737,-3,-1,0,0,0,-2,-1,1,3.685
738,-2,3,3,1,-1,-1,-1,-1,3.69
739,2,-1,-2,0,-1,-1,1,1,3.6950000000000003
740,4,1,0,0,-1,0,0,1,3.7
741,0,-2,-2,0,-1,-1,-1,-1,3.705
742,2,-1,-3,-3,0,0,2,0,3.71
743,-7,-1,-2,-2,0,-3,-3,-3,3.715
744,3,0,1,-2,-1,-2,-1,-1,3.72
745,1,-1,-1,-3,-1,0,0,1,3.725
746,-4,-2,-2,0,-1,-1,-1,0,3.73
747,0,-2,1,-1,-3,1,-1,0,3.735
748,-2,-6,-6,-5,-2,-1,0,-2,3.74
749,1,-2,-1,0,-3,0,0,-2,3.745
750,0,0,-1,0,-1,-2,-1,-2,3.75
751,-5,0,-1,-1,0,0,0,-2,3.755
752,1,1,-1,-1,0,-2,-1,0,3.7600000000000002
753,-1,-1,-1,-1,0,0,0,0,3.765
754,1,-2,-1,0,-1,-1,-2,2,3.77
755,-1,1,1,-1,0,1,0,-1,3.775
756,0,1,0,-1,-1,0,-1,0,3.7800000000000002
757,1,1,0,-1,-1,-1,-2,-2,3.785
758,5,2,1,-2,0,1,0,2,3.79
759,-8,-4,-1,-1,0,0,1,-2,3.795
760,0,-2,0,-1,-3,-1,0,-1,3.8000000000000003
761,0,2,-3,-2,-2,0,0,-1,3.805
762,3,-1,1,0,0,-1,-1,-1,3.81
763,1,2,1,-2,-1,-1,0,0,3.815
764,0,-2,-5,-3,-2,-1,-1,-1,3.8200000000000003
765,-6,0,-1,-1,0,-1,-1,1,3.825
766,-5,-2,-3,-2,-2,-2,-1,-3,3.83
767,-1,-4,-6,-3,-3,-1,-3,0,3.835
768,0,-2,-2,-1,-1,0,-1,1,3.84
769,-2,0,1,0,-3,0,-2,-1,3.845
770,-4,1,0,-1,-2,-1,-1,-2,3.85
771,0,-2,-3,0,-1,-2,-2,-1,3.855
772,3,2,5,2,0,0,0,1,3.86
773,5,-1,0,-1,-1,-1,0,1,3.865
774,-12,-2,1,0,0,-2,-1,-4,3.87
775,2,1,2,-1,-1,-2,0,-1,3.875
776,-2,-3,-4,-5,-2,-3,-1,-2,3.88
777,-9,-1,-1,-2,0,-2,-1,-1,3.8850000000000002
778,10,-5,-7,-5,-4,-3,-2,2,3.89
779,3,1,0,2,2,0,2,2,3.895
780,-5,-2,1,0,-2,-2,-1,-3,3.9
781,4,1,-1,-4,0,0,-2,-2,3.9050000000000002
782,-11,-6,-8,-6,-3,-1,-2,-2,3.91
783,-15,-7,0,-2,-1,0,-3,-6,3.915
784,2,0,0,-1,0,1,0,0,3.92
785,0,-1,-1,0,-2,-3,-1,-2,3.9250000000000003
786,5,1,-2,2,0,-1,0,1,3.93
787,7,-1,-1,-3,-1,-1,-1,2,3.935
788,-6,0,1,1,0,-2,0,-2,3.94
789,0,-3,1,0,-1,-1,-1,-1,3.9450000000000003
790,-4,-4,-6,-2,-2,-2,-1,-3,3.95
791,-3,0,2,0,-1,-2,1,0,3.955
792,4,0,-4,-1,0,1,-1,-2,3.96
793,-5,-1,-2,0,0,2,-1,-2,3.9650000000000003
794,14,2,3,2,1,0,1,6,3.97
795,-11,-2,-4,-3,-2,-1,0,-6,3.975
796,1,-3,-4,0,-3,-1,0,-1,3.98
797,-3,-5,-5,-3,-1,0,-1,-3,3.985
798,-4,1,1,-1,0,0,-2,-3,3.99
799,5,1,2,-2,-2,1,-3,2,3.995
800,0,1,2,1,1,0,0,1,4.0
801,-3,-5,-1,-1,-1,-2,-1,-1,4.005
802,-2,1,2,0,-1,0,1,1,4.01
803,4,-1,0,-2,-2,-2,0,1,4.015
804,-2,1,1,-1,0,0,0,-1,4.0200000000000005
805,7,4,4,4,0,1,1,1,4.025
806,-8,-3,-4,-4,-2,-3,-3,-3,4.03
807,9,3,2,3,1,0,0,2,4.035
808,-6,-1,1,2,0,1,0,-1,4.04
809,-3,-2,-3,-2,-1,0,0,-1,4.045
810,-1,-1,-2,0,-1,0,-1,-2,4.05
811,1,-3,-1,0,-1,-1,-2,-3,4.055
812,-1,-1,4,2,0,-3,-1,-1,4.0600000000000005
813,3,0,-1,0,1,-4,-3,1,4.065
814,-1,0,0,1,-1,1,1,-1,4.07
815,-3,1,-1,-1,-2,0,-1,0,4.075
816,0,-3,-3,-2,-1,1,-1,-1,4.08
817,-4,-2,-3,-2,-4,-2,0,-1,4.085
818,-1,0,1,0,-1,-1,-1,-1,4.09
819,-1,-3,-4,-1,-2,-2,-1,-1,4.095
820,0,-2,-2,-3,-2,-1,0,0,4.1
821,-1,3,4,0,0,0,-1,-2,4.105
822,-4,-4,-2,0,0,0,0,-3,4.11
823,-1,-4,-5,-3,-1,-1,1,0,4.115
824,2,2,2,0,-1,-3,-2,1,4.12
825,1,-2,-1,1,-2,-1,0,0,4.125
826,2,1,1,3,1,0,1,-1,4.13
827,-2,2,3,1,0,-1,1,-1,4.135
828,8,0,1,-1,-1,2,1,1,4.14
829,-15,-2,-6,-3,-2,-3,-3,-7,4.1450000000000005
830,-4,-1,0,-3,-3,-1,-2,-2,4.15
831,1,1,0,0,-2,0,-1,1,4.155
832,-2,0,-3,-1,0,-1,0,-1,4.16
833,2,-1,-1,-1,1,-1,1,1,4.165
834,0,0,1,0,2,-1,0,1,4.17
835,-3,3,3,2,0,0,-2,-1,4.175
836,5,0,2,-2,0,-2,-1,1,4.18
837,9,1,0,1,0,1,0,1,4.1850000000000005
838,-10,-3,-2,-1,-2,-1,0,-3,4.19
839,4,1,1,0,0,-2,-2,0,4.195
840,-1,2,0,1,0,-2,-1,-3,4.2
841,-9,-5,-3,-2,-2,-1,-1,-1,4.205
842,5,0,-2,-1,-1,-1,-2,0,4.21
843,1,-2,-2,-1,-1,1,0,1,4.215
844,-3,-1,-3,-1,-1,-1,-1,-4,4.22
845,2,2,-1,-1,-1,0,-1,0,4.225
846,1,0,1,-1,1,-2,-1,0,4.23
847,4,-2,-3,-2,-2,-2,1,2,4.235
848,-19,-3,-1,0,-1,-2,-2,-6,4.24
849,5,-5,-6,-5,-4,-3,-1,1,4.245
850,-1,1,-1,-2,1,0,0,0,4.25
851,1,0,-1,-1,-1,0,-2,0,4.255
852,-2,-1,-1,0,-3,0,-2,0,4.26
853,-2,0,1,1,0,-1,1,0,4.265
854,1,-1,2,-1,-1,-1,-4,-1,4.2700000000000005
855,-4,-2,0,0,0,0,-1,-1,4.275
856,3,0,2,0,-1,1,0,2,4.28
857,0,1,1,0,0,-1,-2,-1,4.285
858,4,2,0,-1,-1,-1,0,1,4.29
859,-1,1,3,0,0,-2,0,-1,4.295
860,-7,-6,-1,-1,-2,1,2,-1,4.3
861,15,3,2,0,1,0,0,5,4.305
862,-9,-3,-3,-1,-1,-1,-1,-3,4.3100000000000005
863,-5,-1,-4,-3,-3,-2,-1,-3,4.315
864,3,1,-1,-2,-1,-2,-1,1,4.32
865,-4,0,3,0,0,1,0,0,4.325
866,1,0,-3,-2,-3,-1,0,-1,4.33
867,2,0,0,-1,-2,-1,-1,0,4.335
868,-1,2,-1,-2,-1,0,0,-1,4.34
869,-2,-4,-1,-1,0,0,0,-2,4.345
870,0,1,0,1,0,-1,-1,-1,4.3500000000000005
871,-3,0,1,-1,2,0,0,-1,4.355
872,3,-1,-2,1,-2,0,-1,1,4.36
873,-1,-2,-5,-3,-2,-1,0,0,4.365
874,-3,-1,-1,0,0,0,0,-3,4.37
875,-1,-5,-7,-4,-3,-2,-1,-1,4.375
876,-1,0,-1,-1,-1,-1,-1,-3,4.38
877,2,0,3,0,0,0,1,1,4.385
878,-8,-4,-4,-2,-1,-3,-1,-2,4.39
879,10,1,0,-2,-1,0,0,3,4.3950000000000005
880,1,-2,-6,-3,-2,-1,-2,-1,4.4
881,2,0,0,0,0,-2,-2,0,4.405
882,-6,1,2,1,-1,-1,2,0,4.41
883,-6,-5,-2,-1,-2,-2,-1,-1,4.415
884,6,3,1,1,0,-2,1,0,4.42
885,-13,-6,0,2,1,-2,-1,-5,4.425
886,7,1,0,-1,-1,0,0,0,4.43
887,-1,1,0,1,-1,-1,0,-2,4.4350000000000005
888,1,-1,1,0,0,0,-1,1,4.44
889,-2,0,-5,-1,-1,0,2,-2,4.445
890,2,1,3,2,1,0,-1,1,4.45
891,-4,-2,-3,-2,-2,1,-2,-1,4.455
892,-3,-3,-2,0,-2,0,-1,0,4.46
893,-2,-1,0,1,-2,-1,-1,-2,4.465
894,3,-1,0,-1,-1,-1,-1,-1,4.47
895,1,0,-1,2,0,0,0,-2,4.4750000000000005
896,-2,-4,-3,-3,-2,-1,-2,0,4.48
897,-8,-2,-2,-1,-2,0,-1,-2,4.485
898,12,-1,1,0,-2,-4,-2,3,4.49
899,-3,0,2,1,0,-1,-1,-2,4.495
900,-3,-2,-1,-2,-2,-1,0,-1,4.5
901,-2,-2,-3,-1,-2,0,0,-1,4.505
902,-1,0,0,-1,0,1,1,0,4.51
903,-6,0,2,1,-1,-1,-1,0,4.515
904,8,-1,2,0,1,-1,-1,3,4.5200000000000005
905,-14,-1,1,-3,-2,-2,-3,-6,4.525
906,-3,-5,-7,-4,-3,-2,-1,-2,4.53
907,2,-2,0,0,-1,-2,0,0,4.535
908,-3,-1,-1,0,0,0,2,-1,4.54
909,4,-1,1,0,0,-1,-1,0,4.545
910,-1,0,-2,1,-1,0,0,-1,4.55
911,-11,-6,-9,-5,-2,-2,-2,-6,4.555
912,11,0,-1,-2,-1,-2,1,2,4.5600000000000005
913,2,1,3,1,1,1,1,1,4.565
914,-5,-1,-1,-2,-2,1,-1,-1,4.57
915,5,3,2,3,0,1,1,0,4.575
916,-4,0,-1,-1,0,-1,-1,-3,4.58
917,-3,-3,-1,-1,-1,0,-1,-1,4.585
918,-1,-4,-2,-3,-3,-1,-3,-2,4.59
919,-1,0,2,-1,-1,1,0,-2,4.595
920,0,0,-2,-1,0,0,0,-1,4.6000000000000005
921,3,2,2,2,0,1,-1,0,4.605
922,-2,-3,-2,-2,0,-2,2,-1,4.61
923,4,1,1,-2,0,0,0,1,4.615
924,-8,-5,-3,-3,-1,-2,-3,-2,4.62
925,-2,-2,-1,-1,-2,-2,-1,1,4.625
926,4,2,2,1,0,0,0,2,4.63
927,0,-3,-5,-4,-3,-2,-3,-1,4.635
928,-1,2,4,2,0,1,-1,-2,4.64
929,-2,-6,-11,-7,-5,-4,-4,-4,4.6450000000000005
930,-3,1,-2,-2,-2,-1,-2,-2,4.65
931,2,-2,-1,0,-1,-1,0,1,4.655
932,-5,0,-1,0,-2,-1,1,-2,4.66
933,0,1,1,-2,0,-2,0,-1,4.665
934,3,2,5,3,1,1,1,0,4.67
935,2,-1,-2,0,0,1,-2,-1,4.675
936,-2,-1,-4,-2,-3,-2,-1,-2,4.68
937,0,2,1,0,0,-1,0,0,4.6850000000000005
938,0,-1,0,-1,0,-2,1,0,4.69
939,-4,-1,0,0,0,-1,0,-1,4.695
940,1,-4,-2,-1,0,0,-2,-2,4.7
941,2,0,0,-1,-2,-2,-2,0,4.705
942,-9,-5,-7,-5,-2,1,-1,-3,4.71
943,10,0,1,-1,0,-1,0,3,4.715
944,-7,0,-2,-2,-1,1,-1,-4,4.72
945,5,0,2,1,0,-1,0,2,4.7250000000000005
946,-2,-3,-1,-1,-1,-2,0,0,4.73
947,-4,1,1,1,0,-1,-1,-1,4.735
948,7,0,1,-1,-1,-1,-1,1,4.74
949,-5,0,0,-2,0,1,-1,-1,4.745
950,-10,-2,-2,0,0,-1,-2,-6,4.75
951,7,2,-2,-5,-3,-3,-2,2,4.755
952,-1,0,-1,0,-1,-2,-3,0,4.76
953,3,-1,-2,0,-2,0,0,2,4.765
954,1,1,1,-1,0,-1,-2,0,4.7700000000000005
955,-10,-5,-3,-4,-1,1,-1,-3,4.775
956,-8,-1,1,1,-1,0,-1,-2,4.78
957,11,0,-2,-1,0,-1,-2,2,4.785
958,2,-1,-1,1,-1,0,-1,1,4.79
959,0,2,2,2,0,0,0,-3,4.795
960,-1,-1,2,1,-2,-3,1,-1,4.8
961,-3,-1,-2,1,0,0,0,-3,4.805
962,1,-5,-8,-1,-1,-2,-1,-1,4.8100000000000005
963,-2,1,3,2,1,0,-1,-1,4.815
964,-1,-3,-5,-2,0,1,0,0,4.82
965,-2,-2,0,-1,-1,-1,-2,-1,4.825
966,4,4,5,1,0,1,1,0,4.83
967,-6,-5,-5,-4,0,0,0,-2,4.835
968,3,1,1,-1,0,-1,-1,0,4.84
969,-3,-2,-2,0,-1,-1,-1,-3,4.845
970,1,2,1,1,0,-1,0,-1,4.8500000000000005
971,0,0,0,1,-2,0,1,-1,4.855
972,1,-2,-5,-4,-3,-2,-2,-1,4.86
973,-2,-1,-1,-2,-3,-1,1,-2,4.865
974,-3,-4,-4,-4,-2,-2,-3,0,4.87
975,-1,-3,-1,-1,-1,-1,0,-1,4.875
976,-1,-1,-1,-1,-1,1,0,1,4.88
977,2,3,1,1,0,0,1,2,4.885
978,7,0,-1,0,0,-1,1,3,4.89
979,-13,0,-1,0,1,-2,-1,-4,4.8950000000000005
980,1,0,0,0,-2,-1,-1,1,4.9
981,-3,-2,-2,-1,0,0,0,-1,4.905
982,-4,-2,-4,0,-2,1,0,-2,4.91
983,6,-3,0,0,-1,0,-2,1,4.915
984,-1,-3,-4,0,0,1,-1,-1,4.92
985,0,-2,-1,-2,0,-1,-3,-2,4.925
986,0,1,0,0,-1,-2,-1,-1,4.93
987,0,1,-1,-2,0,0,1,0,4.9350000000000005
988,1,0,1,-1,1,-1,-1,-1,4.94
989,-5,1,-1,-2,-1,1,0,-2,4.945
990,-1,0,-1,-3,-3,-2,-1,-1,4.95
991,-1,-1,-2,-1,0,-1,-1,-2,4.955
992,0,-1,2,2,-2,-1,-1,-1,4.96
993,-1,-1,-5,-5,-2,-4,-2,-1,4.965
994,-5,0,0,-1,-1,0,1,-1,4.97
995,-2,1,0,1,0,-1,1,-1,4.9750000000000005
996,5,1,0,-1,0,-2,0,1,4.98
997,-1,-2,-3,1,-2,-1,-2,0,4.985
998,3,-1,-2,-2,-1,-2,-2,1,4.99
999,-11,0,-4,-5,-2,-1,-3,-4,4.995
1000,-9,-8,-4,-2,-1,-1,-1,-2,5.0
1001,0,2,3,1,2,2,1,0,5.005
1002,-1,-2,-2,-1,-3,-1,0,-3,5.01
1003,12,3,1,-1,-2,0,-1,4,5.015
1004,-13,1,1,-1,-1,-1,-3,-7,5.0200000000000005
1005,-4,-1,1,1,0,-1,-1,1,5.025
1006,-1,0,2,1,0,-1,1,0,5.03
1007,3,1,0,0,0,-1,0,1,5.035
1008,-6,-1,-4,-4,-3,-4,-2,-3,5.04
1009,6,3,2,1,0,-2,1,3,5.045
1010,-2,2,2,1,0,1,0,-2,5.05
1011,0,-1,-2,-1,0,0,-1,0,5.055
1012,5,1,2,2,2,2,0,2,5.0600000000000005
1013,0,0,-1,0,0,-1,-1,-2,5.065
1014,-2,-3,-4,-3,-2,-2,-2,-2,5.07
1015,-8,-5,-4,-2,0,-1,-2,-3,5.075
1016,1,-1,-4,-2,0,-1,0,0,5.08
1017,-2,0,-1,-1,-1,-1,-1,-1,5.085
1018,1,0,0,-2,-1,0,0,-1,5.09
1019,0,-1,-2,0,0,-3,0,-2,5.095
1020,-1,-1,1,0,0,0,0,1,5.1000000000000005
1021,-1,-3,-1,-1,-2,-1,-3,-1,5.105
1022,-5,-3,-4,-3,-2,-2,-2,-2,5.11
1023,3,0,0,-1,0,-2,0,0,5.115
1024,-4,-1,-1,-3,0,-1,1,-2,5.12
1025,10,-1,-4,-2,-1,-2,1,2,5.125
1026,-1,0,1,2,0,0,0,1,5.13
1027,2,1,1,1,1,0,0,0,5.135
1028,5,0,0,-1,0,0,1,3,5.14
1029,-19,-7,-5,-3,-1,0,-2,-8,5.1450000000000005
1030,2,1,2,2,0,-1,-3,1,5.15
1031,-1,-2,1,0,-2,-1,-2,-1,5.155
1032,3,1,1,1,0,0,1,2,5.16
1033,0,2,3,0,-2,-1,-1,-1,5.165
1034,-2,1,1,-1,0,-1,0,-1,5.17
1035,2,-1,1,-1,-1,-1,-1,0,5.175
1036,2,0,0,0,0,-1,-3,-1,5.18
1037,1,3,1,1,-1,1,0,0,5.1850000000000005
1038,-2,-2,-3,-3,-2,-1,-1,-2,5.19
1039,-1,-1,-1,-2,-1,0,0,0,5.195
1040,0,-2,0,0,-3,-1,-2,0,5.2
1041,0,-1,1,-1,0,-2,-1,0,5.205
1042,-1,-1,1,0,-3,-2,-2,-1,5.21
1043,-7,-2,0,-2,-1,-2,0,-4,5.215
1044,10,1,0,-1,-2,-1,-2,2,5.22
1045,4,-2,-4,-2,-3,-3,-1,1,5.2250000000000005
1046,-12,-8,-4,-3,0,0,0,-2,5.23
1047,-4,0,-2,-1,-3,0,0,0,5.235
1048,-5,-1,-1,0,0,0,-2,-1,5.24
1049,-4,0,3,1,1,-1,0,1,5.245
1050,4,1,-4,-2,-1,-1,-1,0,5.25
1051,1,-1,-2,-2,-1,0,-2,-1,5.255
1052,-1,-1,-1,-1,-3,-3,-1,-1,5.26
1053,0,1,-1,0,1,0,1,1,5.265
1054,2,4,4,1,0,-2,-1,-2,5.2700000000000005
1055,-4,-3,2,-1,-2,-1,0,-2,5.275
1056,-3,-1,-5,-2,-1,-2,1,-1,5.28
1057,-2,0,1,0,1,1,-2,0,5.285
1058,6,1,0,0,0,-1,1,1,5.29
1059,-5,0,0,1,0,-1,-2,-2,5.295
1060,-4,1,0,-1,1,-2,-3,-2,5.3
1061,-1,-2,-4,-2,-2,-2,0,-1,5.305
1062,-2,-2,-1,0,0,2,-1,-1,5.3100000000000005
1063,2,-1,-3,-2,-1,0,-1,-1,5.315
1064,-2,0,0,0,-1,2,-1,-2,5.32
1065,-2,-4,-4,-4,-2,-2,-1,-2,5.325
1066,0,1,-1,-1,-1,1,0,0,5.33
1067,3,1,0,-1,-1,-1,0,0,5.335
1068,0,-1,0,-1,-1,-1,1,-1,5.34
1069,0,-3,2,0,0,-1,-2,0,5.345
1070,1,-1,0,1,-1,-1,0,-1,5.3500000000000005
1071,0,-1,-1,-1,-2,0,-1,0,5.355
1072,-1,-2,-7,-5,-3,-3,-3,-1,5.36
1073,0,0,-1,1,-1,0,1,-1,5.365
1074,-1,-1,0,-1,-1,-2,-2,-2,5.37
1075,-2,-3,0,1,-1,-2,-1,-1,5.375
1076,1,-5,-3,0,-1,-1,-1,-1,5.38
1077,-7,-2,-3,-3,-2,-1,-1,-2,5.385
1078,-3,-1,-1,0,0,0,0,0,5.39
1079,3,0,1,1,0,0,-1,0,5.3950000000000005
1080,-3,0,-1,1,-1,0,-1,-1,5.4
1081,6,0,1,1,-2,-1,1,0,5.405
1082,-1,0,-2,-1,-1,-1,-2,-1,5.41
1083,2,-2,-3,0,0,0,0,1,5.415
1084,-2,0,2,-2,0,0,0,0,5.42
1085,2,-1,1,-1,-2,0,-1,2,5.425
1086,2,-2,-2,-1,1,-1,-2,1,5.43
1087,-8,-4,-1,-2,-2,-3,0,-3,5.4350000000000005
1088,2,0,1,-1,-1,-1,-1,-1,5.44
1089,-2,-2,-3,-2,1,-1,-1,-2,5.445
1090,-7,-2,-2,-2,-1,1,0,-2,5.45
1091,9,2,-1,0,0,0,-1,3,5.455
1092,-1,0,1,0,1,-1,0,1,5.46
1093,0,0,-1,-3,-1,-1,-2,-1,5.465
1094,-5,-3,-1,0,0,-1,-2,-2,5.47
1095,9,2,0,0,-2,0,0,1,5.4750000000000005
1096,-5,-2,0,0,0,-2,0,0,5.48
1097,-9,2,3,3,0,1,0,-5,5.485
1098,3,0,0,0,-3,-1,-2,0,5.49
1099,-2,0,0,-1,1,-1,-2,-1,5.495
1100,5,4,0,0,-1,-1,0,-1,5.5
1101,1,-4,-5,-4,-2,-1,-2,-1,5.505
1102,-1,-1,-1,0,-1,-2,0,-1,5.51
1103,0,1,0,-1,0,0,0,-1,5.515
1104,-2,0,1,0,0,2,-1,-1,5.5200000000000005
1105,-1,-1,-1,0,0,-2,-2,-1,5.525
1106,-4,1,2,-2,0,-3,0,-2,5.53
1107,-5,-5,-6,0,-1,0,-1,-3,5.535
1108,3,2,2,0,-1,1,0,0,5.54
1109,-4,-1,-6,-3,-3,-2,0,-1,5.545
1110,5,-2,-1,-1,-1,0,0,1,5.55
1111,-7,0,2,0,0,-1,-1,-1,5.555
1112,-1,-4,-6,-1,-2,-2,-2,1,5.5600000000000005
1113,4,1,1,1,-1,0,-1,0,5.565
1114,0,0,1,0,0,-1,0,1,5.57
1115,-6,-2,1,0,-1,-1,-4,-2,5.575
1116,-2,-1,-1,-1,0,-1,1,-1,5.58
1117,-1,0,0,-2,1,-1,-2,0,5.585
1118,-2,0,1,-2,1,-1,-1,-1,5.59
1119,-2,-5,-5,-4,-2,-1,1,-2,5.595
1120,0,1,-1,-2,-1,-1,0,-1,5.6000000000000005
1121,-4,-1,-1,0,0,-3,1,-2,5.605
1122,9,2,-1,0,-1,1,-1,3,5.61
1123,-13,-1,-4,-2,-1,-1,-3,-6,5.615
1124,-5,-2,-1,-1,-1,0,-2,-3,5.62
1125,-3,-4,-4,1,0,0,0,-1,5.625
1126,2,1,0,0,0,0,-2,-1,5.63
1127,5,2,1,2,2,-1,2,2,5.635
1128,-3,-1,-3,1,1,-2,-1,-2,5.64
1129,-1,1,1,1,-1,-1,0,0,5.6450000000000005
1130,1,0,1,0,0,-1,-1,-2,5.65
1131,4,0,0,-1,-1,-1,-1,0,5.655
1132,-6,-2,-2,-2,-1,0,0,-1,5.66
1133,4,1,1,0,0,-1,0,0,5.665
1134,-2,0,0,0,0,0,-1,-1,5.67
1135,1,-1,1,-2,-2,-2,0,-1,5.675
1136,2,-6,-3,-5,-2,-4,-2,-1,5.68
1137,0,2,1,2,-1,0,0,0,5.6850000000000005
1138,-5,-2,-3,0,-2,0,0,-2,5.69
1139,2,-1,-2,1,-1,-1,-2,-1,5.695
1140,2,1,6,2,0,0,-1,1,5.7
1141,0,0,-2,-3,-2,-1,0,-1,5.705
1142,-6,-4,-3,-3,-2,-1,-1,-2,5.71
1143,2,-1,0,1,-1,0,-1,1,5.715
1144,-4,1,0,2,0,0,1,-1,5.72
1145,8,-2,0,-1,-2,-1,-1,2,5.7250000000000005
1146,1,-1,-2,0,0,0,0,0,5.73
1147,1,1,-1,-1,0,0,0,1,5.735
1148,-3,-1,-2,-1,0,-1,-1,-3,5.74
1149,-3,-2,-3,-1,-1,-2,-2,-2,5.745
1150,0,-3,-5,-4,-2,-1,-1,-2,5.75
1151,-2,-1,2,1,-1,0,0,0,5.755
1152,0,0,0,-1,-1,-1,1,0,5.76
1153,5,2,4,2,0,0,-1,2,5.765
1154,-5,1,1,-2,-2,-1,-2,-4,5.7700000000000005
1155,-1,-1,-1,-3,-1,0,0,-2,5.775
1156,-2,-1,0,0,-1,-1,1,-1,5.78
1157,8,3,5,2,1,0,2,2,5.785
1158,1,-1,0,1,-1,-1,1,4,5.79
1159,-6,1,1,0,0,-2,-3,-2,5.795
1160,2,-1,-1,-1,0,-1,0,1,5.8
1161,-4,-1,-2,-2,0,-1,-2,-2,5.805
1162,1,1,-1,0,1,-2,-2,-1,5.8100000000000005
1163,-4,-3,-3,0,-2,1,0,-2,5.815
1164,6,-3,-1,-1,-3,-3,-1,1,5.82
1165,1,1,-2,-1,0,0,-1,-1,5.825
1166,-4,-3,-1,-3,-1,-1,-2,-1,5.83
1167,-3,0,-2,0,-2,0,-1,-1,5.835
1168,-2,0,0,0,0,0,-2,-2,5.84
1169,-3,-1,0,-2,-1,-1,-2,-2,5.845
1170,2,0,-1,2,-1,1,-1,1,5.8500000000000005
1171,0,-2,-2,-2,-2,-2,-1,0,5.855
1172,0,1,-1,-3,-1,0,-1,0,5.86
1173,3,-2,-3,-1,1,1,0,1,5.865
1174,-13,0,1,1,-1,-2,-1,-6,5.87
1175,4,2,-1,-1,0,-1,-2,1,5.875
1176,-3,-4,-5,-3,-1,1,0,1,5.88
1177,-12,-8,-3,-5,-1,-3,-2,-4,5.885
1178,0,-2,-2,-2,-1,-1,1,0,5.89
1179,-1,1,1,2,1,1,1,-2,5.8950000000000005
1180,10,1,-3,-1,-1,-2,-2,1,5.9
1181,-1,-2,1,0,0,1,0,-2,5.905
1182,2,2,2,-1,-1,-2,-3,-1,5.91
1183,0,-1,-1,-2,-2,-2,-1,1,5.915
1184,-3,0,-2,-3,-3,-1,-1,-4,5.92
1185,-5,-2,-1,-1,-1,-1,0,-2,5.925
1186,3,0,-1,1,-1,-4,-3,0,5.93
1187,1,0,0,1,-2,-2,-1,2,5.9350000000000005
1188,-4,-2,-2,-1,-3,-1,-1,-3,5.94
1189,3,2,0,1,-1,-3,-1,0,5.945
1190,-4,-1,-2,-2,-1,-1,0,0,5.95
1191,0,-2,-1,-1,-1,-1,-3,-1,5.955
1192,-10,-5,-7,-4,-1,-2,-1,-4,5.96
1193,0,-1,-2,1,-1,0,-2,-1,5.965
1194,7,1,2,-1,-2,1,-1,0,5.97
1195,-7,0,1,1,1,0,0,-3,5.9750000000000005
1196,3,1,3,1,1,-2,0,0,5.98
1197,-2,1,0,1,0,-1,-1,-1,5.985
1198,2,0,-2,-1,-1,0,-1,1,5.99
1199,4,0,-1,-2,-1,-2,0,0,5.995
1200,-3,0,4,3,0,1,0,-2,6.0
1201,-4,0,-2,-4,-1,-2,-1,-1,6.005
1202,1,-2,-2,-3,-2,-3,-1,1,6.01
1203,0,-3,-2,-2,1,0,-1,0,6.015000000000001
1204,2,2,0,-1,-2,-1,-1,1,6.0200000000000005
1205,-1,-1,2,-1,-1,-1,-2,-1,6.025
1206,-3,0,0,0,-1,0,1,-1,6.03
1207,1,-1,-1,-2,-1,1,1,-1,6.035
1208,1,-2,-1,-1,0,-2,-2,-1,6.04
1209,-5,-2,-4,-2,-2,-2,0,-1,6.045
1210,3,2,1,0,1,-2,-1,1,6.05
1211,-1,-2,-4,-1,-2,-2,-1,-1,6.055
1212,2,0,1,1,1,0,1,-1,6.0600000000000005
1213,0,-1,-2,-1,-2,-2,-2,0,6.065
1214,-3,0,1,1,1,0,-1,0,6.07
1215,3,0,0,-1,-1,-3,-2,-1,6.075
1216,-2,1,0,-1,0,0,-1,-1,6.08
1217,-6,-1,0,0,-2,-2,-1,-4,6.085
1218,1,-2,-1,-1,-1,1,-1,0,6.09
1219,-2,-1,-4,-2,0,-1,-1,0,6.095
1220,0,-3,-2,0,-2,-1,-1,-1,6.1000000000000005
1221,-4,0,3,-1,2,0,0,-3,6.105
1222,8,1,-1,-1,0,-2,1,2,6.11
1223,-2,0,1,0,0,0,0,-1,6.115
1224,8,-1,-1,-1,0,0,-3,2,6.12
1225,-18,-5,-4,-2,-2,-1,-3,-6,6.125
1226,-3,-1,-3,-2,-1,-1,-1,-1,6.13
1227,1,-1,1,-1,0,-1,-2,-1,6.135
1228,-2,-4,-7,-4,-4,-2,0,-2,6.140000000000001
1229,11,-1,2,0,-1,1,-1,3,6.1450000000000005
1230,-11,-6,-1,-2,-2,-2,-2,-5,6.15
1231,0,-1,-4,-2,-4,0,0,0,6.155
1232,-13,-5,-1,-1,-1,-1,-4,-2,6.16
1233,6,1,-1,0,0,1,1,2,6.165
1234,1,0,-1,-1,-1,-1,0,-1,6.17
1235,4,2,-1,0,-1,0,1,-1,6.175
1236,8,-1,-1,0,0,0,-1,2,6.18
1237,-7,-2,-4,-2,-1,-2,-1,-3,6.1850000000000005
1238,0,-1,-4,-3,0,0,-2,0,6.19
1239,-5,-1,2,-1,0,-1,-2,-1,6.195
1240,2,4,1,2,0,-1,0,-1,6.2
1241,1,-1,-1,0,0,-1,0,0,6.205
1242,-2,0,-3,-1,-1,0,0,0,6.21
1243,-5,-1,-1,-1,-1,-1,-2,-2,6.215
1244,5,0,-2,0,0,-1,1,0,6.22
1245,9,0,-2,-3,-2,0,0,1,6.2250000000000005
1246,-4,-2,-7,-5,-3,-1,-1,-3,6.23
1247,-2,-4,-3,-2,-2,-1,-1,0,6.235
1248,-5,0,2,-1,-1,1,-1,-3,6.24
1249,7,-1,-1,0,-2,-1,-2,1,6.245
1250,-4,0,-2,0,0,-1,-1,-3,6.25
1251,-7,-2,-4,-3,-1,-1,1,-1,6.255
1252,0,0,-1,-3,-1,0,-1,-1,6.26
1253,0,0,1,-1,0,-2,0,-1,6.265000000000001
1254,-4,-2,1,1,-1,-1,2,0,6.2700000000000005
1255,6,3,2,1,0,-1,0,0,6.275
1256,3,2,6,4,0,0,0,0,6.28
1257,-11,-1,-1,-1,-1,1,0,-4,6.285
1258,4,0,4,3,0,1,-1,0,6.29
1259,2,-1,-2,0,0,1,-1,-1,6.295
1260,-1,2,2,2,0,1,1,-1,6.3
1261,1,0,0,0,-2,0,0,0,6.305
1262,0,-3,-2,2,0,-1,0,-1,6.3100000000000005
1263,-1,-2,-4,-3,-2,-2,-2,0,6.315
1264,-5,-3,-3,-2,-1,-1,-1,-1,6.32
1265,5,2,-1,-1,-2,-1,-1,2,6.325
1266,-9,-2,0,-1,1,0,-3,-5,6.33
1267,5,0,0,-1,-3,0,0,0,6.335
1268,-3,-1,-4,-2,-1,-1,0,-1,6.34
1269,-5,-6,-4,-3,-3,-1,-2,-3,6.345
1270,4,2,-3,-1,0,1,0,2,6.3500000000000005
1271,-3,0,1,0,-1,-1,-2,-2,6.355
1272,1,1,-4,-1,-2,0,0,-1,6.36
1273,1,-2,0,0,1,0,-1,1,6.365
1274,-9,1,0,-1,-3,-1,-2,-4,6.37
1275,4,0,1,0,0,-1,1,0,6.375
1276,-13,0,0,-1,-2,-2,-2,-3,6.38
1277,-2,-1,-5,-3,-1,-1,-1,-2,6.385
1278,3,0,1,1,-1,-2,1,2,6.390000000000001
1279,-4,-2,0,-2,-1,1,-2,-2,6.3950000000000005
1280,2,0,1,0,1,1,-1,0,6.4
1281,2,0,-2,-3,-2,-4,-1,-1,6.405
1282,2,-3,-1,-2,-2,-1,-1,-1,6.41
1283,3,0,1,0,0,-1,2,-1,6.415
1284,-1,-2,1,1,-2,2,-1,1,6.42
1285,-1,-1,0,0,1,0,0,-1,6.425
1286,7,2,3,-1,-2,-2,0,2,6.43
1287,-7,-4,-4,-3,0,-3,-2,-2,6.4350000000000005
1288,-3,-2,0,-2,-4,-3,-1,-1,6.44
1289,0,1,1,2,0,0,0,0,6.445
1290,2,0,-1,0,1,0,0,-1,6.45
1291,-2,-2,-1,0,1,2,0,0,6.455
1292,-2,-1,-2,-2,0,-2,0,-2,6.46
1293,1,-2,-1,-1,0,-3,-1,-1,6.465
1294,-6,0,-1,-2,-1,0,-3,-4,6.47
1295,10,-1,-3,0,-2,-4,-1,2,6.4750000000000005
1296,1,1,1,1,1,0,-3,-1,6.48
1297,-7,-1,1,0,-1,-1,0,-2,6.485
1298,-2,-2,-1,0,-2,0,-1,1,6.49
1299,-3,2,-1,1,1,-1,-3,0,6.495
1300,3,-3,-2,-1,-3,-3,-1,-1,6.5
1301,4,2,1,2,1,1,-1,1,6.505
1302,4,0,-2,-1,-1,-3,1,0,6.51
1303,-16,-5,-3,-3,-3,0,-2,-5,6.515000000000001
1304,0,1,0,0,-1,0,-2,1,6.5200000000000005
1305,-1,2,0,0,1,1,-1,0,6.525
1306,1,-3,0,-2,-1,-3,-2,0,6.53
1307,3,0,1,-1,-1,0,0,1,6.535
1308,-1,-3,-3,-2,-1,-2,0,-1,6.54
1309,1,1,-2,0,-3,-1,-1,0,6.545
1310,4,4,3,1,-1,0,1,2,6.55
1311,3,-3,-2,-1,-1,-3,-1,0,6.555
1312,-2,-1,2,1,2,1,0,-2,6.5600000000000005
1313,0,-3,-3,-2,-1,-2,0,-1,6.565
1314,0,0,-1,0,0,1,0,-1,6.57
1315,-5,1,3,-2,-1,-1,0,-2,6.575
1316,-2,-1,-3,-2,0,-1,-1,-1,6.58
1317,-3,-3,-3,-2,2,-2,-2,-2,6.585
1318,2,-5,-4,-3,-3,-1,-1,1,6.59
1319,-3,-1,0,1,0,1,0,-2,6.595
1320,1,0,-1,-1,0,-1,-1,-2,6.6000000000000005
1321,3,1,0,-1,-3,0,-1,0,6.605
1322,-1,-3,-4,-2,-1,0,-2,-1,6.61
1323,0,0,-3,0,-1,2,-1,1,6.615
1324,2,-1,-1,0,-1,-2,-1,0,6.62
1325,-3,-2,0,-1,0,0,-2,-2,6.625
1326,13,6,5,2,0,0,2,4,6.63
1327,-24,-8,-2,-2,-4,-1,-3,-7,6.635
1328,-1,0,1,2,1,0,-1,-1,6.640000000000001
1329,3,-1,-3,-3,-1,-1,0,1,6.6450000000000005
1330,-4,-2,-1,0,0,-1,-2,-3,6.65
1331,12,2,1,1,-1,0,2,2,6.655
1332,-4,-2,-2,-2,-2,-1,0,0,6.66
1333,-11,-2,3,2,-2,-1,0,-4,6.665
1334,-1,1,0,-3,-1,-2,-1,0,6.67
1335,-1,0,-4,-2,-1,-1,-2,-3,6.675
1336,-1,-1,-1,-1,-3,-2,-1,-1,6.68
1337,7,-1,0,-1,0,0,1,1,6.6850000000000005
1338,-9,-4,-3,-1,1,-1,0,-4,6.69
1339,2,1,-1,-1,0,0,-1,-1,6.695
1340,1,-2,-1,-2,-3,-1,0,0,6.7
1341,0,0,0,1,-2,0,0,0,6.705
1342,-2,-3,-2,-1,-2,0,0,-3,6.71
1343,4,0,1,1,-2,-1,-1,1,6.715
1344,2,1,-1,-1,-2,-1,0,0,6.72
1345,-3,-3,-5,-3,-1,-3,-1,-2,6.7250000000000005
1346,-3,-2,-4,-1,1,-1,0,0,6.73
1347,4,1,0,1,-1,0,0,1,6.735
1348,-4,0,1,-2,-2,-1,-2,-2,6.74
1349,-3,0,0,0,0,-2,1,-1,6.745
1350,12,0,1,1,-1,-1,0,6,6.75
1351,-10,-2,-2,-2,1,-2,-1,-7,6.755
1352,-1,-4,-3,1,0,-2,-1,-1,6.76
1353,4,0,0,-2,-1,-1,-2,-1,6.765000000000001
1354,-2,-1,0,0,-1,-2,-2,-2,6.7700000000000005
1355,5,0,1,-1,-1,-1,2,3,6.775
1356,-1,-3,-1,-1,-1,-1,-2,-2,6.78
1357,2,0,-1,-1,-1,-1,-1,1,6.785
1358,-6,-2,-2,-1,-1,-2,-2,-3,6.79
1359,3,-1,-2,-1,-5,-2,-3,0,6.795
1360,0,-1,-1,-2,0,0,-1,-1,6.8
1361,-1,-2,-1,-2,-2,0,-2,0,6.805
1362,-3,-2,-1,0,-1,0,-2,-2,6.8100000000000005
1363,-1,-1,-2,-2,0,0,-2,-1,6.815
1364,3,1,-2,1,1,-1,1,0,6.82
1365,-6,-2,0,1,2,0,-1,0,6.825
1366,1,-1,-4,-1,-2,-1,-2,-2,6.83
1367,-4,-2,-3,-1,-2,-1,-1,-3,6.835
1368,2,0,-1,-2,-1,0,-1,0,6.84
1369,-1,0,0,-2,-1,1,-1,0,6.845
1370,-4,0,0,-2,-1,-1,0,0,6.8500000000000005
1371,3,1,2,0,1,-1,-2,0,6.855
1372,-1,-1,0,0,-1,0,0,-1,6.86
1373,-6,-3,-3,-1,-3,-2,-1,-3,6.865
1374,9,-2,-4,-2,0,0,-1,0,6.87
1375,-6,1,-1,-1,0,1,1,-3,6.875
1376,-12,-4,-3,0,0,-2,-1,-3,6.88
1377,-1,0,2,2,0,-2,-2,0,6.885
1378,-6,-6,-4,-1,-3,-2,-1,-2,6.890000000000001
1379,4,0,0,-2,0,0,0,2,6.8950000000000005
1380,2,1,0,0,0,1,0,0,6.9
1381,8,-1,-2,-1,-2,-1,0,0,6.905
1382,-2,2,1,0,2,0,0,-1,6.91
1383,-1,-2,-3,-1,-2,-3,-1,0,6.915
1384,-2,-5,-9,-4,0,-1,0,-1,6.92
1385,2,2,2,1,1,1,0,-1,6.925
1386,1,3,4,1,-1,-3,-2,-1,6.93
1387,13,-7,-6,-3,-3,-2,-1,3,6.9350000000000005
1388,-18,-1,-3,-2,-2,-3,-4,-11,6.94
1389,-4,-1,-1,-3,-3,-2,0,0,6.945
1390,-1,0,2,0,0,0,-2,-1,6.95
1391,-19,-1,-1,0,-1,-3,0,-6,6.955
1392,23,1,2,2,0,1,2,6,6.96
1393,-4,-2,-6,0,0,-1,-1,-1,6.965
1394,4,3,-4,-6,-3,-2,0,4,6.97
1395,-6,-7,-1,2,-2,-3,-4,0,6.9750000000000005
1396,-7,-3,-3,-3,-1,-2,-1,-3,6.98
1397,11,4,3,3,-1,1,1,1,6.985
1398,4,0,2,1,1,1,1,1,6.99
1399,9,5,2,1,1,1,1,4,6.995
1400,-9,0,0,-1,0,0,-3,-4,7.0
1401,-6,-3,-5,-4,0,-2,0,-4,7.005
1402,-10,-2,0,-1,-1,-2,-4,-8,7.01
1403,1,0,-1,1,-1,-1,2,7,7.015000000000001
1404,-13,-2,0,-3,-1,-1,1,-1,7.0200000000000005
1405,14,3,3,0,-1,0,1,3,7.025
1406,10,-2,-1,2,-3,-5,-3,4,7.03
1407,-9,0,2,-2,3,4,0,-9,7.035
1408,15,4,2,-1,-4,-2,3,8,7.04
1409,-21,-7,-4,-3,-4,-6,-7,-13,7.045
1410,-4,1,1,3,1,-1,1,2,7.05
1411,7,4,5,4,1,0,-2,-9,7.055
1412,5,3,5,3,2,0,3,12,7.0600000000000005
1413,10,0,-2,-2,0,1,-1,0,7.065
1414,6,-6,-10,-4,-3,1,5,10,7.07
1415,-32,-3,-1,-9,-4,-3,-4,-12,7.075
1416,10,3,2,4,-1,2,1,1,7.08
1417,14,0,-1,-1,-1,-3,-3,6,7.085
1418,-10,-3,3,3,2,1,-2,-7,7.09
1419,8,3,-4,0,0,4,2,5,7.095
1420,-8,-6,-7,-8,-7,-5,-2,-10,7.1000000000000005
1421,-16,3,4,7,2,2,1,-3,7.105
1422,-1,5,3,-1,0,-2,-5,-14,7.11
1423,86,13,1,5,2,4,15,42,7.115
1424,-71,-8,0,1,1,-3,-11,-16,7.12
1425,-22,-11,-6,-4,0,0,-1,-2,7.125
1426,-19,-8,-6,-3,-2,-1,-3,-7,7.13
1427,-5,1,4,1,-1,-2,-3,-6,7.135
1428,32,0,-2,-2,-1,0,1,9,7.140000000000001
1429,6,-1,-4,-1,-2,-2,0,5,7.1450000000000005
1430,1,3,1,-2,1,2,1,0,7.15
1431,-24,-7,-3,4,0,-5,-7,-18,7.155
1432,20,6,6,2,4,0,4,7,7.16
1433,-9,-8,-7,-14,-8,-5,-8,-7,7.165
1434,-2,3,4,0,1,3,4,3,7.17
1435,9,3,-1,-1,-1,1,3,5,7.175
1436,-17,-13,-10,9,4,-4,-5,-11,7.18
1437,7,6,3,-6,-2,1,2,2,7.1850000000000005
1438,5,-3,-11,-1,-4,-3,-2,6,7.19
1439,-23,-3,2,0,1,0,0,-5,7.195
1440,17,6,2,-4,-3,0,0,-4,7.2
1441,0,-1,3,5,3,5,6,6,7.205
1442,11,7,4,1,0,-3,-7,-6,7.21
1443,-24,7,1,-3,-2,-2,3,0,7.215
1444,-1,-8,-1,-1,-1,0,-3,-8,7.22
1445,6,8,9,8,3,1,7,15,7.2250000000000005
1446,2,1,-1,-4,-3,0,1,4,7.23
1447,9,0,-6,-5,-5,-5,-5,-2,7.235
1448,-12,2,-2,0,1,1,1,-6,7.24
1449,1,-6,-6,-3,-5,-4,-2,-7,7.245
1450,4,-4,0,-2,-1,1,4,7,7.25
1451,-11,-14,-11,-8,-4,-5,-6,-10,7.255
1452,-18,-1,-4,-5,-4,-2,-3,-2,7.26
1453,1,-3,2,-1,-1,0,-3,-7,7.265000000000001
1454,-11,-3,-7,-7,-4,-2,1,-1,7.2700000000000005
1455,7,-4,3,2,0,-1,-1,5,7.275
1456,24,5,1,-1,-3,-2,1,9,7.28
1457,-36,2,0,1,-1,-1,-6,-23,7.285
1458,1,-5,1,1,-3,0,1,6,7.29
1459,-10,1,0,0,-3,0,-5,-3,7.295
1460,4,0,2,2,1,2,5,6,7.3
1461,33,0,-8,-2,-2,0,1,8,7.305
1462,-37,-4,5,6,0,-1,-7,-19,7.3100000000000005
1463,-11,-6,-16,-13,-2,-3,-4,-6,7.315
1464,0,-8,-6,-8,-4,-2,0,1,7.32
1465,15,1,2,3,2,0,1,3,7.325
1466,-3,1,-1,-2,2,2,3,1,7.33
1467,6,0,2,4,2,2,0,3,7.335
1468,1,2,2,2,-3,-2,-3,-5,7.34
1469,-5,-2,-3,-1,-3,-1,-1,1,7.345
1470,11,-2,-4,-2,-1,-1,1,2,7.3500000000000005
1471,-11,-1,1,2,0,-1,3,0,7.355
1472,23,6,3,-1,-1,-1,2,6,7.36
1473,-25,0,-1,-2,-3,-1,-2,-3,7.365
1474,-8,0,3,3,-1,-4,-5,-13,7.37
1475,-12,-1,-4,2,-2,-2,-1,-3,7.375
1476,19,3,1,-5,0,0,2,8,7.38
1477,-27,-11,-5,0,1,-1,-2,-11,7.385
1478,1,1,2,-1,0,-1,1,4,7.390000000000001
1479,37,11,8,5,0,2,-2,-1,7.3950000000000005
1480,-21,-11,1,4,-1,-1,-4,-5,7.4
1481,-9,2,-3,-1,2,1,-2,-5,7.405
1482,-4,-4,-4,1,0,0,-1,0,7.41
1483,5,3,6,0,0,-1,1,2,7.415
1484,4,1,1,2,0,-2,0,2,7.42
1485,11,-3,-2,-3,-3,-3,-1,1,7.425
1486,-1,-2,-1,0,-2,-2,-2,-3,7.43
1487,-6,-5,-5,-5,-2,2,2,-1,7.4350000000000005
1488,-9,2,1,2,0,1,-2,-2,7.44
1489,1,-5,0,0,-1,-2,-3,-4,7.445
1490,-8,6,5,4,3,2,6,7,7.45
1491,1,0,0,-4,-2,-4,-5,-5,7.455
1492,-10,0,1,-1,0,1,0,-3,7.46
1493,19,2,-2,2,-1,0,3,5,7.465
1494,37,2,1,0,-1,2,5,5,7.47
1495,0,3,-1,2,2,1,4,8,7.4750000000000005
1496,-8,-3,-9,-4,-2,-1,-4,-4,7.48
1497,13,11,7,3,2,1,3,7,7.485
1498,-27,-15,-6,-4,-3,-5,-9,-10,7.49
1499,-16,-1,-2,-3,-3,-1,0,-7,7.495
1500,-2,-2,-3,0,0,0,1,1,7.5
1501,11,1,-2,-5,-2,-2,-1,4,7.505
1502,-3,-1,1,2,0,-2,0,-1,7.51
1503,10,0,2,-1,0,0,0,1,7.515000000000001
1504,11,5,2,4,0,2,0,2,7.5200000000000005
1505,-13,-5,-5,-4,-3,-1,-1,-3,7.525
1506,2,4,2,1,1,-1,0,-1,7.53
1507,7,-1,0,-1,-2,-1,0,0,7.535
1508,-13,-6,-3,-2,-2,-1,-2,-3,7.54
1509,6,5,4,3,1,3,0,4,7.545
1510,1,3,-3,-1,-2,-1,0,2,7.55
1511,0,-13,-6,-4,-4,-4,-3,-4,7.555
1512,0,-2,-4,-3,-3,-3,-3,-3,7.5600000000000005
1513,-2,2,0,2,0,0,-2,-7,7.565
1514,0,-3,-3,0,-2,-3,1,7,7.57
1515,-6,0,1,0,1,-3,1,-3,7.575
1516,2,5,2,2,1,0,4,3,7.58
1517,-9,-7,-4,-3,-2,-2,-1,-3,7.585
1518,3,2,-2,-4,0,-2,-2,-3,7.59
1519,-2,-3,-3,-2,-2,-1,-3,-1,7.595
1520,6,3,-1,-1,0,-1,1,1,7.6000000000000005
1521,-4,-3,1,3,0,-1,0,2,7.605
1522,2,-1,-1,-2,-2,0,0,-3,7.61
1523,-3,3,2,3,0,1,0,2,7.615
1524,-2,-4,-6,-4,-2,-2,-1,-3,7.62
1525,-1,2,1,-1,-1,-3,-1,0,7.625
1526,0,-6,-5,-4,-3,-2,-3,-2,7.63
1527,-4,-2,1,1,1,0,-1,0,7.635
1528,5,1,1,-1,-1,-1,0,0,7.640000000000001
1529,-2,1,-1,-2,0,-1,1,1,7.6450000000000005
1530,1,0,-3,-1,0,0,0,0,7.65
1531,-1,0,0,0,1,-1,0,-1,7.655
1532,-1,-3,-1,0,-1,-1,0,-2,7.66
1533,4,0,-1,-1,-1,-1,0,3,7.665
1534,-6,-1,-4,-3,-1,0,-1,-5,7.67
1535,1,-3,-2,0,0,0,-2,-2,7.675
1536,6,0,1,0,-1,0,-1,3,7.68
1537,-4,-1,-1,-1,-1,-1,0,-6,7.6850000000000005
1538,3,0,-1,-1,-3,1,1,2,7.69
1539,-2,0,0,2,-1,-2,-1,0,7.695
1540,-4,-2,-3,-1,-1,0,-2,-3,7.7
1541,1,-1,0,1,-1,0,-1,3,7.705
1542,0,2,0,-2,-1,-1,0,-2,7.71
1543,1,0,0,-2,-3,-2,0,0,7.715
1544,-2,-1,0,-4,-1,-1,-1,3,7.72
1545,-1,-2,-1,-2,1,-1,0,4,7.7250000000000005
1546,-1,0,0,-1,0,-3,0,-1,7.73
1547,0,-2,-3,-1,0,-1,-1,-1,7.735
1548,0,-1,0,0,-2,0,-1,-6,7.74
1549,0,0,0,-1,-1,-3,-5,-5,7.745
1550,1,-1,0,-1,0,1,6,5,7.75
1551,-4,-2,-1,-3,-2,-1,-1,-4,7.755
1552,-3,-4,-2,-1,-1,-2,-5,-2,7.76
1553,-1,-1,-2,0,-1,1,2,-1,7.765000000000001
1554,2,0,-1,0,-2,-1,-4,-4,7.7700000000000005
1555,-1,2,2,2,0,0,1,1,7.775
1556,-3,0,-2,-2,-1,0,-1,0,7.78
1557,2,-1,-3,-2,-1,-3,-3,2,7.785
1558,3,1,5,2,1,-1,0,2,7.79
1559,-10,-3,-1,-1,0,0,-2,-4,7.795
1560,2,2,5,1,-1,-2,1,-5,7.8
1561,-3,1,-1,2,-1,0,0,2,7.805000000000001
1562,2,0,0,0,-1,-1,0,0,7.8100000000000005
1563,2,-2,-2,-1,-1,-2,1,0,7.815
1564,-3,-2,-2,-1,0,-1,0,-2,7.82
1565,2,-2,-1,-1,-1,-1,2,2,7.825
1566,-5,-3,-1,1,1,0,0,-5,7.83
1567,1,-2,-3,-1,-1,0,1,-1,7.835
1568,-3,-2,-2,0,-1,-1,0,1,7.84
1569,-2,-1,-1,-1,-3,-1,-1,-3,7.845
1570,-3,-3,-7,-3,-2,-1,0,6,7.8500000000000005
1571,-1,-1,-1,-1,-2,-1,-2,-2,7.855
1572,2,0,-1,0,-1,1,-2,0,7.86
1573,-1,-2,1,2,1,1,-1,0,7.865
1574,1,2,0,1,-2,1,-3,-5,7.87
1575,1,-4,-4,-3,-3,-1,-2,0,7.875
1576,-4,-4,-6,-3,-2,-4,-2,-1,7.88
1577,-1,1,2,-1,-1,-1,2,-1,7.885
1578,6,-2,-4,-3,-2,-2,-2,2,7.890000000000001
1579,-10,-1,3,2,-2,-1,1,-6,7.8950000000000005
1580,12,-1,0,-1,0,-1,1,9,7.9
1581,-14,-6,-7,-4,-1,-4,-5,-8,7.905
1582,0,0,-1,0,0,0,0,-1,7.91
1583,2,1,-2,-3,-1,-1,0,1,7.915
1584,0,-1,2,-1,0,0,1,-2,7.92
1585,1,-1,-3,-1,-3,-2,-2,-5,7.925
1586,-1,1,0,-1,-1,-1,1,7,7.930000000000001
1587,0,-4,-4,-1,-1,-2,-3,-5,7.9350000000000005
1588,-7,-1,-1,-1,-1,1,0,-4,7.94
1589,4,0,1,0,0,1,1,3,7.945
1590,-3,-2,0,-1,-3,-2,-2,-6,7.95
1591,3,1,2,1,1,-1,0,4,7.955
1592,0,-1,-2,0,-2,0,1,0,7.96
1593,-5,-2,-1,-3,-2,-3,-3,-11,7.965
1594,2,1,1,-1,-1,0,2,6,7.97
1595,-1,-3,-6,-2,-3,-1,-2,-7,7.9750000000000005
1596,-2,2,3,2,0,1,0,3,7.98
1597,2,0,-2,0,-1,1,1,7,7.985
1598,-5,-4,-1,0,-2,-1,-4,-7,7.99
1599,2,0,-1,-1,-2,-2,0,4,7.995
1600,-3,-1,-1,-1,0,-1,-2,-7,8.0
1601,4,1,1,0,-1,-1,-2,0,8.005
1602,5,2,4,0,0,0,-1,1,8.01
1603,1,2,2,-2,0,-1,1,4,8.015
1604,-6,-4,-1,-1,-1,-2,-3,-6,8.02
1605,0,0,1,1,1,1,3,7,8.025
1606,1,-1,1,-2,0,-1,0,1,8.03
1607,4,-1,2,1,-2,0,0,1,8.035
1608,-1,-1,-2,0,-2,-1,1,0,8.040000000000001
1609,1,4,3,1,1,0,-1,-2,8.045
1610,-1,-1,-3,-1,-1,1,2,-1,8.05
1611,-2,0,-2,-2,-1,-1,-2,1,8.055
1612,-4,0,-1,0,-2,-1,-5,-10,8.06
1613,-1,-1,-1,1,-1,0,2,3,8.065
1614,-2,2,0,-3,-3,-4,0,2,8.07
1615,-3,0,0,-1,-1,0,2,2,8.075
1616,1,0,-2,-1,-1,-1,-5,-1,8.08
1617,0,-2,-4,0,-1,-2,-2,-5,8.085
1618,-4,-3,-3,-2,1,0,0,-4,8.09
1619,1,-3,-4,-3,-2,-1,0,2,8.095
1620,0,0,3,0,0,-1,1,-8,8.1
1621,4,0,-2,-1,0,-1,-2,8,8.105
1622,-13,-4,-4,1,-1,-2,-2,-3,8.11
1623,-1,-1,-1,1,0,-1,0,-2,8.115
1624,1,-2,-3,0,0,-1,-1,1,8.120000000000001
1625,-1,2,3,1,-1,1,0,-4,8.125
1626,2,-1,-2,-3,-1,1,-3,-3,8.13
1627,-1,0,1,0,-1,-1,-1,0,8.135
1628,-3,-3,-2,-3,-1,-1,0,3,8.14
1629,0,-2,0,-1,-1,0,0,0,8.145
1630,1,-2,-1,-1,-1,-2,-3,-2,8.15
1631,-1,-2,-2,-1,-1,0,0,5,8.155
1632,-3,-1,1,1,0,-2,2,-3,8.16
1633,-2,0,0,-1,-2,-3,0,-1,8.165000000000001
1634,3,-1,-1,0,0,0,-3,-7,8.17
1635,-7,-1,0,1,0,3,-1,0,8.175
1636,0,-3,-6,-3,-1,-2,-1,10,8.18
1637,-3,-1,-1,-2,0,-1,-4,-5,8.185
1638,0,-2,-1,-1,-1,-2,-1,3,8.19
1639,2,1,2,0,-1,-2,-1,-3,8.195
1640,-2,1,0,-1,-2,0,-2,1,8.2
1641,-2,1,1,1,0,1,2,-1,8.205
1642,0,-1,-3,-3,-1,0,-2,-2,8.21
1643,0,-1,-1,1,0,-1,-1,-4,8.215
1644,-1,-1,0,0,0,1,0,2,8.22
1645,-1,-2,-2,-2,-1,-2,-3,-2,8.225
1646,-1,-2,0,0,-2,1,-1,0,8.23
1647,-5,2,-1,-1,0,0,0,-13,8.235
1648,5,-4,-8,-3,-1,-1,3,8,8.24
1649,-3,-4,-4,-4,-3,-2,-2,-1,8.245000000000001
1650,-3,-3,-6,-1,0,1,-2,-7,8.25
1651,1,-2,-3,-1,-1,0,1,5,8.255
1652,0,1,1,0,1,2,-1,-3,8.26
1653,-2,-1,0,-2,-1,0,-3,-3,8.265
1654,-1,-3,-3,-5,-3,-3,0,2,8.27
1655,1,-1,0,0,0,-1,-3,-4,8.275
1656,3,0,0,1,-1,-1,0,2,8.28
1657,-6,-1,-2,1,0,-1,1,-3,8.285
1658,2,2,2,1,0,-1,-1,1,8.290000000000001
1659,0,-1,-1,-2,-2,-1,-2,1,8.295
1660,0,-3,-2,-1,-2,-2,0,0,8.3
1661,2,0,-1,0,-1,1,-1,0,8.305
1662,-2,1,2,2,0,-1,0,3,8.31
1663,5,-1,-2,-2,-1,-2,0,3,8.315
1664,-10,-2,1,-1,0,-2,-1,-8,8.32
1665,0,-2,-3,-5,-1,-1,-1,0,8.325
1666,-2,1,1,2,0,-1,-2,-4,8.33
1667,3,-3,-2,-4,-2,-3,-2,3,8.335
1668,-4,0,-3,-1,-1,-1,0,-2,8.34
1669,-1,-1,1,0,0,-2,-2,-2,8.345
1670,-2,-2,-2,-1,-1,1,-1,2,8.35
1671,0,0,2,0,-2,0,-2,0,8.355
1672,1,-2,-2,0,-1,0,-2,-1,8.36
1673,0,3,1,0,1,1,0,-1,8.365
1674,1,-1,-2,-2,-2,-1,0,0,8.370000000000001
1675,-4,0,0,0,0,-1,1,0,8.375
1676,0,0,0,-2,-3,-1,-2,-2,8.38
1677,-2,-1,-1,0,1,1,1,1,8.385
1678,1,2,4,1,-2,-1,-1,1,8.39
1679,-4,-1,-1,0,0,-1,1,-3,8.395
1680,9,1,1,1,1,-1,1,2,8.4
1681,-10,-2,-2,-4,-4,-3,-2,-6,8.405
1682,-2,0,0,0,1,1,1,-1,8.41
1683,-2,0,-2,0,-1,-1,-1,-2,8.415000000000001
1684,7,1,0,1,-1,0,-2,4,8.42
1685,-11,-1,0,-2,-3,-2,-2,-4,8.425
1686,0,-3,-3,-1,1,-2,-3,-1,8.43
1687,-2,1,1,-1,-1,2,-1,-3,8.435
1688,2,-1,1,-2,1,0,0,5,8.44
1689,3,-1,-1,0,0,-2,-2,-2,8.445
1690,-2,0,-1,-1,-2,-2,0,-1,8.45
1691,-3,0,1,1,-1,-2,0,-2,8.455
1692,-4,2,0,-1,-2,-2,-1,-5,8.46
1693,4,-1,1,1,-1,1,3,4,8.465
1694,-1,1,-2,-2,1,-2,-1,-3,8.47
1695,1,-1,1,1,0,0,0,0,8.475
1696,-2,-1,-2,-1,0,-2,1,-3,8.48
1697,6,-1,-1,0,0,0,2,1,8.485
1698,-6,0,0,0,-1,0,1,-5,8.49
1699,-1,-1,0,-2,0,0,-2,0,8.495000000000001
1700,-2,0,-1,0,-1,1,0,-2,8.5
1701,3,0,0,-1,0,0,0,1,8.505
1702,0,-1,-2,-1,-2,-2,1,0,8.51
1703,0,-1,-1,-1,0,-1,0,-1,8.515
1704,-2,1,-1,0,-1,-1,-3,-2,8.52
1705,2,1,-3,-1,-2,-2,-2,2,8.525
1706,-11,-1,0,0,-1,0,-1,-7,8.53
1707,0,0,-1,0,-3,1,-2,3,8.535
1708,-7,-6,-1,-3,0,-1,-2,-3,8.540000000000001
1709,4,-3,0,0,0,0,0,1,8.545
1710,2,1,3,0,1,0,-1,1,8.55
1711,1,0,-2,-1,-2,-4,0,-2,8.555
1712,-2,-2,-3,-2,-1,-1,-2,-5,8.56
1713,-3,-4,-7,-5,-1,0,0,1,8.565
1714,2,-1,-2,-1,-2,0,-2,0,8.57
1715,1,-1,-3,-1,-1,0,-1,-1,8.575000000000001
1716,-1,2,1,0,0,-2,-1,-2,8.58
1717,-2,-1,-2,1,1,-1,-1,-3,8.585
1718,2,0,0,0,-1,-3,0,1,8.59
1719,1,-1,0,-1,-2,0,-1,-4,8.595
1720,2,1,4,0,-2,0,2,2,8.6
1721,-11,-3,-3,-1,-2,-2,-3,-3,8.605
1722,3,-1,-1,-1,-2,0,-2,2,8.61
1723,0,1,-1,-1,0,-2,-2,-1,8.615
1724,3,-4,-4,-2,-3,0,-1,0,8.620000000000001
1725,0,3,3,3,-1,1,-1,-7,8.625
1726,-2,-3,-3,-1,-3,-1,0,2,8.63
1727,-6,1,-1,-1,1,-2,-1,-5,8.635
1728,1,1,1,-1,-1,0,0,1,8.64
1729,2,-4,-5,-3,0,-1,1,4,8.645
1730,3,-3,-3,-1,-1,-1,-3,-5,8.65
1731,-2,-2,2,3,-2,-1,2,7,8.655
1732,-1,2,1,0,0,0,-2,-2,8.66
1733,3,1,3,3,1,-2,-1,2,8.665000000000001
1734,-4,-1,-1,-1,0,-1,0,-4,8.67
1735,-3,-5,-1,-1,-1,-2,-3,-9,8.675
1736,1,1,2,0,0,-2,1,3,8.68
1737,-2,-1,1,-2,-3,-1,-1,-2,8.685
1738,4,2,3,2,1,0,1,7,8.69
1739,7,1,2,2,0,0,-4,-4,8.695
1740,-15,-4,-9,-4,-1,-1,2,-6,8.700000000000001
1741,-1,-3,-2,0,-1,-1,-2,3,8.705
1742,-4,-1,0,-1,-1,-2,2,-1,8.71
1743,2,-2,-2,0,-1,-1,3,1,8.715
1744,-5,1,3,0,-1,-1,-3,-9,8.72
1745,3,-1,0,-2,-1,-4,-4,0,8.725
1746,-3,0,0,-1,-1,1,-1,-1,8.73
1747,-3,-1,-2,-1,0,0,2,6,8.735
1748,6,-1,-2,0,-1,0,-2,4,8.74
1749,0,2,2,2,-1,-1,1,-1,8.745000000000001
1750,-1,-1,-2,-4,-3,-2,-3,-1,8.75
1751,0,0,0,-2,-1,-2,0,-3,8.755
1752,0,-4,-2,-3,-1,-2,-1,-1,8.76
1753,-2,0,0,-1,0,-1,-1,-1,8.765
1754,1,-2,-2,-1,-1,-1,2,0,8.77
1755,-4,-3,-5,-3,-1,-1,-1,-1,8.775
1756,0,0,-1,2,1,-1,0,0,8.78
1757,1,2,1,-1,0,0,0,2,8.785
1758,-3,1,5,0,0,-2,-1,-3,8.790000000000001
1759,-2,-3,-2,0,-2,1,-1,-1,8.795
1760,-1,0,0,-1,0,1,-1,1,8.8
1761,-1,0,-3,-3,-2,-1,-1,-3,8.805
1762,2,-2,-2,1,-1,-1,-2,-2,8.81
1763,-2,0,-1,0,1,0,-5,-16,8.815
1764,7,-1,-1,-1,-2,0,5,19,8.82
1765,0,1,3,1,-1,0,-1,-3,8.825000000000001
1766,-10,-3,-3,-3,-2,-2,-1,-3,8.83
1767,-1,-1,-1,-2,-2,-1,-1,-2,8.835
1768,3,1,-1,1,-1,0,-1,-4,8.84
1769,-3,-3,-2,-1,-1,1,0,-1,8.845
1770,3,-1,-4,0,-2,-1,1,-1,8.85
1771,2,1,6,1,2,-1,0,0,8.855
1772,-2,-3,-2,-2,0,-2,-1,-3,8.86
1773,1,0,-2,1,1,-1,0,2,8.865
1774,1,1,-2,1,-1,0,-3,-1,8.870000000000001
1775,-1,-1,0,0,-3,0,0,4,8.875
1776,-1,-2,-1,-1,-1,-1,-2,-4,8.88
1777,0,-1,-3,-1,-1,0,2,-1,8.885
1778,-2,-3,-4,-1,0,0,-6,-12,8.89
1779,-7,-1,-1,-1,-1,-2,2,10,8.895
1780,0,-2,-3,-1,-1,0,0,-1,8.9
1781,-2,0,0,-1,-2,-1,0,-1,8.905
1782,8,1,-2,-2,-1,1,1,4,8.91
1783,-11,-3,-1,-1,-1,-2,1,-7,8.915000000000001
1784,2,1,1,-1,-2,-1,-5,-6,8.92
1785,1,0,-2,-3,-2,-1,0,3,8.925
1786,4,-2,-1,0,-1,-1,0,3,8.93
1787,0,0,-2,-1,-1,-2,-3,-1,8.935
1788,-1,0,2,1,1,-1,1,-3,8.94
1789,-1,-2,0,-1,-1,-1,0,-3,8.945
1790,-4,-1,2,0,0,0,-1,1,8.950000000000001
1791,3,-1,1,1,-2,0,0,3,8.955
1792,-9,-2,-5,-3,-2,-2,-3,-3,8.96
1793,0,-4,-2,-1,-2,-2,-4,-1,8.965
1794,-3,-1,-2,-1,-1,-2,0,1,8.97
1795,4,0,0,1,-1,-1,-1,3,8.975
1796,1,1,-2,-1,-1,-1,0,-3,8.98
1797,-5,-2,-2,-2,1,0,-2,-5,8.985
1798,9,2,0,-1,-1,0,-1,6,8.99
1799,-15,-4,-4,-3,-1,0,-5,-12,8.995000000000001
1800,2,1,2,2,-3,0,2,9,9.0
1801,-3,-2,-4,-1,-2,-1,-1,-2,9.005
1802,-1,-2,0,1,0,-1,2,3,9.01
1803,5,3,0,-1,0,-1,-3,-1,9.015
1804,-5,-2,-2,-2,-1,-2,-4,-9,9.02
1805,-2,0,-1,1,-2,0,3,7,9.025
1806,-1,1,0,0,-1,-3,-1,-2,9.03
1807,10,2,0,1,0,0,0,5,9.035
1808,-10,-6,-3,-3,-3,-1,0,-6,9.040000000000001
1809,5,2,3,-1,-1,0,-2,1,9.045
1810,-10,-4,-4,-1,-3,-2,-2,-9,9.05
1811,1,-1,2,-3,0,0,1,7,9.055
1812,2,0,-1,1,-1,-1,-3,-3,9.06
1813,1,-1,-1,-1,-2,-1,-1,-1,9.065
1814,3,-2,-1,1,0,0,0,1,9.07
1815,-4,-1,-3,-2,-1,-2,0,-1,9.075000000000001
1816,1,-3,-4,-2,-1,-2,-2,-1,9.08
1817,-3,1,-1,-1,-1,0,0,0,9.085
1818,1,2,1,-2,-1,0,-1,-2,9.09
1819,0,-3,-3,0,0,1,0,0,9.095
1820,1,-1,-3,-2,-2,-1,0,5,9.1
1821,6,-2,-4,-1,-2,-3,-3,3,9.105
1822,-10,0,1,0,0,-1,-1,-8,9.11
1823,0,-2,-5,-2,-3,-2,0,-6,9.115
1824,-1,1,0,0,0,1,0,0,9.120000000000001
1825,2,-1,1,0,1,0,-1,0,9.125
1826,-1,0,0,-2,-1,0,0,-1,9.13
1827,0,-1,0,-1,0,-2,-2,-2,9.135
1828,0,-2,1,1,0,1,-1,-1,9.14
1829,1,0,1,1,-1,1,-2,-5,9.145
1830,-2,-1,-2,-2,0,0,1,-2,9.15
1831,-2,1,0,2,0,0,2,4,9.155
1832,7,0,-1,-2,-2,0,2,10,9.16
1833,-10,0,1,2,0,2,-2,-12,9.165000000000001
1834,-1,1,0,-1,-2,-2,-1,4,9.17
1835,5,0,-1,1,-1,-1,-2,-1,9.175
1836,-6,-1,-4,-1,-1,0,-4,-8,9.18
1837,-7,-4,0,-1,-3,-4,-2,7,9.185
1838,6,-1,-3,-2,-2,-2,-2,1,9.19
1839,5,2,-2,-3,-1,-2,-1,6,9.195
1840,0,-2,1,0,-1,-2,-2,-6,9.200000000000001
1841,2,1,0,0,0,-1,-1,-5,9.205
1842,-2,-1,2,-1,1,-1,1,6,9.21
1843,1,-1,1,-1,-2,1,-2,-5,9.215
1844,-6,-1,-1,-1,0,-2,1,0,9.22
1845,-3,-1,-2,-2,0,1,-1,-1,9.225
1846,0,0,1,0,-1,2,0,4,9.23
1847,-3,1,0,-1,0,-2,-1,-3,9.235
1848,-4,-5,-3,-1,-2,-1,-2,-3,9.24
1849,3,0,-1,-2,0,0,1,1,9.245000000000001
1850,3,0,0,0,1,1,-4,-4,9.25
1851,-6,-2,-1,-1,1,-2,1,1,9.255
1852,-3,0,-1,1,0,-1,2,4,9.26
1853,0,-1,-3,-2,-1,-2,-1,-8,9.265
1854,1,-1,-2,-2,-1,-2,1,2,9.27
1855,-4,-2,-1,-2,-2,-1,0,0,9.275
1856,5,1,3,-1,-1,1,-1,2,9.28
1857,0,1,0,-1,-1,1,-1,4,9.285
1858,-5,-1,-5,-2,-1,0,-2,-6,9.290000000000001
1859,1,-3,-4,-1,-1,-1,0,2,9.295
1860,-1,0,-3,-1,-3,-2,-1,-7,9.3
1861,-1,-2,-4,-3,-1,-1,0,-2,9.305
1862,-2,-2,0,1,-1,0,-1,1,9.31
1863,-1,0,-2,-1,0,0,-2,-5,9.315
1864,2,3,1,0,0,-1,1,7,9.32
1865,-3,-3,-1,-2,-3,-3,-1,-4,9.325000000000001
1866,0,-3,-4,-2,-3,-3,-3,-2,9.33
1867,6,-2,0,-1,0,1,0,1,9.335
1868,-12,-2,-1,-2,1,-1,-3,-7,9.34
1869,-2,0,-3,-1,-2,-1,0,0,9.345
1870,6,1,3,1,1,-2,1,5,9.35
1871,-7,1,3,2,-1,-1,-2,-5,9.355
1872,3,0,-1,-2,-1,-2,-2,-1,9.36
1873,2,-1,2,1,2,0,2,2,9.365
1874,1,2,6,1,0,-1,-2,-2,9.370000000000001
1875,2,-3,-5,-3,-1,-1,-4,-2,9.375
1876,0,0,2,1,0,1,-1,-7,9.38
1877,0,-1,-1,-1,0,-2,2,8,9.385
1878,-4,-2,-2,0,-2,-1,-2,-10,9.39
1879,0,0,2,0,0,-1,3,8,9.395
1880,-1,0,0,2,1,-1,2,3,9.4
1881,-2,-4,-5,-2,-3,0,-6,-7,9.405
1882,1,-2,0,-1,0,-2,1,0,9.41
1883,0,-2,-4,-2,-2,-2,-3,-2,9.415000000000001
1884,-3,-1,-1,-1,-1,-1,3,-1,9.42
1885,3,-1,3,2,1,1,2,-3,9.425
1886,-6,1,-2,1,0,0,-1,2,9.43
1887,5,1,1,1,-1,-1,-1,-6,9.435
1888,2,0,0,-2,1,-1,1,7,9.44
1889,1,-1,-5,-3,-2,-1,-3,-4,9.445
1890,-3,0,-1,0,-1,1,3,3,9.450000000000001
1891,-5,0,-1,-1,-1,0,-1,-6,9.455
1892,3,-1,-1,-3,-1,-1,-2,0,9.46
1893,-2,0,-1,-1,-1,-1,-1,-1,9.465
1894,0,0,-1,1,0,-1,-1,0,9.47
1895,-3,-2,-4,-1,-2,-1,0,-1,9.475
1896,2,-2,-1,1,0,1,0,-2,9.48
1897,1,0,0,0,1,1,0,6,9.485
1898,-3,0,1,-4,-2,-1,0,-7,9.49
1899,2,-1,2,1,0,0,0,-1,9.495000000000001
1900,-3,-1,3,1,0,0,-2,-3,9.5
1901,0,0,-1,0,-1,0,0,3,9.505
1902,0,-2,-5,-2,-1,-2,0,-2,9.51
1903,-6,-2,-1,-1,-3,-1,0,1,9.515
1904,7,0,0,0,-2,0,-3,-4,9.52
1905,-9,-1,-1,-4,-2,-2,-1,-6,9.525
1906,2,0,0,-1,0,3,3,10,9.53
1907,-2,-2,-2,-2,-1,-2,-1,-1,9.535
1908,3,0,-1,0,-1,-1,-1,0,9.540000000000001
1909,0,-2,0,1,0,0,0,1,9.545
1910,-1,-2,-3,-2,-2,-2,-4,-6,9.55
1911,-1,-2,-3,1,-1,-2,1,-1,9.555
1912,-4,1,-1,-1,-1,-1,-1,0,9.56
1913,1,0,2,-1,-2,-1,-3,-4,9.565
1914,-6,-1,0,-2,-1,-3,-2,-1,9.57
1915,1,1,2,2,1,1,1,1,9.575000000000001
1916,-3,-3,-4,-1,0,-1,-3,-4,9.58
1917,-1,-3,-3,-1,-1,-1,1,1,9.585
1918,7,-4,-2,-1,-2,1,-1,4,9.59
1919,-11,-1,-1,-2,-2,-2,-3,-3,9.595
1920,-5,0,0,-2,0,0,-1,-4,9.6
1921,0,2,4,0,0,0,0,2,9.605
1922,0,-3,0,0,-1,-3,-1,2,9.61
1923,-2,-1,0,-3,-2,-2,-2,0,9.615
1924,1,0,-2,-1,-1,0,0,2,9.620000000000001
1925,-3,-1,-1,-1,-2,0,-3,-5,9.625
1926,-6,1,0,-1,-1,-1,1,-4,9.63
1927,1,-4,-6,-4,-2,-1,-1,2,9.635
1928,-1,0,1,-1,-2,-2,-1,-3,9.64
1929,0,-2,-2,-1,0,-1,0,-1,9.645
1930,0,0,-1,1,0,-2,-1,-1,9.65
1931,0,1,-1,0,0,1,-1,1,9.655
1932,-2,-1,1,1,-1,-1,0,0,9.66
1933,-4,-2,-5,-2,-3,-3,-2,-5,9.665000000000001
1934,0,1,2,0,-1,0,-1,-3,9.67
1935,1,0,-1,1,-2,-1,3,3,9.675
1936,-2,-2,-3,0,-1,-1,-2,1,9.68
1937,2,0,-3,-1,-1,-2,-2,1,9.685
1938,-5,1,0,0,1,1,-1,-5,9.69
1939,4,1,0,-2,-1,-2,-1,1,9.695
1940,-1,-2,-1,-2,-1,-1,0,-1,9.700000000000001
1941,7,-1,1,0,-1,-1,1,1,9.705
1942,-7,-1,-2,-1,-1,-1,-3,-4,9.71
1943,0,-2,1,2,-2,1,-1,3,9.715
1944,1,-1,-1,-1,-1,-2,-1,1,9.72
1945,0,-2,0,-1,0,0,0,4,9.725
1946,-1,-3,1,-1,-2,-2,-5,-15,9.73
1947,2,2,2,0,1,-1,3,9,9.735
1948,-1,-1,-3,-3,-2,0,-1,-2,9.74
1949,-4,1,3,0,1,-1,0,-2,9.745000000000001
1950,2,-2,-3,-3,-1,-2,-1,2,9.75
1951,-2,1,4,2,-1,-1,-3,-7,9.755
1952,-4,-3,-1,0,1,1,0,-2,9.76
1953,2,-3,-4,-4,-2,-2,0,-1,9.765
1954,1,0,-4,-4,-1,0,2,3,9.77
1955,5,2,3,1,0,0,-3,0,9.775
1956,-10,0,1,0,-1,-1,-1,-2,9.78
1957,-1,0,2,0,0,0,-1,-2,9.785
1958,3,1,2,1,0,1,2,2,9.790000000000001
1959,-2,-4,-8,-3,-3,-2,-4,-7,9.795
1960,5,-1,-1,0,-2,-2,1,8,9.8
1961,-3,-1,-2,-2,-1,1,0,-1,9.805
1962,0,-3,-6,-3,-3,0,-2,-2,9.81
1963,-3,-2,-3,-1,-1,-1,-1,-6,9.815
1964,2,1,4,0,0,-1,-3,-3,9.82
1965,1,-1,1,1,-1,-1,0,0,9.825000000000001
1966,1,0,0,1,2,0,0,3,9.83
1967,-3,-3,-4,-3,0,-1,-1,-2,9.835
1968,6,0,0,1,0,1,0,4,9.84
1969,-13,-1,-1,-3,-2,-1,-2,-6,9.845
1970,-1,3,5,1,-1,-2,1,2,9.85
1971,-2,-4,-4,-2,-1,0,0,0,9.855
1972,0,0,1,-1,1,0,0,-7,9.86
1973,-1,1,2,-1,-2,-2,-1,7,9.865
1974,-1,-1,-1,-2,-1,-2,-3,-1,9.870000000000001
1975,-4,0,2,1,0,-1,3,3,9.875
1976,2,0,-4,-2,-3,-2,-1,2,9.88
1977,3,-1,-2,0,0,1,-3,-4,9.885
1978,-1,-2,-3,-2,-1,-2,-1,-1,9.89
1979,-1,2,3,-1,-2,-2,-1,-1,9.895
1980,-4,-1,-2,-2,-1,-1,-2,-3,9.9
1981,2,0,-2,-1,1,-2,1,0,9.905
1982,-12,1,0,-1,-1,-1,-3,-2,9.91
1983,1,-3,0,-2,0,-1,-3,-5,9.915000000000001
1984,-4,0,-1,-1,-1,-1,1,-1,9.92
1985,1,0,4,2,0,0,0,-1,9.925
1986,8,-2,-1,-2,-1,0,-1,4,9.93
1987,-2,0,-2,-2,1,1,0,2,9.935
1988,-2,-4,-4,-2,-3,-2,1,-1,9.94
1989,1,0,-3,1,0,0,1,2,9.945
1990,-2,-2,-3,0,-2,-1,0,-5,9.950000000000001
1991,-1,0,1,0,0,-1,-1,-2,9.955
1992,2,1,-2,-2,-1,0,-2,-4,9.96
1993,-2,-2,-5,-2,-2,0,4,2,9.965
1994,-1,0,2,0,-1,-1,-1,1,9.97
1995,0,-1,-2,-1,0,-1,-1,0,9.975
1996,0,0,1,0,0,0,1,0,9.98
1997,0,-2,0,-1,-1,0,-5,-8,9.985
1998,1,-2,-1,0,-1,-1,-2,-1,9.99
1999,-2,-3,-4,-4,-4,-2,0,0,9.995000000000001
2000,2,-1,-1,-2,0,-1,-1,2,10.0
2001,-7,1,1,-1,1,0,0,-1,10.005
2002,-1,1,0,0,-1,0,1,3,10.01
2003,1,5,2,1,0,1,0,-4,10.015
2004,-2,-3,-1,-3,-2,-1,1,3,10.02
2005,0,0,-1,-2,-2,-2,-1,0,10.025
2006,5,-2,-1,1,0,-1,1,5,10.03
2007,-3,0,-3,-1,-1,-2,-2,-6,10.035
2008,-13,-2,-2,-1,-3,0,-5,-5,10.040000000000001
2009,-1,-1,0,0,0,-1,-1,-1,10.045
2010,-1,-2,-3,-1,-2,-3,-2,-7,10.05
2011,1,-2,0,-1,0,0,4,7,10.055
2012,2,-2,-3,-1,0,-1,-4,-5,10.06
2013,-1,-1,-1,-1,-1,-2,2,4,10.065
2014,-2,-1,1,-2,-1,-1,0,-3,10.07
2015,2,0,2,1,-1,0,-1,0,10.075000000000001
2016,-2,-1,0,0,0,-2,0,1,10.08
2017,1,-2,-2,-2,-3,-1,-1,-2,10.085
2018,6,1,-1,0,-1,1,0,1,10.09
2019,-10,0,0,-1,0,0,-1,0,10.095
2020,2,-2,-1,-1,-2,0,1,3,10.1
2021,-1,1,-2,0,-2,0,-3,-8,10.105
2022,-2,-2,1,-1,-2,0,1,6,10.11
2023,0,-1,-3,0,-2,-2,-1,-3,10.115
2024,1,-2,-2,-2,0,-1,-2,0,10.120000000000001
2025,1,-2,-2,-2,-1,-3,-4,2,10.125
2026,-6,-2,-3,0,0,0,1,-6,10.13
2027,-1,1,1,2,-1,1,0,1,10.135
2028,0,2,1,2,2,-2,1,1,10.14
2029,-3,-3,-2,-2,-2,0,-4,-3,10.145
2030,0,-3,-3,-2,-1,-2,0,2,10.15
2031,0,-2,-3,-3,-1,-2,-2,-2,10.155
2032,-1,-2,1,2,-1,1,1,0,10.16
2033,1,1,0,0,-1,1,-3,-3,10.165000000000001
2034,0,-1,-2,-2,-2,-1,-1,3,10.17
2035,2,-2,0,-1,-1,-3,0,1,10.175
2036,-2,1,1,-1,-1,-2,0,-2,10.18
2037,7,-3,-3,-1,0,-3,2,6,10.185
2038,-13,-1,-1,-2,-1,0,-3,-8,10.19
2039,-1,-4,-3,-2,-1,-2,-3,-1,10.195
2040,2,0,1,1,0,0,0,2,10.200000000000001
2041,1,-2,-2,-2,-3,-2,-1,-2,10.205
2042,2,0,3,-1,-1,-2,-1,1,10.21
2043,1,-3,-4,-1,-1,-1,0,-1,10.215
2044,-1,-2,-2,-2,-2,0,-2,-4,10.22
2045,1,-1,1,1,1,0,1,0,10.225
2046,-8,-1,-1,1,0,-2,-2,-4,10.23
2047,-4,-3,-2,1,0,0,0,-4,10.235
2048,6,-2,-2,-1,-2,0,0,4,10.24
2049,-10,3,5,1,0,-2,0,-4,10.245000000000001
2050,1,-2,-5,-2,0,-1,-1,1,10.25
2051,1,2,3,-1,0,-1,-1,-1,10.255
2052,-7,-5,-4,-3,-1,-2,0,-3,10.26
2053,3,2,2,3,2,1,-4,0,10.265
2054,0,1,4,0,-2,-1,1,-2,10.27
2055,-1,-2,-1,-2,-1,-1,-1,-2,10.275
2056,2,0,1,0,0,0,0,-1,10.28
2057,0,-1,1,-1,-1,1,0,2,10.285
2058,1,0,0,2,0,-1,0,-1,10.290000000000001
2059,5,1,1,0,-1,1,-1,1,10.295
2060,-10,-1,-2,-1,-1,-2,-2,-2,10.3
2061,-7,-3,-4,-3,-1,-2,0,-1,10.305
2062,3,0,-1,-2,0,0,0,1,10.31
2063,-2,-1,1,-1,-1,-2,-3,0,10.315
2064,4,0,0,0,1,0,-1,-4,10.32
2065,0,2,0,-1,-1,-1,-1,1,10.325000000000001
2066,1,-1,0,-1,1,-1,1,2,10.33
2067,-1,1,1,0,-1,-2,-1,-1,10.335
2068,-1,1,0,0,-2,-1,-2,-1,10.34
2069,-2,-2,-2,0,0,0,0,-4,10.345
2070,-1,-1,-1,0,-1,-1,0,0,10.35
2071,1,0,1,0,0,-2,-2,0,10.355
2072,-4,-2,-1,-2,0,-1,1,0,10.36
2073,1,-1,-1,-1,-1,1,3,0,10.365
2074,1,-1,-1,-2,0,0,-4,-4,10.370000000000001
2075,0,-1,-2,0,-1,-1,0,0,10.375
2076,2,3,2,0,0,-1,-1,-1,10.38
2077,-2,-4,-2,-2,-2,-1,-2,-1,10.385
2078,0,0,0,-1,-2,1,0,2,10.39
2079,2,-2,-3,-1,0,1,0,-1,10.395
2080,0,-1,0,0,0,0,0,-1,10.4
2081,-1,-1,-1,0,0,0,1,1,10.405
2082,6,0,-2,-1,-1,-1,-2,-1,10.41
2083,-12,-2,-1,-1,0,-2,-2,-3,10.415000000000001
2084,3,-1,-3,-2,-1,-1,-2,-7,10.42
2085,-1,0,-2,-1,-1,-1,1,5,10.425
2086,-2,-1,0,-1,-1,-2,-1,-4,10.43
2087,-1,-1,1,-1,-1,-1,4,4,10.435
2088,-1,-1,-2,-2,-2,-2,-4,-4,10.44
2089,-2,-1,-1,-3,-1,-1,-2,-4,10.445
2090,-1,-1,-2,0,1,1,1,1,10.450000000000001
2091,2,-1,-1,-2,-2,-1,-1,-1,10.455
2092,-3,0,-1,-1,0,0,-1,0,10.46
2093,2,-1,2,-1,-1,0,0,-1,10.465
2094,2,0,2,1,-1,-1,1,3,10.47
2095,-5,-3,-3,-2,-1,-1,-2,-8,10.475
2096,0,-2,0,-1,-2,-1,1,2,10.48
2097,-1,0,0,-1,-1,-1,0,-1,10.485
2098,0,-1,-2,0,0,-2,-1,0,10.49
2099,8,-1,0,1,1,0,0,3,10.495000000000001
2100,-8,-1,-2,0,0,0,-2,-9,10.5
2101,1,0,-2,-1,0,-1,0,4,10.505
2102,-3,0,3,-2,-1,1,-1,0,10.51
2103,1,1,-1,-1,0,0,1,1,10.515
2104,3,-3,-2,-1,-1,0,-1,3,10.52
2105,7,1,1,1,0,0,1,-3,10.525
2106,-14,-4,-3,0,-1,-2,-5,-10,10.53
2107,0,0,2,0,-1,-1,0,0,10.535
2108,1,-1,-3,-2,-2,-2,0,2,10.540000000000001
2109,3,-2,0,1,-2,1,0,2,10.545
2110,-4,-1,-2,-1,0,1,0,-2,10.55
2111,-2,-1,-3,-1,-3,0,0,-2,10.555
2112,-4,-2,0,1,-1,-1,0,3,10.56
2113,-2,-5,-5,-3,-2,-4,-2,-1,10.565
2114,9,0,1,-1,-1,-1,-1,0,10.57
2115,-6,-2,-3,0,0,-2,-2,-2,10.575000000000001
2116,3,2,4,1,1,2,1,2,10.58
2117,-3,-1,-2,-1,-1,-1,-2,-3,10.585
2118,3,-2,-2,-1,-1,-1,0,1,10.59
2119,-2,-2,-2,-1,-2,0,-1,-1,10.595
2120,1,1,1,0,-2,-3,-3,-4,10.6
2121,-4,0,0,0,1,0,0,6,10.605
2122,-3,1,-3,-1,-2,-1,0,0,10.61
2123,1,1,0,-1,0,-2,-3,-3,10.615
2124,-1,-4,-5,-3,-1,-1,1,2,10.620000000000001
2125,-3,-1,0,-1,-1,-2,-2,-4,10.625
2126,-1,-1,0,1,-1,-1,-1,-2,10.63
2127,-2,-2,-4,-1,-2,-2,0,1,10.635
2128,1,0,-3,-2,0,0,0,-1,10.64
2129,-1,-4,-5,-3,-2,-2,-2,-3,10.645
2130,4,-1,-4,-3,-1,0,0,1,10.65
2131,-6,-2,2,-1,1,1,-1,-5,10.655
2132,0,-3,-3,-2,0,0,-1,1,10.66
2133,0,0,-2,1,-1,0,0,-3,10.665000000000001
2134,1,-1,-2,-2,0,0,0,-2,10.67
2135,1,0,-1,0,-1,0,1,3,10.675
2136,-1,0,-2,-2,-1,0,-4,-7,10.68
2137,3,2,4,2,2,1,2,6,10.685
2138,-1,-1,-1,-2,-2,-2,-4,-3,10.69
2139,-4,-1,0,0,-1,-1,1,-1,10.695
2140,-1,-2,-1,0,-2,-3,-3,1,10.700000000000001
2141,-2,0,0,0,0,0,-3,-7,10.705
2142,-2,-2,0,0,-1,0,-1,0,10.71
2143,0,1,3,0,-2,0,0,2,10.715
2144,0,1,2,2,0,0,1,0,10.72
2145,-1,-1,-1,0,0,-2,-2,0,10.725
2146,3,-3,-4,-2,-3,-1,1,1,10.73
2147,-12,-2,-1,-1,0,0,-2,-7,10.735
2148,0,1,2,0,-1,0,2,2,10.74
2149,0,2,1,0,0,-2,-2,-1,10.745000000000001
2150,-1,-2,-4,-1,0,-1,-2,-5,10.75
2151,8,0,1,1,0,0,1,5,10.755
2152,-3,-3,-4,-2,0,-1,-1,2,10.76
2153,-4,-3,-5,-3,-3,-1,0,-1,10.765
2154,2,4,4,2,0,-2,0,0,10.77
2155,-6,0,-3,-1,-1,-1,-3,-4,10.775
2156,0,-2,-2,1,-1,-1,0,4,10.78
2157,3,1,0,-3,-2,0,-1,-3,10.785
2158,-7,-2,-3,-2,-1,-1,0,2,10.790000000000001
2159,4,-1,-1,-2,-2,-2,-3,1,10.795
2160,-2,1,2,-1,-2,0,-2,-3,10.8
2161,-5,-1,-1,-2,-2,-1,-2,-2,10.805
2162,0,-1,-1,-2,0,-1,-2,0,10.81
2163,2,0,0,-1,-2,-2,-1,-1,10.815
2164,4,-2,-1,1,0,-1,-1,-1,10.82
2165,-8,-1,2,0,-2,-4,-3,-9,10.825000000000001
2166,-2,-1,-2,1,0,0,1,5,10.83
2167,2,-2,-3,-2,-1,-1,1,2,10.835
2168,0,-1,-1,-4,-1,0,-1,-1,10.84
2169,0,-1,-1,0,1,0,-1,1,10.845
2170,-3,0,0,-2,-1,-1,-3,-4,10.85
2171,1,-1,-3,-1,-1,1,0,-1,10.855
2172,1,1,2,2,0,-1,0,1,10.86
2173,-5,-3,-6,-2,-2,-1,-1,-2,10.865
2174,0,1,1,-1,1,-2,2,-1,10.870000000000001
2175,2,-1,-2,-1,3,0,1,1,10.875
2176,-1,2,0,0,0,-2,0,-3,10.88
2177,0,-2,-2,-2,-1,-1,1,1,10.885
2178,-3,-1,-1,0,0,1,0,-4,10.89
2179,-1,0,0,0,-1,2,0,0,10.895
2180,1,-2,-5,-2,-2,0,-1,0,10.9
2181,8,0,0,0,1,-1,1,1,10.905
2182,-13,-2,-1,1,-1,-2,-2,-6,10.91
2183,-9,-2,1,-1,-1,0,0,-4,10.915000000000001
2184,9,-4,-4,-1,-1,0,-2,0,10.92
2185,2,0,-5,-3,-1,0,1,0,10.925
2186,3,-1,0,-2,-2,-1,-1,1,10.93
2187,8,0,2,0,-1,-2,0,2,10.935
2188,-16,-1,1,0,-1,-1,0,-4,10.94
2189,-1,-1,-2,-1,1,-1,-1,0,10.945
2190,9,0,-1,-2,-1,-2,0,6,10.950000000000001
2191,-7,1,2,0,-1,-2,0,-6,10.955
2192,5,1,1,0,0,0,1,2,10.96
2193,-8,-6,-2,-2,-3,-1,-3,-6,10.965
2194,-1,0,0,-1,0,0,1,-1,10.97
2195,2,0,2,-1,-1,-1,-2,1,10.975
2196,0,1,-1,-1,0,-2,-1,-3,10.98
2197,-1,-3,0,-2,2,1,-1,-2,10.985
2198,-3,-1,-4,-3,-1,-2,-1,-2,10.99
2199,5,-2,-4,-3,-2,-2,-2,-1,10.995000000000001
2200,-12,-1,0,0,0,-1,-1,-4,11.0
2201,2,0,-1,3,0,0,1,0,11.005
2202,-3,-2,-1,-1,-3,-1,-1,0,11.01
2203,6,0,-2,-2,-2,-1,0,2,11.015
2204,-3,0,-1,1,-1,0,-1,-3,11.02
2205,0,-1,1,-2,-2,-1,0,1,11.025
2206,4,0,0,1,2,1,-1,-2,11.03
2207,-2,0,1,-1,-1,-2,-2,0,11.035
2208,0,-2,-2,-2,0,-1,-1,2,11.040000000000001
2209,-9,-3,-5,-1,0,-2,-1,-6,11.045
2210,1,1,-3,0,0,1,-1,4,11.05
2211,1,-2,-1,-1,-1,0,-1,2,11.055
2212,-3,-2,-2,-2,-2,-1,3,1,11.06
2213,-1,0,-1,-1,-1,-1,0,0,11.065
2214,0,-4,0,-2,-2,0,-2,-5,11.07
2215,-5,-2,0,-1,0,-2,-2,-2,11.075000000000001
2216,4,4,1,1,1,-1,0,2,11.08
2217,0,1,3,0,-1,1,-2,0,11.085
2218,4,0,0,0,1,-2,2,2,11.09
2219,-2,1,-3,-1,-1,-2,-1,-3,11.095
2220,-2,-3,-1,-2,0,1,-1,-1,11.1
2221,-3,1,2,2,-1,1,-1,2,11.105
2222,3,1,3,1,-1,0,0,-1,11.11
2223,2,-1,-1,1,0,1,-1,0,11.115
2224,-2,-4,-2,-1,0,0,0,-2,11.120000000000001
2225,5,2,-1,-1,0,0,-1,2,11.125
2226,-5,-1,-1,-2,-1,0,-2,-2,11.13
2227,-3,-4,-4,0,-2,-3,-4,-12,11.135
2228,-1,-1,-1,0,-2,-2,1,7,11.14
2229,3,0,1,0,-1,0,0,2,11.145
2230,0,0,1,-1,-1,-2,-1,-3,11.15
2231,1,0,1,0,-2,0,3,4,11.155
2232,8,0,-2,-2,-1,-2,-2,-4,11.16
2233,-7,-1,0,0,-2,-2,-1,-1,11.165000000000001
2234,-3,0,-1,0,-3,1,-1,1,11.17
2235,-7,0,1,-1,0,-1,2,-3,11.175
2236,-4,-3,-1,-2,-2,-1,0,1,11.18
2237,5,-1,-1,-1,-1,-2,-3,-2,11.185
2238,-3,-1,-1,-1,-1,-2,-2,-2,11.19
2239,1,0,0,-1,0,1,-1,2,11.195
2240,1,1,1,1,0,0,-1,-4,11.200000000000001
2241,-6,-1,-1,-1,-2,-1,1,0,11.205
2242,-2,-2,-2,0,-1,0,-1,-3,11.21
2243,2,-3,-2,-2,-2,-2,-1,4,11.215
2244,-1,1,2,1,-1,-1,-1,-1,11.22
2245,-1,-1,-3,-1,-1,-1,-2,0,11.225
2246,0,1,2,0,0,-1,0,-1,11.23
2247,3,0,-1,1,-2,0,-1,2,11.235
2248,-6,-6,-2,-4,-2,-1,-4,-3,11.24
2249,0,-1,-3,1,-1,-3,2,1,11.245000000000001
2250,-3,1,-2,-1,-2,0,-4,-3,11.25
2251,-1,2,-1,-3,-1,2,-1,-9,11.255
2252,7,0,0,2,2,-1,2,11,11.26
2253,-3,-5,-3,-2,-1,-2,-3,-2,11.265
2254,-2,-2,-4,-4,-3,-2,0,1,11.27
2255,-3,-2,-1,-1,0,1,1,-5,11.275
2256,6,1,-1,1,0,-2,-4,-1,11.28
2257,1,0,-2,-1,-1,-1,1,0,11.285
2258,1,-1,-1,-1,0,1,0,1,11.290000000000001
2259,8,2,1,0,-1,-1,-2,3,11.295
2260,-13,1,-1,-2,0,0,-1,-6,11.3
2261,-1,-3,0,-1,-1,-1,1,3,11.305
2262,-5,-5,-1,-2,-2,-1,2,-1,11.31
2263,-10,-5,-8,-5,-2,-1,-2,-3,11.315
2264,9,0,-2,-2,-3,-2,-1,1,11.32
2265,3,0,-2,-3,-2,-2,-5,-1,11.325000000000001
2266,-26,-4,-3,-1,0,-2,-1,-16,11.33
2267,13,1,5,2,0,0,1,8,11.335
2268,-8,-4,-6,-4,-1,-1,-1,-5,11.34
2269,-5,-3,-4,-6,0,0,0,-4,11.345
2270,15,4,4,3,1,2,1,10,11.35
2271,-4,1,-1,-3,-2,-3,-2,-3,11.355
2272,2,1,2,-1,0,0,-1,0,11.36
2273,2,0,-1,1,-3,-2,-2,1,11.365
2274,-14,-2,1,-1,-1,0,1,3,11.370000000000001
2275,10,3,3,-8,-1,1,1,0,11.375
2276,-11,1,2,7,4,3,1,-1,11.38
2277,20,-8,-10,-1,-3,-1,-1,0,11.385
2278,10,5,8,7,3,1,0,-4,11.39
2279,17,12,4,-7,1,3,4,15,11.395
2280,-4,-11,-6,1,1,-2,-1,1,11.4
2281,-62,-4,1,-2,-1,0,-7,-30,11.405
2282,-1,-2,-1,0,0,-1,2,7,11.41
2283,22,4,6,4,1,2,-1,-6,11.415000000000001
2284,11,10,7,-5,1,4,7,12,11.42
2285,0,-5,-11,3,1,-2,-1,-2,11.425
2286,2,-4,-5,-5,0,1,0,1,11.43
2287,-11,-6,-7,-4,-1,-4,-6,-4,11.435
2288,1,-5,-7,-4,-6,-1,-3,-4,11.44
2289,-1,1,4,-1,0,2,2,5,11.445
2290,-1,-2,-6,-7,-4,-1,-1,-10,11.450000000000001
2291,-10,-2,-2,6,0,0,2,8,11.455
2292,4,0,-2,-1,-2,-2,-4,-4,11.46
2293,5,2,7,-3,-2,-3,-1,1,11.465
2294,-2,-10,-21,-7,-7,-6,-7,-5,11.47
2295,-31,-12,-8,-1,-2,-5,-6,-12,11.475
2296,-6,0,1,-1,-5,-1,-4,-3,11.48
2297,20,8,7,1,4,2,4,7,11.485
2298,-2,0,2,-1,-2,-1,-3,-2,11.49
2299,5,-3,-5,0,0,0,4,1,11.495000000000001
2300,-1,-2,-5,-1,-1,-2,0,-2,11.5
2301,-5,0,4,2,1,-2,-2,-3,11.505
2302,5,1,-2,-1,-2,2,1,5,11.51
2303,-27,4,5,1,2,2,0,-2,11.515
2304,6,-6,-1,1,0,-3,-7,-6,11.52
2305,24,6,0,0,-2,-1,2,12,11.525
2306,-2,0,3,1,2,0,-1,-3,11.53
2307,-7,-1,-1,5,0,1,1,1,11.535
2308,-6,1,2,-3,-2,-1,1,-2,11.540000000000001
2309,-11,-3,-2,3,-1,0,-3,-8,11.545
2310,19,3,0,-1,0,-3,-1,9,11.55
2311,2,-9,-10,-7,-4,-2,-2,-3,11.555
2312,-3,-3,-2,0,0,-1,-3,-3,11.56
2313,11,-1,2,0,-1,2,0,3,11.565
2314,-34,6,11,9,5,3,2,-6,11.57
2315,20,0,-2,0,-1,-1,-3,-3,11.575000000000001
2316,-2,0,-1,-2,1,1,0,0,11.58
2317,-5,-2,-1,-1,0,-3,-1,4,11.585
2318,-4,0,-1,-2,0,-1,0,-4,11.59
2319,23,2,2,3,-2,-4,-3,2,11.595
2320,-53,-9,-4,-2,-3,-2,-2,-16,11.6
2321,41,10,0,-3,-3,-3,-1,7,11.605
2322,-7,-16,-8,-3,-5,-5,-6,-8,11.61
2323,-21,-4,3,3,0,2,0,-2,11.615
2324,42,13,8,2,0,0,1,10,11.620000000000001
2325,-27,-3,-4,-2,0,0,1,-4,11.625
2326,24,5,0,-2,-1,-2,-2,4,11.63
2327,-9,-3,-5,-3,-2,1,1,-7,11.635
2328,-2,2,1,-1,2,0,4,7,11.64
2329,-25,-5,-3,3,0,-1,-4,-6,11.645
2330,-2,1,-3,-3,-2,-1,-1,2,11.65
2331,1,1,-1,0,-1,-1,-2,0,11.655
2332,-5,-1,0,-4,-4,-3,-2,-5,11.66
2333,6,2,3,3,0,2,3,3,11.665000000000001
2334,8,-5,-3,0,1,1,1,2,11.67
2335,-1,-2,-6,-7,-3,-2,-4,4,11.675
2336,-19,-10,-7,-4,-6,-1,0,-7,11.68
2337,16,1,0,1,2,0,0,5,11.685
2338,0,1,2,3,0,0,-2,-1,11.69
2339,-7,-1,2,-3,0,0,-1,-3,11.695
2340,21,-1,-3,1,1,-2,-2,4,11.700000000000001
2341,-11,1,4,3,1,2,0,-6,11.705
2342,22,5,0,1,0,2,3,6,11.71
2343,-30,-4,0,-2,0,-3,-3,-11,11.715
2344,-15,1,0,0,-2,-1,-3,-2,11.72
2345,-1,-15,-14,-6,-1,-2,-1,5,11.725
2346,-8,0,-1,-2,-4,-3,-4,-7,11.73
2347,-2,1,3,2,-1,0,2,1,11.735
2348,0,-2,-22,-4,-1,-3,-2,-5,11.74
2349,14,13,6,-1,-2,-2,-4,-4,11.745000000000001
2350,-26,-9,-2,-2,3,3,3,-6,11.75
2351,3,-3,14,6,0,-1,1,9,11.755
2352,18,-1,0,3,-1,-1,-1,-1,11.76
2353,14,7,3,0,-3,-3,0,3,11.765
2354,-2,2,-1,-4,0,-2,-1,-4,11.77
2355,3,21,3,1,0,1,2,-2,11.775
2356,2,2,3,3,0,0,0,0,11.78
2357,-1,0,11,-1,0,0,0,-3,11.785
2358,-4,-1,4,2,-1,0,1,6,11.790000000000001
2359,-3,-6,-4,-4,-1,1,0,-3,11.795
2360,11,4,5,-3,0,1,0,5,11.8
2361,9,2,-1,2,2,3,2,-2,11.805
2362,-13,-11,-8,-2,-1,-3,-5,-8,11.81
2363,20,4,-5,-2,-2,-4,1,10,11.815
2364,6,-3,3,-1,0,2,2,2,11.82
2365,-14,-2,-3,-2,-2,2,-2,-4,11.825000000000001
2366,16,14,7,3,0,0,2,6,11.83
2367,-11,-6,-4,1,0,-1,-3,-7,11.835
2368,-4,-3,0,1,-2,-2,-2,-1,11.84
2369,6,2,-4,-4,-2,-2,1,2,11.845
2370,6,2,2,-1,-3,-1,-2,2,11.85
2371,2,-5,-4,2,-1,-2,-3,-4,11.855
2372,-9,-4,0,-1,1,0,0,1,11.86
2373,-12,-1,0,1,0,0,-1,-3,11.865
2374,1,2,3,-2,0,0,0,1,11.870000000000001
2375,7,-1,0,1,1,1,1,0,11.875
2376,-8,0,2,2,-1,-2,-2,-3,11.88
2377,-10,-4,-2,3,0,0,-2,-2,11.885
2378,3,1,-1,-3,-1,-2,-1,-1,11.89
2379,1,-4,-3,-1,-1,-3,-1,-1,11.895
2380,2,-1,2,0,2,1,1,1,11.9
2381,-10,0,2,-2,-2,-3,-3,-2,11.905
2382,4,6,6,1,-1,0,-2,-5,11.91
2383,15,-5,-6,-7,-5,-4,-3,1,11.915000000000001
2384,-6,7,3,-2,-4,-2,3,6,11.92
2385,-21,-10,-5,-2,-3,-2,-5,-7,11.925
2386,-7,-4,-5,0,-1,-2,-2,-5,11.93
2387,-2,1,0,-1,-1,0,-2,-2,11.935
2388,2,1,2,1,0,0,-1,-2,11.94
2389,5,-1,-2,-4,-2,-1,0,0,11.945
2390,1,-4,-1,-1,0,0,2,3,11.950000000000001
2391,-4,-1,-1,0,-1,-1,1,0,11.955
2392,1,1,-2,-1,-1,0,-1,-1,11.96
2393,-2,-3,0,1,0,0,0,1,11.965
2394,0,-6,-7,-3,-5,-4,-2,-2,11.97
2395,-1,-1,-3,-1,0,0,1,0,11.975
2396,-2,-1,-1,-1,-1,-1,-1,-4,11.98
2397,3,0,-1,-3,-1,0,1,0,11.985
2398,0,0,-1,1,0,-1,0,3,11.99
2399,-1,0,-1,-1,0,-1,-1,-3,11.995000000000001
2400,2,-1,0,1,-1,-2,-2,-1,12.0
2401,-1,-4,-6,-3,1,-1,-1,1,12.005
2402,-1,-2,-4,-2,-1,0,1,1,12.01
2403,-3,-2,-1,0,0,0,-2,0,12.015
2404,-2,-2,-1,-2,0,-1,-4,-2,12.02
2405,0,-2,-2,0,-2,-1,0,-1,12.025
2406,-3,-1,-1,-2,1,0,-2,-1,12.030000000000001
2407,-2,0,1,0,-1,0,-1,-1,12.035
2408,1,0,0,0,-1,-1,1,-2,12.040000000000001
2409,0,-1,-2,-2,0,-1,-1,-1,12.045
2410,-1,-2,-1,-1,-1,0,1,1,12.05
2411,1,0,1,0,0,0,2,1,12.055
2412,3,2,0,0,2,0,-2,-4,12.06
2413,-2,-2,-3,-4,-2,-2,-2,2,12.065
2414,-1,0,0,-1,0,-1,-2,0,12.07
2415,0,-2,-1,-1,-1,-2,0,4,12.075000000000001
2416,-3,-1,-1,-1,-1,-2,1,-2,12.08
2417,-2,2,-1,0,0,-1,-1,-2,12.085
2418,2,1,1,0,-1,-3,-1,2,12.09
2419,-2,0,3,1,0,1,-2,-2,12.095
2420,-1,-2,-1,-2,-1,0,0,-1,12.1
2421,0,-2,-3,-1,0,0,1,1,12.105
2422,0,-1,-2,0,-1,1,2,1,12.11
2423,-5,0,-1,-2,0,-3,-2,-6,12.115
2424,0,-1,-2,0,-2,-1,0,2,12.120000000000001
2425,3,-2,0,-1,0,1,0,1,12.125
2426,-2,0,-1,0,-1,0,0,-5,12.13
2427,1,0,0,-2,-2,0,-1,3,12.135
2428,4,-1,-1,-2,0,0,-1,0,12.14
2429,-15,-1,0,1,0,1,4,-4,12.145
2430,-1,-2,-4,1,0,1,-4,-4,12.15
2431,-5,0,1,2,0,1,-1,-2,12.155000000000001
2432,-4,-1,-5,-4,-1,-3,-3,-1,12.16
2433,7,1,1,0,-1,0,-1,4,12.165000000000001
2434,-1,0,2,0,-1,-1,0,-3,12.17
2435,-2,1,-2,0,-1,-2,0,-1,12.175
2436,1,-1,1,-1,0,-1,1,2,12.18
2437,1,2,2,0,0,0,-1,-2,12.185
2438,-1,0,0,0,2,-1,0,0,12.19
2439,1,-2,-4,-3,-2,0,-2,0,12.195
2440,-2,0,2,0,-1,0,0,-1,12.200000000000001
2441,2,-2,-1,1,-2,-2,-2,-2,12.205
2442,0,0,0,1,-1,-2,-3,1,12.21
2443,0,-2,0,-1,0,0,0,-2,12.215
2444,-2,-2,0,0,-1,-1,-1,-2,12.22
2445,-3,-2,-3,-1,-1,-1,-1,-2,12.225
2446,-1,-1,0,-2,-2,-1,-1,1,12.23
2447,-2,-2,-3,-1,-1,-2,0,-1,12.235
2448,-2,-1,-1,-2,0,0,-2,-1,12.24
2449,3,0,0,-2,-1,0,-1,0,12.245000000000001
2450,-2,0,0,-1,-2,0,1,1,12.25
2451,-1,-6,-8,-4,-2,-1,-1,0,12.255
2452,6,0,0,1,-1,1,-2,-2,12.26
2453,-9,0,-2,-1,-2,-2,-1,1,12.265
2454,-7,-2,0,-3,-2,-2,1,-6,12.27
2455,5,-2,0,1,-2,-1,-2,3,12.275
2456,3,2,-2,-2,-1,-2,-1,-6,12.280000000000001
2457,-3,-4,-2,-1,-1,0,0,4,12.285
2458,1,1,0,-2,1,-2,-2,1,12.290000000000001
2459,-2,-1,-5,-3,-1,0,-1,0,12.295
2460,-5,-2,-3,0,-1,-2,1,0,12.3
2461,1,-4,-2,-1,-1,-3,-1,-3,12.305
2462,-5,-2,-2,-1,0,-1,-2,-3,12.31
2463,1,-1,-4,-3,0,1,1,0,12.315
2464,-1,0,-3,-2,-1,-1,0,-1,12.32
2465,1,0,2,0,1,-1,1,-3,12.325000000000001
2466,5,1,-2,0,-1,1,-1,3,12.33
2467,-2,0,1,-1,-1,-1,-1,-7,12.335
2468,-4,-4,-2,-4,-1,0,0,0,12.34
2469,1,-1,-3,-3,-2,0,-1,-1,12.345
2470,0,-2,0,-1,0,1,-2,-1,12.35
2471,-1,1,1,1,0,-2,-1,1,12.355
2472,-6,0,1,1,-2,-1,-2,1,12.36
2473,0,-1,1,0,-2,-1,-1,-3,12.365
2474,9,2,3,0,0,-1,1,3,12.370000000000001
2475,-13,0,2,1,-1,1,1,-10,12.375
2476,1,-3,-2,-1,0,0,1,8,12.38
2477,1,1,0,-1,-2,0,-1,0,12.385
2478,0,0,-2,0,-1,-1,-1,0,12.39
2479,1,0,1,-1,0,-1,-1,-1,12.395
2480,-1,-2,-3,-2,-2,-2,-2,-5,12.4
2481,3,1,0,-1,0,2,0,0,12.405000000000001
2482,-3,-2,-2,-2,0,-1,-1,-4,12.41
2483,-1,-1,-1,0,-1,-3,-3,2,12.415000000000001
2484,0,2,3,2,1,0,-2,-2,12.42
2485,3,1,-2,0,1,0,1,4,12.425
2486,-13,-3,0,-1,-2,-2,-1,-2,12.43
2487,1,1,1,2,-1,0,0,1,12.435
2488,3,1,2,1,-1,0,-2,-1,12.44
2489,-10,-1,2,1,-1,-3,-2,-2,12.445
2490,10,1,-2,1,-1,1,1,0,12.450000000000001
2491,4,0,-3,-1,-1,-1,-1,-3,12.455
2492,-4,0,1,0,0,0,3,6,12.46
2493,2,-1,-3,-1,-1,1,0,-1,12.465
2494,-7,-6,-4,-2,-2,0,-2,0,12.47
2495,0,-1,-2,-2,-2,0,0,0,12.475
2496,0,-1,-1,1,-1,-2,0,0,12.48
2497,-2,-1,0,-1,-1,-1,-1,-2,12.485
2498,-1,0,-1,-1,-1,0,1,-1,12.49
2499,2,-1,-1,-1,-3,0,1,1,12.495000000000001
2500,-1,0,1,0,1,0,-1,1,12.5
2501,-3,-1,-2,-1,-3,-1,0,-1,12.505
2502,1,1,1,0,0,-1,-2,0,12.51
2503,0,-1,-1,-1,1,-1,-2,0,12.515
2504,-1,-1,-4,-3,-2,-2,-1,-2,12.52
2505,-1,1,1,0,-1,-1,-2,-2,12.525
2506,15,1,2,-1,0,0,4,8,12.530000000000001
2507,-21,-4,-5,-1,-1,-1,-5,-9,12.535
2508,0,1,1,-2,0,0,-2,-3,12.540000000000001
2509,3,-1,-2,-3,-3,-1,-1,-2,12.545
2510,-1,-1,-3,-1,0,0,-1,0,12.55
2511,4,-2,-1,-2,-1,-2,0,-1,12.555
2512,2,-2,-3,-1,-3,-1,2,4,12.56
2513,-2,2,1,1,-1,0,-2,1,12.565
2514,-5,-2,-4,-4,-3,-1,-1,-3,12.57
2515,-1,4,6,3,0,0,1,0,12.575000000000001
2516,-4,-7,-5,-3,-2,-2,-3,-5,12.58
2517,5,-1,1,-1,1,0,0,-1,12.585
2518,-2,0,1,-1,-1,1,-1,-2,12.59
2519,1,1,2,0,0,-2,0,1,12.595
2520,1,-1,-3,-3,-2,-1,1,0,12.6
2521,-2,-2,0,1,0,-1,1,-1,12.605
2522,-6,-1,-2,0,0,-1,-2,-2,12.61
2523,2,3,4,1,-2,0,1,4,12.615
2524,1,1,0,-1,0,-1,1,-2,12.620000000000001
2525,-11,-3,-1,-1,0,-1,-1,-2,12.625
2526,-2,0,0,-1,1,1,-1,-3,12.63
2527,10,-1,-1,-3,-1,0,1,4,12.635
2528,-5,1,0,-2,-3,-1,-3,-6,12.64
2529,-1,-3,-2,1,0,-1,1,2,12.645
2530,2,0,0,0,-2,-1,-1,2,12.65
2531,-5,-1,0,-1,-2,-2,1,0,12.655000000000001
2532,1,-1,0,-1,0,-1,-3,-6,12.66
2533,3,0,-5,-4,-2,-1,-3,-1,12.665000000000001
2534,-9,-1,-2,0,-2,0,1,-2,12.67
2535,-3,-2,-3,-2,-2,0,-1,-1,12.675
2536,3,-1,-1,0,-2,-2,-2,2,12.68
2537,-1,-1,0,-1,-1,0,-1,-3,12.685
2538,-1,0,-2,-3,-1,-3,-3,1,12.69
2539,3,-2,-2,1,0,0,-1,-1,12.695
2540,-9,-2,-2,-3,-2,-1,0,-3,12.700000000000001
2541,-5,0,-2,1,-1,1,2,-1,12.705
2542,3,-2,-2,-1,0,-1,0,-1,12.71
2543,-3,0,3,-2,-1,-2,0,-3,12.715
2544,-4,-2,1,-1,-1,-1,0,0,12.72
2545,4,-1,-2,-1,-1,-1,-1,-1,12.725
2546,-2,-1,-2,-2,-2,-1,-2,-6,12.73
2547,-3,-1,-1,0,0,1,2,6,12.735
2548,1,-2,-2,1,-1,-1,-2,2,12.74
2549,-1,1,0,-1,0,-1,-3,-2,12.745000000000001
2550,4,-3,-2,-3,-1,-1,-3,0,12.75
2551,-7,-1,0,-1,0,0,-2,-5,12.755
2552,-5,-3,-4,-3,-1,1,-2,-3,12.76
2553,-3,1,1,-2,1,0,1,-1,12.765
2554,1,0,0,0,0,-1,0,4,12.77
2555,10,1,0,-2,-1,-1,-4,-3,12.775
2556,-9,1,1,1,0,0,2,-4,12.780000000000001
2557,-10,-3,-1,-3,-1,-2,-3,-3,12.785
2558,-1,-1,-2,1,-1,0,2,0,12.790000000000001
2559,-3,-2,-1,1,-2,0,2,1,12.795
2560,7,3,5,2,1,1,-1,2,12.8
2561,1,-3,1,-1,0,-1,-3,-7,12.805
2562,-4,-2,0,-3,-3,0,0,3,12.81
2563,-1,-1,-2,0,-1,-2,-3,-1,12.815
2564,2,2,-1,0,2,1,0,1,12.82
2565,2,-3,-2,0,-1,0,0,0,12.825000000000001
2566,-2,-2,-2,-2,-1,-2,-2,-3,12.83
2567,-3,-2,-5,-4,-1,-1,-1,1,12.835
2568,4,2,1,-1,0,-1,-1,-4,12.84
2569,-10,-3,-1,-2,0,1,1,1,12.845
2570,2,2,4,0,0,2,-1,-1,12.85
2571,5,-3,-1,-1,-1,-1,-1,0,12.855
2572,-7,-2,-3,-1,-1,0,-1,-4,12.86
2573,9,2,3,1,0,-1,1,1,12.865
2574,-9,1,-1,0,0,0,-2,-6,12.870000000000001
2575,0,-1,1,1,1,1,4,3,12.875
2576,1,-2,-2,-1,0,-1,-1,2,12.88
2577,3,1,-1,-1,0,-2,-2,-1,12.885
2578,-4,-1,-2,-1,-2,-2,-1,-2,12.89
2579,2,-2,-2,-3,0,-1,-3,-1,12.895
2580,-3,-1,-2,-1,-1,-1,0,2,12.9
2581,0,-2,-2,-2,-2,-3,-3,1,12.905000000000001
2582,2,-2,0,1,-2,-1,0,1,12.91
2583,-5,-1,-1,-1,1,-2,-2,-4,12.915000000000001
2584,2,-1,3,0,-2,0,0,1,12.92
2585,2,-2,-1,0,-2,-1,0,0,12.925
2586,1,1,-1,0,0,1,0,-2,12.93
2587,0,0,2,0,-2,-1,0,-2,12.935
2588,-3,-2,-1,-1,1,-2,0,-1,12.94
2589,0,-1,-1,-1,0,0,0,-1,12.945
2590,-1,-1,-2,1,-1,-3,0,0,12.950000000000001
2591,-2,1,1,0,-1,-3,-2,-2,12.955
2592,7,2,0,0,-2,-1,1,4,12.96
2593,-6,1,1,1,0,0,-1,-4,12.965
2594,0,-3,-2,1,0,-1,-1,0,12.97
2595,1,1,-3,-1,-1,2,1,2,12.975
2596,-3,-1,1,-2,0,-1,-2,-1,12.98
2597,6,-1,1,0,0,0,1,1,12.985
2598,-2,-2,1,-1,2,-1,-2,-2,12.99
2599,0,1,1,2,0,0,1,1,12.995000000000001
2600,-1,-2,-4,-2,-4,-2,1,1,13.0
2601,-8,-3,-3,-2,-1,-1,-4,-5,13.005
2602,8,-1,1,0,-1,0,-1,4,13.01
2603,0,1,-2,-1,-1,-1,-2,-3,13.015
2604,-3,0,2,1,0,-1,-1,-1,13.02
2605,0,-1,-3,-3,-3,-2,1,0,13.025
2606,-7,-3,-3,-1,-3,-1,-1,-4,13.030000000000001
2607,-1,-2,-1,-2,-1,-2,0,-1,13.035
2608,1,-1,-1,-2,0,-1,1,-2,13.040000000000001
2609,8,2,1,1,0,-1,2,6,13.045
2610,-11,-1,0,-1,-2,1,-2,-8,13.05
2611,0,-1,-1,-1,-1,0,0,0,13.055
2612,-2,1,-1,1,-1,-2,-1,-3,13.06
2613,3,-1,0,1,-1,-1,-1,0,13.065
2614,3,1,0,-1,-1,0,-2,2,13.07
2615,-2,-1,-3,-3,-1,0,-2,-1,13.075000000000001
2616,1,-1,0,0,-2,-1,-1,0,13.08
2617,-2,1,1,0,0,-2,-1,-1,13.085
2618,0,-2,-2,-3,0,-2,-1,0,13.09
2619,-6,-3,0,-2,-1,-2,-1,-3,13.095
2620,-1,-2,-5,-4,-1,-1,1,-1,13.1
2621,-4,0,-1,1,0,1,0,-1,13.105
2622,-1,0,1,-1,1,-1,0,-1,13.11
2623,0,0,0,0,-1,-2,-2,1,13.115
2624,-3,0,2,0,0,0,-3,-1,13.120000000000001
2625,-3,-2,-2,-1,-1,-2,-2,-2,13.125
2626,0,-1,-1,-1,-2,0,1,-1,13.13
2627,4,0,0,-1,-1,-1,1,-2,13.135
2628,-12,-3,-3,-2,0,-3,-4,-4,13.14
2629,5,-1,-1,-2,-1,1,-1,1,13.145
2630,-2,0,-3,-1,0,-2,-1,0,13.15
2631,-12,-2,-4,-2,-2,-1,-3,-4,13.155000000000001
2632,2,-3,-4,-2,-1,0,-1,-1,13.16
2633,2,1,1,-1,-1,-2,-1,0,13.165000000000001
2634,0,1,2,1,-1,-1,0,0,13.17
2635,1,3,2,0,0,0,1,2,13.175
2636,2,-2,-3,-2,-2,-1,-2,-2,13.18
2637,-7,-4,-3,-3,-1,-2,-1,-6,13.185
2638,3,0,-1,0,0,-1,-2,6,13.19
2639,-3,-1,0,0,-1,-1,0,-2,13.195
2640,6,4,3,-2,-2,-1,1,3,13.200000000000001
2641,2,3,4,2,1,0,0,1,13.205
2642,0,0,-3,-1,-1,-1,-2,-4,13.21
2643,-1,-3,-6,-1,-2,-2,0,-1,13.215
2644,-1,-2,0,0,-2,0,-2,2,13.22
2645,0,1,1,1,0,0,0,-1,13.225
2646,-4,1,-2,-3,-1,-1,0,-2,13.23
2647,-1,0,2,0,0,0,-1,-1,13.235
2648,2,0,-2,-1,-2,-1,-1,-2,13.24
2649,-3,-2,-5,-2,0,-2,-1,-1,13.245000000000001
2650,-1,-2,-1,-1,-2,-1,-1,-2,13.25
2651,3,-1,-1,0,-1,2,2,2,13.255
2652,-3,-1,1,1,1,-1,-1,-2,13.26
2653,-2,-4,-3,-4,-4,-1,-3,-2,13.265
2654,0,0,0,0,-1,0,-1,-2,13.27
2655,2,-2,-4,-2,-2,-4,-1,-2,13.275
2656,1,-1,-1,-1,-1,-1,0,-1,13.280000000000001
2657,-1,-1,-3,0,-1,0,1,0,13.285
2658,1,0,3,-1,-1,-1,-1,1,13.290000000000001
2659,-2,-3,0,-1,-1,-1,-2,-1,13.295
2660,1,2,1,-1,-2,0,-2,1,13.3
2661,0,-3,-5,-4,-1,0,1,2,13.305
2662,-14,-4,-3,-1,-2,-2,-2,-4,13.31
2663,1,-1,-2,-4,-1,0,-2,1,13.315
2664,-2,-2,-2,-2,-1,-2,0,2,13.32
2665,4,0,2,0,1,0,-1,1,13.325000000000001
2666,3,-2,-1,-1,-1,-1,2,4,13.33
2667,-8,-4,-4,-5,-2,-2,-2,-5,13.335
2668,2,0,0,1,-1,-1,-1,-2,13.34
2669,-4,-1,-1,-2,-1,-2,-3,-1,13.345
2670,0,1,0,-1,0,0,-2,-3,13.35
2671,0,0,3,3,0,0,1,1,13.355
2672,0,1,-1,0,-1,0,0,-4,13.36
2673,-3,1,-1,0,-1,0,1,-1,13.365
2674,-2,-4,-6,-1,-1,-3,-2,-2,13.370000000000001
2675,3,0,-2,-1,1,0,-2,0,13.375
2676,-2,-1,-1,0,-2,-1,0,0,13.38
2677,-2,-1,-1,-1,-2,-1,0,-3,13.385
2678,3,-1,-1,-1,-1,-1,0,2,13.39
2679,-1,-1,-3,-2,1,-1,-1,0,13.395
2680,-4,-1,-2,-1,2,-1,1,0,13.4
2681,-1,1,1,1,0,0,-1,1,13.405000000000001
2682,-1,-3,1,0,-1,1,1,0,13.41
2683,0,1,-1,1,-2,-1,-1,0,13.415000000000001
2684,-2,-1,0,-1,-1,-1,-1,-3,13.42
2685,5,-2,0,2,-1,0,0,2,13.425
2686,-4,-2,-2,-1,1,-1,-2,-2,13.43
2687,-3,0,1,1,0,0,0,0,13.435
2688,-4,0,-1,0,-1,1,-1,0,13.44
2689,2,1,-2,-1,-1,-1,-1,1,13.445
2690,4,1,-3,-3,-2,-2,-3,-1,13.450000000000001
2691,-10,-6,-3,-2,-1,-2,-1,-3,13.455
2692,2,-1,-3,0,0,-1,-2,-1,13.46
2693,-2,-1,1,0,-1,1,-1,1,13.465
2694,6,1,1,1,1,1,1,4,13.47
2695,1,2,2,2,-1,-2,0,-3,13.475
2696,8,-1,1,-1,1,-1,1,-1,13.48
2697,-15,-1,0,0,-1,-3,-2,-6,13.485
2698,13,0,-3,0,-1,-1,-1,4,13.49
2699,4,0,0,-1,0,-2,-2,2,13.495000000000001
2700,0,-2,-3,-5,0,-1,-1,-2,13.5
2701,1,1,1,-3,0,-1,-1,-1,13.505
2702,-6,0,1,0,0,0,-3,-2,13.51
2703,-2,1,-1,1,2,0,-1,-2,13.515
2704,-3,-2,-2,0,-1,0,1,-2,13.52
2705,1,-1,-4,0,-1,0,0,-1,13.525
2706,-8,-2,-1,-2,0,0,0,-3,13.530000000000001
2707,5,1,1,-2,-1,-1,1,1,13.535
2708,-13,-3,0,-2,-1,-3,-1,-1,13.540000000000001
2709,1,-1,-2,-1,-1,-1,-2,-3,13.545
2710,1,2,1,0,-2,-1,0,-1,13.55
2711,5,-1,-1,-2,-2,-1,1,1,13.555
2712,-15,-1,0,0,-1,-2,-4,-5,13.56
2713,17,-1,1,1,-1,-1,-1,4,13.565
2714,-15,-2,1,-1,0,-1,-2,-6,13.57
2715,-2,-2,-3,-3,-3,-1,-3,-2,13.575000000000001
2716,6,0,0,0,0,-1,0,0,13.58
2717,-4,-3,-5,-1,-1,0,-1,-3,13.585
2718,3,2,0,0,-2,0,-2,1,13.59
2719,-1,0,1,1,-1,-2,1,1,13.595
2720,-1,1,0,0,0,-1,-1,0,13.6
2721,-5,1,2,0,0,0,-1,-1,13.605
2722,3,2,2,0,0,-1,2,0,13.61
2723,-5,-2,-3,-2,-3,-1,-2,-4,13.615
2724,13,1,0,2,0,2,2,2,13.620000000000001
2725,-12,-4,-2,0,-3,-1,-1,-3,13.625
2726,-9,-1,-2,-1,-1,-1,-1,-2,13.63
2727,1,0,1,-1,1,-1,0,-2,13.635
2728,1,0,-1,2,0,0,-1,-2,13.64
2729,3,3,4,2,-1,0,0,0,13.645
2730,3,-4,-2,-1,-2,-2,0,0,13.65
2731,2,-5,-7,-2,-2,0,0,1,13.655000000000001
2732,-1,0,-3,-2,-2,-1,-2,1,13.66
2733,-3,-2,-3,-2,-1,-1,-2,-1,13.665000000000001
2734,-1,-2,-2,-1,0,-1,0,-1,13.67
2735,1,1,1,1,1,1,0,1,13.675
2736,0,0,1,-1,-2,0,1,-1,13.68
2737,-6,1,3,0,-1,-1,-1,0,13.685
2738,9,-2,-4,-3,-1,-1,-3,1,13.69
2739,-2,1,-2,1,0,1,-1,0,13.695
2740,-2,1,-1,-1,0,-1,0,-1,13.700000000000001
2741,0,-1,-2,-1,1,-1,0,-1,13.705
2742,-1,0,-1,-1,0,0,-1,-2,13.71
2743,-1,-1,0,-1,-1,-1,1,-1,13.715
2744,-1,1,5,2,0,1,-2,0,13.72
2745,5,-2,-5,-3,0,-1,-1,2,13.725
2746,-8,0,0,0,-1,-1,-1,-5,13.73
2747,-3,-1,1,0,-1,-2,-1,0,13.735
2748,1,0,0,-1,0,-1,0,1,13.74
2749,0,2,1,-1,0,1,2,2,13.745000000000001
2750,10,1,-1,-1,0,-1,0,3,13.75
2751,-8,-3,-1,-1,-1,1,-2,-3,13.755
2752,0,-4,-5,-3,-4,-2,-1,-2,13.76
2753,0,-1,-1,-2,0,-2,-1,-2,13.765
2754,2,1,1,-1,-1,-1,0,1,13.77
2755,-5,-4,-2,1,1,-1,-2,-3,13.775
2756,9,0,-1,0,-2,-3,-2,2,13.780000000000001
2757,-2,-1,-2,-1,-1,-1,-2,-4,13.785
2758,-3,-1,-1,-1,-2,-3,0,-2,13.790000000000001
2759,2,-2,-4,-4,-4,1,-1,0,13.795
2760,-8,-2,1,-1,1,-1,-3,-4,13.8
2761,1,0,0,-1,0,-2,0,-2,13.805
2762,-3,0,0,0,1,-1,0,-2,13.81
2763,1,0,0,2,-1,-2,0,0,13.815
2764,2,-2,-1,-1,-1,-1,0,1,13.82
2765,-3,-2,0,-1,0,-1,0,-1,13.825000000000001
2766,1,0,0,0,0,-1,-2,-1,13.83
2767,2,-1,1,-1,-1,-1,-2,-1,13.835
2768,-2,-1,-1,1,2,2,-1,0,13.84
2769,-2,1,3,1,0,-3,-1,-1,13.845
2770,7,-3,-3,0,-1,-1,0,3,13.85
2771,-16,0,0,1,1,0,-2,-5,13.855
2772,0,1,2,0,-1,-1,1,-2,13.86
2773,-3,-3,-3,-1,-1,2,-1,-1,13.865
2774,0,-2,-1,1,-1,-4,0,-2,13.870000000000001
2775,7,0,-2,-1,1,-2,0,3,13.875
2776,-16,1,1,1,-1,0,0,-6,13.88
2777,17,5,1,1,0,0,1,6,13.885
2778,-3,1,1,2,0,0,-2,-2,13.89
2779,3,0,0,-3,-2,0,-1,0,13.895
2780,0,-1,-2,-1,-1,0,-1,-1,13.9
2781,0,0,-1,-1,-1,0,-1,-2,13.905000000000001
2782,-5,-1,-5,-2,-2,0,0,-2,13.91
2783,0,1,1,-1,1,-1,-1,0,13.915000000000001
2784,1,-2,-3,-2,-1,0,-2,-1,13.92
2785,-6,0,1,0,-1,1,-2,-2,13.925
2786,-1,-6,-10,-6,-3,-4,-2,-1,13.93
2787,-3,-2,-2,1,-2,0,-1,-2,13.935
2788,3,0,-1,0,-1,-2,0,2,13.94
2789,-11,-5,-4,-2,-2,-3,-3,-5,13.945
2790,-4,0,2,2,-1,3,-1,-1,13.950000000000001
2791,6,2,1,-1,0,-1,-1,2,13.955
2792,-4,-3,-2,0,-2,-3,-1,-2,13.96
2793,2,0,0,-1,-1,-2,1,2,13.965
2794,2,2,0,-1,-2,1,-1,0,13.97
2795,1,0,-1,-1,0,-2,0,3,13.975
2796,0,0,2,-2,0,-2,-3,-2,13.98
2797,-2,2,0,0,-1,0,-1,-1,13.985
2798,-1,2,2,-1,0,-3,-1,-2,13.99
2799,0,-4,-5,-3,-2,-1,-1,-2,13.995000000000001
2800,-4,-3,-8,-2,-3,0,-2,-2,14.0
2801,-2,-3,-1,-3,-2,-2,-2,-2,14.005
2802,3,2,1,0,2,1,0,0,14.01
2803,-3,-1,2,1,0,-1,-1,-2,14.015
2804,1,0,-1,1,2,0,-1,-1,14.02
2805,-4,-3,-3,-2,-2,-1,-1,-3,14.025
2806,3,-3,-3,-1,-1,1,1,1,14.030000000000001
2807,0,2,2,2,1,-1,-1,-1,14.035
2808,-5,-1,0,-1,-2,-1,0,0,14.040000000000001
2809,2,1,-1,1,0,-1,-1,1,14.045
2810,-4,-1,2,-1,1,0,-2,-2,14.05
2811,-1,-2,-4,-3,-2,-2,0,-3,14.055
2812,4,-1,-1,-2,-1,-1,0,0,14.06
2813,1,-2,-1,0,-1,0,1,-2,14.065
2814,-3,-2,0,-1,0,-1,-1,-1,14.07
2815,1,-1,2,-1,-1,0,1,1,14.075000000000001
2816,4,1,-2,-2,0,-1,-1,1,14.08
2817,2,0,-1,-1,0,0,0,-2,14.085
2818,-8,-5,-4,-2,-1,-4,-2,0,14.09
2819,-4,-4,-3,-2,-3,-1,-3,-4,14.095
2820,-1,0,-2,-2,-1,-1,0,1,14.1
2821,-1,-1,0,-1,-1,0,-1,0,14.105
2822,4,1,0,1,-1,0,0,0,14.11
2823,1,1,-1,0,-2,0,-1,0,14.115
2824,4,-1,0,0,-1,-2,-2,-1,14.120000000000001
2825,-8,-2,0,0,0,-1,0,-2,14.125
2826,-3,-2,-4,-3,-3,-2,-1,-2,14.13
2827,-4,1,0,1,-3,-1,1,-2,14.135
2828,0,1,1,0,-1,0,-2,-3,14.14
2829,3,1,0,-1,-1,0,1,0,14.145
2830,0,2,1,1,0,-1,0,-1,14.15
2831,2,-1,-3,-3,-1,-2,0,-2,14.155000000000001
2832,-2,-3,-4,-1,-1,0,0,0,14.16
2833,0,-1,0,-2,-1,-1,-1,-1,14.165000000000001
2834,-3,-1,0,0,0,0,1,0,14.17
2835,5,-2,-2,-1,0,-2,-2,-1,14.175
2836,-8,-1,-2,-1,-1,-1,0,-4,14.18
2837,8,-1,-4,-1,-1,0,1,4,14.185
2838,-9,-3,-1,-1,0,0,-1,-4,14.19
2839,0,1,-3,-1,-2,-1,-1,1,14.195
2840,1,-1,0,1,-1,-1,0,1,14.200000000000001
2841,0,-1,-1,1,-1,-2,-3,1,14.205
2842,0,0,0,2,0,0,0,0,14.21
2843,2,-2,-5,-2,-1,-1,-1,-1,14.215
2844,-8,-2,-3,-1,-2,0,0,-2,14.22
2845,-2,0,-1,-1,-1,0,0,0,14.225
2846,6,1,-1,0,0,1,0,0,14.23
2847,-3,0,3,0,-1,0,-1,-1,14.235
2848,4,0,0,0,0,-1,0,2,14.24
2849,1,-3,-1,-1,-2,-2,-3,1,14.245000000000001
2850,-5,-1,-1,-2,-2,-2,-1,-3,14.25
2851,0,0,0,1,0,-1,0,-1,14.255
2852,2,-2,-1,-1,-1,0,-3,0,14.26
2853,-4,-1,-3,0,-1,-2,-1,-3,14.265
2854,5,0,-2,-2,1,-1,0,1,14.27
2855,3,1,0,-1,0,-1,-2,-1,14.275
2856,-6,0,-3,0,1,-1,0,-1,14.280000000000001
2857,-2,-3,-4,-1,-1,0,-2,-3,14.285
2858,-1,1,3,1,-2,0,-1,0,14.290000000000001
2859,-3,1,0,-1,1,1,-1,0,14.295
2860,6,0,2,2,1,1,1,2,14.3
2861,-14,-1,-1,-2,-1,-1,-1,-7,14.305
2862,0,0,-3,-3,-2,-1,-1,-2,14.31
2863,-1,-1,-2,-2,0,2,1,1,14.315
2864,-2,1,0,-1,-1,-2,-1,-1,14.32
2865,11,0,1,-1,0,-2,0,4,14.325000000000001
2866,-8,-2,-1,0,1,0,0,-3,14.33
2867,-2,-2,0,0,0,-2,-2,-1,14.335
2868,0,-1,-4,-2,-1,-2,-1,0,14.34
2869,-1,0,1,1,0,0,0,-3,14.345
2870,1,2,1,1,0,-2,-1,0,14.35
2871,3,-2,0,-1,0,-1,0,1,14.355
2872,-4,-2,-2,-1,-2,0,-1,-3,14.36
2873,5,2,0,-1,-1,-2,-1,0,14.365
2874,-5,-4,-1,-2,1,-1,-1,0,14.370000000000001
2875,-6,-1,-2,-1,-1,-1,1,-1,14.375
2876,3,0,3,-2,-1,-1,0,1,14.38
2877,-10,-4,-3,-1,-2,-2,0,-4,14.385
2878,3,-2,-2,1,1,-1,1,2,14.39
2879,0,-3,2,2,0,-2,-4,-3,14.395
2880,1,-3,-6,-4,-1,-2,-1,-3,14.4
2881,-2,-2,-1,-2,0,1,-1,1,14.405000000000001
2882,2,1,0,-1,-1,0,-1,1,14.41
2883,-12,-3,-2,-2,-2,-1,0,-3,14.415000000000001
2884,7,0,-2,-2,-1,1,-1,1,14.42
2885,6,3,3,1,1,-2,-2,3,14.425
2886,-17,-3,-1,0,-2,0,-2,-7,14.43
2887,8,-1,-1,-2,-2,-1,-1,2,14.435
2888,-3,-1,0,-1,-2,-2,-1,-3,14.44
2889,-2,0,2,-1,0,0,0,0,14.445
2890,4,-1,-4,-2,-1,0,1,2,14.450000000000001
2891,-1,-1,0,0,-1,-1,0,-1,14.455
2892,-4,0,0,1,0,-1,-1,-2,14.46
2893,5,0,1,0,0,-2,2,4,14.465
2894,0,-2,-3,-3,-1,-2,-2,-2,14.47
2895,-1,0,-1,0,0,0,2,-1,14.475
2896,1,1,1,1,0,1,0,-1,14.48
2897,1,-4,-8,-6,-2,-2,-1,-2,14.485
2898,4,2,6,2,1,0,0,1,14.49
2899,-6,-2,-4,-4,-1,-1,-1,-1,14.495000000000001
2900,-4,0,-1,1,-1,-1,-1,-2,14.5
2901,0,1,1,0,-2,0,0,-1,14.505
2902,2,0,-1,0,-2,1,0,1,14.51
2903,1,-1,-3,-1,-1,1,-1,1,14.515
2904,2,-3,3,0,-2,-1,0,2,14.52
2905,-3,0,0,0,0,0,1,-3,14.525
2906,7,0,-3,-1,-1,1,1,1,14.530000000000001
2907,-3,-3,-1,-1,0,-1,-1,-2,14.535
2908,-3,-1,-3,-1,-1,-2,-1,-1,14.540000000000001
2909,-2,0,0,1,0,1,0,-1,14.545
2910,0,-1,-2,-2,-1,-2,-1,0,14.55
2911,0,0,-2,-2,-2,-2,-2,-1,14.555
2912,-2,-2,0,-2,0,0,-1,-1,14.56
2913,-3,-3,-1,-1,-1,-2,-3,-2,14.565
2914,-1,1,0,-1,-2,-2,-2,0,14.57
2915,-1,-1,-4,-1,-1,2,1,0,14.575000000000001
2916,0,-2,-1,-2,-1,0,-1,-1,14.58
2917,0,-2,-5,-1,-2,-2,-2,0,14.585
2918,0,-1,0,-1,0,-1,-2,0,14.59
2919,-1,0,-1,-2,0,0,-2,0,14.595
2920,2,0,-2,-3,-2,-2,-2,1,14.6
2921,-2,-4,-3,-4,-1,0,1,0,14.605
2922,-5,-3,-2,0,-1,-1,-2,-2,14.61
2923,-7,0,-1,0,-3,-3,-1,-1,14.615
2924,8,1,1,0,0,1,-2,3,14.620000000000001
2925,-2,1,1,-1,-1,-1,-1,-1,14.625
2926,-2,-2,-3,-3,-3,-3,0,-3,14.63
2927,9,2,1,0,1,0,0,4,14.635
2928,-10,-5,-2,1,0,-1,-1,-4,14.64
2929,-2,0,0,1,0,-1,-2,-3,14.645
2930,6,1,-2,0,0,-1,-1,2,14.65
2931,-5,-2,2,0,1,-1,-2,-3,14.655000000000001
2932,-2,-2,-2,0,0,-3,2,-3,14.66
2933,0,-2,-1,0,0,-1,-1,0,14.665000000000001
2934,-4,1,2,2,2,1,1,-1,14.67
2935,0,-2,-4,0,-2,-1,-1,-2,14.675
2936,0,1,1,1,-2,1,1,-1,14.68
2937,0,0,-1,0,-1,-2,0,-2,14.685
2938,0,1,2,2,-1,-2,-2,0,14.69
2939,-1,0,1,-2,0,-1,-2,-1,14.695
2940,0,0,0,-1,-2,-1,-1,1,14.700000000000001
2941,-2,-2,-3,-3,-1,-1,-1,-2,14.705
2942,1,0,-1,0,0,0,-1,0,14.71
2943,1,0,2,0,0,-2,-1,-1,14.715
2944,-1,-3,-6,-3,-1,-2,-3,-2,14.72
2945,5,2,2,-1,-1,-1,-1,2,14.725
2946,-14,-3,3,0,-3,0,-1,-4,14.73
2947,8,-1,0,0,-2,1,-1,0,14.735
2948,0,2,0,-1,-1,0,1,3,14.74
2949,-5,-2,0,1,0,-1,-2,-3,14.745000000000001
2950,-3,-1,0,0,-2,0,0,0,14.75
2951,9,2,-2,-1,-3,-1,2,3,14.755
2952,2,3,1,0,1,0,-1,2,14.76
2953,-1,0,-2,1,1,0,-1,0,14.765
2954,-4,-3,-4,-3,-1,-3,0,-3,14.77
2955,-8,-2,-1,-4,-3,-3,-3,-4,14.775
2956,4,0,1,0,1,1,0,0,14.780000000000001
2957,0,-1,0,1,-2,-3,0,1,14.785
2958,3,-2,-2,-1,-2,1,-3,0,14.790000000000001
2959,0,0,-1,-1,0,-2,-1,-2,14.795
2960,-1,-5,-3,-2,-2,-2,-4,-3,14.8
2961,-3,-2,-1,-2,-2,-1,-2,-2,14.805
2962,1,2,-2,0,-2,1,0,0,14.81
2963,1,-1,-1,0,-1,1,0,0,14.815
2964,-8,0,1,1,0,0,1,-3,14.82
2965,-1,0,0,0,-1,0,0,1,14.825000000000001
2966,2,-1,-2,-2,-2,-3,-1,0,14.83
2967,0,0,2,3,2,0,2,0,14.835
2968,-3,-3,-2,-1,-1,-1,-3,-3,14.84
2969,1,0,-1,-1,-1,0,0,0,14.845
2970,4,2,-1,-1,0,0,-1,0,14.85
2971,-2,0,1,0,-1,-2,-1,-3,14.855
2972,0,1,-1,1,0,0,1,-1,14.86
2973,4,-2,-2,-2,-1,-1,2,1,14.865
2974,1,-3,0,0,0,-1,-1,0,14.870000000000001
2975,-2,-3,-6,-2,0,0,-2,-2,14.875
2976,5,2,-1,0,0,0,0,1,14.88
2977,-11,-5,-2,-2,-2,-1,-3,-2,14.885
2978,1,-1,-2,-1,-1,-2,0,0,14.89
2979,-4,-3,-3,-1,-2,0,-1,-2,14.895
2980,0,0,0,-3,-3,-1,0,0,14.9
2981,1,0,0,1,-1,-1,-3,-1,14.905000000000001
2982,5,-1,0,-1,0,-2,1,1,14.91
2983,-16,-2,-1,1,0,0,-1,-5,14.915000000000001
2984,8,-1,-1,0,-2,-2,0,2,14.92
2985,-5,0,0,0,-2,0,0,-1,14.925
2986,2,0,0,1,0,0,-1,1,14.93
2987,4,2,-1,-1,0,-2,1,1,14.935
2988,-5,-1,0,-1,0,-3,-1,-1,14.94
2989,3,1,1,-1,0,-1,0,0,14.945
2990,-2,-1,-1,-1,-1,-1,-1,-1,14.950000000000001
2991,-2,0,1,0,-1,1,-2,-1,14.955
2992,-3,-2,-3,-2,-1,-1,-1,-1,14.96
2993,3,-1,-2,-2,1,-1,-1,2,14.965
2994,-4,-3,-3,-2,-1,1,-2,-4,14.97
2995,6,1,2,0,-2,0,0,1,14.975
2996,-12,-3,-2,0,-2,-1,-1,-4,14.98
2997,3,-1,1,0,0,-2,-1,-1,14.985
2998,-2,0,-2,-2,-2,-2,-2,-1,14.99
2999,6,2,0,-2,-1,-2,0,2,14.995000000000001
3000,-2,-3,-2,-1,-2,-1,-1,0,15.0
3001,-7,1,1,1,-1,1,-1,-3,15.005
3002,0,-2,-2,-1,-1,0,-1,-2,15.01
3003,0,-2,0,1,-1,1,-1,-1,15.015
3004,4,5,4,1,0,2,0,1,15.02
3005,-6,-4,-3,-3,-2,-2,-2,-2,15.025
3006,-2,-2,-1,-4,-2,-1,-1,0,15.030000000000001
3007,-1,-2,-1,-1,-1,-1,1,1,15.035
3008,0,-2,-1,0,-1,-2,0,-1,15.040000000000001
3009,1,2,4,1,0,0,-2,1,15.045
3010,1,-1,-1,0,0,-1,0,2,15.05
3011,-2,-2,0,-2,-1,0,-1,1,15.055
3012,-1,0,1,-1,0,1,-1,1,15.06
3013,2,0,-1,1,-1,-2,0,0,15.065
3014,-1,-1,-3,-3,-1,-1,-1,-2,15.07
3015,-4,-2,-2,-1,-2,-1,0,-2,15.075000000000001
3016,1,-1,-1,-2,0,-2,-3,-2,15.08
3017,1,-1,-1,1,0,-1,1,0,15.085
3018,-2,-2,0,-1,1,0,-1,-1,15.09
3019,-3,-1,-1,-1,0,-2,-1,-1,15.095
3020,-4,-2,-3,-2,-3,-2,0,-2,15.1
3021,0,-2,-2,-2,-1,0,0,0,15.105
3022,0,-1,0,-1,-3,-3,-2,0,15.11
3023,-1,-1,0,-3,-1,0,-1,0,15.115
3024,0,0,1,0,-1,-2,0,-2,15.120000000000001
3025,0,-1,-4,-2,-1,0,-2,-1,15.125
3026,-1,-1,-1,1,-1,0,0,-1,15.13
3027,2,0,-2,-2,0,-2,-2,0,15.135
3028,1,-3,-4,-2,-1,1,0,0,15.14
3029,-2,0,0,-1,-1,-2,-1,-1,15.145
3030,-3,-2,-2,-1,0,-1,-1,-3,15.15
3031,4,1,0,1,-2,0,0,0,15.155000000000001
3032,0,0,2,1,0,-1,1,-2,15.16
3033,-1,-1,-1,-1,-1,-2,0,-1,15.165000000000001
3034,-11,-4,-4,-2,-3,-1,1,-1,15.17
3035,-4,0,0,0,0,-2,-2,-2,15.175
3036,2,-3,-3,-2,0,-1,0,0,15.18
3037,-16,-2,0,-1,-1,-1,0,-6,15.185
3038,17,1,-1,0,0,-1,-1,6,15.19
3039,-9,0,-1,-1,0,0,-1,-4,15.195
3040,0,0,3,1,0,-2,-2,-1,15.200000000000001
3041,4,-1,-2,-3,0,-1,-1,2,15.205
3042,-8,-2,-4,-3,-2,1,-1,-3,15.21
3043,-1,-2,0,-1,-1,-2,-2,-2,15.215
3044,0,-1,-1,0,0,0,-2,0,15.22
3045,1,-1,-2,0,-2,-1,0,-1,15.225
3046,-2,1,1,0,-1,-1,-2,-3,15.23
3047,3,-2,-2,-1,-2,0,0,2,15.235
3048,-5,1,-1,0,-1,0,0,-3,15.24
3049,5,0,2,-1,-1,-2,-2,1,15.245000000000001
3050,1,1,0,0,0,-1,-2,-1,15.25
3051,-4,2,3,2,0,-2,0,0,15.255
3052,-1,-2,-2,0,-1,0,-1,1,15.26
3053,-6,-2,-3,-3,0,1,0,-1,15.265
3054,4,0,0,0,0,-2,-1,-2,15.27
3055,4,1,-1,-2,-1,1,0,2,15.275
3056,-8,-1,0,-2,-2,0,-1,-6,15.280000000000001
3057,4,-1,-1,0,-1,-1,-2,2,15.285
3058,-3,2,3,2,-2,-2,-1,-2,15.290000000000001
3059,2,-2,0,-2,-2,0,0,0,15.295
3060,7,-1,-4,-2,-1,-2,-2,0,15.3
3061,-11,-1,-3,-2,-2,-1,-1,-4,15.305
3062,1,-2,-1,1,0,-1,2,1,15.31
3063,-3,0,-2,-2,-1,0,-1,-1,15.315
3064,1,0,1,2,-1,-1,0,0,15.32
3065,-2,-1,-1,-3,-1,-2,-2,-2,15.325000000000001
3066,5,0,-3,-1,-1,1,-1,2,15.33
3067,-1,-3,-3,-1,-1,-1,0,-1,15.335
3068,-1,-1,0,-1,0,0,0,0,15.34
3069,1,1,1,2,-1,0,0,-1,15.345
3070,1,-2,-8,-2,-3,-1,0,0,15.35
3071,-4,-1,0,2,0,-1,1,-1,15.355
3072,-2,2,4,0,1,0,-1,-2,15.36
3073,4,-1,0,-1,0,-2,0,1,15.365
3074,-2,-2,2,-3,-1,-1,1,-2,15.370000000000001
3075,0,2,0,0,-1,-1,-3,-4,15.375
3076,1,-1,-3,0,-1,0,0,2,15.38
3077,2,-1,-2,-2,-1,0,0,0,15.385
3078,-3,-1,0,-2,-1,-1,-1,-1,15.39
3079,4,-3,-3,-1,-4,-2,-3,2,15.395
3080,-10,-1,0,-1,-2,-1,0,-3,15.4
3081,3,-4,-2,0,-2,0,-1,-1,15.405000000000001
3082,-4,0,0,-1,-1,0,0,-2,15.41
3083,1,0,-1,-1,0,0,-1,-1,15.415000000000001
3084,0,-3,-5,-1,-1,0,-1,-1,15.42
3085,2,3,0,2,-1,2,0,1,15.425
3086,-9,-3,-2,-1,0,-3,0,-4,15.43
3087,-4,-1,0,-1,-1,-1,-2,-1,15.435
3088,6,-2,-1,-2,-1,-3,0,3,15.44
3089,-3,1,0,-1,-2,0,-1,-3,15.445
3090,2,-2,-4,-1,-3,-1,-2,2,15.450000000000001
3091,3,1,3,1,1,1,0,-2,15.455
3092,-11,-7,-3,-1,-1,-1,-1,-6,15.46
3093,3,0,0,2,0,-2,0,2,15.465
3094,-3,-1,1,-1,-1,-1,0,-2,15.47
3095,-4,-3,-3,0,-1,0,1,-2,15.475
3096,2,1,-3,-2,-2,-2,-2,-1,15.48
3097,1,-4,-3,-1,-1,-2,-1,-3,15.485000000000001
3098,-3,-1,0,-1,0,-1,1,-1,15.49
3099,4,1,-1,0,-1,0,0,1,15.495000000000001
3100,-5,0,3,2,0,0,0,-1,15.5
3101,0,-1,-3,-1,-2,-1,-1,0,15.505
3102,0,3,0,0,-1,0,-2,0,15.51
3103,0,-1,-3,-2,0,-3,-1,0,15.515
3104,5,1,0,-2,-1,0,-1,0,15.52
3105,-7,-3,2,-1,-1,-1,-1,-3,15.525
3106,3,-1,-2,0,-1,-1,0,1,15.530000000000001
3107,-11,-3,-5,-2,-2,0,-2,-5,15.535
3108,0,-2,-3,-3,-2,-1,0,-2,15.540000000000001
3109,0,-1,-2,0,-1,-1,-1,-1,15.545
3110,4,2,2,1,1,1,-1,1,15.55
3111,-7,-4,-3,-1,-2,-2,-1,-4,15.555
3112,-12,-4,-2,0,-1,-1,-2,-1,15.56
3113,5,1,-2,-1,-1,-1,-2,2,15.565
3114,-2,1,1,0,-1,0,-1,-3,15.57
3115,9,-1,-1,-1,0,-1,-2,2,15.575000000000001
3116,-5,0,-1,-3,0,-2,-1,-2,15.58
3117,-1,0,1,1,-1,0,0,-2,15.585
3118,1,-1,1,0,1,0,0,0,15.59
3119,-2,-1,0,-1,-1,0,1,-1,15.595
3120,4,0,2,0,0,0,0,1,15.6
3121,0,3,2,2,0,-1,1,0,15.605
3122,-2,-3,-6,-3,-3,-2,0,-1,15.610000000000001
3123,-1,-3,-4,-1,-2,0,-1,0,15.615
3124,3,-1,-4,-2,-1,-1,-2,-1,15.620000000000001
3125,-2,0,0,-2,0,0,0,-1,15.625
3126,2,-1,0,0,0,0,0,0,15.63
3127,-5,-1,-1,-2,-2,0,-1,-4,15.635
3128,4,1,0,2,0,1,0,1,15.64
3129,2,-2,-4,-3,-1,1,-3,0,15.645
3130,-1,-1,-1,-1,0,-1,1,0,15.65
3131,0,-1,2,1,-1,-2,0,2,15.655000000000001
3132,3,-1,-2,0,-1,-1,1,-2,15.66
3133,-1,3,1,1,0,0,-1,-1,15.665000000000001
3134,-2,-4,-3,-2,-2,-3,-3,-2,15.67
3135,2,0,-1,0,1,-1,0,0,15.675
3136,-6,-5,0,-3,-2,-2,-1,-2,15.68
3137,-6,-2,-2,-2,0,0,-1,-3,15.685
3138,0,0,2,2,-1,0,0,0,15.69
3139,-3,2,0,0,-1,-2,-1,-2,15.695
3140,4,4,2,1,-1,-1,-1,0,15.700000000000001
3141,4,-1,0,-1,0,-2,0,1,15.705
3142,-5,-2,-2,0,-1,-1,0,-3,15.71
3143,3,-2,0,0,0,1,0,2,15.715
3144,-1,3,0,0,0,1,-1,1,15.72
3145,-2,-1,-1,1,-1,-2,-2,-1,15.725
3146,2,2,1,1,0,-1,-1,-2,15.73
3147,0,-1,-3,-1,0,2,1,0,15.735000000000001
3148,0,-2,-2,-3,-2,-1,-2,-1,15.74
3149,0,-5,-4,-2,-2,-1,0,-2,15.745000000000001
3150,-3,-1,-1,-4,-2,-2,-3,1,15.75
3151,-2,1,-1,-1,-2,-2,1,0,15.755
3152,1,3,1,0,0,0,-1,0,15.76
3153,1,-5,-1,-1,-3,-3,-1,0,15.765
3154,8,0,-2,1,-1,-2,-2,0,15.77
3155,-12,-2,0,1,1,0,-1,-3,15.775
3156,8,2,-1,1,-1,-1,1,2,15.780000000000001
3157,-4,3,-2,-1,-1,-1,-1,-3,15.785
3158,3,1,2,-1,0,1,0,-1,15.790000000000001
3159,5,-2,-1,-4,-2,0,-1,-1,15.795
3160,-1,0,0,2,-1,-2,0,-1,15.8
3161,-3,-1,-3,-3,0,-1,-1,-1,15.805
3162,-7,-2,-3,-3,1,1,-2,-5,15.81
3163,2,-1,1,-1,-2,1,1,4,15.815
3164,-3,-3,-2,-2,0,0,1,4,15.82
3165,-3,-2,-2,0,-2,-1,-1,-2,15.825000000000001
3166,-2,1,0,2,2,0,2,4,15.83
3167,3,1,1,0,0,-1,-2,-5,15.835
3168,-14,-7,-2,0,-1,-1,-3,-11,15.84
3169,16,-1,-3,-4,-1,0,1,9,15.845
3170,-6,-1,-2,-1,0,0,-1,-6,15.85
3171,3,-1,0,0,-1,-2,-1,2,15.855
3172,17,4,3,-1,0,-1,3,4,15.860000000000001
3173,-3,2,4,1,1,1,-3,-6,15.865
3174,2,2,4,4,1,2,2,5,15.870000000000001
3175,-11,-4,-5,-1,-1,-2,-2,-5,15.875
3176,1,-2,-5,-4,-1,1,-3,-4,15.88
3177,-5,-5,-3,-1,-4,-4,5,9,15.885
3178,14,4,2,-1,0,0,-2,3,15.89
3179,-11,0,3,3,0,-1,-2,-2,15.895
3180,8,4,-4,-4,0,1,-2,-8,15.9
3181,-1,-3,0,2,-1,0,0,-3,15.905000000000001
3182,-15,-8,-9,-11,-4,-2,0,-1,15.91
3183,1,-1,5,4,0,0,-2,-3,15.915000000000001
3184,-9,-4,-3,-4,-2,0,0,-4,15.92
3185,3,8,3,0,1,2,-4,-7,15.925
3186,54,3,-1,2,-3,-1,9,19,15.93
3187,-26,-6,-7,-6,-2,-1,-7,-8,15.935
3188,-12,-9,-4,-3,-4,-3,-5,-4,15.94
3189,-17,-5,0,1,0,-3,-3,-5,15.945
3190,-2,3,4,5,4,1,0,-4,15.950000000000001
3191,21,7,0,-2,-2,1,0,0,15.955
3192,-4,-5,-6,0,-4,-2,3,15,15.96
3193,3,0,-5,-5,2,4,1,-9,15.965
3194,-17,-3,-1,-2,-3,-3,-2,-4,15.97
3195,13,-1,-1,1,-2,-3,2,5,15.975
3196,3,8,7,3,2,-1,-3,-1,15.98
3197,-3,-6,-6,-1,-2,-3,0,-4,15.985000000000001
3198,-10,0,1,1,-3,-3,-2,-4,15.99
3199,-27,-9,-4,-2,1,3,4,0,15.995000000000001
3200,34,2,2,2,1,0,2,7,16.0
3201,-4,1,4,-3,-2,-2,-3,-2,16.005
3202,-8,-7,-6,3,1,-1,-2,-1,16.01
3203,-3,0,-6,-5,-1,1,-1,-4,16.015
3204,-10,-3,1,0,-2,-3,-3,-6,16.02
3205,8,-2,-5,-3,0,-1,1,6,16.025
3206,-17,1,-4,-5,-2,0,-7,-16,16.03
3207,23,4,2,3,-3,-2,-3,3,16.035
3208,-20,-5,-3,-2,1,2,7,8,16.04
3209,-6,-2,4,3,0,0,-3,0,16.045
3210,-2,3,-5,-5,-2,-1,-1,2,16.05
3211,-32,-13,-11,-8,-3,-5,-6,-14,16.055
3212,40,12,10,5,2,3,2,7,16.06
3213,-56,-11,-2,-1,-4,-5,-4,-10,16.065
3214,-9,0,7,4,5,1,-1,-5,16.07
3215,10,3,-1,0,1,2,5,6,16.075
3216,-15,-1,-4,-5,-3,0,-1,-8,16.080000000000002
3217,22,9,3,4,1,0,3,13,16.085
3218,5,-5,-9,-7,-4,-2,-4,-4,16.09
3219,-14,-6,5,0,-1,-2,-1,-4,16.095
3220,-1,-4,-3,-2,-2,-4,-3,-2,16.1
3221,5,-3,0,3,2,2,0,-1,16.105
3222,-5,-2,-2,-2,-1,-2,-1,-1,16.11
3223,26,7,-1,-3,-1,-2,-3,2,16.115000000000002
3224,-18,-2,1,3,1,1,0,4,16.12
3225,9,0,-1,0,0,-2,-2,-2,16.125
3226,-1,1,4,6,4,2,2,1,16.13
3227,-6,-3,-2,-4,-2,-2,-1,-1,16.135
3228,-14,-4,-3,1,2,-1,-2,-6,16.14
3229,-2,-2,-6,-5,-4,-4,-4,-6,16.145
3230,12,-1,2,0,0,0,2,7,16.15
3231,-17,0,2,1,1,-3,-2,-9,16.155
3232,42,2,-1,-3,-2,0,-1,6,16.16
3233,-24,-3,-4,-3,-1,-1,1,-3,16.165
3234,6,1,0,-1,-2,0,0,5,16.17
3235,10,4,4,4,3,2,4,6,16.175
3236,-13,-5,-6,-1,-1,-1,-5,-9,16.18
3237,11,5,5,2,2,3,5,12,16.185
3238,25,6,6,0,-2,-1,-2,0,16.19
3239,-38,-10,-4,-1,-1,-2,-4,-12,16.195
3240,12,10,5,2,0,-1,1,4,16.2
3241,-5,-1,1,-1,-1,2,0,-5,16.205000000000002
3242,-24,-4,-1,-1,0,-1,-2,-7,16.21
3243,23,7,4,0,0,-1,3,11,16.215
3244,-12,-7,-10,-4,-2,-1,0,-4,16.22
3245,1,5,3,-3,-4,-3,-3,-4,16.225
3246,3,-5,-2,-1,-1,-1,0,3,16.23
3247,-16,2,1,2,0,0,-2,-6,16.235
3248,-3,-2,2,2,1,1,-5,-9,16.240000000000002
3249,0,5,-1,-1,0,0,4,5,16.245
3250,3,-4,3,2,-1,-1,-3,-1,16.25
3251,14,-2,-10,-3,-3,-1,-1,3,16.255
3252,-19,-7,-1,-3,-5,-6,-6,-11,16.26
3253,18,2,2,2,0,0,1,6,16.265
3254,-2,2,-1,0,0,-2,0,-3,16.27
3255,2,0,2,1,0,-1,-2,-1,16.275
3256,-15,-4,-5,-3,-3,-2,-4,-9,16.28
3257,1,-12,-3,-1,-1,-2,0,7,16.285
3258,25,1,-1,-3,-2,-2,-3,0,16.29
3259,-13,-3,-4,-1,-1,-1,-2,-7,16.295
3260,1,-1,0,-2,-1,0,2,3,16.3
3261,9,3,1,-1,1,-2,-3,-6,16.305
3262,-5,2,0,-1,-2,0,2,2,16.31
3263,3,-9,-5,-4,-4,-1,0,6,16.315
3264,-7,2,1,-1,1,0,1,-2,16.32
3265,2,-5,-4,-3,-3,-2,-3,-2,16.325
3266,-17,-5,-5,-4,-5,-3,-5,-6,16.330000000000002
3267,18,8,6,1,1,2,3,7,16.335
3268,-17,-5,-5,1,2,3,3,1,16.34
3269,24,6,3,0,-1,-3,-1,1,16.345
3270,-11,-6,-6,-1,1,0,-2,-9,16.35
3271,2,5,0,0,0,1,1,0,16.355
3272,-7,-9,-3,-1,-2,-4,-3,-1,16.36
3273,5,-1,-2,1,0,0,0,4,16.365000000000002
3274,-12,-5,-7,-3,0,-2,-2,-11,16.37
3275,38,7,2,-1,-3,-3,4,15,16.375
3276,-28,-2,2,-1,-1,-2,2,-3,16.38
3277,7,-4,0,-1,1,2,-3,-3,16.385
3278,-2,1,2,0,-2,-2,0,0,16.39
3279,-6,-3,-3,0,0,-2,-2,-2,16.395
3280,21,6,5,-2,-1,0,-1,3,16.4
3281,-9,-1,-1,1,-2,-1,-2,0,16.405
3282,-5,-2,2,3,1,3,3,-5,16.41
3283,15,6,2,-2,-1,1,-1,1,16.415
3284,-3,-1,1,0,-1,-2,1,9,16.42
3285,-12,-4,-1,-1,0,1,-2,-5,16.425
3286,1,-1,-2,-1,-1,-3,-2,5,16.43
3287,-20,-7,-4,-1,-1,-1,-2,-7,16.435
3288,37,8,2,1,0,0,0,2,16.44
3289,5,-3,-2,-3,0,-3,-3,3,16.445
3290,-18,0,0,-2,0,-1,1,-2,16.45
3291,-3,-1,5,1,-2,-1,0,5,16.455000000000002
3292,-5,0,0,0,0,-1,-6,-11,16.46
3293,4,6,1,0,0,1,2,2,16.465
3294,13,1,3,-1,-1,-1,-1,8,16.47
3295,-1,-2,1,-1,1,1,-2,-3,16.475
3296,2,-2,-5,-2,-3,-1,1,4,16.48
3297,-11,1,-1,2,-1,-1,-2,-4,16.485
3298,-1,2,0,2,1,0,-3,-4,16.490000000000002
3299,-10,-7,-5,-3,-1,-2,-2,-6,16.495
3300,0,-5,-1,0,0,0,0,0,16.5
3301,-15,-4,-1,-2,0,1,0,-5,16.505
3302,15,-3,-1,-1,-3,-2,-4,-3,16.51
3303,-3,-3,-1,2,-1,0,0,0,16.515
3304,0,1,-5,-4,-1,-2,-3,-1,16.52
3305,-4,-1,4,1,-1,-2,2,-3,16.525
3306,-11,-2,-3,-5,-3,-1,-2,-1,16.53
3307,11,2,-2,-1,-2,-1,-2,1,16.535
3308,-5,3,4,4,1,-1,-1,-10,16.54
3309,-3,-3,-4,-2,-1,1,2,8,16.545
3310,8,-2,-7,-4,-3,1,2,4,16.55
3311,-1,0,-1,-3,-1,-2,-2,-1,16.555
3312,-14,-3,-3,-3,-1,-1,-2,-5,16.56
3313,16,4,0,0,-2,-2,-2,0,16.565
3314,-3,-2,-1,-2,0,0,0,0,16.57
3315,-3,-1,-1,-2,-1,0,0,-4,16.575
3316,-1,-1,-2,-3,-1,-2,-2,1,16.580000000000002
3317,-5,0,-1,-1,0,-2,-2,-4,16.585
3318,-6,-3,-4,-4,-3,-2,-4,-2,16.59
3319,2,1,1,2,1,2,0,2,16.595
3320,2,3,4,1,0,-1,-1,0,16.6
3321,0,-1,1,0,-3,-2,-1,-1,16.605
3322,-3,-3,-2,0,1,-1,0,-1,16.61
3323,-2,-1,0,4,1,-1,-2,-2,16.615000000000002
3324,0,-2,0,0,-1,-1,2,4,16.62
3325,-5,2,3,-2,0,0,0,0,16.625
3326,-5,-2,-2,-1,-3,2,0,3,16.63
3327,1,-1,-1,-3,-2,-3,-2,-5,16.635
3328,0,-2,-2,-2,-2,0,-1,-1,16.64
3329,0,-1,1,2,2,0,-2,-1,16.645
3330,-1,-2,1,1,-1,-1,0,0,16.65
3331,-2,2,0,0,1,0,1,0,16.655
3332,1,-2,-2,0,-2,-2,1,2,16.66
3333,-3,0,-2,-1,-1,1,-1,-1,16.665
3334,-2,4,2,2,3,1,1,-3,16.67
3335,4,-1,0,0,-2,-2,-2,4,16.675
3336,-10,-4,-1,0,-2,-3,-3,-3,16.68
3337,-2,-1,-4,-4,-1,1,0,-1,16.685
3338,4,1,1,-1,0,-1,-3,-5,16.69
3339,-3,2,0,-3,-2,0,1,0,16.695
3340,4,3,1,3,0,-1,-1,0,16.7
3341,4,-3,-3,0,0,-1,2,4,16.705000000000002
3342,-1,-1,-2,-2,-2,-4,-4,-6,16.71
3343,4,-3,-5,0,0,-2,3,0,16.715
3344,-2,1,3,-1,-2,2,-1,-4,16.72
3345,-1,-2,-2,0,-3,-3,-2,3,16.725
3346,-3,0,0,0,0,1,0,-5,16.73
3347,-2,0,-1,-1,-2,-1,-2,0,16.735
3348,5,1,-1,1,1,0,1,-1,16.740000000000002
3349,1,-1,-1,-3,0,-1,1,0,16.745
3350,-3,-3,-3,-4,-1,-2,-2,2,16.75
3351,-2,0,0,-1,0,-2,1,2,16.755
3352,1,-1,0,-1,0,-1,-1,-1,16.76
3353,-3,-4,-5,-4,-3,-2,-2,-5,16.765
3354,0,0,-1,0,0,1,3,2,16.77
3355,-2,-2,0,-2,-2,0,-2,-6,16.775
3356,0,-4,-2,-3,-1,-2,1,3,16.78
3357,0,0,-1,-2,-1,0,-5,-6,16.785
3358,-2,0,-1,0,-1,0,1,4,16.79
3359,-5,-2,0,-2,0,-4,-6,-6,16.795
3360,-2,-1,1,-1,-1,-1,0,1,16.8
3361,-1,0,1,0,-3,0,1,-1,16.805
3362,0,0,1,-1,-2,-2,2,0,16.81
3363,1,1,-1,-2,-2,-1,-1,-2,16.815
3364,4,0,0,-1,-1,-3,3,8,16.82
3365,-7,-1,-2,-1,1,-2,-4,-12,16.825
3366,1,-2,-3,-2,-3,-1,1,2,16.830000000000002
3367,-5,-3,-3,-2,-2,-3,-6,-14,16.835
3368,1,2,-1,-1,-1,1,1,12,16.84
3369,-2,-1,-3,0,0,1,-1,2,16.845
3370,6,1,3,2,2,0,-1,10,16.85
3371,-11,-2,-1,-1,-1,0,3,-8,16.855
3372,0,0,-1,0,-1,2,-3,-7,16.86
3373,5,2,1,0,-1,-2,2,3,16.865000000000002
3374,-5,-2,-2,-1,-2,-1,-2,-2,16.87
3375,5,-1,-1,0,-2,-1,0,6,16.875
3376,0,-3,-5,-3,-1,0,-1,-6,16.88
3377,-1,0,0,0,1,0,-1,-1,16.885
3378,4,3,1,0,1,-2,1,4,16.89
3379,-8,-1,-2,-2,0,1,-4,-6,16.895
3380,-2,0,-2,-1,-1,1,1,1,16.9
3381,2,-2,-1,-2,-2,0,0,2,16.905
3382,-4,-2,0,0,-2,0,0,-1,16.91
3383,3,2,2,1,-1,0,0,-3,16.915
3384,-2,0,-1,2,0,-1,0,3,16.92
3385,-2,-1,-2,0,0,-1,-2,-6,16.925
3386,-3,1,-2,0,-1,0,-2,-3,16.93
3387,0,0,-1,-1,0,-2,-2,4,16.935
3388,4,-1,1,1,-1,0,-2,-1,16.94
3389,-10,-5,-3,-3,-2,-2,0,-4,16.945
3390,-4,1,0,0,0,-2,1,0,16.95
3391,2,-2,1,-1,-1,-2,0,2,16.955000000000002
3392,4,0,1,-1,-2,1,-1,0,16.96
3393,-10,-2,0,-1,-1,-2,-4,-10,16.965
3394,-2,-3,-4,-2,-1,-2,-2,-2,16.97
3395,-1,-2,-2,0,-1,0,2,6,16.975
3396,-2,-1,-1,0,0,0,-2,-2,16.98
3397,8,3,1,-1,0,0,1,4,16.985
3398,-1,0,0,-2,0,-1,-1,-7,16.990000000000002
3399,0,-4,-2,-2,-1,0,1,2,16.995
3400,-1,-2,-1,-1,-2,-1,1,4,17.0
3401,0,1,2,2,-2,2,-2,-7,17.005
3402,-1,-4,-5,-1,-2,-1,-2,4,17.01
3403,3,0,3,0,-2,1,0,4,17.015
3404,-5,-2,-3,-2,-1,-3,-2,-7,17.02
3405,0,0,3,-2,0,-2,-2,1,17.025
3406,1,-2,1,1,-2,0,-2,-1,17.03
3407,-1,1,-2,0,-1,-3,-1,0,17.035
3408,0,-1,-1,-1,0,-1,-4,-14,17.04
3409,6,-1,-1,1,-1,1,3,16,17.045
3410,-6,-1,1,-2,-1,-2,-3,-8,17.05
3411,0,2,1,-1,-1,1,2,2,17.055
3412,0,-1,-3,-2,-1,0,-1,-1,17.06
3413,-1,0,-1,0,-1,0,0,-4,17.065
3414,-3,-2,-4,-4,-2,-1,0,3,17.07
3415,1,-2,0,0,-1,0,-3,-2,17.075
3416,-2,1,3,1,1,-2,-1,2,17.080000000000002
3417,-3,-2,-6,-3,0,-2,1,0,17.085
3418,0,-2,1,1,-1,-1,-2,-2,17.09
3419,-1,-1,1,-1,1,-1,0,-5,17.095
3420,4,1,1,0,-1,1,-2,-3,17.1
3421,-3,2,2,1,1,0,4,4,17.105
3422,0,-2,-4,-1,-4,0,-1,-6,17.11
3423,0,-1,-1,-1,0,0,-2,1,17.115000000000002
3424,-2,1,2,-1,-1,0,-1,-5,17.12
3425,0,0,0,-1,-1,-1,-1,4,17.125
3426,1,-3,0,-2,0,0,-1,2,17.13
3427,8,1,-3,-1,0,0,1,-2,17.135
3428,-10,0,1,1,-1,-1,0,2,17.14
3429,4,4,5,1,-2,-1,-1,-4,17.145
3430,-5,3,4,1,1,0,0,-8,17.150000000000002
3431,-3,-2,-3,0,-2,-1,1,5,17.155
3432,0,0,-1,-2,1,0,-1,-2,17.16
3433,1,-4,-4,-2,-3,0,-4,-1,17.165
3434,4,-1,-1,-1,-1,-1,-1,4,17.17
3435,1,0,2,1,0,0,-1,-4,17.175
3436,-1,-1,-1,2,-1,0,1,-2,17.18
3437,-3,-6,-5,-2,-3,-2,-1,-1,17.185
3438,2,-1,-2,-2,0,0,-3,-8,17.19
3439,2,2,2,1,0,-1,4,12,17.195
3440,-10,-5,-4,-3,-4,-4,-1,-1,17.2
3441,0,-3,-2,-1,1,-2,-4,-5,17.205000000000002
3442,0,0,1,1,-1,-1,0,1,17.21
3443,-4,-1,-2,0,-1,-1,-2,-5,17.215
3444,10,1,0,-1,-1,0,-3,1,17.22
3445,-5,3,2,2,0,1,3,0,17.225
3446,3,-3,-3,-1,-3,0,0,3,17.23
3447,-8,-1,0,-2,-2,-1,-4,-6,17.235
3448,3,-2,-2,-1,0,-1,1,7,17.240000000000002
3449,-3,-1,-1,-3,-2,0,-2,-5,17.245
3450,1,1,0,0,1,-1,0,4,17.25
3451,1,1,0,-1,-1,1,-3,-11,17.255
3452,0,-2,-3,-3,-3,1,4,7,17.26
3453,-2,-1,-1,0,1,-2,-1,-1,17.265
3454,-4,-1,0,-1,-1,-1,-1,-1,17.27
3455,1,0,-4,0,-1,-1,-2,-1,17.275000000000002
3456,-3,3,3,2,0,-1,2,-3,17.28
3457,0,-3,-5,-3,-2,-1,-4,-5,17.285
3458,-2,0,-1,-3,-1,-2,0,5,17.29
3459,1,-3,-4,0,-1,0,-2,3,17.295
3460,0,-1,0,0,1,-2,-1,-3,17.3
3461,1,1,-2,-1,-1,0,1,3,17.305
3462,-2,-1,-1,1,0,0,-1,-6,17.31
3463,0,-3,-1,-1,-3,-1,0,0,17.315
3464,-2,0,0,-1,-1,-3,-2,-2,17.32
3465,-2,-2,-1,-1,-2,-2,0,-3,17.325
3466,0,-1,2,0,-1,0,-1,0,17.330000000000002
3467,-3,-1,-1,-1,-2,-1,-1,0,17.335
3468,4,0,-1,-1,-2,-2,-1,1,17.34
3469,-12,-3,-1,-2,0,-2,-3,-5,17.345
3470,2,-1,-2,-1,-1,-2,0,0,17.35
3471,1,0,0,-1,-1,0,0,-3,17.355
3472,-5,-3,-3,-2,-1,-1,-4,-14,17.36
3473,5,0,0,1,0,0,3,17,17.365000000000002
3474,-3,-1,-3,1,-1,1,0,1,17.37
3475,-2,-3,-3,-3,-2,-1,-2,-4,17.375
3476,0,-4,-4,-3,-2,-2,-2,-1,17.38
3477,3,0,2,-1,-1,-1,2,-3,17.385
3478,-3,-1,1,1,-1,-1,-3,-7,17.39
3479,3,1,1,1,0,0,3,8,17.395
3480,-4,-1,-1,0,0,0,-2,-3,17.400000000000002
3481,2,-1,0,1,0,-1,0,0,17.405
3482,-1,-2,-2,-2,-2,-1,-1,1,17.41
3483,10,0,2,1,1,0,-1,-7,17.415
3484,-16,-1,-2,0,-2,-2,-4,-3,17.42
3485,-5,-4,-2,-1,-1,-2,-3,-2,17.425
3486,-2,2,2,-2,-1,2,0,3,17.43
3487,-4,-3,-1,-3,-1,-1,1,4,17.435
3488,5,-2,0,-1,-3,0,1,2,17.44
3489,1,1,0,0,1,0,-2,-6,17.445
3490,-2,2,2,2,0,0,-1,-4,17.45
3491,-5,-2,-6,-3,-1,-3,-2,1,17.455000000000002
3492,1,1,2,-1,0,-1,0,0,17.46
3493,1,-2,-2,-1,-2,-1,-3,-2,17.465
3494,1,-2,0,-2,-3,-1,1,0,17.47
3495,0,2,-2,-1,0,1,0,-1,17.475
3496,-2,-1,-3,0,0,0,1,1,17.48
3497,-2,-2,-3,-1,-1,-2,-1,-4,17.485
3498,1,-3,-3,0,0,-2,-3,-9,17.490000000000002
3499,-1,0,4,3,0,-2,4,10,17.495
3500,3,0,1,1,0,-2,2,3,17.5
3501,1,0,-1,-1,1,1,1,2,17.505
3502,1,1,4,2,0,1,-1,-5,17.51
3503,-4,0,0,-1,0,-1,0,-2,17.515
3504,1,-2,-2,-2,0,-1,0,2,17.52
3505,4,1,0,-1,1,1,-2,-1,17.525000000000002
3506,-4,1,-2,-1,-2,1,1,5,17.53
3507,-2,-1,1,0,-1,0,-2,-4,17.535
3508,2,-2,-3,-3,-2,-1,0,6,17.54
3509,-1,-1,0,0,-1,0,-1,-10,17.545
3510,-2,-4,-4,-2,0,-2,-3,-3,17.55
3511,-2,1,3,2,0,-1,1,6,17.555
3512,-1,-4,-7,-5,-3,-1,-2,-3,17.56
3513,-1,0,-1,-3,-2,-1,1,2,17.565
3514,0,0,3,0,0,-2,0,4,17.57
3515,-2,-2,0,-1,-1,-2,-3,-5,17.575
3516,1,0,-1,-2,-1,-1,-2,-3,17.580000000000002
3517,0,3,0,0,0,0,1,4,17.585
3518,-4,-4,-4,-1,-2,-2,1,3,17.59
3519,-1,-3,-5,-3,-2,-2,-1,-5,17.595
3520,0,2,1,0,1,2,1,-1,17.6
3521,5,-2,-2,-2,-2,-2,-2,6,17.605
3522,-9,-1,0,-2,-1,-2,-3,-13,17.61
3523,-2,-3,-6,-4,-3,-3,-1,3,17.615000000000002
3524,0,-2,0,1,0,0,-3,-1,17.62
3525,-1,-2,-2,-2,-1,-2,0,1,17.625
3526,5,0,-3,-2,-2,-1,1,2,17.63
3527,7,-1,0,-1,1,0,2,3,17.635
3528,-10,-2,1,-1,0,-1,-5,-5,17.64
3529,-3,-2,-2,0,-2,-1,1,0,17.645
3530,-2,-4,-1,1,-1,-1,1,1,17.650000000000002
3531,6,3,2,0,0,2,1,1,17.655
3532,-12,-3,-3,0,-1,0,-2,-2,17.66
3533,-1,0,1,1,0,0,-2,-1,17.665
