slno,emg1,emg2,emg3,emg4,emg5,emg6,emg7,emg8,Time
0,-2,-3,-5,-5,-2,-3,-1,-2,0.0
1,-1,-1,-2,2,1,1,-1,-1,0.005
2,-1,-2,-2,-3,0,-1,0,-1,0.01
3,0,1,3,3,1,-1,-1,-2,0.015
4,-1,0,0,-1,-4,-1,-1,-1,0.02
5,-1,0,1,0,-1,-2,-2,-2,0.025
6,1,-1,-1,1,-1,-1,-2,1,0.03
7,-1,-1,-6,-9,-4,-2,0,-1,0.035
8,-1,1,1,1,-1,-1,0,-2,0.04
9,1,0,0,1,0,1,0,-1,0.045
10,-1,0,5,8,1,-2,-1,-1,0.05
11,-1,-3,-5,-2,-1,0,-1,-1,0.055
12,0,-8,-11,-9,-3,-1,-2,0,0.06
13,-1,-1,-4,-3,0,0,0,0,0.065
14,0,-2,0,1,0,-1,-1,-2,0.07
15,0,0,3,2,3,0,0,0,0.075
16,0,0,5,6,0,-1,0,-2,0.08
17,0,1,-4,0,-1,-2,-1,1,0.085
18,-1,-2,-5,-9,-3,-3,-2,-2,0.09
19,-1,-2,-3,0,-1,-1,-1,-1,0.095
20,-1,1,0,0,-1,0,0,-1,0.1
21,-1,1,3,-6,-1,-1,0,0,0.105
22,-2,-3,-2,2,-1,0,0,-1,0.11
23,-1,0,2,0,-2,0,-2,-2,0.115
24,-1,-2,0,4,1,-2,0,0,0.12
25,1,-1,-3,-6,0,0,-2,0,0.125
26,0,-1,-3,0,0,-1,0,0,0.13
27,-2,-2,-3,-2,-3,-2,-1,0,0.135
28,0,-3,-2,-1,0,-1,-1,-1,0.14
29,-1,2,2,4,-1,0,-2,1,0.145
30,-1,0,4,2,2,2,1,2,0.15
31,0,1,-2,0,1,-1,0,-1,0.155
32,-2,-4,-6,-3,-2,-2,-1,-2,0.16
33,-1,3,-1,-2,-1,-1,-1,-2,0.165
34,-2,-2,2,-7,-2,-2,-3,-2,0.17
35,0,-1,4,6,1,-2,0,-1,0.17500000000000002
36,-1,-2,0,0,-1,-1,0,-1,0.18
37,-1,0,0,1,-2,-2,-1,-1,0.185
38,-1,0,0,-3,-2,-1,0,0,0.19
39,0,-2,-3,-6,-1,-1,0,0,0.195
40,0,3,6,5,-2,-1,-2,0,0.2
41,-2,-8,-8,-4,-1,-1,1,0,0.20500000000000002
42,0,0,-1,-2,0,-3,-1,0,0.21
43,0,1,-3,-5,-1,-1,-1,-1,0.215
44,-1,1,3,1,1,0,-1,0,0.22
45,0,1,2,2,-1,0,-2,-1,0.225
46,-1,-2,0,-3,-1,0,2,-1,0.23
47,1,0,0,-1,0,1,0,-1,0.23500000000000001
48,-1,3,3,2,-4,-1,0,-3,0.24
49,1,2,6,6,2,0,2,-2,0.245
50,-1,0,-7,-7,-2,-1,-2,-2,0.25
51,-1,-1,-1,2,0,-2,0,-1,0.255
52,1,-2,-5,-3,0,-1,0,0,0.26
53,-1,-8,-6,-8,-1,0,-2,-2,0.265
54,0,3,7,9,0,-1,-2,-1,0.27
55,-2,-3,-1,2,-1,1,-1,0,0.275
56,-1,-4,-15,-12,-1,1,-2,-1,0.28
57,-1,-1,0,-2,-2,-1,-1,0,0.28500000000000003
58,1,3,7,-2,1,0,0,-1,0.29
59,-2,-3,-6,-4,0,0,-2,0,0.295
60,-2,-1,3,0,-2,0,0,1,0.3
61,-1,2,7,4,0,0,-1,-2,0.305
62,-3,-4,-4,-3,-3,-1,0,0,0.31
63,1,1,2,3,2,0,0,-1,0.315
64,0,-2,-8,-14,-3,-2,-1,-3,0.32
65,0,7,6,3,-2,-2,0,1,0.325
66,-1,-2,-4,0,2,0,-1,-2,0.33
67,-2,1,4,1,-2,-1,-1,-2,0.335
68,2,1,0,-11,-1,1,-1,1,0.34
69,0,1,2,17,-2,-1,-3,-1,0.34500000000000003
70,-1,-4,-10,-6,-4,-1,-1,-1,0.35000000000000003
71,-1,-2,-1,1,-1,-1,-1,-1,0.355
72,-2,-1,0,1,-1,-2,-1,-1,0.36
73,-2,0,0,-1,0,-1,-1,0,0.365
74,-1,-6,-6,8,1,0,-3,0,0.37
75,0,-5,-4,-25,-1,1,0,-1,0.375
76,1,5,6,8,0,-1,-2,0,0.38
77,0,-2,1,-2,0,-1,0,0,0.385
78,1,0,-4,-9,0,-2,0,0,0.39
79,-2,3,8,14,-4,-4,-3,-2,0.395
80,0,2,-6,1,0,-1,-1,-2,0.4
81,-1,1,-6,-2,4,2,1,1,0.405
82,-3,-1,-1,-3,-1,-1,-2,-3,0.41000000000000003
83,0,0,7,12,0,1,2,0,0.41500000000000004
84,0,0,-2,3,1,0,-1,0,0.42
85,-3,-8,-11,-2,-2,-1,-2,-2,0.425
86,0,1,6,-3,-1,-1,-1,0,0.43
87,0,1,2,-1,-1,0,-1,0,0.435
88,1,-1,-1,8,1,1,1,-2,0.44
89,1,-2,1,-1,1,-2,-1,-1,0.445
90,0,-2,-6,-18,-3,-2,1,-1,0.45
91,-1,-2,-6,1,-2,-2,-3,-2,0.455
92,1,1,5,2,1,0,0,2,0.46
93,-2,-5,-9,-7,-6,-3,-1,-1,0.465
94,-1,-2,4,-2,-1,-2,0,1,0.47000000000000003
95,0,-1,-4,-8,0,-1,0,0,0.47500000000000003
96,0,-1,2,3,2,-2,-1,1,0.48
97,-1,-5,-5,-10,-3,-1,0,0,0.485
98,-2,-4,-3,11,-3,-1,-2,-3,0.49
99,-2,0,-4,-10,-2,-2,-2,-2,0.495
100,0,-5,3,-1,-2,0,0,-1,0.5
101,1,0,-3,8,0,1,0,-1,0.505
102,1,3,3,4,-1,-2,0,1,0.51
103,0,0,-2,-1,0,1,-1,0,0.515
104,-1,-5,-7,-3,-1,1,0,-1,0.52
105,0,2,1,-29,-3,-2,-1,-1,0.525
106,-3,-2,-1,27,-3,-3,-1,-4,0.53
107,0,-2,-2,7,0,-2,1,-1,0.535
108,0,4,3,-10,0,0,-1,0,0.54
109,-1,-5,-5,0,2,1,-1,-1,0.545
110,0,2,11,11,2,1,-1,1,0.55
111,0,1,-3,-4,0,0,-1,0,0.555
112,-3,-2,-12,0,-2,-1,-2,0,0.56
113,0,-1,-2,-6,-1,-1,1,-1,0.5650000000000001
114,0,1,3,1,0,-1,-1,-1,0.5700000000000001
115,0,-1,10,8,3,0,0,1,0.5750000000000001
116,-2,-6,-4,10,-3,-1,-1,-2,0.58
117,1,5,4,-9,1,0,-1,-1,0.585
118,-1,0,1,1,0,-1,1,0,0.59
119,-3,-5,-19,-28,-4,-3,-2,-4,0.595
120,-1,1,16,1,1,-2,1,-2,0.6
121,0,0,-1,23,0,1,-2,-1,0.605
122,0,-2,0,21,1,0,0,1,0.61
123,-1,-5,-8,-40,-5,-2,-1,-1,0.615
124,0,-1,0,4,-2,-1,-2,-1,0.62
125,-2,-1,3,-7,-1,-1,0,-1,0.625
126,-1,4,15,6,0,-1,-1,-1,0.63
127,1,1,-6,10,0,1,0,0,0.635
128,-1,-3,-8,-19,-2,-1,-2,-2,0.64
129,-3,-5,-2,7,-1,-2,0,-2,0.645
130,0,0,0,-13,-2,-1,-1,0,0.65
131,-1,1,-4,7,-3,-1,-2,-2,0.655
132,0,0,6,-6,-1,1,0,0,0.66
133,0,-1,5,9,0,-1,-2,1,0.665
134,-1,0,-7,-10,-2,-2,-3,-1,0.67
135,2,-1,5,22,2,-1,2,0,0.675
136,-1,-4,-9,-17,-2,-2,0,-1,0.68
137,-2,-4,-22,-15,-5,-3,-1,-1,0.685
138,-1,-1,3,-11,-1,-1,0,-2,0.6900000000000001
139,0,3,-1,-1,1,2,1,2,0.6950000000000001
140,0,0,10,4,0,0,-1,0,0.7000000000000001
141,1,3,12,19,2,2,1,2,0.705
142,-1,0,-7,-8,0,-1,0,0,0.71
143,-1,0,3,0,-2,-2,1,-1,0.715
144,0,5,3,15,0,0,0,0,0.72
145,-1,-5,0,-5,-2,0,-2,-1,0.725
146,-1,-1,-17,-4,-2,1,-1,-1,0.73
147,0,2,17,12,1,1,0,-1,0.735
148,-3,-6,-15,-8,-3,-1,0,0,0.74
149,0,5,7,-2,-3,-3,-3,-2,0.745
150,0,-2,-1,-9,-2,-1,0,-2,0.75
151,-1,0,3,3,0,-2,-1,1,0.755
152,-2,-2,1,1,-2,0,-2,-2,0.76
153,0,0,-6,-9,-1,0,-1,-2,0.765
154,0,-4,-3,-10,1,1,0,1,0.77
155,-1,-2,-5,4,-3,-2,-2,-3,0.775
156,-1,5,14,-2,1,-1,-3,-1,0.78
157,-2,-3,-13,12,-1,-1,0,-1,0.785
158,0,0,2,6,-1,-2,-1,-1,0.79
159,-1,-2,-3,-8,-1,0,-1,-2,0.795
160,-1,1,2,1,-2,-2,0,0,0.8
161,1,-4,2,8,-1,-1,2,0,0.805
162,-1,-2,-4,-27,-1,-1,1,0,0.81
163,0,0,-1,11,1,0,0,1,0.8150000000000001
164,0,-1,-2,11,-1,-1,-2,-1,0.8200000000000001
165,-1,-5,-2,-12,1,-1,0,0,0.8250000000000001
166,-1,0,0,15,-1,-1,-1,-3,0.8300000000000001
167,-3,-1,10,8,1,-1,-2,-1,0.835
168,0,1,-4,-27,-2,-1,-2,0,0.84
169,-1,1,0,1,-2,-1,0,2,0.845
170,2,-1,2,-2,-1,1,-1,0,0.85
171,-1,0,-8,-7,-1,-2,-1,-1,0.855
172,1,3,1,13,0,0,1,0,0.86
173,-4,-7,-23,-5,-1,-1,-1,-3,0.865
174,-1,0,7,-24,-4,-1,-2,-1,0.87
175,-2,0,1,15,-1,1,0,-2,0.875
176,-2,-6,-1,13,-1,-2,-1,0,0.88
177,-1,2,7,-6,-2,-1,1,-2,0.885
178,3,-3,-8,7,1,3,1,-1,0.89
179,-2,-3,-2,-13,-2,-2,-1,-1,0.895
180,0,0,2,1,0,1,0,0,0.9
181,0,2,8,-1,0,-1,1,-1,0.905
182,-3,0,-4,9,-1,-2,-4,-1,0.91
183,0,-1,-10,0,-1,-2,0,0,0.915
184,-2,-4,-8,-26,-2,-2,-2,-1,0.92
185,0,4,8,3,1,-1,-3,1,0.925
186,-1,-4,-5,-4,0,-2,0,-1,0.93
187,-1,-2,-3,-7,-1,0,0,-2,0.935
188,1,-3,1,11,0,0,0,-1,0.9400000000000001
189,0,1,7,0,-3,-1,-1,-1,0.9450000000000001
190,-3,0,-4,3,1,0,-3,-2,0.9500000000000001
191,-1,-4,2,-16,0,0,-1,1,0.9550000000000001
192,-1,-7,-17,4,-3,-2,-2,-2,0.96
193,-1,1,8,4,-1,-1,0,-1,0.965
194,-1,4,5,17,2,0,1,0,0.97
195,0,2,-3,-7,0,0,-1,-1,0.975
196,-2,0,-4,-14,-3,-1,0,-1,0.98
197,1,0,4,0,1,1,1,1,0.985
198,0,-1,7,-8,1,0,-1,-2,0.99
199,-1,-3,1,16,-1,-1,-2,-1,0.995
200,-1,3,11,3,2,0,2,0,1.0
201,-1,0,-5,-4,-2,-2,-3,-1,1.0050000000000001
202,0,0,2,12,-2,-2,-1,1,1.01
203,-1,-2,-1,-19,-2,-2,-2,-3,1.0150000000000001
204,-2,-2,-1,3,-1,2,-1,-2,1.02
205,-2,-1,-3,-4,-4,-1,-2,-1,1.025
206,-1,-1,6,-15,0,0,-2,-2,1.03
207,-3,-7,-11,-1,-4,-3,-3,-2,1.035
208,0,2,1,9,0,0,0,0,1.04
209,0,-2,4,0,0,-1,0,1,1.045
210,-1,1,1,1,-3,0,1,-1,1.05
211,-1,0,-1,-3,-1,-2,-1,-2,1.055
212,-2,-4,-4,1,-2,-1,0,-1,1.06
213,0,0,0,-5,1,-1,-1,-1,1.065
214,2,14,1,-4,-1,-1,-2,-2,1.07
215,-1,-5,5,0,0,0,-1,0,1.075
216,-1,-1,-1,5,-2,-1,0,-2,1.08
217,-2,-8,-5,-6,1,0,1,-2,1.085
218,-2,-5,-17,-5,-4,-2,-1,-1,1.09
219,0,2,2,-12,0,0,1,0,1.095
220,1,0,4,9,0,0,-1,-1,1.1
221,0,2,7,6,-1,2,0,-2,1.105
222,-2,-1,-7,0,-1,1,0,0,1.11
223,0,-2,-5,7,-1,1,-1,0,1.115
224,-1,3,1,-6,3,0,-2,-1,1.12
225,1,-6,-5,-6,-2,-3,-1,-1,1.125
226,-2,-4,-4,2,0,0,0,0,1.1300000000000001
227,1,4,9,8,1,0,0,0,1.135
228,-1,-3,-22,-24,-3,-2,-1,-3,1.1400000000000001
229,-3,-1,1,7,-2,-1,-1,-2,1.145
230,1,-5,2,1,0,-1,-2,0,1.1500000000000001
231,-1,-2,-2,0,-1,-2,0,0,1.155
232,0,-1,6,-1,-3,-2,-2,0,1.16
233,1,0,-2,-6,1,-1,0,-1,1.165
234,-2,-2,-4,4,-2,0,-2,-1,1.17
235,-2,1,6,1,-1,1,0,1,1.175
236,0,-3,-4,3,-4,-1,1,0,1.18
237,1,1,-1,-1,0,-1,-2,0,1.185
238,2,1,3,-7,0,1,1,-1,1.19
239,2,1,-3,5,2,0,0,-2,1.195
240,1,9,11,-1,0,0,1,0,1.2
241,-3,-4,-15,-3,-2,-2,-1,-3,1.205
242,-1,0,8,9,-1,-2,0,-1,1.21
243,0,0,-5,-9,-1,-1,-1,0,1.215
244,-2,-2,10,-5,-1,-2,-1,-1,1.22
245,0,2,3,14,-2,2,0,-2,1.225
246,1,-6,-12,-21,-2,-1,-1,1,1.23
247,-2,-2,0,-2,-1,-1,1,-2,1.235
248,1,1,2,1,-1,0,-2,1,1.24
249,-2,3,2,-3,1,0,-1,0,1.245
250,-3,-6,-1,7,-3,-4,-3,-1,1.25
251,0,2,0,-6,-1,0,-1,0,1.2550000000000001
252,-2,-5,-13,-6,-2,0,-2,0,1.26
253,-1,0,0,0,-1,-1,0,-2,1.2650000000000001
254,-2,1,4,1,0,-1,-1,-1,1.27
255,1,0,4,5,2,0,0,-1,1.2750000000000001
256,-2,-4,-11,3,0,-2,-1,-1,1.28
257,-1,-2,-5,-9,0,0,0,-1,1.285
258,0,1,1,2,1,1,-1,-1,1.29
259,-1,-2,1,8,-2,-2,-2,-1,1.295
260,0,3,10,-6,0,0,0,0,1.3
261,0,2,-4,-1,-2,0,-1,0,1.305
262,-3,-7,-4,-5,-4,-3,-1,-1,1.31
263,-2,0,-2,1,1,0,-1,0,1.315
264,0,-1,5,19,-1,1,-1,0,1.32
265,-1,-2,-3,-21,-3,-2,-2,0,1.325
266,-2,2,-5,-2,-2,-2,0,-3,1.33
267,-1,0,-1,-2,-1,-2,0,-1,1.335
268,-2,-3,-1,4,0,-2,0,-2,1.34
269,0,2,8,9,1,-1,-3,-1,1.345
270,1,-2,-7,0,-2,0,3,0,1.35
271,-2,-3,-2,-4,-1,-2,0,-2,1.355
272,2,5,4,0,0,0,-1,0,1.36
273,-3,-4,-7,-1,-2,-2,0,0,1.365
274,-1,-1,6,-4,0,-2,-1,0,1.37
275,-2,1,2,4,-1,-1,0,0,1.375
276,-2,-2,-1,-4,0,-2,-1,0,1.3800000000000001
277,-2,-10,-9,3,-1,0,-1,0,1.385
278,-2,-4,-1,4,1,2,-1,1,1.3900000000000001
279,-1,3,7,-2,-3,0,1,-1,1.395
280,-1,-2,-8,-3,-2,-2,-2,-1,1.4000000000000001
281,1,3,6,-3,-1,-2,0,-1,1.405
282,0,2,7,9,3,-1,1,0,1.41
283,-1,-7,-11,-10,-2,-2,-1,-2,1.415
284,0,-2,6,3,0,1,-1,0,1.42
285,0,-1,-14,-6,-2,-2,0,-2,1.425
286,1,3,3,-1,1,1,-1,-1,1.43
287,1,2,7,-1,0,0,0,-1,1.435
288,-1,-1,-10,-3,-3,-2,1,-2,1.44
289,-2,1,11,9,1,-1,0,0,1.445
290,-2,-3,-7,-3,-2,-2,-1,-1,1.45
291,-1,-1,-7,-4,-1,-2,-3,-1,1.455
292,-1,3,8,-2,1,0,-1,-1,1.46
293,-1,-6,0,-6,0,1,0,-1,1.465
294,-3,-3,-9,-1,-3,0,-2,-1,1.47
295,-1,-1,1,2,-3,-2,1,-1,1.475
296,1,-3,-12,-1,-1,0,0,0,1.48
297,0,1,-3,1,0,-1,-1,-2,1.485
298,1,1,4,-1,0,-2,0,0,1.49
299,-2,0,2,-1,-3,0,-1,-2,1.495
300,-1,2,6,9,1,0,-1,-1,1.5
301,-1,-4,-19,-23,-4,0,-1,-2,1.5050000000000001
302,-2,2,3,-1,-1,-2,1,-1,1.51
303,1,1,-2,3,-1,-1,0,1,1.5150000000000001
304,0,-1,2,8,1,-1,-1,0,1.52
305,-3,-1,9,-2,0,-2,-1,-1,1.5250000000000001
306,0,3,2,6,3,0,0,0,1.53
307,-2,-4,-6,-1,0,0,-2,-1,1.5350000000000001
308,0,2,-1,-4,-1,0,1,0,1.54
309,0,0,4,5,-1,-1,-2,-2,1.545
310,-1,2,2,-2,-1,0,1,-1,1.55
311,-1,-2,0,5,0,-1,-1,0,1.555
312,-1,-3,-14,-14,-2,0,-1,-1,1.56
313,0,3,6,8,1,0,0,0,1.565
314,1,1,3,1,-2,1,0,-1,1.57
315,0,2,-1,2,0,0,-2,1,1.575
316,-1,1,7,-5,0,-1,0,2,1.58
317,-1,-6,-3,3,0,-1,0,-1,1.585
318,-1,-2,-3,-4,1,0,0,0,1.59
319,-2,-5,-8,-2,-2,-2,-1,-1,1.595
320,-3,-5,1,-2,-1,0,-1,-2,1.6
321,1,1,1,2,-1,-1,0,0,1.605
322,-1,-2,3,5,0,-2,-1,-1,1.61
323,0,3,4,6,0,0,-1,0,1.615
324,-3,-1,-2,-8,-2,-3,-1,-1,1.62
325,1,-1,-4,-2,0,-1,0,1,1.625
326,-1,2,3,8,-1,-2,-2,-2,1.6300000000000001
327,0,1,6,-5,-2,-1,-1,0,1.635
328,0,0,-5,5,-1,-1,0,0,1.6400000000000001
329,-1,-1,0,-1,-2,0,-1,0,1.645
330,-3,-11,-14,-10,-4,-2,-1,-3,1.6500000000000001
331,-1,-2,-1,-3,2,-1,0,0,1.655
332,-1,1,0,-4,0,-1,-1,-1,1.6600000000000001
333,-1,3,3,4,-1,-2,-2,-1,1.665
334,0,3,-2,-3,1,0,0,-1,1.67
335,0,-3,-3,-4,-2,1,0,0,1.675
336,0,-2,2,8,-1,-1,-3,0,1.68
337,-1,4,0,6,0,0,0,0,1.685
338,0,2,3,-14,-2,-1,-2,1,1.69
339,0,0,-6,-1,0,1,-1,-1,1.695
340,0,-1,3,-2,0,0,-2,-2,1.7
341,-1,2,4,7,0,0,0,0,1.705
342,-1,-4,-13,-4,0,0,0,-2,1.71
343,0,2,3,-10,-2,1,0,0,1.715
344,-1,-1,1,3,-2,-3,0,-2,1.72
345,0,-3,4,-1,0,-1,0,-1,1.725
346,-1,-3,-3,0,-1,-1,0,-2,1.73
347,-1,1,0,3,1,-1,0,-1,1.735
348,0,1,-2,-2,-1,-3,-1,-1,1.74
349,0,-1,-1,-10,0,-2,-1,-1,1.745
350,0,1,1,1,1,-2,-1,-1,1.75
351,-2,-4,-9,-4,-2,-2,-2,-1,1.7550000000000001
352,-2,-3,-3,0,-1,0,0,-1,1.76
353,-2,-1,-1,2,1,1,-1,0,1.7650000000000001
354,-1,0,-4,-4,-3,0,-2,1,1.77
355,-2,-5,-2,0,-1,-2,-2,-2,1.7750000000000001
356,-1,2,3,-1,-3,0,0,0,1.78
357,-2,-1,-1,-2,-1,-2,-1,0,1.7850000000000001
358,-1,3,4,4,0,0,-1,0,1.79
359,1,-2,-3,-2,0,-2,-1,0,1.795
360,-1,-6,-10,5,-3,-2,1,-2,1.8
361,0,-1,6,5,-1,0,-2,-1,1.805
362,-2,-6,-7,-9,-1,-1,-1,-1,1.81
363,-2,0,-6,-3,-4,0,-2,-1,1.815
364,-2,-5,2,-4,1,1,0,0,1.82
365,0,1,0,0,-1,-2,-1,-2,1.825
366,1,-3,2,4,-1,-3,0,-1,1.83
367,-1,1,3,-5,1,0,1,0,1.835
368,-1,-2,3,-2,0,0,1,0,1.84
369,-2,-7,-10,1,-4,-2,-3,-2,1.845
370,0,1,3,-6,-2,1,-2,0,1.85
371,0,4,3,3,0,-1,1,0,1.855
372,-1,2,3,-4,1,1,0,-1,1.86
373,-2,-3,-11,-2,-1,-2,-2,-1,1.865
374,-1,-2,1,5,-1,-1,-1,2,1.87
375,0,-2,-1,-5,-2,1,0,-1,1.875
376,-1,1,3,0,-1,1,0,-2,1.8800000000000001
377,-1,-1,3,1,-2,-3,-2,-2,1.885
378,1,1,-1,3,2,0,-2,-1,1.8900000000000001
379,-2,-7,-4,-2,-3,-1,-1,-1,1.895
380,0,1,-1,3,0,0,-1,0,1.9000000000000001
381,0,2,-6,-5,1,0,0,-2,1.905
382,-2,-4,1,-2,-1,-1,0,-1,1.9100000000000001
383,-2,2,9,7,-1,-1,0,-1,1.915
384,-1,0,-5,-7,-3,-2,-1,0,1.92
385,0,0,2,1,0,0,1,1,1.925
386,-1,1,0,9,-2,-2,-2,-2,1.93
387,-1,-3,-12,-13,-2,-2,-2,-2,1.935
388,-1,-2,0,-1,0,-1,-1,1,1.94
389,-1,3,4,-3,-2,1,-1,1,1.945
390,-1,0,6,2,1,1,-1,-1,1.95
391,0,2,0,-4,-1,-2,-1,-1,1.955
392,0,-1,-3,4,1,-2,-2,-2,1.96
393,-3,-5,-5,-6,-3,-2,-1,-1,1.965
394,-1,0,1,-1,0,2,0,0,1.97
395,1,0,5,6,-1,0,-1,0,1.975
396,1,4,6,-2,-2,-1,-1,-1,1.98
397,0,3,1,1,1,0,-2,-3,1.985
398,-2,-3,-4,-2,-2,-3,-1,0,1.99
399,-1,1,2,2,0,0,0,-1,1.995
400,-1,-3,3,2,-1,-1,-1,-2,2.0
401,-2,-2,-8,-5,-2,-2,1,1,2.005
402,0,1,-1,0,-1,-2,2,-1,2.0100000000000002
403,-1,-2,3,4,-1,-1,-2,-1,2.015
404,-1,-1,-8,-8,0,0,-1,0,2.02
405,-1,-1,2,0,1,1,0,0,2.025
406,-1,0,-2,-2,-4,-2,-2,-1,2.0300000000000002
407,0,-2,-2,-1,-1,-1,-1,-1,2.035
408,0,0,-2,4,0,-1,0,-1,2.04
409,-1,1,1,-1,0,1,0,-1,2.045
410,0,-2,-2,-2,-3,0,0,0,2.05
411,0,-1,3,5,2,-2,-2,0,2.055
412,0,-1,1,-5,-2,0,-1,-1,2.06
413,-1,-6,-13,-12,-1,-4,-2,-2,2.065
414,-2,-2,-3,1,-1,0,-1,-2,2.07
415,0,0,-1,1,-1,2,1,-2,2.075
416,-1,2,3,1,1,0,-2,-2,2.08
417,0,-1,6,0,0,0,-1,-1,2.085
418,0,2,5,-1,-2,-1,-2,0,2.09
419,-2,-4,-8,-5,0,-2,0,0,2.095
420,-2,-2,-1,-1,-3,-3,0,0,2.1
421,0,4,7,10,1,1,-1,0,2.105
422,-2,0,-3,-3,-1,0,0,-1,2.11
423,0,1,0,2,0,0,1,-2,2.115
424,0,-2,-5,-4,-1,-2,-1,-2,2.12
425,1,1,3,8,-1,-3,-3,-1,2.125
426,-1,-2,-8,-14,-1,0,1,0,2.13
427,-2,-9,-7,1,1,0,-2,0,2.1350000000000002
428,-2,-1,-5,3,-3,-1,0,-2,2.14
429,0,4,6,-1,0,0,-1,0,2.145
430,0,-1,-1,-1,0,-1,-1,-1,2.15
431,0,4,10,6,-1,-2,0,0,2.1550000000000002
432,0,-5,-13,-3,1,1,0,1,2.16
433,-1,-7,-5,-1,-1,-2,0,-1,2.165
434,-1,0,-3,-10,-2,-2,0,0,2.17
435,-1,1,7,7,-2,-2,0,-1,2.1750000000000003
436,-2,1,8,4,0,-1,-2,0,2.18
437,-2,-3,-13,-8,-4,-1,-1,0,2.185
438,-1,0,3,4,0,-2,-1,-2,2.19
439,-1,0,-6,-16,-3,-3,-2,-1,2.195
440,-2,-3,2,1,-2,-1,-1,0,2.2
441,0,-2,2,0,0,0,-1,0,2.205
442,-2,-1,4,3,-2,-3,-2,0,2.21
443,-1,0,-2,1,1,1,-1,0,2.215
444,0,-1,-1,-5,-1,-1,-1,-1,2.22
445,-2,-1,0,-1,-3,-3,-1,-1,2.225
446,0,-5,-7,-3,1,2,0,0,2.23
447,-2,-1,-1,1,-2,-2,-2,-2,2.235
448,-1,-2,-5,-1,1,0,0,0,2.24
449,-1,5,7,5,2,-1,0,-1,2.245
450,1,-2,-1,2,1,-1,-2,0,2.25
451,0,1,1,-2,0,0,1,-1,2.255
452,-1,-4,-13,-6,-4,-2,2,0,2.2600000000000002
453,0,2,7,5,-1,1,0,-2,2.265
454,-1,0,-2,2,-1,-1,-1,0,2.27
455,-1,-2,-2,-4,-1,-1,-2,1,2.275
456,-1,-2,-1,-4,0,-1,-3,0,2.2800000000000002
457,-1,-6,-6,-8,-1,0,1,-1,2.285
458,0,-1,-5,5,-1,-3,0,-2,2.29
459,1,-5,-7,-2,-2,0,1,-1,2.295
460,0,1,5,-1,0,-1,0,-2,2.3000000000000003
461,-1,0,-2,1,-2,-1,0,1,2.305
462,-1,-1,4,10,2,1,-1,-1,2.31
463,0,4,4,1,0,-1,-2,-1,2.315
464,0,-1,-4,-13,-3,-2,-1,0,2.32
465,-1,0,-3,-3,1,0,-1,-1,2.325
466,-1,5,13,9,-1,-1,-1,-2,2.33
467,-1,-1,-1,16,1,-1,-1,-1,2.335
468,0,0,-4,-1,-1,-1,-1,-2,2.34
469,-1,1,7,2,1,0,-1,-1,2.345
470,-1,2,-5,6,-1,1,-3,0,2.35
471,-2,-3,5,-12,-1,0,-1,-1,2.355
472,0,0,-3,-3,0,0,-1,2,2.36
473,-2,-2,-1,12,0,-1,0,-1,2.365
474,1,-2,0,-18,-1,-1,-2,-1,2.37
475,-1,4,3,8,0,0,1,-1,2.375
476,0,-1,0,1,1,-1,-2,-1,2.38
477,0,-4,-7,-2,-2,0,-1,-2,2.3850000000000002
478,-1,0,3,-5,-1,0,-1,-2,2.39
479,0,-3,-7,-3,-1,-1,1,-1,2.395
480,0,1,8,16,2,0,-1,0,2.4
481,0,0,-4,-26,-1,-1,-1,-1,2.4050000000000002
482,-1,0,4,0,-1,0,-2,0,2.41
483,-1,0,-3,-2,0,-2,-1,0,2.415
484,0,-2,-3,5,-1,1,2,-1,2.42
485,-2,0,2,4,0,-2,-1,-1,2.4250000000000003
486,0,-3,-1,-28,-2,-3,0,0,2.43
487,-1,-2,-4,17,-4,0,-1,-1,2.435
488,-1,-1,3,17,2,0,-1,0,2.44
489,-1,3,-2,-7,-2,0,-1,-1,2.445
490,-1,-4,-5,11,1,0,0,0,2.45
491,-1,-2,3,-28,-3,0,-1,-3,2.455
492,0,1,6,3,0,-2,-1,-1,2.46
493,-2,-8,-15,-11,-1,-1,0,-2,2.465
494,-1,-2,2,7,-1,0,0,-2,2.47
495,0,1,-2,1,0,-1,0,1,2.475
496,-1,2,6,-1,-2,0,1,-4,2.48
497,0,3,9,8,1,0,1,-1,2.485
498,1,-1,-5,3,1,2,0,0,2.49
499,-1,1,2,-4,-1,-2,-1,0,2.495
500,-1,-3,-4,-14,-4,-2,-3,-2,2.5
501,0,-1,0,4,-3,-1,0,1,2.505
502,-2,0,1,-1,-2,-1,0,-1,2.5100000000000002
503,0,1,-3,-3,1,-1,0,0,2.515
504,-1,1,2,1,1,-1,-1,-1,2.52
505,1,1,3,14,1,-1,-2,-1,2.525
506,-1,-4,-14,-14,-2,0,-2,-1,2.5300000000000002
507,-1,-2,2,4,-1,1,-3,-1,2.535
508,-1,2,1,-4,-1,0,-1,-1,2.54
509,-1,-3,2,14,0,0,-1,0,2.545
510,0,1,0,-16,3,-1,1,0,2.5500000000000003
511,-2,-3,-2,14,-3,-1,0,-1,2.555
512,0,-3,-4,-5,-1,-1,1,-1,2.56
513,-1,1,2,-3,-2,-1,-1,-1,2.565
514,-1,-3,-5,6,0,2,0,0,2.57
515,-2,-5,-6,-8,0,-2,-1,0,2.575
516,0,-1,2,-2,0,-1,2,-1,2.58
517,-2,-1,-2,-4,-1,0,0,0,2.585
518,2,4,0,-2,0,-2,0,-1,2.59
519,-2,-4,-1,17,-2,-3,-4,-2,2.595
520,-2,-5,-2,-22,-5,-1,0,1,2.6
521,1,-2,-6,-4,0,-2,-2,-2,2.605
522,-1,1,6,-4,-1,-1,-1,-1,2.61
523,1,0,0,10,0,-2,1,0,2.615
524,0,2,7,6,1,-1,-1,-1,2.62
525,-1,-3,-7,-12,0,1,1,-1,2.625
526,0,-1,1,6,-1,-2,-1,-1,2.63
527,1,1,-1,-15,1,2,0,0,2.6350000000000002
528,-2,1,-1,3,-3,-1,-2,-2,2.64
529,-1,-2,1,-10,-1,-1,0,0,2.645
530,-1,-1,0,16,-1,-1,0,-1,2.65
531,0,-2,-4,-12,0,-2,1,0,2.6550000000000002
532,-1,0,-10,-8,-1,-2,-1,0,2.66
533,1,-5,-1,-7,-2,-1,-1,0,2.665
534,0,2,1,5,-1,-1,-1,0,2.67
535,-1,-2,1,-3,-2,1,0,-2,2.6750000000000003
536,0,-1,-2,1,1,0,-1,0,2.68
537,0,1,7,24,1,-2,-1,-1,2.685
538,-1,0,-3,-34,-3,-2,-2,-1,2.69
539,-2,0,-2,-5,-2,1,0,-1,2.695
540,-2,-4,-4,10,0,0,-1,0,2.7
541,-1,1,-1,-2,-3,-1,-1,-1,2.705
542,-2,2,4,14,-1,0,0,0,2.71
543,-1,0,-1,-4,-2,-1,-3,1,2.715
544,-2,-6,-1,-9,-3,-2,-1,-2,2.72
545,-2,-1,-9,-8,-2,-1,0,-1,2.725
546,-2,-2,6,13,-1,0,0,-1,2.73
547,2,0,-4,-4,0,0,-1,0,2.735
548,-1,-3,-3,-5,-2,-1,-2,-2,2.74
549,0,0,3,-4,0,-1,-2,-1,2.745
550,-3,-4,-5,23,-2,-2,-1,-3,2.75
551,0,0,5,-20,-1,-1,-1,-1,2.755
552,-1,-4,-8,6,-2,0,-1,0,2.7600000000000002
553,-1,-1,4,-1,0,2,0,-1,2.765
554,-1,-1,-4,-1,-1,-1,-2,0,2.77
555,-2,-1,2,10,-1,-1,-1,-2,2.775
556,2,5,8,2,2,0,-1,0,2.7800000000000002
557,-1,-2,-4,-5,0,1,0,-1,2.785
558,-1,0,-3,2,1,0,-1,-2,2.79
559,0,1,0,3,-1,-1,1,-1,2.795
560,0,1,2,-5,0,0,-3,0,2.8000000000000003
561,-2,-1,0,-3,0,0,0,1,2.805
562,0,0,-3,-3,2,0,0,1,2.81
563,-2,-8,-2,-3,-1,-3,0,-1,2.815
564,-1,-1,2,0,2,0,1,-2,2.82
565,0,1,-7,0,-3,-2,-1,-1,2.825
566,0,-5,5,2,-2,0,0,-1,2.83
567,0,3,-1,-4,-2,-1,0,-2,2.835
568,-2,1,1,4,1,0,0,1,2.84
569,-1,-3,2,10,1,-2,-1,-2,2.845
570,0,2,-4,-32,-2,-4,-2,-2,2.85
571,0,-2,-10,4,0,0,-2,0,2.855
572,-2,-4,0,4,-1,0,1,-1,2.86
573,0,1,2,-11,1,0,1,0,2.865
574,-2,-2,-2,18,-3,-3,-1,-3,2.87
575,-1,-1,-2,0,-1,2,0,1,2.875
576,-1,0,-4,-8,-3,-4,-3,-2,2.88
577,0,1,-2,-3,-1,-1,-1,0,2.8850000000000002
578,0,0,8,2,0,0,-1,-1,2.89
579,0,-2,-8,-3,1,1,0,1,2.895
580,-1,-1,-1,-1,-2,0,1,0,2.9
581,-1,4,2,-2,-2,-3,-2,-1,2.9050000000000002
582,-2,-1,0,2,1,1,1,1,2.91
583,-3,-1,-3,-5,-1,-1,-1,-3,2.915
584,0,2,5,5,-1,-1,0,-1,2.92
585,-1,-2,1,1,-1,0,-2,-2,2.9250000000000003
586,0,-1,1,-6,-1,-1,-1,1,2.93
587,-1,-1,-6,-3,-3,-1,-1,-1,2.935
588,0,-2,0,-1,-1,-1,-2,0,2.94
589,-3,-1,1,2,-1,-2,0,0,2.945
590,-1,-4,-7,-7,-3,-1,-1,0,2.95
591,0,2,11,7,1,-2,0,0,2.955
592,-1,1,-9,5,-1,0,0,-2,2.96
593,0,-5,-6,-4,-1,-1,-1,-2,2.965
594,-2,-3,-2,-3,-1,1,-3,-1,2.97
595,0,-1,3,0,2,-3,-2,-1,2.975
596,0,-2,2,0,-1,-1,2,0,2.98
597,-2,0,4,5,-1,-3,-1,1,2.985
598,-2,-2,-11,-7,-5,-2,-2,-1,2.99
599,0,2,2,8,-1,-1,0,-1,2.995
600,0,0,-4,2,2,0,0,0,3.0
601,-1,-3,-1,-22,-2,0,1,-1,3.005
602,-2,3,1,2,-2,0,-1,-1,3.0100000000000002
603,-1,0,2,-1,-1,1,-1,-3,3.015
604,0,-1,-4,2,0,0,-2,0,3.02
605,0,5,0,-1,-1,1,1,1,3.025
606,-1,-3,2,0,1,-1,0,0,3.0300000000000002
607,-2,-3,-11,-6,-2,-3,-2,0,3.035
608,-1,-2,1,-3,0,0,-2,-1,3.04
609,1,0,4,9,0,0,-3,-1,3.045
610,-1,-3,-3,-11,-2,0,-2,-1,3.0500000000000003
611,-1,3,7,16,3,2,0,0,3.055
612,-1,0,3,-3,-1,-1,-1,-1,3.06
613,-1,-8,-15,-8,-3,-2,1,1,3.065
614,1,0,0,4,0,0,0,2,3.0700000000000003
615,0,1,7,4,-2,0,1,-1,3.075
616,-1,-1,3,2,0,-1,-1,-2,3.08
617,-2,0,-3,5,0,0,-2,-2,3.085
618,-1,4,2,1,1,0,0,1,3.09
619,0,-3,-5,-15,-4,-2,-1,1,3.095
620,1,2,5,4,0,-1,0,-2,3.1
621,0,3,1,21,-2,-4,0,-2,3.105
622,-1,-3,-3,-5,0,-1,-1,-2,3.11
623,-1,0,-3,9,-1,1,0,-1,3.115
624,-2,0,2,-18,-3,-2,-1,-2,3.12
625,-1,-7,-8,-14,-1,-1,0,0,3.125
626,-1,-2,-1,2,-1,-2,-1,-1,3.13
627,-2,0,6,-9,0,0,0,-1,3.1350000000000002
628,0,1,-1,6,-1,0,-3,-1,3.14
629,-1,-2,-3,5,-2,-1,-1,-1,3.145
630,0,1,1,0,-1,0,0,0,3.15
631,-1,-1,-3,-2,-2,-2,-1,-1,3.1550000000000002
632,1,1,-3,2,-3,0,1,0,3.16
633,1,-1,3,-1,1,1,-1,-1,3.165
634,-1,-6,-14,-2,1,1,-1,-1,3.17
635,-1,-1,-2,3,-1,-2,-2,-1,3.1750000000000003
636,-2,1,-1,-5,0,-1,-1,0,3.18
637,0,1,0,4,1,0,-2,0,3.185
638,2,1,5,3,1,-1,0,0,3.19
639,0,-6,-6,-2,1,1,0,-1,3.1950000000000003
640,-1,-5,-6,-3,1,0,1,0,3.2
641,-1,2,2,-2,-3,-1,-1,-2,3.205
642,-1,-4,-3,0,1,0,1,0,3.21
643,0,3,0,1,0,1,0,1,3.215
644,0,-1,2,1,-2,-2,-2,-2,3.22
645,-1,1,-1,-24,1,-1,-1,0,3.225
646,1,2,4,5,-2,-1,-1,-1,3.23
647,-1,-1,-1,1,0,-1,1,0,3.235
648,-1,-2,-1,-1,-1,-1,-1,1,3.24
649,-1,1,5,7,-1,-1,-1,-1,3.245
650,0,0,0,-1,0,-1,-1,-2,3.25
651,-3,-8,-1,-10,-3,-2,-2,-1,3.255
652,-2,-7,-8,0,-1,-3,0,0,3.2600000000000002
653,0,2,-1,-2,1,0,-1,0,3.265
654,-1,0,6,5,-2,-3,-2,-2,3.27
655,-2,-1,-15,-2,-3,-2,-3,-2,3.275
656,-1,0,3,-2,-1,-1,-1,-2,3.2800000000000002
657,-1,-1,-2,1,-1,0,0,0,3.285
658,0,-2,4,-1,-1,-1,1,0,3.29
659,3,1,6,0,2,-1,-1,-1,3.295
660,-1,3,3,-1,-1,1,0,0,3.3000000000000003
661,1,0,-3,3,0,0,-1,-1,3.305
662,-2,5,9,4,1,0,0,1,3.31
663,-1,-5,0,4,-3,0,-1,-1,3.315
664,-1,-3,-3,-14,-2,-2,-3,-1,3.3200000000000003
665,0,2,6,8,-1,-1,-1,0,3.325
666,-2,1,-4,-2,-3,-2,-3,-1,3.33
667,0,3,7,1,1,-1,1,0,3.335
668,0,-3,-3,2,0,0,0,0,3.34
669,-1,-5,-3,0,-2,0,0,0,3.345
670,-1,0,-11,-9,-3,-1,-1,-2,3.35
671,-1,5,8,3,-2,-2,-2,-2,3.355
672,0,-4,-9,-2,-2,-1,0,0,3.36
673,-1,-6,-4,-7,-1,-1,0,0,3.365
674,-1,-2,-1,6,-4,-2,0,0,3.37
675,0,1,4,-1,1,-1,0,0,3.375
676,-1,3,5,4,-1,-1,-1,0,3.38
677,1,1,1,4,-1,-2,-1,-1,3.3850000000000002
678,0,-2,-6,-6,-1,0,1,-1,3.39
679,0,3,0,-2,1,-1,-3,1,3.395
680,-3,-3,-2,3,0,-1,0,-1,3.4
681,-3,2,-6,-4,-5,-1,-2,-1,3.4050000000000002
682,-2,1,-2,-2,-2,-3,-2,-1,3.41
683,-3,-4,-1,-8,-4,-2,0,-3,3.415
684,1,1,2,-1,1,2,1,1,3.42
685,0,-4,6,10,-1,-1,-1,-1,3.4250000000000003
686,-1,-1,-9,-6,-3,-2,0,0,3.43
687,-1,-1,-2,1,-2,0,-1,1,3.435
688,-1,1,2,-1,-1,-1,-1,-1,3.44
689,0,1,1,1,1,-1,0,1,3.4450000000000003
690,-1,0,5,2,2,-1,-1,-1,3.45
691,-2,-2,-6,-1,1,-2,-1,0,3.455
692,0,-1,0,1,-1,-1,0,-3,3.46
693,-1,1,-3,3,0,-1,-1,0,3.465
694,-1,-6,-2,-9,-3,0,0,-1,3.47
695,-1,-2,-4,-4,-2,1,-1,-1,3.475
696,-3,-1,-2,3,1,0,1,-3,3.48
697,0,1,-1,1,1,-1,-1,-1,3.485
698,0,2,5,2,3,2,-1,0,3.49
699,0,-2,-2,1,-2,0,0,-1,3.495
700,0,-1,-3,0,-2,-1,-2,-1,3.5
701,-1,-3,-7,-9,-1,-1,0,-1,3.505
702,0,-4,-3,-1,0,0,-1,-1,3.5100000000000002
703,1,-2,4,3,1,-1,-1,-1,3.515
704,1,-2,-2,3,0,-1,-1,0,3.52
705,-1,-2,-1,-3,-3,0,0,-1,3.525
706,0,0,0,2,1,0,-2,-2,3.5300000000000002
707,0,4,-1,-7,0,0,-1,-1,3.535
708,-3,-8,-5,-4,-4,0,1,-1,3.54
709,0,3,6,-5,-1,1,-1,0,3.545
710,-1,-7,-12,-1,-3,-1,-1,-1,3.5500000000000003
711,0,3,14,14,0,-1,-1,1,3.555
712,-1,-2,-14,-10,0,-1,-1,0,3.56
713,-1,-3,-2,-5,-2,-2,-2,-2,3.565
714,1,3,5,2,3,1,1,-1,3.5700000000000003
715,-1,-2,-3,-5,-1,0,0,0,3.575
716,0,-1,7,4,-1,-1,-3,-1,3.58
717,-2,-1,-2,-2,-2,-1,-2,1,3.585
718,1,2,-1,0,-2,-2,-3,0,3.59
719,-1,-1,-2,3,1,-1,-1,-1,3.595
720,0,3,4,3,0,1,-1,0,3.6
721,-2,-4,-5,-8,0,-1,-3,-1,3.605
722,-1,-3,3,-1,-1,1,0,1,3.61
723,-1,0,-2,-4,-1,0,-2,-1,3.615
724,-1,4,5,4,0,-2,0,-1,3.62
725,1,-2,-2,3,-1,1,0,0,3.625
726,-2,0,1,-1,-1,-1,-1,-1,3.63
727,-2,-4,-3,-4,0,0,0,-1,3.6350000000000002
728,-1,-1,3,-2,-1,-2,-3,0,3.64
729,0,-2,-3,2,-3,-1,-1,-1,3.645
730,0,-1,-4,-5,-1,-1,-1,0,3.65
731,-1,-4,-4,-6,-2,-1,-1,-1,3.6550000000000002
732,-1,-5,-5,-4,-2,-2,-2,-2,3.66
733,0,-2,3,2,1,-1,0,0,3.665
734,-1,0,4,0,-2,-1,-1,-1,3.67
735,0,1,-1,7,1,-1,-1,0,3.6750000000000003
736,0,1,0,-6,-1,-1,0,0,3.68
737,-3,2,3,4,0,-3,-2,-2,3.685
738,0,-1,-9,-9,-3,-3,-1,-1,3.69
739,1,0,0,-2,-2,-1,-1,-1,3.6950000000000003
740,-1,-1,2,0,0,1,0,-1,3.7
741,1,0,1,0,1,0,0,-2,3.705
742,-1,2,4,8,-1,-1,0,-1,3.71
743,-1,1,0,-1,0,-1,0,-1,3.715
744,-2,-6,-3,3,-2,-3,-1,-1,3.72
745,-1,-1,-9,-5,1,1,1,0,3.725
746,-1,-2,0,0,0,-1,-2,-1,3.73
747,1,0,0,-2,-3,0,-1,1,3.735
748,0,1,7,1,0,0,0,0,3.74
749,-1,1,2,4,-1,0,-2,0,3.745
750,-2,-6,-6,0,-1,-3,1,-2,3.75
751,-1,-2,-7,1,-1,1,1,-1,3.755
752,-1,-3,-9,-10,-2,-1,-2,-2,3.7600000000000002
753,-1,0,4,4,1,-1,-1,-1,3.765
754,-1,0,0,2,0,0,-2,-1,3.77
755,0,-1,4,-1,-1,-2,-1,-2,3.775
756,-1,1,-1,2,-1,0,-1,-2,3.7800000000000002
757,-1,-1,-3,-1,-2,-1,0,-2,3.785
758,-2,-1,0,-2,0,0,-2,-1,3.79
759,-3,-5,-10,-3,-2,-3,0,-1,3.795
760,-2,1,1,1,-1,-2,-1,0,3.8000000000000003
761,0,-1,-5,-6,-3,-1,0,0,3.805
762,-1,-2,1,-2,-2,0,0,-1,3.81
763,-2,1,1,1,-1,-1,-1,0,3.815
764,-1,3,-1,1,2,0,1,1,3.8200000000000003
765,0,-2,3,-2,-1,-2,0,-1,3.825
766,-1,2,4,3,1,0,-1,-1,3.83
767,-1,-1,2,-1,-1,-1,0,-1,3.835
768,-1,-9,-4,-2,0,0,-1,-1,3.84
769,0,1,-1,3,1,1,0,-1,3.845
770,-1,-5,-9,-8,-3,-2,-1,0,3.85
771,-1,-4,-8,-13,-3,-2,-1,-2,3.855
772,0,1,6,11,1,0,-1,-2,3.86
773,-1,-1,-1,-1,-1,-2,-1,0,3.865
774,-1,-1,-1,-1,-1,-1,-1,-2,3.87
775,0,2,4,0,1,1,-1,0,3.875
776,0,0,-2,-5,-2,-1,-1,1,3.88
777,0,-1,1,2,2,-1,-1,0,3.8850000000000002
778,-1,4,2,1,0,0,1,-1,3.89
779,0,-1,-1,3,-1,-2,0,0,3.895
780,-1,-2,0,-6,-3,-1,0,-1,3.9
781,0,0,-2,1,0,-1,-1,-2,3.9050000000000002
782,0,-2,0,-1,0,-1,0,1,3.91
783,0,1,1,2,0,1,-1,-1,3.915
784,0,0,-6,-7,-2,-3,0,0,3.92
785,-2,-4,-4,-1,-2,0,0,0,3.9250000000000003
786,0,0,-4,-5,-3,0,1,-2,3.93
787,-2,-1,4,0,1,-1,0,-1,3.935
788,-1,0,5,1,-1,0,-2,0,3.94
789,-1,0,0,-4,0,0,0,0,3.9450000000000003
790,-1,3,5,6,1,1,-2,2,3.95
791,-1,3,4,1,1,0,-1,-3,3.955
792,-2,-9,-17,-5,-2,0,0,-1,3.96
793,-2,1,3,-10,0,-1,-1,1,3.9650000000000003
794,0,-2,1,6,0,-3,-4,0,3.97
795,-1,-2,4,1,-1,-1,-1,-1,3.975
796,-1,3,3,4,1,-3,-1,-1,3.98
797,-1,-2,-1,-1,-2,-1,-1,-2,3.985
798,-1,-3,-1,-2,0,-2,1,-1,3.99
799,0,-3,-3,-2,-1,-1,-1,0,3.995
800,0,3,0,1,0,0,2,1,4.0
801,-2,-6,-2,2,-3,-3,-3,-1,4.005
802,-2,-2,-6,-7,-1,-2,0,-1,4.01
803,-1,-4,-2,-4,-1,0,-1,0,4.015
804,1,1,-6,-3,-2,0,0,-1,4.0200000000000005
805,-2,-1,3,7,-1,-2,-1,-2,4.025
806,-1,-1,-5,-1,1,-2,-1,1,4.03
807,-1,-3,-1,-2,0,-2,-1,0,4.035
808,0,0,9,-1,-1,0,0,0,4.04
809,-1,-3,-3,-3,-3,-2,-3,-1,4.045
810,1,0,2,2,-1,1,-2,1,4.05
811,-2,-1,-4,-4,-2,-3,-1,-1,4.055
812,1,1,5,3,-1,-1,-1,-2,4.0600000000000005
813,0,0,-5,-2,-4,-1,0,-1,4.065
814,-1,-4,-3,-1,-1,-1,0,-1,4.07
815,-1,-3,-7,-2,-3,0,-3,-2,4.075
816,-2,-6,-2,-1,1,1,0,0,4.08
817,-1,1,-1,-1,0,-1,-1,-1,4.085
818,-1,2,3,0,1,-1,1,1,4.09
819,-2,0,-4,-6,0,-2,-1,-1,4.095
820,-1,1,0,0,-2,-2,-1,-2,4.1
821,-1,-2,-1,-1,0,0,0,-2,4.105
822,0,0,2,1,0,0,-1,-2,4.11
823,1,1,1,1,0,-1,-1,-2,4.115
824,-1,-6,-4,-3,-2,-2,-2,0,4.12
825,1,3,3,7,1,1,2,0,4.125
826,0,1,2,-4,0,0,1,0,4.13
827,-1,-7,-8,3,2,0,1,-1,4.135
828,-2,-2,-3,-3,0,0,-1,-1,4.14
829,-1,1,0,0,-1,-2,-3,0,4.1450000000000005
830,-1,1,-2,4,-1,-1,-1,-1,4.15
831,0,2,2,1,-2,-1,-1,0,4.155
832,1,2,1,2,0,1,-2,-1,4.16
833,-1,-2,-7,-7,-1,0,1,-2,4.165
834,0,-4,-3,-4,-2,-2,-1,0,4.17
835,-1,1,4,0,-2,-1,-1,-1,4.175
836,0,1,-5,-2,-1,2,1,1,4.18
837,-3,-4,3,0,-4,-1,-1,2,4.1850000000000005
838,-1,-3,-16,-11,-2,1,-1,-2,4.19
839,0,-2,0,1,-2,0,-1,0,4.195
840,-1,3,2,-3,0,-2,0,-3,4.2
841,0,-1,-1,6,1,2,-2,0,4.205
842,-1,-2,4,-1,-1,0,-1,-1,4.21
843,-2,0,1,2,-1,0,0,1,4.215
844,-1,1,-3,-3,-1,-2,-1,-3,4.22
845,0,1,-2,-3,1,-2,-1,-1,4.225
846,0,0,4,3,0,-2,0,-1,4.23
847,0,1,3,-1,0,-1,-1,0,4.235
848,-2,-3,1,0,-1,-2,-2,2,4.24
849,-2,-1,0,-2,-1,-2,-1,0,4.245
850,-1,-3,3,0,-4,-1,0,-1,4.25
851,-3,-2,-2,-1,1,1,0,-1,4.255
852,-2,-2,-6,-7,-1,-1,-1,-2,4.26
853,0,-2,0,-2,-2,-2,1,-1,4.265
854,0,0,4,-1,1,-1,0,-2,4.2700000000000005
855,-1,0,1,-1,-2,-1,0,-2,4.275
856,1,-2,0,2,0,0,1,0,4.28
857,-1,1,-2,-2,-2,-1,-2,-2,4.285
858,1,1,-1,0,3,3,1,1,4.29
859,-1,-2,-3,-1,-1,0,0,-1,4.295
860,-1,0,4,8,2,0,-1,0,4.3
861,-1,-3,-10,-13,-1,-1,0,-2,4.305
862,-2,-5,0,3,-2,-2,-2,-2,4.3100000000000005
863,1,-3,0,-4,-2,-2,0,1,4.315
864,-1,1,2,2,-1,-1,-2,0,4.32
865,0,3,4,2,0,-1,0,0,4.325
866,-1,-5,-9,-10,-3,-1,-2,0,4.33
867,0,-1,-2,-2,0,1,1,-2,4.335
868,-2,-2,1,-3,-2,-3,-1,-2,4.34
869,-1,-2,-1,0,0,0,0,-1,4.345
870,-1,0,-2,0,0,-1,-1,-1,4.3500000000000005
871,-2,1,4,2,-1,-1,-2,1,4.355
872,-2,-1,-2,-1,-1,-1,-1,0,4.36
873,1,-1,-1,2,0,-2,0,-1,4.365
874,0,1,1,1,0,-1,0,-2,4.37
875,0,0,1,-2,-1,1,0,-1,4.375
876,0,1,4,10,-1,0,0,-2,4.38
877,-5,-16,-21,-6,-5,-3,-1,0,4.385
878,-2,-3,-4,-1,-1,-1,0,0,4.39
879,0,-2,-4,-4,0,-1,-2,0,4.3950000000000005
880,1,1,1,2,1,1,1,0,4.4
881,0,3,9,4,1,0,-1,-2,4.405
882,-1,0,2,3,0,1,-2,1,4.41
883,-2,-4,-3,2,0,0,-1,-4,4.415
884,1,-2,1,-4,-1,1,-2,0,4.42
885,0,1,1,3,1,1,0,-2,4.425
886,-1,2,-5,-7,0,-2,1,0,4.43
887,-1,1,-5,0,-1,-1,-2,-2,4.4350000000000005
888,-2,-5,-6,-5,-2,-1,-2,-2,4.44
889,1,1,1,-2,0,1,0,0,4.445
890,0,0,2,1,0,-3,0,0,4.45
891,-3,-4,1,3,-2,-1,-1,-1,4.455
892,-2,-3,-2,-7,-2,-2,-1,-1,4.46
893,-1,1,1,0,-1,-2,-1,-1,4.465
894,0,2,2,-2,-2,0,-3,-2,4.47
895,0,5,9,10,1,-1,0,1,4.4750000000000005
896,-1,-1,0,-3,0,-1,-1,0,4.48
897,-1,0,-5,-7,0,0,1,-1,4.485
898,-2,-1,-1,2,-2,1,-1,0,4.49
899,-1,-3,0,-1,-1,-2,-3,-1,4.495
900,-2,2,-1,2,-3,-2,-1,-2,4.5
901,1,1,-2,-3,0,-1,-3,-1,4.505
902,-2,-2,-1,2,0,-2,1,-1,4.51
903,0,-2,-4,-6,0,0,0,0,4.515
904,-1,1,2,2,0,0,1,2,4.5200000000000005
905,-1,-3,1,1,-1,-1,0,-1,4.525
906,1,-1,1,4,-1,1,-4,-2,4.53
907,-2,0,-1,1,1,0,0,-2,4.535
908,0,-5,-6,-10,-1,0,1,1,4.54
909,-1,-2,2,3,0,1,0,0,4.545
910,-3,0,1,0,-2,-2,0,-2,4.55
911,0,-1,-5,-5,-1,-2,-2,0,4.555
912,0,1,4,5,1,1,-1,1,4.5600000000000005
913,-3,-4,-5,4,-3,-1,-1,-2,4.565
914,0,0,-2,-8,0,-2,-2,-2,4.57
915,0,-1,-1,3,0,-1,-1,0,4.575
916,-2,-3,-8,-8,-2,0,-2,-1,4.58
917,1,1,8,0,2,0,1,0,4.585
918,-2,-4,-5,2,0,1,1,-1,4.59
919,-1,-1,0,-4,-3,-1,-4,-1,4.595
920,-2,-3,-5,-3,-1,0,-3,-1,4.6000000000000005
921,0,2,3,-1,0,-1,-1,0,4.605
922,0,0,0,4,-1,1,-2,1,4.61
923,1,0,2,-1,1,1,0,-1,4.615
924,-2,-5,-4,-1,-2,-3,0,-4,4.62
925,-2,3,1,1,-1,-2,-1,0,4.625
926,0,0,-1,-4,0,0,1,0,4.63
927,-1,-2,-6,-5,-1,-1,0,-1,4.635
928,0,5,3,4,-1,0,-1,-1,4.64
929,-2,-2,-1,-4,-2,0,-1,-1,4.6450000000000005
930,1,0,5,1,-1,0,-1,0,4.65
931,-1,0,-4,-2,-1,0,0,0,4.655
932,-1,-4,-4,-1,-1,-1,-1,-2,4.66
933,-1,5,-1,-7,0,2,0,1,4.665
934,1,1,-1,-1,-2,-2,-1,0,4.67
935,-1,1,6,1,-1,-1,-1,-2,4.675
936,-1,3,5,2,-1,-2,-1,-1,4.68
937,1,2,2,11,0,-1,1,-1,4.6850000000000005
938,-3,-7,-7,-10,-1,-2,-1,-1,4.69
939,0,-2,-2,-3,0,0,0,-2,4.695
940,-1,-2,1,1,1,1,-1,0,4.7
941,-1,0,3,4,0,-1,-2,-2,4.705
942,-1,2,-4,-1,2,2,0,1,4.71
943,-1,-3,-2,0,-2,-1,-2,1,4.715
944,2,-3,2,-2,0,0,0,-2,4.72
945,0,-5,0,-1,0,0,-2,-1,4.7250000000000005
946,0,-2,-1,1,-2,-1,0,-1,4.73
947,-3,-1,0,0,2,0,-1,0,4.735
948,1,1,3,5,-1,-1,1,0,4.74
949,-2,-2,-5,-6,-1,-2,-2,-1,4.745
950,-2,-2,-2,-6,-3,-1,0,-2,4.75
951,-3,-1,1,0,-1,0,-2,0,4.755
952,1,0,0,-7,-2,-2,0,-1,4.76
953,1,-1,0,1,-1,-1,0,-1,4.765
954,1,1,0,3,1,2,-1,-2,4.7700000000000005
955,0,0,-1,-4,-2,-2,1,-2,4.775
956,0,1,-2,0,1,0,-1,0,4.78
957,-1,-3,0,-6,0,0,0,0,4.785
958,-2,-3,-8,3,-2,-1,0,0,4.79
959,-1,0,-2,0,-1,-1,-2,2,4.795
960,-2,2,0,2,0,0,-1,-1,4.8
961,0,-1,-1,-2,-1,0,0,0,4.805
962,-1,-1,4,-1,-1,-1,-1,-1,4.8100000000000005
963,-1,0,1,7,-1,-2,-2,-1,4.815
964,-1,1,-8,0,1,0,-1,0,4.82
965,-1,-3,-8,-6,-1,0,-1,0,4.825
966,-1,3,5,1,-2,-3,-2,-1,4.83
967,-2,-10,-4,2,0,0,0,0,4.835
968,-2,-5,-2,-7,-2,-2,-2,0,4.84
969,-1,-1,4,2,1,0,1,0,4.845
970,0,1,4,-1,-1,0,0,-2,4.8500000000000005
971,0,0,-4,-3,-1,0,1,-2,4.855
972,-3,-1,2,0,0,-1,-1,0,4.86
973,-2,0,-4,0,-2,-2,1,-1,4.865
974,0,-3,-3,-4,-2,-1,-1,0,4.87
975,0,0,3,0,0,-1,0,-2,4.875
976,0,2,2,5,-1,-1,-1,1,4.88
977,-1,1,-5,-4,-1,-2,0,-1,4.885
978,-1,2,1,-1,1,-1,-1,-1,4.89
979,-1,-3,2,2,-1,0,0,0,4.8950000000000005
980,-1,3,-1,0,0,-1,0,-3,4.9
981,-1,-2,3,4,-2,0,-1,-2,4.905
982,0,2,-2,-3,2,0,1,0,4.91
983,0,0,2,-6,1,0,0,-1,4.915
984,0,0,-3,0,-1,0,0,1,4.92
985,-2,-4,3,0,-1,0,-1,-1,4.925
986,-2,-2,-2,-4,-1,0,0,0,4.93
987,0,1,-6,-2,-3,-2,1,0,4.9350000000000005
988,-2,2,1,4,-1,-4,-1,-1,4.94
989,0,-4,-8,-2,-2,-2,-1,0,4.945
990,-1,-5,-4,-2,1,-1,0,-2,4.95
991,-1,1,0,-3,0,-1,0,-1,4.955
992,-1,-4,3,1,-2,-1,-1,0,4.96
993,0,3,-3,-7,0,1,0,0,4.965
994,0,-4,-3,3,-3,-3,-2,0,4.97
995,-1,0,-3,-2,-1,-1,-2,0,4.9750000000000005
996,0,-1,-1,-1,0,2,1,0,4.98
997,-3,-2,-1,0,-1,-1,-2,0,4.985
998,0,1,5,3,-1,0,-1,-1,4.99
999,-1,6,3,0,1,-2,-1,-1,4.995
1000,0,0,1,0,-2,-2,0,0,5.0
1001,1,-4,-6,-1,1,2,2,1,5.005
1002,-3,-3,-1,-2,0,-1,-1,0,5.01
1003,0,0,2,-2,-1,-1,-2,0,5.015
1004,-1,0,5,6,0,-1,-1,-2,5.0200000000000005
1005,-1,2,-8,-1,-1,-2,0,0,5.025
1006,-1,0,0,-4,-2,0,-1,-2,5.03
1007,-2,1,-2,-1,1,0,-1,-1,5.035
1008,-2,-7,-7,-15,-3,-1,-2,0,5.04
1009,-2,1,4,9,0,-3,-1,-2,5.045
1010,-2,-4,1,5,0,1,-1,0,5.05
1011,1,-2,-2,-7,-3,-2,-1,-1,5.055
1012,0,-1,-1,-2,-1,0,-1,0,5.0600000000000005
1013,1,0,0,-1,-3,-3,-2,0,5.065
1014,0,-1,-3,-5,0,-2,-1,1,5.07
1015,0,-1,1,3,0,0,-2,-1,5.075
1016,2,1,-1,1,0,1,0,0,5.08
1017,0,-3,-3,-9,3,0,-1,-1,5.085
1018,-2,2,2,6,-2,0,-2,-1,5.09
1019,-3,-4,-10,-5,-2,-1,2,-1,5.095
1020,-2,1,0,-4,0,-1,-1,-2,5.1000000000000005
1021,-3,-4,4,10,-1,0,-1,-3,5.105
1022,-1,-3,-8,-8,0,-2,-1,-2,5.11
1023,-2,-2,0,4,-4,-1,-2,-2,5.115
1024,0,-2,-2,0,0,-2,-1,-1,5.12
1025,0,0,1,0,-2,0,1,-1,5.125
1026,0,0,4,-1,0,-1,-1,-1,5.13
1027,0,-1,5,4,0,0,-2,0,5.135
1028,0,-1,-8,-9,-1,-2,-3,-1,5.14
1029,0,2,4,0,1,0,-1,0,5.1450000000000005
1030,1,2,3,6,0,-1,-2,-2,5.15
1031,1,-1,-3,-1,1,-1,1,-1,5.155
1032,-1,2,5,1,-1,0,-1,0,5.16
1033,0,-1,0,0,0,-3,-1,-1,5.165
1034,0,2,2,-1,-1,1,-2,0,5.17
1035,-1,-3,0,9,0,1,-1,-1,5.175
1036,-2,3,2,-19,-2,-1,-1,-1,5.18
1037,-4,-4,0,-9,-3,1,0,-2,5.1850000000000005
1038,1,1,3,11,-4,-4,-1,0,5.19
1039,0,-1,-3,20,1,-1,-1,0,5.195
1040,-1,-9,-11,-44,-3,-1,1,0,5.2
1041,-1,1,2,20,-3,-2,0,0,5.205
1042,-4,-1,1,-13,0,1,1,-3,5.21
1043,-2,-4,-16,-8,-1,-1,0,-1,5.215
1044,-1,-2,-1,-10,0,1,0,-3,5.22
1045,-1,3,6,14,0,0,-1,0,5.2250000000000005
1046,0,1,-1,1,0,-2,0,1,5.23
1047,0,2,2,7,0,1,0,-1,5.235
1048,0,-1,6,16,2,1,0,0,5.24
1049,0,1,-11,-13,-3,-1,-2,0,5.245
1050,-1,-1,4,1,-1,-1,-1,-1,5.25
1051,-2,0,0,-15,-2,-1,-1,-1,5.255
1052,-1,4,6,14,-1,0,-3,-1,5.26
1053,2,-4,1,-5,0,0,1,-2,5.265
1054,0,0,-2,16,1,0,1,0,5.2700000000000005
1055,-3,-5,-3,-26,-2,-1,0,-1,5.275
1056,-1,1,-7,8,-1,-2,-1,-2,5.28
1057,0,1,-1,1,0,-1,-1,1,5.285
1058,0,-1,-1,-11,-1,-1,0,-1,5.29
1059,1,0,7,12,1,2,-1,0,5.295
1060,0,1,0,24,1,0,-1,0,5.3
1061,-1,-2,-5,-36,-3,0,-2,-2,5.305
1062,-2,-3,-2,8,-2,-2,-1,-3,5.3100000000000005
1063,-1,2,2,-2,2,1,-1,1,5.315
1064,-1,-6,-4,19,-2,-2,-1,0,5.32
1065,0,8,2,-4,0,1,-1,0,5.325
1066,1,-6,-1,-3,-2,-1,0,-1,5.33
1067,-2,2,3,0,-2,-3,-2,-2,5.335
1068,-1,-8,-8,-4,0,0,1,-1,5.34
1069,-1,-1,5,3,-2,1,-2,0,5.345
1070,-1,-2,-1,-4,-2,0,-1,0,5.3500000000000005
1071,-1,-1,-3,-1,0,-1,-2,0,5.355
1072,-1,2,0,-6,-1,-2,-2,-1,5.36
1073,-1,0,3,2,0,0,0,0,5.365
1074,0,0,-11,-2,0,-1,0,0,5.37
1075,0,-1,-2,-2,-1,-1,-1,0,5.375
1076,-1,-2,-2,-9,0,-1,1,0,5.38
1077,-2,-4,1,11,-1,0,-2,-2,5.385
1078,-1,3,0,5,-2,-2,-2,-1,5.39
1079,1,2,5,5,1,0,-1,1,5.3950000000000005
1080,-2,-1,-4,-9,0,-1,0,-1,5.4
1081,1,-5,-6,-3,0,-2,0,0,5.405
1082,-2,1,4,6,0,-1,0,-1,5.41
1083,-1,-5,-9,-5,-2,-1,0,-1,5.415
1084,-1,-1,-3,-13,-2,0,0,0,5.42
1085,-1,-4,-3,5,2,-1,-1,-1,5.425
1086,-1,-1,-3,-10,-1,1,-1,-1,5.43
1087,-2,-1,3,12,-2,-1,0,-1,5.4350000000000005
1088,1,5,3,8,1,0,-1,-1,5.44
1089,-1,-4,-1,-4,1,-1,0,0,5.445
1090,0,1,-2,-5,1,-2,-1,0,5.45
1091,-1,0,-4,-18,0,-2,0,0,5.455
1092,-1,1,2,19,-1,-2,0,-2,5.46
1093,-2,-1,-1,-4,0,-1,-2,-1,5.465
1094,-2,-2,-2,-2,-1,-1,-3,0,5.47
1095,-2,-2,5,2,-3,-1,-2,-1,5.4750000000000005
1096,-2,-3,-13,-13,-3,0,0,0,5.48
1097,1,0,-1,3,-1,-1,-1,-2,5.485
1098,-2,-3,1,-5,-2,-2,1,1,5.49
1099,1,-1,2,-7,1,0,-1,-2,5.495
1100,1,0,-1,6,-3,-1,0,-1,5.5
1101,-1,1,-2,-2,-1,0,-2,0,5.505
1102,2,0,-1,-2,-3,-1,-1,-1,5.51
1103,1,0,1,4,-1,0,0,1,5.515
1104,-1,2,7,20,1,-1,1,-1,5.5200000000000005
1105,0,0,-4,-24,-2,-1,1,-1,5.525
1106,0,-1,-2,-2,-1,-1,-1,-1,5.53
1107,0,-1,1,2,0,0,-1,-2,5.535
1108,-1,-2,1,7,0,2,-2,0,5.54
1109,-1,2,0,2,-2,-1,-1,0,5.545
1110,-1,-2,0,-3,0,0,-1,-1,5.55
1111,-2,-6,-5,2,-2,-2,0,-2,5.555
1112,0,1,-3,-14,-2,-2,-2,0,5.5600000000000005
1113,-1,-2,0,2,0,2,2,-2,5.565
1114,-2,4,5,4,1,1,-1,0,5.57
1115,0,-2,-4,2,0,-1,0,-2,5.575
1116,0,-1,3,-4,0,-2,-1,-1,5.58
1117,-2,-1,-1,3,0,-1,-1,-1,5.585
1118,0,2,-1,0,-1,0,-2,-1,5.59
1119,-2,-9,-5,-18,-1,-2,-1,-1,5.595
1120,0,-2,-1,26,1,0,0,2,5.6000000000000005
1121,0,-1,-5,-16,-3,-2,-1,-1,5.605
1122,1,-2,0,0,-2,0,1,-2,5.61
1123,-1,4,-2,0,-2,-2,-1,-2,5.615
1124,0,0,9,-2,1,-2,0,-2,5.62
1125,-2,-6,-6,13,3,-1,-1,0,5.625
1126,-2,-1,-2,-6,1,-1,0,0,5.63
1127,0,1,2,-6,-2,-1,0,-1,5.635
1128,-2,0,-1,1,0,-1,-2,0,5.64
1129,-1,4,6,2,-2,-1,-2,-1,5.6450000000000005
1130,-1,-1,-2,2,-1,-2,-3,-1,5.65
1131,0,1,-5,-9,-2,-2,-1,-1,5.655
1132,-1,2,2,-5,-2,-1,-1,-3,5.66
1133,0,-1,-3,0,-1,0,0,-2,5.665
1134,-1,-2,-1,-4,-1,-1,0,2,5.67
1135,-2,-1,-1,-5,-3,-3,-2,-3,5.675
1136,1,2,2,20,2,-1,0,-1,5.68
1137,-2,0,-5,-24,-3,-3,-1,-1,5.6850000000000005
1138,-2,-4,-1,4,-1,0,1,-2,5.69
1139,0,1,6,8,1,1,0,0,5.695
1140,0,-3,-7,-17,-5,-2,0,0,5.7
1141,1,0,0,13,-1,1,-2,-2,5.705
1142,-1,-2,-2,-1,0,-1,-1,-1,5.71
1143,-1,-3,-6,-4,-1,-2,0,1,5.715
1144,-2,-2,1,-2,1,-2,-4,-4,5.72
1145,-1,1,1,6,-2,-3,-1,-2,5.7250000000000005
1146,0,-1,3,-1,-2,-2,-2,-1,5.73
1147,0,1,-5,-2,-2,1,-1,-1,5.735
1148,-1,-3,-1,-5,-2,1,-1,-2,5.74
1149,0,3,1,7,1,1,0,0,5.745
1150,-3,-4,-3,-2,-1,1,0,-1,5.75
1151,-2,-1,2,3,-1,-1,-2,-1,5.755
1152,0,-1,-2,-7,1,-1,1,0,5.76
1153,0,-2,-1,-2,1,-2,0,2,5.765
1154,-1,-2,-2,3,-2,-2,-1,-2,5.7700000000000005
1155,-1,2,1,3,1,-1,-1,0,5.775
1156,-1,-2,-6,-6,-2,0,-1,-1,5.78
1157,-1,0,7,4,-1,0,0,-3,5.785
1158,0,-1,-3,-3,-1,-1,0,-2,5.79
1159,0,3,0,-1,-2,0,0,0,5.795
1160,-1,-3,1,-5,-1,-2,0,0,5.8
1161,-1,1,1,6,-1,0,-1,0,5.805
1162,1,-1,2,2,1,1,1,-1,5.8100000000000005
1163,-1,-1,3,5,1,1,-1,-3,5.815
1164,-1,-2,-10,-7,-1,1,-1,0,5.82
1165,-2,-1,8,-2,-2,-2,0,-1,5.825
1166,-3,1,-1,0,0,-1,-1,0,5.83
1167,-1,-6,-11,-3,0,0,-1,0,5.835
1168,-1,-2,-3,-1,-1,-2,-1,-2,5.84
1169,-3,-4,1,-1,-1,0,-1,0,5.845
1170,1,1,1,-1,-2,0,-1,-1,5.8500000000000005
1171,0,0,3,2,-2,-2,0,-1,5.855
1172,2,3,1,-2,0,2,0,1,5.86
1173,-1,-2,-7,-5,-2,-1,-1,-2,5.865
1174,-1,-4,-2,-5,-3,-3,-2,-1,5.87
1175,0,0,-1,1,-1,-1,0,-1,5.875
1176,-3,0,1,-4,-3,-2,-2,-1,5.88
1177,2,0,-2,2,0,-1,-1,-1,5.885
1178,-1,-2,-3,-1,-2,-1,-1,0,5.89
1179,-1,0,2,0,1,0,2,-1,5.8950000000000005
1180,-1,-1,-1,0,0,-1,0,-1,5.9
1181,-2,-5,-8,-4,0,-1,-1,-1,5.905
1182,-2,2,0,-5,0,-1,-1,0,5.91
1183,-2,-1,1,2,0,-1,0,0,5.915
1184,-1,0,3,0,0,0,-1,0,5.92
1185,-1,2,3,2,-1,2,0,1,5.925
1186,-1,-3,3,0,-1,0,0,-2,5.93
1187,-1,-3,-4,-3,-4,-1,-2,-3,5.9350000000000005
1188,-1,-3,1,-1,0,-1,-1,-1,5.94
1189,0,-5,-8,-7,-4,0,0,0,5.945
1190,1,2,5,5,0,1,0,0,5.95
1191,0,-3,1,0,-1,-1,0,-3,5.955
1192,-2,-4,-1,-4,-4,-1,-1,-2,5.96
1193,-1,1,-1,4,0,0,-1,-1,5.965
1194,0,0,-1,-4,-1,0,-1,-1,5.97
1195,0,-7,-6,-4,-4,0,-2,0,5.9750000000000005
1196,0,-2,-6,3,-1,-1,0,-1,5.98
1197,2,0,0,-2,1,-1,1,-2,5.985
1198,-1,-1,1,0,-1,-1,-1,-2,5.99
1199,1,6,4,0,0,1,-1,0,5.995
1200,-1,-4,-3,-3,-2,-1,0,-2,6.0
1201,-2,-2,0,2,-1,-3,-3,-2,6.005
1202,0,-4,-6,-3,1,-1,0,-1,6.01
1203,-1,-4,3,1,-1,-2,0,-1,6.015000000000001
1204,-1,2,-2,-2,0,-1,0,-2,6.0200000000000005
1205,1,1,3,9,0,-1,-2,-1,6.025
1206,-2,-3,-7,-16,-3,-1,0,0,6.03
1207,0,-2,-2,-1,-1,0,-1,-1,6.035
1208,-1,0,0,0,-3,-2,-2,0,6.04
1209,-1,-1,4,0,-1,0,-1,0,6.045
1210,-4,0,-1,1,-1,-3,-1,-1,6.05
1211,0,-6,-8,-4,-1,-1,0,0,6.055
1212,0,2,3,1,1,-2,0,-2,6.0600000000000005
1213,0,-1,1,0,-1,1,-1,0,6.065
1214,0,-1,1,-2,-3,1,0,0,6.07
1215,-1,2,0,2,-1,-1,-1,0,6.075
1216,-3,-3,-1,-2,-1,0,-1,-1,6.08
1217,0,1,0,-2,0,0,-1,-2,6.085
1218,0,0,-2,3,-1,0,-2,-1,6.09
1219,0,0,1,0,-1,-1,-1,-1,6.095
1220,0,3,4,0,-2,0,0,1,6.1000000000000005
1221,-1,-2,-4,-3,-2,0,1,-3,6.105
1222,-1,-4,-5,1,0,-1,-1,0,6.11
1223,-2,1,4,1,-1,-1,-4,-1,6.115
1224,-1,-2,-5,-3,-2,0,0,1,6.12
1225,-2,-4,-9,-7,0,-1,-1,0,6.125
1226,0,1,-5,0,-2,0,0,0,6.13
1227,-1,5,4,0,-1,0,1,-1,6.135
1228,1,-5,2,0,-3,-1,-2,-1,6.140000000000001
1229,1,1,0,3,0,0,-2,2,6.1450000000000005
1230,0,0,1,2,-1,-1,0,1,6.15
1231,2,-3,0,-2,-1,-2,1,-2,6.155
1232,-1,1,2,3,0,0,-2,-1,6.16
1233,-1,3,-7,-6,-3,-2,-1,-1,6.165
1234,1,0,6,5,-1,1,-1,-1,6.17
1235,0,-1,0,1,-1,0,-1,-1,6.175
1236,0,0,-2,-4,0,0,0,-2,6.18
1237,0,-2,0,2,0,-2,-1,-1,6.1850000000000005
1238,0,2,-1,-3,1,-1,-1,-2,6.19
1239,-3,-2,-2,1,-1,-1,0,1,6.195
1240,0,-3,-3,-1,0,0,1,-1,6.2
1241,0,0,2,-2,1,0,1,1,6.205
1242,0,-4,0,2,0,-1,1,-2,6.21
1243,1,0,5,-9,1,-1,-3,-1,6.215
1244,-1,0,-1,3,-1,-1,-1,-2,6.22
1245,-3,-1,-8,-4,-4,-3,-1,0,6.2250000000000005
1246,-2,2,1,1,-1,-1,-4,-1,6.23
1247,0,-2,-1,1,1,0,-1,1,6.235
1248,0,1,6,0,1,-1,-1,-2,6.24
1249,-2,-6,-1,-1,-1,1,-1,0,6.245
1250,-1,-4,-4,-3,1,0,-1,-1,6.25
1251,-2,2,0,1,-1,-2,0,0,6.255
1252,-1,-2,-3,1,0,-1,-1,-1,6.26
1253,-3,1,1,2,-2,-1,-1,-1,6.265000000000001
1254,-1,-3,-2,-9,-1,-3,0,0,6.2700000000000005
1255,-1,0,-4,8,-2,-1,-1,-1,6.275
1256,-2,1,-2,-1,0,-2,1,1,6.28
1257,0,-3,1,0,-1,-1,-1,-1,6.285
1258,0,4,5,2,1,3,2,0,6.29
1259,1,0,-2,-3,0,0,-2,-1,6.295
1260,-2,0,1,4,-2,-3,0,-1,6.3
1261,0,-3,4,-5,3,-1,0,-1,6.305
1262,0,2,0,1,-4,-3,-3,-1,6.3100000000000005
1263,-1,-2,-8,-8,-2,-1,-1,-1,6.315
1264,1,-1,0,0,1,1,-3,1,6.32
1265,-1,-1,1,-6,-1,-1,1,0,6.325
1266,-3,0,6,2,-2,0,-1,-1,6.33
1267,1,0,-6,-6,1,0,-1,-1,6.335
1268,0,0,2,3,0,1,0,-2,6.34
1269,-2,2,3,-1,-1,-2,-1,-1,6.345
1270,0,-3,-3,1,1,3,1,1,6.3500000000000005
1271,1,-1,2,-3,-1,0,-1,-1,6.355
1272,0,0,-4,-6,-2,-1,0,-1,6.36
1273,-1,3,0,10,0,-1,-2,-2,6.365
1274,-1,-1,-4,-2,1,-1,-2,-2,6.37
1275,-2,-4,-1,-3,0,0,1,0,6.375
1276,-2,1,3,0,0,0,-1,0,6.38
1277,1,0,-2,-5,-1,1,-1,-2,6.385
1278,-1,1,0,-4,-1,-3,0,-2,6.390000000000001
1279,-2,3,8,3,-2,0,1,1,6.3950000000000005
1280,1,-1,-4,3,1,-1,0,1,6.4
1281,-2,1,1,7,-2,-3,0,-1,6.405
1282,0,0,-3,-2,-1,1,0,0,6.41
1283,0,2,0,1,0,0,1,-1,6.415
1284,0,3,-1,-6,2,1,0,-1,6.42
1285,0,-3,-6,-10,-2,-1,-1,-1,6.425
1286,1,1,4,9,0,-1,0,0,6.43
1287,-2,0,1,-3,-2,-4,-2,-1,6.4350000000000005
1288,0,-2,-2,-2,-1,-2,-2,-1,6.44
1289,-2,-2,6,8,0,0,0,-1,6.445
1290,-2,-2,-14,-9,-2,1,0,0,6.45
1291,-1,-2,-8,3,-2,-2,-4,-1,6.455
1292,-1,1,7,-1,-1,2,1,0,6.46
1293,0,0,-3,1,1,0,-1,-1,6.465
1294,-1,-6,1,-2,-1,-2,-2,-1,6.47
1295,-2,-6,-4,0,-2,-2,-1,0,6.4750000000000005
1296,-1,-4,-7,0,-2,-1,-1,0,6.48
1297,-1,-1,4,-4,0,-1,-2,-1,6.485
1298,-1,1,4,-11,-2,-2,-1,-2,6.49
1299,-2,1,1,7,1,-2,1,-1,6.495
1300,-1,-1,14,18,-4,-1,0,-2,6.5
1301,-3,-5,-20,0,-5,-1,-1,-2,6.505
1302,-2,-1,-1,-4,-2,-3,0,-1,6.51
1303,0,1,5,-8,1,0,0,0,6.515000000000001
1304,0,-3,-5,-9,-4,-1,0,-3,6.5200000000000005
1305,1,0,5,-11,0,1,1,0,6.525
1306,-2,-5,-8,1,-3,-2,-2,-1,6.53
1307,-1,0,3,-2,1,1,-1,-2,6.535
1308,0,3,2,4,0,0,-1,-1,6.54
1309,1,0,9,6,-2,0,0,0,6.545
1310,-3,-2,-5,-14,1,-2,-1,-2,6.55
1311,-1,-2,2,31,1,0,0,0,6.555
1312,-2,-1,-2,-23,-2,-1,0,0,6.5600000000000005
1313,-1,-3,-11,-15,0,0,0,-2,6.565
1314,-1,2,7,4,-1,1,0,0,6.57
1315,0,1,11,-3,-1,0,-1,-1,6.575
1316,0,2,-3,12,2,0,-1,0,6.58
1317,-4,-3,2,-8,-2,-2,-1,-2,6.585
1318,0,-3,-5,-2,-1,-1,0,0,6.59
1319,-1,-1,-8,-12,-2,0,-2,-2,6.595
1320,1,1,5,-5,1,0,0,-1,6.6000000000000005
1321,0,1,2,9,0,0,-1,0,6.605
1322,0,1,1,11,-2,0,-3,-1,6.61
1323,0,0,3,-19,-1,-1,0,-1,6.615
1324,-2,-4,-14,16,-1,-3,-2,-2,6.62
1325,-2,1,2,8,1,-1,-2,1,6.625
1326,1,-3,-7,0,1,-1,1,0,6.63
1327,1,4,-3,-4,0,0,-1,-1,6.635
1328,-1,-1,2,-5,-1,1,-2,2,6.640000000000001
1329,0,1,1,-7,2,0,1,-1,6.6450000000000005
1330,0,1,0,8,-2,-1,-1,1,6.65
1331,-2,-4,-2,-6,-2,-2,-1,0,6.655
1332,-2,3,2,3,0,-2,0,-1,6.66
1333,1,1,3,-3,-1,-1,-2,0,6.665
1334,0,-3,-3,-9,-1,-1,-1,-2,6.67
1335,-1,-1,2,2,0,1,0,-1,6.675
1336,-1,-3,-7,1,-4,-3,0,-1,6.68
1337,0,1,3,7,-1,0,-1,0,6.6850000000000005
1338,-1,1,-2,-16,-2,-1,-1,-2,6.69
1339,-1,1,8,15,-3,0,-1,-1,6.695
1340,0,1,14,-9,2,-2,0,-2,6.7
1341,-2,-2,1,5,0,0,1,-1,6.705
1342,-1,-1,-15,11,0,1,1,0,6.71
1343,0,1,6,3,1,0,1,0,6.715
1344,-3,-1,-1,0,-1,-1,-2,0,6.72
1345,-2,-1,3,-5,-3,0,-3,-1,6.7250000000000005
1346,0,1,8,1,-1,-2,-1,-3,6.73
1347,1,-3,-8,-3,-1,1,0,-2,6.735
1348,-1,-2,-4,-7,-1,-1,-1,-2,6.74
1349,0,-2,-6,5,-2,-2,-2,0,6.745
1350,-3,3,8,-3,0,0,-2,-1,6.75
1351,-1,-1,-4,14,2,0,-2,0,6.755
1352,-2,-4,-16,-37,-3,-3,-1,-2,6.76
1353,0,2,9,18,2,0,-2,-1,6.765000000000001
1354,1,2,-6,-15,1,1,0,0,6.7700000000000005
1355,0,-3,2,-10,-2,0,-1,-1,6.775
1356,0,2,26,28,-1,1,-1,-1,6.78
1357,1,-2,1,-5,2,0,1,0,6.785
1358,-7,-18,-50,-1,-9,-6,-5,-6,6.79
1359,-1,-2,-4,1,1,-3,-1,0,6.795
1360,-1,-4,-2,-9,-1,0,1,-1,6.8
1361,1,6,23,-3,2,0,-2,0,6.805
1362,4,6,29,22,3,4,0,1,6.8100000000000005
1363,-2,0,-9,-6,-1,-1,-1,0,6.815
1364,-1,-4,-8,-3,-1,-2,-2,-1,6.82
1365,1,-1,-4,8,-2,-1,0,-1,6.825
1366,-1,0,-4,-5,1,2,1,1,6.83
1367,0,-1,-7,-4,-4,-3,-1,-2,6.835
1368,0,2,0,2,2,0,2,1,6.84
1369,-2,-2,-15,-8,-2,-2,-2,-2,6.845
1370,-1,1,5,-4,0,0,-1,0,6.8500000000000005
1371,1,2,3,4,0,0,0,0,6.855
1372,-3,-4,-7,17,-2,-1,-2,-1,6.86
1373,0,-4,-15,-25,-2,-3,-2,-1,6.865
1374,-1,3,18,3,0,-2,-1,-1,6.87
1375,-3,-1,0,14,1,0,-3,0,6.875
1376,0,-2,-11,-11,-2,-1,-1,-1,6.88
1377,-1,-5,-3,-1,-2,-2,0,-1,6.885
1378,1,4,12,8,-1,-2,-1,-1,6.890000000000001
1379,-3,-2,-1,-4,-3,-1,1,0,6.8950000000000005
1380,0,-3,-2,-19,-3,0,-2,0,6.9
1381,-1,-2,-2,3,0,-1,-1,-1,6.905
1382,0,1,-1,-7,-1,-2,-1,-2,6.91
1383,-2,2,7,0,-1,-1,-1,0,6.915
1384,1,-2,-13,-1,-2,-2,-1,-1,6.92
1385,1,2,8,0,0,1,-2,-1,6.925
1386,1,0,-4,0,0,0,-1,0,6.93
1387,-1,-3,-5,8,-2,0,-1,0,6.9350000000000005
1388,-1,3,3,0,1,0,-1,0,6.94
1389,-1,-1,-2,5,-2,0,1,-1,6.945
1390,-1,0,-3,-13,1,-1,-1,0,6.95
1391,0,-2,-3,-4,-4,0,-3,-2,6.955
1392,0,0,6,3,-2,0,-1,-1,6.96
1393,-1,-2,-12,-2,-2,0,0,0,6.965
1394,-1,-7,1,-9,-1,1,0,1,6.97
1395,0,-1,-4,-2,1,-2,1,-1,6.9750000000000005
1396,-1,0,2,7,1,0,1,-1,6.98
1397,-4,-2,-11,-10,-4,-2,-2,-2,6.985
1398,-1,-3,2,5,-1,-2,-2,0,6.99
1399,0,-1,8,4,-1,-1,0,-2,6.995
1400,-1,-5,-6,-5,0,0,-1,0,7.0
1401,0,2,0,2,1,-1,1,0,7.005
1402,-1,-9,-2,6,-2,-1,0,-1,7.01
1403,-1,1,4,-8,-1,-1,0,-1,7.015000000000001
1404,-2,-1,0,6,2,-1,-1,0,7.0200000000000005
1405,-1,0,12,-8,0,-2,-1,-1,7.025
1406,-1,-1,2,19,-1,-2,2,1,7.03
1407,-1,0,-7,-13,-1,-2,-1,-1,7.035
1408,-1,-5,-6,-12,-2,1,-1,-2,7.04
1409,-1,-1,3,12,1,1,0,-1,7.045
1410,0,0,16,0,0,0,1,0,7.05
1411,1,0,-13,-3,-1,-1,-1,-1,7.055
1412,-6,-9,4,1,-8,-6,-6,-3,7.0600000000000005
1413,-1,-3,-6,-13,-1,-1,-1,-2,7.065
1414,-1,2,7,3,1,-1,-2,-1,7.07
1415,2,-1,-7,-6,0,1,3,2,7.075
1416,8,10,4,7,4,1,5,3,7.08
1417,1,6,-6,2,-3,-1,-1,1,7.085
1418,-12,-2,-18,-25,-7,-8,-6,-8,7.09
1419,4,14,24,19,5,4,3,25,7.095
1420,9,6,-4,21,-12,0,6,-8,7.1000000000000005
1421,0,21,-2,-44,16,6,1,-24,7.105
1422,9,-35,2,47,-34,-17,-17,5,7.11
1423,21,24,7,-68,60,14,14,48,7.115
1424,-54,-13,37,44,-8,-14,-22,-53,7.12
1425,-84,-99,-25,-21,-15,-16,-33,-74,7.125
1426,-37,-68,-14,-40,-26,-24,-29,-61,7.13
1427,22,-53,22,17,-10,2,1,3,7.135
1428,83,75,4,21,18,31,35,78,7.140000000000001
1429,63,112,34,73,18,34,61,114,7.1450000000000005
1430,19,71,16,36,28,18,29,21,7.15
1431,-72,1,5,-14,-22,-28,-39,-57,7.155
1432,-71,-103,9,-5,-15,-30,-41,-55,7.16
1433,-23,-38,-20,-53,-31,-26,-37,-39,7.165
1434,0,-1,-2,-31,18,18,18,35,7.17
1435,72,69,-14,38,3,16,16,26,7.175
1436,47,58,-24,-14,-16,-10,18,8,7.18
1437,-42,-92,-25,-13,-10,-14,7,-9,7.1850000000000005
1438,-2,42,15,28,27,27,19,25,7.19
1439,-24,-15,-44,-63,-10,-8,15,-20,7.195
1440,-12,-28,-18,18,-9,-12,-43,-7,7.2
1441,57,51,32,-51,-12,-7,-9,18,7.205
1442,-11,-31,-16,52,-13,-14,-10,-37,7.21
1443,-4,-76,-10,14,-8,4,-7,-11,7.215
1444,-74,-7,1,-18,13,16,19,4,7.22
1445,9,7,-75,-1,8,2,1,7,7.2250000000000005
1446,6,0,2,-71,4,5,-2,-2,7.23
1447,-10,53,13,42,-19,-14,-11,-5,7.235
1448,31,7,27,-26,2,0,5,12,7.24
1449,8,19,38,32,8,8,5,-4,7.245
1450,-5,13,28,3,3,1,-3,4,7.25
1451,-25,47,43,71,-10,7,6,-2,7.255
1452,63,25,-30,-50,15,9,17,17,7.26
1453,-21,-37,77,0,34,-6,-12,5,7.265000000000001
1454,-42,-27,17,-19,-43,-28,-24,-25,7.2700000000000005
1455,40,-59,-8,-35,-16,-1,2,7,7.275
1456,-101,-69,62,-18,-17,7,1,-37,7.28
1457,69,13,-17,45,15,16,10,25,7.285
1458,71,71,33,-5,-32,-18,-8,13,7.29
1459,-62,8,10,54,34,11,-1,-10,7.295
1460,-9,-74,-23,-106,0,-10,-12,1,7.3
1461,-45,20,8,65,-54,-6,5,-20,7.305
1462,7,22,-10,-106,2,15,19,9,7.3100000000000005
1463,32,-43,-43,81,10,-7,-6,22,7.315
1464,10,62,54,-78,89,1,-7,-17,7.32
1465,-44,-95,71,28,-26,-17,-36,-41,7.325
1466,-2,-3,31,42,-2,11,2,-5,7.33
1467,-5,12,40,-46,-30,16,18,3,7.335
1468,17,1,4,27,-23,0,14,21,7.34
1469,-11,83,102,29,21,18,31,30,7.345
1470,-49,-4,26,-18,-19,-25,-6,15,7.3500000000000005
1471,31,-42,-33,-59,12,-1,-7,-21,7.355
1472,-3,58,-99,99,8,23,9,3,7.36
1473,105,80,-128,-18,-1,6,29,57,7.365
1474,-61,-57,-111,14,16,-20,-38,-33,7.37
1475,-67,23,-122,-10,-3,-3,6,-12,7.375
1476,26,-11,-121,-5,-33,-37,-28,-5,7.38
1477,-6,61,-115,3,18,32,14,-12,7.385
1478,6,68,-128,30,-1,39,63,123,7.390000000000001
1479,-51,-101,-85,43,22,-46,-51,-117,7.3950000000000005
1480,-33,26,-73,31,-6,6,-12,-29,7.4
1481,-23,1,-20,-29,-6,4,1,8,7.405
1482,-47,19,44,21,31,23,14,-44,7.41
1483,-60,-54,110,-88,-23,-15,-4,14,7.415
1484,71,69,124,73,-18,-19,-6,30,7.42
1485,-44,-88,24,-64,13,8,-13,-28,7.425
1486,-18,-32,59,11,23,1,-12,-36,7.43
1487,14,86,127,23,5,28,25,44,7.4350000000000005
1488,77,45,68,44,-2,3,13,12,7.44
1489,-58,-18,-8,-33,6,-1,1,1,7.445
1490,2,-33,75,-64,-52,-28,-23,-22,7.45
1491,37,19,46,93,54,7,16,39,7.455
1492,-66,-6,50,-24,-33,-34,-33,-22,7.46
1493,108,-23,22,48,12,19,25,53,7.465
1494,-17,23,15,18,8,11,-16,-69,7.47
1495,70,45,10,-70,-42,-11,2,45,7.4750000000000005
1496,3,4,4,-36,34,12,-8,-35,7.48
1497,-76,-14,41,14,-11,-26,-13,12,7.485
1498,34,12,32,4,10,-11,-7,-2,7.49
1499,39,2,-24,-58,-24,21,-2,-34,7.495
1500,7,-41,11,-2,-9,13,31,70,7.5
1501,66,-10,35,-2,-16,-40,-27,-68,7.505
1502,-66,-46,14,37,-3,-4,-19,-14,7.51
1503,-41,-26,5,-33,-6,9,17,8,7.515000000000001
1504,37,-39,65,-9,-22,-10,-16,3,7.5200000000000005
1505,-96,84,-19,7,43,9,10,-13,7.525
1506,28,-78,28,-7,-15,-26,-36,19,7.53
1507,-19,30,-19,14,11,17,1,-30,7.535
1508,-70,-56,5,-10,9,12,20,4,7.54
1509,11,5,23,-16,-30,-19,11,46,7.545
1510,76,9,-27,-20,4,4,-3,-33,7.55
1511,-61,0,15,13,35,21,18,50,7.555
1512,42,-88,0,-25,-16,-4,-5,-16,7.5600000000000005
1513,-10,47,-26,9,-22,-13,-19,-17,7.565
1514,-105,2,-5,10,11,17,7,-5,7.57
1515,3,7,-14,-19,-12,1,8,16,7.575
1516,83,63,-31,54,33,2,9,15,7.58
1517,-34,-106,77,-10,-7,-5,-16,-8,7.585
1518,61,-8,-28,-19,2,-5,-14,-25,7.59
1519,25,69,30,58,4,-4,2,15,7.595
1520,-67,14,-37,-38,-3,20,12,-19,7.6000000000000005
1521,71,-49,-7,15,15,-4,-2,31,7.605
1522,96,-25,70,3,-5,-8,4,-8,7.61
1523,3,-50,-5,1,-13,-13,-10,-20,7.615
1524,3,48,22,17,6,5,9,7,7.62
1525,14,-51,-52,-6,17,22,15,11,7.625
1526,0,80,-7,10,20,17,7,10,7.63
1527,0,45,-61,45,-2,-14,20,38,7.635
1528,-64,-108,2,-72,-39,-39,-54,-60,7.640000000000001
1529,-5,30,29,10,0,10,10,-6,7.6450000000000005
1530,9,32,-96,-12,3,12,16,21,7.65
1531,78,-69,67,-3,-5,-12,-12,-3,7.655
1532,-71,46,-60,-12,-5,3,-1,-9,7.66
1533,21,60,23,25,5,3,-1,-10,7.665
1534,-57,8,-23,-7,3,13,18,7,7.67
1535,21,98,-14,-53,-4,13,31,68,7.675
1536,107,-29,-18,86,34,0,6,61,7.68
1537,-74,-98,39,-48,-37,-42,-62,-87,7.6850000000000005
1538,-6,2,-14,48,11,1,5,26,7.69
1539,-18,53,-70,-49,-26,-18,-26,-34,7.695
1540,-2,33,49,28,39,48,44,38,7.7
1541,-30,2,38,4,-3,1,-6,-26,7.705
1542,23,-1,48,-45,-16,-2,22,26,7.71
1543,-52,-109,48,2,2,-18,-31,-35,7.715
1544,72,53,42,-9,-21,-8,-9,-7,7.72
1545,0,39,-36,21,17,18,11,2,7.7250000000000005
1546,44,-60,-58,5,-19,-6,7,19,7.73
1547,-36,26,12,41,35,1,-1,-14,7.735
1548,-50,14,-1,-19,1,4,6,6,7.74
1549,-63,-37,-93,-82,-49,-25,-26,-50,7.745
1550,66,-16,47,33,15,-3,1,61,7.75
1551,-43,-47,-16,-20,-14,-17,-48,-89,7.755
1552,-13,-4,0,21,-13,8,32,30,7.76
1553,61,90,-1,23,22,21,27,57,7.765000000000001
1554,-52,28,-38,-15,-4,-16,-36,-53,7.7700000000000005
1555,92,33,-6,37,8,5,9,16,7.775
1556,-116,-63,8,-32,-20,-12,-2,-49,7.78
1557,20,9,45,-6,1,15,-10,6,7.785
1558,125,68,37,36,9,7,39,78,7.79
1559,-68,-1,-5,-28,21,4,-15,-20,7.795
1560,24,-43,22,-18,-3,13,20,11,7.8
1561,126,-12,13,77,28,11,32,75,7.805000000000001
1562,-18,-18,23,-52,-23,-35,-43,-61,7.8100000000000005
1563,6,38,18,-11,-42,-2,3,4,7.815
1564,-14,27,26,69,21,-4,-10,-14,7.82
1565,-92,-7,-25,-23,-1,-6,-8,-47,7.825
1566,64,35,33,48,17,11,21,60,7.83
1567,30,-14,18,-22,-18,-1,3,-28,7.835
1568,21,65,-14,-14,-1,-6,-16,35,7.84
1569,25,99,-23,-5,3,23,34,4,7.845
1570,-24,-18,5,16,12,-6,9,45,7.8500000000000005
1571,-106,-72,64,-51,-34,-51,-57,-56,7.855
1572,-1,-66,-13,2,7,16,0,0,7.86
1573,58,15,-15,-6,-5,-16,-3,4,7.865
1574,-42,-5,-47,2,-5,5,9,-4,7.87
1575,68,25,-62,14,15,19,30,51,7.875
1576,-49,-66,51,47,-8,-12,-32,-57,7.88
1577,-6,-70,-55,-34,-24,-3,9,-3,7.885
1578,0,-1,79,-46,17,0,-7,-7,7.890000000000001
1579,2,-48,-29,31,-9,-21,-22,-15,7.8950000000000005
1580,-30,49,-30,6,8,11,12,8,7.9
1581,66,15,86,51,14,9,2,7,7.905
1582,-70,35,16,-74,-44,-13,-15,-37,7.91
1583,62,56,3,35,23,26,44,24,7.915
1584,104,83,-23,7,45,-9,-16,39,7.92
1585,-83,-40,4,6,-12,-19,-32,-18,7.925
1586,-20,48,36,23,13,4,-11,-57,7.930000000000001
1587,-14,29,-30,-18,7,34,32,28,7.9350000000000005
1588,-59,-90,-15,-24,-14,8,21,18,7.94
1589,71,53,62,12,11,-10,5,79,7.945
1590,-117,-128,-103,-43,-17,-10,-26,-46,7.95
1591,-21,38,21,16,-4,3,-4,-21,7.955
1592,11,18,-58,2,0,4,-3,-32,7.96
1593,-51,7,13,-39,-7,-12,-5,8,7.965
1594,23,-27,19,27,3,18,24,16,7.97
1595,13,-3,9,23,28,10,13,19,7.9750000000000005
1596,-9,49,-33,-19,-20,-14,-26,-37,7.98
1597,4,37,14,-30,6,22,19,0,7.985
1598,7,-66,8,-5,22,-9,11,52,7.99
1599,-103,-114,-7,-11,-21,-26,-42,-80,7.995
1600,-6,-36,34,-6,-12,-12,-5,-18,8.0
1601,-7,3,-128,-59,-16,-6,-20,-44,8.005
1602,74,115,35,50,16,26,38,55,8.01
1603,37,67,16,5,10,8,-23,12,8.015
1604,-17,-28,-37,-26,-14,-10,6,6,8.02
1605,17,-46,8,29,0,-12,2,-16,8.025
1606,-19,-9,-9,-8,-10,-14,-12,-10,8.03
1607,3,4,4,18,1,-4,-5,22,8.035
1608,13,18,-9,7,8,30,33,4,8.040000000000001
1609,0,-64,38,5,-6,-11,-34,-12,8.045
1610,-36,-10,6,2,-16,-18,-16,-45,8.05
1611,5,-25,-36,-14,-7,-1,17,12,8.055
1612,-14,-11,-58,-17,-5,-3,-13,7,8.06
1613,-19,-13,53,8,6,8,-18,-4,8.065
1614,23,12,-22,11,4,3,8,-10,8.07
1615,12,-13,18,-15,-9,-5,0,16,8.075
1616,-13,-5,38,-12,-10,1,-44,-65,8.08
1617,20,12,7,13,0,-6,40,75,8.085
1618,-11,-7,-20,-6,-7,-14,16,-23,8.09
1619,7,12,32,-1,-1,-7,-3,16,8.095
1620,13,22,30,7,0,-4,13,20,8.1
1621,-24,5,26,12,9,13,-15,-29,8.105
1622,2,37,-78,-15,2,11,-17,-3,8.11
1623,-7,-29,4,-20,-21,-10,11,2,8.115
1624,4,5,26,-3,1,-11,-9,0,8.120000000000001
1625,-49,16,8,-1,-9,4,-8,-23,8.125
1626,77,-22,7,28,33,18,23,42,8.13
1627,14,-22,2,0,-4,-7,-13,-19,8.135
1628,-7,11,3,-12,-8,-7,0,9,8.14
1629,-59,-17,-8,1,-2,-1,5,-16,8.145
1630,49,3,21,-1,-10,2,0,-1,8.15
1631,0,33,-7,8,6,-1,-4,7,8.155
1632,-6,-53,21,-9,-5,-12,-5,1,8.16
1633,1,5,-26,8,4,1,13,-6,8.165000000000001
1634,-39,-15,21,-12,-13,1,-10,-8,8.17
1635,27,21,9,3,2,4,2,2,8.175
1636,6,11,12,6,1,-4,-1,12,8.18
1637,8,5,1,-4,2,4,-1,-10,8.185
1638,-9,1,-2,1,-6,0,-7,11,8.19
1639,0,-28,2,-8,-2,0,6,1,8.195
1640,8,7,6,5,4,1,9,12,8.2
1641,15,-2,12,-2,0,-2,2,-10,8.205
1642,-26,-7,19,5,-6,-6,-16,-11,8.21
1643,-5,-21,-33,-11,-2,1,10,6,8.215
1644,5,-2,-1,-6,-1,1,1,-5,8.22
1645,9,2,-7,5,2,4,-1,4,8.225
1646,-18,1,24,1,-7,-9,-3,-10,8.23
1647,2,5,12,6,5,4,-1,0,8.235
1648,12,-4,-10,-6,-2,-3,1,2,8.24
1649,1,-1,1,-4,-3,-1,1,1,8.245000000000001
1650,-12,-1,6,-3,0,-2,-3,-5,8.25
1651,-2,-3,34,1,1,4,0,-1,8.255
1652,0,7,55,-2,-5,-5,0,4,8.26
1653,2,7,40,-2,-1,-3,-2,3,8.265
1654,-15,-13,20,5,5,6,1,-5,8.27
1655,9,1,14,2,-2,-4,-3,-1,8.275
1656,1,3,-8,-4,-1,0,2,-2,8.28
1657,2,2,-23,-1,-3,-4,-2,-3,8.285
1658,-5,17,-25,5,-3,2,0,-6,8.290000000000001
1659,12,-4,27,1,10,1,1,8,8.295
1660,0,-27,57,-5,0,-1,2,2,8.3
1661,5,10,72,1,-3,-5,-4,-4,8.305
1662,-4,0,52,-4,-5,-2,-4,-5,8.31
1663,-3,6,42,-2,-5,1,1,1,8.315
1664,3,-4,58,3,0,3,2,1,8.32
1665,-6,-17,114,-14,-3,-8,-6,-2,8.325
1666,9,-1,127,1,1,1,1,0,8.33
1667,-2,-4,121,0,0,3,-1,-3,8.335
1668,3,11,-12,-9,-3,-1,-1,0,8.34
1669,2,4,-88,-12,-5,1,1,-2,8.345
1670,-6,29,-115,-12,-3,-8,-6,0,8.35
1671,-4,-4,-123,7,6,-1,-2,-5,8.355
1672,-6,-8,-102,1,-3,-4,0,-1,8.36
1673,-5,-8,-103,4,0,-1,0,0,8.365
1674,15,15,-78,-3,-6,4,1,-2,8.370000000000001
1675,-25,36,-72,-32,-2,8,10,13,8.375
1676,42,-6,-57,-4,-8,-15,-11,-8,8.38
1677,-14,1,-44,2,-3,-2,0,-4,8.385
1678,-3,1,-26,11,10,1,-1,-4,8.39
1679,-3,-13,-29,4,-15,-5,-7,-5,8.395
1680,3,22,-20,-2,-1,5,5,5,8.4
1681,-1,-17,-10,-7,3,1,0,2,8.405
1682,-2,-8,-4,5,-7,-4,2,2,8.41
1683,5,-3,-15,-3,4,2,7,-1,8.415000000000001
1684,-2,3,-5,0,3,1,-12,-1,8.42
1685,-11,2,-2,16,3,1,-9,0,8.425
1686,-2,14,-4,-2,-2,-9,9,2,8.43
1687,11,-12,-7,4,0,3,2,3,8.435
1688,-6,8,-1,-4,3,-2,5,-1,8.44
1689,2,0,-2,-3,-5,-3,-2,-4,8.445
1690,-4,-22,-2,4,2,5,-1,0,8.45
1691,3,47,-3,0,4,-3,-1,-3,8.455
1692,-10,-6,0,-5,-10,-4,-15,-5,8.46
1693,4,15,-3,3,6,7,14,-6,8.465
1694,-19,-28,-8,-5,-12,-11,11,1,8.47
1695,10,-13,-20,4,0,-5,-13,2,8.475
1696,-9,-14,-21,-1,6,19,-42,3,8.48
1697,2,19,-25,5,-1,-6,41,-11,8.485
1698,1,-14,6,-3,2,-12,-20,22,8.49
1699,2,-9,-2,12,-2,-4,-34,-16,8.495000000000001
1700,0,35,-26,13,12,10,35,8,8.5
1701,-12,-71,-66,-51,-24,-12,26,18,8.505
1702,1,-12,-7,8,2,5,-8,-12,8.51
1703,-3,-9,0,1,4,-2,7,1,8.515
1704,0,9,8,30,6,2,-15,-7,8.52
1705,8,19,-9,-17,5,5,-11,-6,8.525
1706,-12,7,-6,5,6,5,11,-3,8.53
1707,9,-11,6,19,-2,-4,-3,-3,8.535
1708,-16,-2,-54,-18,-10,-7,16,1,8.540000000000001
1709,5,11,5,-16,-2,-4,-5,4,8.545
1710,6,-1,1,-2,2,2,-15,-1,8.55
1711,3,30,44,-7,13,14,-5,0,8.555
1712,-2,-8,-30,32,-13,-14,16,-12,8.56
1713,-9,-13,32,17,-4,-4,-12,10,8.565
1714,-6,1,7,-14,7,4,-30,-11,8.57
1715,-5,-1,-51,26,2,15,49,-2,8.575000000000001
1716,19,-10,34,1,-6,-17,1,6,8.58
1717,-6,-13,-88,-65,-14,-14,-51,-4,8.585
1718,13,7,-11,3,5,6,7,-9,8.59
1719,-11,4,43,7,-3,-1,31,16,8.595
1720,-5,-19,4,-1,8,9,15,2,8.6
1721,4,20,46,54,12,6,-25,-2,8.605
1722,12,34,-8,7,0,0,23,0,8.61
1723,-6,-27,-24,-14,-9,-5,-24,0,8.615
1724,10,35,105,21,21,18,7,8,8.620000000000001
1725,-7,-5,-42,43,-26,-15,-14,-9,8.625
1726,-17,-9,21,-39,-8,-10,18,0,8.63
1727,-3,-7,21,9,-2,-6,-11,-2,8.635
1728,-10,-29,30,-36,-1,0,0,0,8.64
1729,13,36,82,51,22,16,-3,1,8.645
1730,1,-7,-14,-5,-3,5,13,1,8.65
1731,2,-12,-14,-17,-9,-11,-12,-1,8.655
1732,-8,18,0,23,0,0,-3,4,8.66
1733,-4,-27,-51,-25,-1,-2,1,-1,8.665000000000001
1734,0,2,30,18,0,1,1,-4,8.67
1735,-17,-35,-25,-47,-6,-3,2,-7,8.675
1736,5,2,-52,-20,-9,-6,-23,-6,8.68
1737,4,9,54,18,15,7,27,4,8.685
1738,-4,-3,11,17,-8,-5,-11,-4,8.69
1739,8,-12,-37,-25,-6,-6,-1,0,8.695
1740,-8,-1,15,-14,-3,1,0,-2,8.700000000000001
1741,-3,1,0,3,5,1,-9,-4,8.705
1742,3,-4,8,59,11,10,14,0,8.71
1743,-7,-11,-6,-48,-14,-10,12,-1,8.715
1744,-4,-3,-18,-8,-7,-14,-18,-4,8.72
1745,2,2,31,-11,4,6,19,1,8.725
1746,3,2,32,10,6,1,-20,2,8.73
1747,-2,5,-57,18,-1,1,-8,-7,8.735
1748,3,10,48,-20,1,1,4,0,8.74
1749,0,-3,-20,26,-5,-2,-1,2,8.745000000000001
1750,-10,-61,-42,-56,-8,-3,-10,-2,8.75
1751,-1,15,16,22,-2,0,3,-3,8.755
1752,-8,-10,-11,-4,0,-1,2,-1,8.76
1753,-6,-13,-1,-1,1,2,5,2,8.765
1754,-3,-7,-39,-9,-5,-3,5,-1,8.77
1755,5,5,20,10,5,2,-7,2,8.775
1756,-6,-2,-20,11,0,1,-4,-1,8.78
1757,2,8,27,-15,-2,-1,1,-6,8.785
1758,5,28,20,39,11,6,8,7,8.790000000000001
1759,9,-10,-23,-5,-15,-15,-15,-5,8.795
1760,-5,-8,-28,-15,-5,-2,1,-3,8.8
1761,3,6,2,-7,-2,-3,-2,-1,8.805
1762,2,13,40,-14,5,5,-1,5,8.81
1763,-2,2,10,34,8,6,-5,-3,8.815
1764,0,-18,2,0,-6,-4,4,-4,8.82
1765,2,-11,16,-11,-2,-4,0,0,8.825000000000001
1766,-2,-7,-44,-6,-6,-5,-9,-7,8.83
1767,-1,12,23,-17,5,1,6,5,8.835
1768,-1,-9,-10,-8,-6,-3,3,-2,8.84
1769,-1,8,27,7,2,-1,0,0,8.845
1770,4,8,-13,9,-2,-3,-7,-1,8.85
1771,7,17,32,-2,2,3,5,0,8.855
1772,-3,10,-43,-10,2,1,4,2,8.86
1773,1,4,24,-7,-3,-1,-6,-2,8.865
1774,3,3,-23,-13,-5,-4,2,-1,8.870000000000001
1775,0,-5,25,-2,3,2,-5,1,8.875
1776,0,-3,14,23,-2,-4,-2,-4,8.88
1777,-4,-11,-21,-9,-2,0,9,0,8.885
1778,1,-1,-3,-6,-3,-2,7,2,8.89
1779,-5,1,28,-6,6,7,-8,-1,8.895
1780,4,-3,-1,-2,-5,-1,4,3,8.9
1781,1,-6,17,-7,-2,-3,-8,-2,8.905
1782,9,47,11,-8,-1,1,-12,3,8.91
1783,-3,-13,-30,-3,2,1,32,-2,8.915000000000001
1784,-3,-11,15,20,6,2,-8,-1,8.92
1785,1,8,-10,-5,0,0,-3,1,8.925
1786,-6,-13,16,11,-2,-3,-4,-2,8.93
1787,-7,-19,-19,4,-4,-6,-13,-4,8.935
1788,-1,6,12,-13,-4,-1,2,0,8.94
1789,-1,-10,-11,-13,-5,-4,3,-3,8.945
1790,2,1,29,4,1,-3,-8,-1,8.950000000000001
1791,2,6,-1,13,2,3,-10,0,8.955
1792,-1,-1,-3,-10,-4,-1,19,2,8.96
1793,2,-7,10,-5,4,0,-8,0,8.965
1794,-2,9,-9,2,-1,-2,8,-1,8.97
1795,0,7,3,0,-7,-4,-5,-3,8.975
1796,-4,-2,3,15,1,-1,-7,-3,8.98
1797,-3,-5,-30,-16,-3,-2,-3,0,8.985
1798,2,-1,-12,-9,5,2,0,1,8.99
1799,1,6,3,7,5,1,5,1,8.995000000000001
1800,0,-11,13,3,-3,-2,-5,-3,9.0
1801,-2,-33,-32,-5,-4,-6,-7,-2,9.005
1802,-9,-41,-15,3,0,2,-3,-2,9.01
1803,1,10,-1,-5,1,-2,-26,0,9.015
1804,6,15,19,7,7,4,35,3,9.02
1805,-11,-1,-8,8,-5,-3,-9,-2,9.025
1806,1,4,-2,-4,-4,0,-1,-4,9.03
1807,-2,-6,-6,-4,1,-3,-8,-2,9.035
1808,2,-6,-3,-11,-1,0,-4,0,9.040000000000001
1809,6,12,25,17,6,3,7,2,9.045
1810,-6,-4,-6,-3,0,1,1,-1,9.05
1811,-2,8,0,-4,-6,-2,4,-3,9.055
1812,1,13,16,-7,-3,-4,-11,-3,9.06
1813,3,11,-24,9,2,1,-2,-1,9.065
1814,5,15,15,10,0,-1,5,1,9.07
1815,-8,-28,-72,-10,-7,-3,1,-4,9.075000000000001
1816,-2,-1,-4,-35,-7,-5,-6,-1,9.08
1817,5,3,17,-3,2,3,9,3,9.085
1818,8,49,5,15,1,-2,-14,-1,9.09
1819,-6,1,39,-14,4,2,13,5,9.095
1820,-2,-2,-20,41,-2,-3,-8,-11,9.1
1821,-1,-6,-10,-13,-5,-3,2,-2,9.105
1822,-4,-27,-13,-10,-1,1,3,-1,9.11
1823,5,-1,18,0,3,0,-4,-1,9.115
1824,2,27,-16,-1,2,3,-10,1,9.120000000000001
1825,-1,14,18,-7,-1,-1,13,-1,9.125
1826,0,-14,9,8,4,1,-5,-1,9.13
1827,-1,-7,-2,-9,-8,-1,0,0,9.135
1828,-3,-11,8,-9,1,1,-3,1,9.14
1829,-5,-5,-18,-7,-4,-2,-4,-3,9.145
1830,-4,8,-4,-9,-6,-4,-16,-6,9.15
1831,6,15,-5,11,1,0,11,3,9.155
1832,-1,-11,0,-2,1,0,2,2,9.16
1833,2,7,27,1,1,2,-8,0,9.165000000000001
1834,-2,-13,-19,4,-5,-5,8,0,9.17
1835,-13,0,9,-18,-3,-2,-18,-7,9.175
1836,2,19,0,-2,3,2,1,2,9.18
1837,1,10,19,23,7,3,0,1,9.185
1838,-4,-14,-30,-19,-2,0,5,5,9.19
1839,9,12,49,17,-1,-2,8,-6,9.195
1840,0,-20,-36,-16,-8,-5,-3,-1,9.200000000000001
1841,-1,-15,-18,-5,0,-3,1,3,9.205
1842,1,8,31,10,1,0,2,1,9.21
1843,2,4,6,5,5,4,-1,3,9.215
1844,-7,-15,16,8,1,-1,-2,-3,9.22
1845,2,9,12,12,-4,-1,-4,-2,9.225
1846,2,-6,-7,-20,-2,0,0,-2,9.23
1847,0,-3,5,7,0,-2,-15,1,9.235
1848,-9,-10,22,-1,1,3,15,1,9.24
1849,-1,-2,-23,14,-3,-4,-16,2,9.245000000000001
1850,-6,-5,20,-5,-2,0,15,-5,9.25
1851,0,-15,-1,-5,-1,1,-5,-1,9.255
1852,4,7,2,-1,-1,-2,-7,1,9.26
1853,-1,-1,15,-3,3,-1,-1,-3,9.265
1854,-3,5,10,1,0,-1,-3,-2,9.27
1855,2,6,4,16,-6,-2,4,2,9.275
1856,1,-10,-2,-19,0,-2,-1,-2,9.28
1857,2,2,16,-20,-1,-2,3,-3,9.285
1858,-10,-41,-11,10,-3,-4,-19,-2,9.290000000000001
1859,-1,-1,-8,-6,-1,-1,7,-4,9.295
1860,1,11,1,7,2,3,0,3,9.3
1861,1,7,28,-4,0,0,0,1,9.305
1862,-2,-9,-13,-5,-6,-2,-1,-3,9.31
1863,-3,-9,-16,-14,-4,-4,-3,-2,9.315
1864,-1,5,2,7,0,1,-3,-2,9.32
1865,0,-3,1,-11,2,2,5,-2,9.325000000000001
1866,0,2,7,35,4,3,2,3,9.33
1867,-4,-8,-7,-6,0,-1,1,-1,9.335
1868,2,-1,-13,2,-2,-3,-2,0,9.34
1869,-5,-7,-23,-9,-2,0,2,-1,9.345
1870,7,17,12,-12,2,0,-5,0,9.35
1871,-5,-12,-16,7,3,-1,1,-1,9.355
1872,1,-10,10,-6,1,3,6,1,9.36
1873,-5,-8,-1,4,-5,0,0,-3,9.365
1874,0,8,-3,-13,-2,1,2,-2,9.370000000000001
1875,4,15,12,31,2,3,4,3,9.375
1876,-2,-7,-20,-28,-4,-6,-11,-3,9.38
1877,-7,-13,-29,-6,-5,-3,0,0,9.385
1878,1,-2,0,-12,-2,-1,7,0,9.39
1879,-3,9,-3,28,1,-1,-2,-1,9.395
1880,1,15,26,-6,-2,-2,-6,-1,9.4
1881,-1,17,-10,10,1,0,2,-2,9.405
1882,-3,-1,-4,-23,-3,-2,-3,-1,9.41
1883,3,6,8,3,3,1,1,0,9.415000000000001
1884,0,-4,10,17,2,3,2,3,9.42
1885,-3,-5,6,0,-8,-7,-14,-4,9.425
1886,4,11,32,12,1,-1,9,-1,9.43
1887,2,3,-3,-3,-2,1,-1,-1,9.435
1888,0,-12,-17,-21,-4,-2,1,-2,9.44
1889,10,16,21,11,6,3,2,4,9.445
1890,0,-15,0,14,5,3,-1,2,9.450000000000001
1891,-2,-8,-30,-18,-2,-2,-3,0,9.455
1892,-3,1,-8,-18,-6,-4,-3,-4,9.46
1893,-8,-6,4,16,0,2,0,-4,9.465
1894,1,3,-33,-17,-6,-5,-4,1,9.47
1895,0,-2,13,-4,1,-2,-1,-1,9.475
1896,1,-1,-5,17,2,3,-4,1,9.48
1897,-1,-2,-8,-5,1,1,8,1,9.485
1898,-4,-19,3,-2,-2,-2,0,-1,9.49
1899,4,18,12,3,2,2,1,0,9.495000000000001
1900,0,-4,3,24,7,3,1,2,9.5
1901,-13,-29,-45,-48,-19,-13,-8,-8,9.505
1902,0,0,1,-3,1,0,-3,-1,9.51
1903,1,1,13,1,-2,-2,-3,-2,9.515
1904,6,30,12,-1,2,0,7,1,9.52
1905,7,14,17,17,5,4,3,2,9.525
1906,-1,-5,-10,2,-3,-3,-5,0,9.53
1907,-2,-1,-8,-16,-3,-2,0,-2,9.535
1908,-4,-8,-11,-2,-1,-1,-1,-2,9.540000000000001
1909,0,0,5,12,1,0,3,0,9.545
1910,-1,22,12,10,0,-2,-5,-2,9.55
1911,1,-19,2,-14,-7,-4,-1,0,9.555
1912,-4,-14,-14,-7,-2,-1,-4,-3,9.56
1913,4,0,-1,-17,-2,-1,-3,-1,9.565
1914,1,17,24,-2,1,-2,1,-3,9.57
1915,0,1,4,11,3,4,2,0,9.575000000000001
1916,-1,6,12,10,-1,-3,-1,-1,9.58
1917,2,-4,6,3,1,0,6,3,9.585
1918,2,5,-13,-4,2,1,-4,-1,9.59
1919,-5,-27,1,-7,-3,-3,-1,-3,9.595
1920,0,-4,-7,24,-1,-2,-3,-1,9.6
1921,-2,-4,8,-13,-3,-1,-6,-1,9.605
1922,-1,-10,-2,3,0,0,10,1,9.61
1923,-7,-7,-7,-7,-2,-1,-1,0,9.615
1924,-3,-4,12,-5,2,-1,-3,-2,9.620000000000001
1925,-2,1,-3,19,2,0,5,1,9.625
1926,2,-4,-6,-7,-3,-2,-3,-1,9.63
1927,1,6,10,-2,0,2,-5,-1,9.635
1928,-1,2,3,10,-1,1,5,1,9.64
1929,-2,2,-10,-17,-1,-1,-3,-1,9.645
1930,-1,3,3,0,-2,-1,-1,-2,9.65
1931,4,19,-1,2,1,0,-1,1,9.655
1932,0,10,25,4,3,3,-2,-2,9.66
1933,3,1,-16,-3,-4,-7,-5,-1,9.665000000000001
1934,-7,-10,-36,5,-7,-3,0,-2,9.67
1935,-1,-4,4,1,0,-3,-3,-3,9.675
1936,0,-1,6,4,0,0,0,-1,9.68
1937,0,4,12,-13,3,4,1,-1,9.685
1938,-3,1,17,3,0,-1,-3,0,9.69
1939,3,13,-7,14,-1,-2,-5,-2,9.695
1940,-1,8,-16,-11,-1,-1,6,-2,9.700000000000001
1941,-4,-18,2,-22,-5,-2,-3,-2,9.705
1942,0,8,6,5,-4,-4,-6,-2,9.71
1943,-1,2,-4,-6,0,1,7,1,9.715
1944,1,-14,2,8,1,2,-3,1,9.72
1945,0,-3,7,-3,1,2,0,-2,9.725
1946,0,-3,0,-7,-1,-2,3,-1,9.73
1947,-1,7,-4,-2,1,0,5,1,9.735
1948,-4,-10,-8,-11,-3,-1,-7,-1,9.74
1949,-2,-4,-6,18,-1,0,-1,0,9.745000000000001
1950,-1,-9,-4,-9,1,3,-1,-2,9.75
1951,2,-3,-8,-2,-3,1,-3,0,9.755
1952,0,1,3,14,1,-4,3,0,9.76
1953,-5,-20,-18,4,-2,-1,3,3,9.765
1954,0,-9,21,-4,3,1,-3,-1,9.77
1955,2,6,-20,-31,-3,-1,-3,-1,9.775
1956,-4,-6,5,1,-1,-3,-1,-2,9.78
1957,7,11,5,20,2,-2,-4,2,9.785
1958,-1,-1,-12,-1,0,-1,-2,0,9.790000000000001
1959,-2,-4,7,9,0,1,4,0,9.795
1960,-3,-1,-12,-2,-4,-2,2,-1,9.8
1961,-4,6,-3,-10,-2,-3,-1,-5,9.805
1962,0,2,-9,-9,-1,0,-3,1,9.81
1963,-2,0,22,0,-1,-2,-4,-3,9.815
1964,-4,-10,-13,-9,0,1,-3,0,9.82
1965,0,-1,9,8,1,0,2,-3,9.825000000000001
1966,-6,-31,-27,-16,-6,-3,-1,-2,9.83
1967,-4,-1,11,-1,2,0,-3,-1,9.835
1968,2,1,0,4,-4,0,-1,0,9.84
1969,-1,-4,11,0,-1,-1,-3,-1,9.845
1970,3,12,-12,-2,2,1,0,-1,9.85
1971,-6,-15,-16,-9,-3,0,1,-2,9.855
1972,3,1,5,-8,0,-1,-1,0,9.86
1973,-1,9,-1,5,1,-1,-1,-1,9.865
1974,0,4,4,7,-2,-3,-2,1,9.870000000000001
1975,1,-4,4,2,3,3,7,1,9.875
1976,2,1,2,6,2,0,-2,0,9.88
1977,-1,-5,-29,-12,-5,-1,-2,-2,9.885
1978,0,-1,2,13,1,-3,1,-1,9.89
1979,-1,-2,8,10,-4,-4,-4,-1,9.895
1980,-2,-4,12,-22,-4,-2,-1,-2,9.9
1981,2,6,13,9,4,4,1,0,9.905
1982,2,1,3,-5,1,2,1,0,9.91
1983,-2,-7,0,15,0,-1,-1,-1,9.915000000000001
1984,1,2,7,12,2,1,4,-1,9.92
1985,-1,1,3,4,-2,-4,-4,-1,9.925
1986,0,10,6,-5,2,1,3,0,9.93
1987,-3,-5,6,3,-3,-2,-4,-2,9.935
1988,-5,-13,-12,-10,-4,-3,0,-2,9.94
1989,0,-2,-14,-18,2,2,-5,1,9.945
1990,-2,1,-8,16,-2,-2,3,-2,9.950000000000001
1991,4,-3,-2,-12,1,2,1,1,9.955
1992,0,41,-3,-11,-7,-6,-6,-3,9.96
1993,1,14,13,23,1,-1,0,0,9.965
1994,-2,-8,2,-2,-1,0,0,-1,9.97
1995,-2,9,-4,-26,-1,-1,-2,-1,9.975
1996,0,0,-4,8,1,-2,-1,-1,9.98
1997,0,-2,-1,-6,0,-2,0,-1,9.985
1998,-1,12,11,3,-3,0,0,-3,9.99
1999,-1,3,8,13,0,0,2,0,9.995000000000001
2000,2,-14,-15,-18,-2,1,-1,1,10.0
2001,-3,-4,-24,-5,-4,-5,-4,-3,10.005
2002,-2,-13,-4,-8,-1,1,-2,0,10.01
2003,-3,-5,-11,-14,-5,-5,-4,-3,10.015
2004,1,1,17,-5,0,0,-2,-1,10.02
2005,1,2,10,10,0,0,6,2,10.025
2006,-4,-10,-5,-6,-1,2,-1,1,10.03
2007,0,-23,5,8,0,0,-1,0,10.035
2008,-7,-8,-4,9,-2,-1,-1,-2,10.040000000000001
2009,0,-1,0,4,0,0,0,0,10.045
2010,-2,-1,6,10,-1,-1,-3,-1,10.05
2011,-2,4,-22,-17,0,-1,-2,-1,10.055
2012,2,-16,-14,-9,1,1,2,2,10.06
2013,-2,-7,-3,-2,-2,-2,-1,-2,10.065
2014,0,-9,18,7,1,-2,-1,-1,10.07
2015,0,17,6,5,-1,0,0,0,10.075000000000001
2016,0,9,7,4,-2,-2,-4,-3,10.08
2017,-2,3,8,-4,-3,0,0,-2,10.085
2018,6,7,-7,-2,-1,-1,-2,-1,10.09
2019,0,-5,-6,1,2,1,1,0,10.095
2020,3,17,17,6,3,0,-2,-2,10.1
2021,1,-8,0,29,2,1,0,3,10.105
2022,-2,-2,-46,-47,-11,-4,-2,-1,10.11
2023,-1,2,22,5,-1,-1,0,0,10.115
2024,0,5,3,8,2,1,-3,0,10.120000000000001
2025,0,-2,7,-18,1,1,3,1,10.125
2026,1,7,14,18,0,0,-1,-2,10.13
2027,-1,-2,-8,-1,-2,0,1,0,10.135
2028,-2,-9,5,-1,-2,-2,-4,-1,10.14
2029,1,14,10,14,2,1,2,0,10.145
2030,-2,-19,-5,-2,0,2,3,1,10.15
2031,-5,-4,-8,-7,-3,-3,-4,-3,10.155
2032,-3,-3,-2,13,-1,-2,1,-2,10.16
2033,3,15,-16,-32,-2,-3,-6,-2,10.165000000000001
2034,-1,11,25,10,1,1,4,0,10.17
2035,-3,-15,-25,5,-3,-2,-3,-2,10.175
2036,0,1,2,-3,-1,-1,0,1,10.18
2037,-3,-4,5,1,-2,1,-2,-1,10.185
2038,-1,0,2,-3,2,-4,-3,-1,10.19
2039,2,4,7,9,-1,-1,1,1,10.195
2040,-1,-1,-6,-6,-1,-2,-1,0,10.200000000000001
2041,-3,-24,-4,-9,-4,1,0,-1,10.205
2042,3,21,7,-5,0,-1,-3,-2,10.21
2043,3,20,16,35,2,-1,1,1,10.215
2044,-6,-19,-57,-45,-7,-4,-1,-3,10.22
2045,-4,-6,12,8,-2,-4,-3,-2,10.225
2046,-1,4,-7,8,0,-1,0,0,10.23
2047,2,2,0,-10,-1,-1,-1,-1,10.235
2048,1,9,28,9,2,2,0,0,10.24
2049,1,0,-3,3,-2,-1,-1,0,10.245000000000001
2050,-1,-7,-2,-3,-4,-2,-2,-3,10.25
2051,-2,1,3,-1,2,-3,-1,0,10.255
2052,2,9,13,9,0,2,0,1,10.26
2053,-1,-12,-1,4,1,1,-1,0,10.265
2054,-1,1,-12,-15,-1,-2,3,1,10.27
2055,1,-4,2,5,-1,2,0,-1,10.275
2056,-3,-9,-8,-15,-3,-2,-1,-2,10.28
2057,1,7,-2,7,-2,-2,-1,-1,10.285
2058,-1,-2,1,-3,2,1,-2,-1,10.290000000000001
2059,1,-2,5,-1,0,-2,0,0,10.295
2060,0,-1,10,4,1,0,2,0,10.3
2061,-3,1,7,1,0,0,-2,0,10.305
2062,0,2,6,3,0,-2,1,0,10.31
2063,-7,-17,-8,-8,-3,0,1,-2,10.315
2064,-5,-8,-21,5,-2,-3,-3,-3,10.32
2065,2,-9,-4,-21,-1,0,-1,3,10.325000000000001
2066,-5,-7,-4,3,-5,-3,-3,-1,10.33
2067,0,5,1,-5,0,-1,-3,-3,10.335
2068,0,2,9,9,0,1,1,1,10.34
2069,2,8,8,7,1,0,2,-1,10.345
2070,2,3,0,-2,0,0,-2,-1,10.35
2071,2,17,35,19,6,3,2,1,10.355
2072,-5,-27,-62,-32,-15,-8,-4,-5,10.36
2073,-7,5,-15,-34,-6,-4,-2,-5,10.365
2074,0,0,9,10,2,1,-3,1,10.370000000000001
2075,-3,3,-4,-14,-3,-2,-2,-3,10.375
2076,6,10,27,19,6,4,5,2,10.38
2077,0,-1,-3,12,0,1,-2,0,10.385
2078,0,-2,-12,-7,-2,-1,0,-2,10.39
2079,0,-26,-6,-4,-1,0,1,1,10.395
2080,-1,-2,4,2,1,1,0,0,10.4
2081,1,-6,-1,-3,-1,-3,-2,1,10.405
2082,-2,13,33,31,4,3,-2,-3,10.41
2083,2,-3,-45,-18,-5,-6,-8,0,10.415000000000001
2084,0,-6,-12,-36,-5,-5,1,0,10.42
2085,-2,-2,2,0,-2,-2,-1,-3,10.425
2086,1,-11,-8,0,1,2,1,0,10.43
2087,-1,11,13,8,-1,0,1,-2,10.435
2088,-3,1,11,8,-1,-1,-4,-1,10.44
2089,0,1,-2,1,1,1,0,0,10.445
2090,0,-1,-5,-5,-1,-2,-1,-1,10.450000000000001
2091,-4,-7,1,5,-2,0,-2,-3,10.455
2092,1,12,-2,9,-1,0,-1,0,10.46
2093,-2,-7,-6,-8,0,-3,-2,-3,10.465
2094,0,-5,18,10,0,1,-1,0,10.47
2095,-2,-16,-52,-28,0,2,1,2,10.475
2096,-2,-1,15,18,1,0,0,-1,10.48
2097,-1,-2,-7,-8,1,2,2,2,10.485
2098,-7,-14,-9,-3,-5,-4,-1,-1,10.49
2099,-1,30,-11,11,0,0,0,0,10.495000000000001
2100,-2,5,6,5,2,0,1,0,10.5
2101,-3,-9,-5,5,2,2,1,-1,10.505
2102,-1,-7,-5,-11,0,-1,0,2,10.51
2103,-1,-8,15,3,-2,-2,-1,-1,10.515
2104,-2,-5,0,-19,-1,-1,-1,0,10.52
2105,0,19,24,20,2,-1,-2,-1,10.525
2106,-2,-10,-46,-17,-4,-3,-3,-1,10.53
2107,-2,1,22,7,-2,-1,0,0,10.535
2108,4,4,-3,0,0,0,0,-1,10.540000000000001
2109,-3,-15,4,10,0,0,1,-2,10.545
2110,-3,5,2,0,-2,1,-4,-3,10.55
2111,-3,-12,-51,-13,-5,-2,-2,-2,10.555
2112,-3,-6,15,-12,0,2,1,0,10.56
2113,-1,2,-3,18,-3,-4,-3,-2,10.565
2114,1,7,4,2,3,3,0,1,10.57
2115,5,4,29,-2,-2,-4,1,-3,10.575000000000001
2116,-1,25,-10,-8,0,0,1,0,10.58
2117,-3,-2,-38,-12,-3,-3,-3,-2,10.585
2118,7,13,17,9,0,-1,0,1,10.59
2119,1,-5,15,0,2,0,-3,-1,10.595
2120,0,-16,19,11,-2,-2,-2,-2,10.6
2121,-2,-10,-12,-8,-2,0,2,1,10.605
2122,-6,-6,1,-3,-1,-1,-2,-1,10.61
2123,-1,0,4,-5,1,3,0,0,10.615
2124,-2,-8,3,5,-3,-3,-3,-4,10.620000000000001
2125,-5,4,12,-5,-1,-2,-3,0,10.625
2126,0,-6,-2,-10,-2,-2,0,0,10.63
2127,-3,-1,2,10,2,0,0,-1,10.635
2128,0,1,12,8,2,0,2,0,10.64
2129,2,5,0,2,0,0,-2,-2,10.645
2130,1,9,1,-12,-3,-4,0,-2,10.65
2131,-3,4,3,-5,-1,-2,-1,-3,10.655
2132,1,1,-7,-1,-3,1,2,1,10.66
2133,1,3,12,1,-2,-1,-1,-2,10.665000000000001
2134,3,28,2,10,2,3,1,0,10.67
2135,3,13,14,2,-3,0,0,0,10.675
2136,-6,-9,-10,2,-1,-4,-3,-1,10.68
2137,1,5,1,-11,-3,-2,-2,-1,10.685
2138,-2,-17,-30,-6,-5,-2,-2,-2,10.69
2139,-1,-7,4,-1,-1,-2,0,-2,10.695
2140,1,-6,-3,-4,0,0,-2,-1,10.700000000000001
2141,0,-5,6,4,0,1,3,2,10.705
2142,-1,3,27,15,1,-2,-3,-2,10.71
2143,2,11,-9,-7,1,0,-1,0,10.715
2144,-4,-1,-10,-1,-2,-2,-3,-3,10.72
2145,-1,0,-2,5,0,-2,-2,-3,10.725
2146,-2,-11,2,-15,-2,0,0,-2,10.73
2147,-1,-1,-8,5,2,0,-1,-1,10.735
2148,2,9,17,14,0,-2,-3,-1,10.74
2149,-3,-10,-17,-19,-2,-1,-1,0,10.745000000000001
2150,-4,-25,-9,-9,0,-3,-1,-1,10.75
2151,-2,2,7,-10,-1,-2,-1,0,10.755
2152,1,4,19,22,1,1,0,0,10.76
2153,7,14,4,20,1,2,-1,-1,10.765
2154,-4,-22,-27,-12,-3,1,1,0,10.77
2155,-1,-11,17,-25,0,1,-1,0,10.775
2156,-4,-5,-28,21,-3,-2,-2,0,10.78
2157,1,10,-6,-20,-5,-2,-1,-3,10.785
2158,0,14,14,11,0,0,-2,-1,10.790000000000001
2159,0,-4,6,0,-1,0,-1,1,10.795
2160,1,7,17,0,0,0,0,0,10.8
2161,-2,-2,4,1,-1,-2,-1,-1,10.805
2162,2,9,-3,-6,-1,-3,-2,-2,10.81
2163,-9,-16,-18,-9,-4,-2,0,-2,10.815
2164,-1,1,1,-3,1,-1,0,0,10.82
2165,-3,-10,-1,-10,2,-1,0,-2,10.825000000000001
2166,-1,10,5,20,0,0,0,-1,10.83
2167,2,-5,5,21,1,2,1,1,10.835
2168,2,8,-1,-14,1,0,-2,-2,10.84
2169,-2,-14,-7,-7,-2,0,0,0,10.845
2170,0,4,0,-7,0,-2,-1,0,10.85
2171,1,-1,7,4,-3,-2,-3,-1,10.855
2172,0,3,3,-3,-1,0,0,-2,10.86
2173,-2,-1,-10,3,-4,-3,-1,-1,10.865
2174,0,-2,3,1,0,0,1,-1,10.870000000000001
2175,-4,-10,-1,5,-2,-3,-1,-1,10.875
2176,-6,-17,-2,-11,5,5,3,0,10.88
2177,-3,-4,9,17,-3,-4,-3,-2,10.885
2178,-6,-21,-39,-30,-7,0,-1,-2,10.89
2179,3,15,16,2,1,-1,1,-1,10.895
2180,2,9,-12,1,-1,-1,-2,-1,10.9
2181,0,-3,-28,-4,-2,0,0,0,10.905
2182,0,44,4,7,-3,-3,0,-1,10.91
2183,0,-1,0,-6,-1,-1,-1,0,10.915000000000001
2184,-2,-8,-5,-7,-2,-3,-2,-2,10.92
2185,3,12,16,5,3,-1,0,0,10.925
2186,-1,-10,3,5,0,0,-1,0,10.93
2187,-1,-1,-9,-1,-1,0,-2,0,10.935
2188,4,14,18,15,-1,-4,-1,-2,10.94
2189,-2,-8,-17,-32,-4,2,0,0,10.945
2190,-1,-12,-11,-1,1,-4,-3,-2,10.950000000000001
2191,-1,1,4,1,-2,-1,1,0,10.955
2192,1,5,-6,1,-2,-1,-1,-1,10.96
2193,2,7,29,11,2,1,0,0,10.965
2194,3,-1,-3,-7,-3,-1,-2,-1,10.97
2195,-5,-29,-10,-16,0,1,0,-1,10.975
2196,-3,-11,5,11,-5,-3,-2,-1,10.98
2197,1,32,-4,-1,-1,-2,-1,0,10.985
2198,-1,-1,20,14,0,1,-1,0,10.99
2199,-2,3,-17,-7,-1,-3,0,-4,10.995000000000001
2200,-2,-7,-2,-20,0,-1,-1,0,11.0
2201,-1,-7,16,29,1,-3,-3,-2,11.005
2202,-2,-22,-8,-10,1,2,1,0,11.01
2203,2,10,-1,-3,-1,-1,-1,-1,11.015
2204,-4,-8,-10,-14,-1,0,-1,-1,11.02
2205,2,0,-4,1,3,2,0,-1,11.025
2206,-1,2,2,8,-1,-1,0,-1,11.03
2207,-1,-8,-4,3,-1,-1,-1,-2,11.035
2208,1,5,5,-3,1,0,1,-2,11.040000000000001
2209,-7,-32,-2,1,0,-1,1,1,11.045
2210,2,14,15,1,0,5,3,3,11.05
2211,-4,-13,-9,-4,-3,-1,-3,-3,11.055
2212,0,-9,9,12,0,2,-1,0,11.06
2213,0,1,-18,-23,-7,-4,-1,-2,11.065
2214,-4,-12,2,-8,0,0,-1,0,11.07
2215,7,29,4,-1,-4,-5,-2,-4,11.075000000000001
2216,2,0,-5,0,2,0,0,0,11.08
2217,1,-11,16,3,1,2,0,1,11.085
2218,2,19,8,-4,0,2,4,2,11.09
2219,-2,-7,6,7,2,1,1,2,11.095
2220,-2,-3,1,-12,-4,-3,-1,-1,11.1
2221,3,2,9,8,0,4,4,0,11.105
2222,2,-4,3,7,-1,-4,-1,-2,11.11
2223,-1,-1,4,1,0,1,-1,1,11.115
2224,0,0,14,0,0,1,1,0,11.120000000000001
2225,-6,-24,-24,-19,-5,-5,0,1,11.125
2226,0,7,5,-2,-2,-1,-1,-2,11.13
2227,-4,-2,0,-4,-1,-2,-6,-11,11.135
2228,-2,-2,3,-1,0,-1,-3,-4,11.14
2229,-1,-4,7,6,1,0,-2,-1,11.145
2230,-4,-4,-7,3,2,1,2,0,11.15
2231,-1,1,-3,-4,-1,-3,0,4,11.155
2232,-2,-6,-8,-1,-1,2,0,-1,11.16
2233,3,17,-1,3,1,-1,-2,-1,11.165000000000001
2234,6,-3,4,-1,1,-2,2,22,11.17
2235,4,21,9,-1,0,-1,-2,-27,11.175
2236,-7,1,15,9,2,1,-7,0,11.18
2237,-4,-8,1,-5,-4,-3,0,-6,11.185
2238,0,-5,-2,-5,1,-2,-4,-2,11.19
2239,5,-2,3,10,0,-1,2,11,11.195
2240,7,10,-6,-3,-1,-2,1,3,11.200000000000001
2241,-5,8,-2,2,4,3,-1,-1,11.205
2242,4,7,-7,-1,0,0,0,-3,11.21
2243,-7,17,-3,14,-1,-1,0,8,11.215
2244,-6,0,-10,-26,-8,-6,-5,-19,11.22
2245,5,3,-1,8,1,0,1,18,11.225
2246,-4,-9,-12,3,-4,-4,0,-21,11.23
2247,12,-9,-2,-6,2,4,2,25,11.235
2248,-5,26,-4,1,-3,-4,-6,-20,11.24
2249,-4,2,6,-1,0,1,-4,2,11.245000000000001
2250,-10,-2,4,9,-1,-1,2,8,11.25
2251,7,-9,-13,-7,-1,1,6,-20,11.255
2252,8,4,14,-11,-3,-4,-4,25,11.26
2253,-6,2,4,-5,0,0,-14,-18,11.265
2254,-17,2,49,4,-2,-6,-1,-20,11.27
2255,-7,-37,-11,8,-4,-2,5,-10,11.275
2256,-8,4,10,-8,-4,-3,-20,-3,11.28
2257,11,-16,8,0,-1,-2,14,16,11.285
2258,7,11,-4,-4,2,1,2,10,11.290000000000001
2259,-7,31,-6,13,6,3,-31,-19,11.295
2260,9,-4,-23,0,3,5,58,1,11.3
2261,-11,6,0,4,-7,-6,33,33,11.305
2262,10,10,-5,-10,-3,-2,-15,-7,11.31
2263,2,-9,3,-1,0,-2,5,15,11.315
2264,5,-1,-12,1,5,5,-34,-7,11.32
2265,-7,-17,-22,1,0,-2,-14,-28,11.325000000000001
2266,-6,-22,-21,-2,-5,-4,10,6,11.33
2267,-11,-11,17,-3,-3,-4,-10,-4,11.335
2268,3,-18,-11,0,-4,-3,-6,-12,11.34
2269,7,15,2,-8,-1,1,-2,-6,11.345
2270,9,27,-18,-5,3,1,13,8,11.35
2271,4,7,-20,-4,2,4,-8,4,11.355
2272,-22,-32,12,13,4,5,-47,18,11.36
2273,21,9,5,-10,-10,1,83,5,11.365
2274,-31,-12,7,-6,-4,-6,47,-21,11.370000000000001
2275,16,7,-2,13,-4,2,-69,25,11.375
2276,-4,3,17,-13,-2,-16,73,-9,11.38
2277,-6,-13,7,1,4,-7,-74,-24,11.385
2278,17,-9,13,4,-7,-12,-10,39,11.39
2279,7,-10,-38,-22,-6,-1,25,-40,11.395
2280,-31,-16,7,-23,-8,5,-9,30,11.4
2281,9,49,23,16,4,7,-37,13,11.405
2282,12,-34,-23,18,7,14,4,-23,11.41
2283,-13,-29,51,-13,-7,-17,-10,-21,11.415000000000001
2284,27,-32,1,6,-6,-2,9,-11,11.42
2285,29,40,-7,2,-3,-6,-47,-2,11.425
2286,-13,-2,-6,-17,3,10,19,1,11.43
2287,3,25,10,11,14,13,-20,25,11.435
2288,36,51,-46,34,8,1,-33,17,11.44
2289,-38,-67,-18,-64,6,1,84,-16,11.445
2290,-15,23,-23,100,-2,-1,-106,4,11.450000000000001
2291,-8,-37,-22,-36,-21,-7,118,4,11.455
2292,-7,-30,-11,-13,5,-13,-43,11,11.46
2293,12,16,-56,13,-5,-2,-24,-10,11.465
2294,-39,-2,0,-78,-11,-8,-26,-4,11.47
2295,12,75,48,-1,2,0,-18,-16,11.475
2296,-14,-64,20,9,-7,-12,-23,-26,11.48
2297,-1,-13,-39,0,-3,-2,7,27,11.485
2298,50,-13,-48,0,17,26,16,-18,11.49
2299,-52,85,-9,43,6,13,29,53,11.495000000000001
2300,44,-72,38,-33,-6,-14,-3,-69,11.5
2301,-28,-15,28,-3,-6,-10,-64,-10,11.505
2302,24,15,7,-13,-3,12,101,1,11.51
2303,51,44,58,42,2,-8,-33,25,11.515
2304,-7,99,-106,36,-7,18,36,26,11.52
2305,39,-33,39,-6,-3,-11,48,-1,11.525
2306,-47,-36,49,-24,-27,-26,-43,0,11.53
2307,20,-42,45,-58,23,11,-2,11,11.535
2308,-13,-24,66,28,-6,-1,23,-4,11.540000000000001
2309,5,-12,-42,15,-9,4,-61,-32,11.545
2310,-2,6,-6,28,-2,6,14,-4,11.55
2311,-63,39,21,-25,-19,-16,2,-1,11.555
2312,-2,-41,8,-10,-23,-7,-26,3,11.56
2313,-49,-8,6,-29,20,11,27,-3,11.565
2314,-28,12,-13,79,-3,-2,-16,-10,11.57
2315,98,72,-56,-92,-17,12,15,31,11.575000000000001
2316,-83,-46,12,11,48,-3,-17,-39,11.58
2317,-64,-25,29,-30,-30,-8,-1,-11,11.585
2318,32,-25,65,24,16,4,11,-1,11.59
2319,-49,-22,-79,57,6,8,-28,-1,11.595
2320,25,42,-57,-53,-19,-3,40,10,11.6
2321,103,34,36,-8,13,10,42,39,11.605
2322,-71,-39,17,21,-9,-25,-77,-7,11.61
2323,26,-61,-50,23,6,3,31,-5,11.615
2324,15,71,-106,-34,8,16,25,10,11.620000000000001
2325,36,16,-2,75,6,-16,-33,6,11.625
2326,-8,90,-35,-62,-25,-20,-12,21,11.63
2327,-102,-95,-89,43,40,14,-24,-14,11.635
2328,28,-39,-99,-43,-24,-9,8,-22,11.64
2329,0,73,-84,34,23,14,-9,0,11.645
2330,10,-28,-94,-24,-26,-19,7,-44,11.65
2331,28,-6,-84,-40,-4,-17,-15,15,11.655
2332,-59,-10,27,43,3,-7,-19,-15,11.66
2333,63,66,42,3,-25,5,21,50,11.665000000000001
2334,-16,44,85,-61,32,23,32,15,11.67
2335,-34,-102,107,41,-31,-28,-18,-55,11.675
2336,22,4,82,-8,10,16,2,18,11.68
2337,-35,62,59,56,11,-5,16,-2,11.685
2338,36,-37,41,-32,31,32,-9,-24,11.69
2339,-6,-16,59,-52,-30,-28,-27,15,11.695
2340,15,119,65,-22,0,4,31,-21,11.700000000000001
2341,-67,-99,13,-59,-4,-2,-23,-4,11.705
2342,8,95,5,103,36,5,-12,17,11.71
2343,34,-101,30,56,3,14,43,9,11.715
2344,27,16,27,25,-23,-22,-40,-6,11.72
2345,-36,35,-9,36,17,20,24,2,11.725
2346,9,2,-10,-48,-16,7,11,21,11.73
2347,59,74,19,-34,4,-15,-19,-30,11.735
2348,-43,12,8,59,24,24,25,50,11.74
2349,-13,-11,-11,-25,-5,-3,20,-16,11.745000000000001
2350,-45,34,3,14,-5,-10,-11,31,11.75
2351,2,94,9,12,-13,-16,-19,-51,11.755
2352,43,-57,3,13,22,19,-5,28,11.76
2353,33,-62,-7,-13,-3,-8,2,-11,11.765
2354,-7,-88,-2,-7,-3,0,-5,-26,11.77
2355,-32,47,3,33,7,18,22,-1,11.775
2356,-20,-20,0,-70,-17,-19,-30,20,11.78
2357,3,-25,-3,37,-2,-10,-21,-36,11.785
2358,48,64,-4,27,-12,-18,-1,14,11.790000000000001
2359,-33,-58,2,-6,12,11,10,0,11.795
2360,45,24,6,32,7,23,52,10,11.8
2361,-99,33,-4,-70,-26,-31,-59,-20,11.805
2362,-29,-77,-4,17,3,18,8,-47,11.81
2363,19,59,2,-26,-27,-33,-23,20,11.815
2364,-22,-20,3,54,8,4,-7,-32,11.82
2365,84,3,-4,73,9,23,35,22,11.825000000000001
2366,-72,-31,-4,-65,3,-27,-27,3,11.83
2367,13,-89,3,-45,-13,19,14,-9,11.835
2368,-11,16,0,13,3,-3,6,12,11.84
2369,26,14,-4,-15,-4,-3,-11,-2,11.845
2370,35,22,0,0,11,28,3,97,11.85
2371,41,-28,1,32,7,-21,23,-18,11.855
2372,-27,61,-1,-10,-15,-14,-15,-67,11.86
2373,-37,11,-2,17,9,8,-11,-10,11.865
2374,46,-32,0,-54,-15,-28,-20,-8,11.870000000000001
2375,-23,20,0,-10,1,17,19,-12,11.875
2376,84,23,0,39,15,13,32,67,11.88
2377,-43,-6,-1,-36,8,5,-3,12,11.885
2378,-38,-53,-2,11,-11,-1,-10,-43,11.89
2379,39,14,0,69,10,4,24,40,11.895
2380,71,32,1,9,27,18,-11,-4,11.9
2381,-21,-16,-2,-88,-34,-18,-25,-17,11.905
2382,-2,-28,-1,34,11,8,29,11,11.91
2383,-3,-41,0,-84,-21,-21,3,7,11.915000000000001
2384,26,6,0,-26,1,-10,-23,1,11.92
2385,11,19,-1,57,11,5,28,8,11.925
2386,51,73,-1,-5,2,6,-15,62,11.93
2387,-91,15,15,29,-2,-2,-38,-90,11.935
2388,8,-81,-4,-41,13,15,31,55,11.94
2389,-25,-16,12,-37,-9,-15,-35,-42,11.945
2390,-30,-11,34,33,-10,0,38,35,11.950000000000001
2391,41,67,-17,7,12,23,-1,-13,11.955
2392,-40,35,48,-21,-14,-32,-10,35,11.96
2393,-35,-62,-3,-5,-2,-6,-15,-24,11.965
2394,13,10,-7,-14,12,25,37,3,11.97
2395,-22,-63,2,8,-10,-6,-2,13,11.975
2396,-15,-27,1,-24,-15,-15,-32,-28,11.98
2397,116,87,-17,33,14,16,27,29,11.985
2398,-66,-47,11,39,8,-2,13,1,11.99
2399,-15,-28,-13,-16,19,15,-9,-21,11.995000000000001
2400,-26,92,0,-8,-34,-11,-12,-10,12.0
2401,3,-94,-8,35,20,14,14,34,12.005
2402,46,0,-6,-45,-14,-18,-4,-38,12.01
2403,-31,-32,-23,15,9,-6,-9,14,12.015
2404,3,-60,-30,21,14,21,39,17,12.02
2405,-11,75,-6,12,-19,-18,-25,-30,12.025
2406,39,101,-29,-10,11,15,9,17,12.030000000000001
2407,-34,-23,19,13,-4,-15,-17,-16,12.035
2408,-26,-11,-7,-3,0,5,-8,-59,12.040000000000001
2409,-10,-14,-24,-30,-1,13,19,17,12.045
2410,8,40,-48,-13,-7,-2,-8,14,12.05
2411,85,83,22,34,-4,0,31,85,12.055
2412,16,43,-26,-32,-14,-7,-15,2,12.06
2413,-38,-67,5,-90,5,11,5,-44,12.065
2414,39,25,9,101,-16,1,3,-29,12.07
2415,-66,-104,-14,-94,-4,-10,-20,20,12.075000000000001
2416,61,-27,35,42,17,4,-6,-23,12.08
2417,-59,-1,-6,-17,-18,0,4,-2,12.085
2418,6,-6,-4,-16,-3,-7,6,-7,12.09
2419,-13,44,-19,26,2,-9,-14,10,12.095
2420,1,5,-5,-15,1,8,27,33,12.1
2421,95,71,16,37,16,11,11,54,12.105
2422,-46,-109,17,1,-13,-17,-35,-37,12.11
2423,43,-1,0,-41,-20,-18,-8,-13,12.115
2424,-28,71,-21,10,8,18,2,3,12.120000000000001
2425,-19,-40,27,26,-14,-30,-18,3,12.125
2426,7,-54,-21,11,19,2,-12,-17,12.13
2427,-23,7,-3,-23,-18,-13,-36,-14,12.135
2428,-40,-72,-33,-17,0,6,56,43,12.14
2429,75,107,35,38,12,21,16,116,12.145
2430,-60,-80,-13,-72,-34,-34,-46,-113,12.15
2431,-12,23,6,28,17,22,2,4,12.155000000000001
2432,-17,-4,-10,-12,-15,-14,-23,-34,12.16
2433,-8,30,12,13,8,6,2,-12,12.165000000000001
2434,89,66,26,51,13,9,34,80,12.17
2435,56,61,30,-11,18,12,1,-61,12.175
2436,-46,-109,-28,15,-24,-6,-14,18,12.18
2437,-75,-81,6,-71,3,-33,-29,-125,12.185
2438,26,30,0,25,2,2,-2,-11,12.19
2439,19,68,20,-2,3,6,-9,16,12.195
2440,8,-18,20,45,4,4,-18,16,12.200000000000001
2441,-12,-31,4,-16,-26,-10,25,28,12.205
2442,14,34,-25,-32,15,13,2,-39,12.21
2443,19,-11,8,30,-6,-9,-9,23,12.215
2444,-30,81,7,-54,-8,-13,-6,-42,12.22
2445,51,-54,-11,24,-1,7,0,17,12.225
2446,16,83,23,-17,-5,-3,16,39,12.23
2447,-14,65,7,21,16,13,16,5,12.235
2448,-66,-83,44,14,15,11,-17,-9,12.24
2449,-17,-12,10,-10,-4,2,13,-28,12.245000000000001
2450,30,35,36,26,13,-1,8,26,12.25
2451,28,53,-53,-21,-21,6,4,-22,12.255
2452,-40,-13,13,44,18,-17,-10,-2,12.26
2453,-27,-51,-12,2,-6,-6,-17,-29,12.265
2454,-6,-46,-7,-30,-5,3,0,13,12.27
2455,41,66,-9,47,11,25,39,37,12.275
2456,11,-63,5,-22,-12,-22,-3,14,12.280000000000001
2457,24,-24,-10,1,-8,-7,-29,61,12.285
2458,-55,-10,-12,16,-2,-2,-32,-33,12.290000000000001
2459,1,-19,-10,-16,13,25,35,10,12.295
2460,21,40,1,-19,-10,-17,35,-8,12.3
2461,25,20,9,31,6,7,7,66,12.305
2462,-11,-16,22,-20,-9,-8,-11,-79,12.31
2463,-50,-102,18,-46,-14,-16,-48,-27,12.315
2464,36,13,6,6,19,22,13,45,12.32
2465,-21,20,-7,-9,-11,-11,-5,-58,12.325000000000001
2466,7,-2,-2,-38,-15,-9,-7,23,12.33
2467,-14,-12,1,49,13,-1,9,-16,12.335
2468,-12,7,27,36,-28,-2,-17,-32,12.34
2469,31,36,-23,-24,43,8,33,46,12.345
2470,-25,-42,-9,-5,-12,-8,-11,-18,12.35
2471,-22,-10,-51,-24,-12,-6,4,5,12.355
2472,55,25,16,20,10,11,-61,5,12.36
2473,-34,67,-7,-12,0,-2,8,-33,12.365
2474,-27,-36,-20,-9,-3,-6,61,9,12.370000000000001
2475,34,8,1,5,7,10,49,5,12.375
2476,-2,97,-7,20,14,15,-16,51,12.38
2477,-35,-111,-20,-4,-15,-3,1,-67,12.385
2478,6,79,-3,-2,8,-3,-72,-4,12.39
2479,17,14,11,57,-1,-4,12,21,12.395
2480,45,104,-25,-18,11,4,-12,17,12.4
2481,4,-35,-16,-14,-19,-3,25,2,12.405000000000001
2482,-7,-31,11,21,-14,5,4,25,12.41
2483,-21,-39,-11,-39,29,-2,-10,-8,12.415000000000001
2484,-18,-64,-33,-33,-23,-18,-26,-37,12.42
2485,-11,6,6,33,7,4,9,6,12.425
2486,32,2,-7,13,5,-2,-8,8,12.43
2487,-18,-2,24,2,-8,2,13,-19,12.435
2488,16,-9,12,-30,-7,-13,11,24,12.44
2489,7,7,-5,-3,8,4,-10,0,12.445
2490,-7,3,3,2,-4,-7,8,-7,12.450000000000001
2491,-4,-15,-17,-5,-4,-3,-50,-9,12.455
2492,-31,1,-3,-26,-11,0,19,-44,12.46
2493,4,-6,5,21,-7,1,40,12,12.465
2494,-1,39,6,-7,9,-12,22,25,12.47
2495,15,28,7,22,2,-5,9,19,12.475
2496,12,-39,7,10,-1,5,11,-14,12.48
2497,-3,53,7,14,8,0,-34,4,12.485
2498,-3,-31,4,-1,8,16,-7,-3,12.49
2499,-16,-5,23,0,-16,-11,20,3,12.495000000000001
2500,7,0,18,-15,-1,-5,-17,-7,12.5
2501,13,1,14,-6,-2,5,-21,-3,12.505
2502,-10,-28,1,-4,1,-2,15,11,12.51
2503,1,-7,12,-11,0,5,-11,1,12.515
2504,-30,-11,8,13,5,-5,-8,-7,12.52
2505,-3,-5,9,12,0,2,-3,-17,12.525
2506,1,-20,-18,-37,-14,-9,17,5,12.530000000000001
2507,3,-9,60,-14,-3,-2,4,10,12.535
2508,-10,-14,52,3,2,1,16,-5,12.540000000000001
2509,-2,-11,40,1,-5,-4,-47,-6,12.545
2510,8,20,24,8,3,2,-31,-16,12.55
2511,-21,-3,9,-1,-2,-3,45,19,12.555
2512,18,24,4,-2,1,-5,-36,5,12.56
2513,1,33,0,9,0,2,-3,-5,12.565
2514,19,12,15,-3,7,7,-9,5,12.57
2515,-28,16,24,0,-3,-3,-14,-11,12.575000000000001
2516,-9,1,51,2,0,1,21,-10,12.58
2517,8,1,22,-6,-5,-7,1,6,12.585
2518,-7,-4,16,-4,0,1,13,-5,12.59
2519,7,-8,-55,-1,-4,-6,-20,0,12.595
2520,3,-7,-94,10,6,4,11,6,12.6
2521,6,3,-94,-6,0,0,4,-1,12.605
2522,-1,-1,-81,0,2,4,2,8,12.61
2523,4,-8,-56,-1,-3,-4,-15,-2,12.615
2524,-4,-9,2,-8,-5,-4,10,-6,12.620000000000001
2525,-4,-4,25,-6,-1,-3,3,2,12.625
2526,3,11,56,6,-3,-6,3,-1,12.63
2527,14,0,70,-4,-2,5,-13,3,12.635
2528,-11,-14,35,15,5,-5,4,-7,12.64
2529,8,11,2,-3,-4,-3,-11,-1,12.645
2530,-2,5,-19,-5,-1,2,11,4,12.65
2531,-4,-5,-24,1,1,-1,-4,-3,12.655000000000001
2532,-3,-13,-11,-11,-4,1,0,-5,12.66
2533,9,0,27,2,1,-2,16,7,12.665000000000001
2534,2,11,4,13,1,0,-40,-4,12.67
2535,-6,-6,10,-12,-2,-1,13,-3,12.675
2536,-4,10,-27,-1,-4,-3,10,0,12.68
2537,-7,-11,40,0,-4,-5,-1,0,12.685
2538,-2,-16,2,-8,-1,2,6,2,12.69
2539,-1,-1,14,8,2,0,-4,0,12.695
2540,-3,-2,74,0,-2,0,-7,-5,12.700000000000001
2541,1,2,87,3,1,0,-10,2,12.705
2542,-4,-4,123,-4,0,-2,9,1,12.71
2543,3,-17,108,1,0,-4,-11,0,12.715
2544,-5,-20,-6,4,-2,1,7,0,12.72
2545,1,10,-61,-5,-2,1,4,-3,12.725
2546,0,-6,-76,3,1,1,2,0,12.73
2547,1,-1,-92,0,1,0,6,2,12.735
2548,0,6,-70,-3,-2,-4,1,-2,12.74
2549,0,0,-64,-4,-1,2,-4,-1,12.745000000000001
2550,-4,-8,-57,-6,-3,-3,-1,-2,12.75
2551,-2,1,-50,-1,-1,-3,-8,-2,12.755
2552,-1,-1,-31,-3,-2,0,3,1,12.76
2553,0,2,-32,2,1,-1,-2,1,12.765
2554,2,5,-21,-1,-2,0,3,0,12.77
2555,-3,-4,-18,-3,-1,-3,-6,-3,12.775
2556,-1,4,-11,-2,-3,-2,-3,-3,12.780000000000001
2557,-1,-5,-13,-2,0,-2,1,1,12.785
2558,-4,0,-5,0,-2,0,1,1,12.790000000000001
2559,0,5,-5,0,-3,-1,-6,0,12.795
2560,-1,-5,-5,-1,-1,0,7,1,12.8
2561,2,-3,-5,1,0,-1,1,0,12.805
2562,-3,-11,0,9,2,1,10,0,12.81
2563,1,5,-5,-7,0,-2,-31,-2,12.815
2564,-5,-11,-2,-3,-4,-2,11,-1,12.82
2565,-2,-2,-2,-3,1,1,3,1,12.825000000000001
2566,1,-2,-1,0,-2,-1,11,1,12.83
2567,1,-2,-4,2,-1,-4,-12,0,12.835
2568,0,6,0,-1,-1,-1,11,1,12.84
2569,1,14,-1,9,1,2,7,1,12.845
2570,-3,-9,-1,-2,-2,1,-13,-3,12.85
2571,-4,-10,-2,-2,-1,3,16,0,12.855
2572,-5,-13,0,-2,1,-3,-21,-2,12.86
2573,-3,-4,-2,-1,1,0,-1,1,12.865
2574,3,4,-1,-4,0,-4,-4,-2,12.870000000000001
2575,1,5,-1,0,-1,2,3,-1,12.875
2576,2,4,-1,0,0,1,5,1,12.88
2577,3,20,-2,-3,-2,-3,0,-1,12.885
2578,-2,0,0,-2,0,-2,-3,-1,12.89
2579,-2,0,-1,-1,0,-2,-11,-4,12.895
2580,3,28,-1,2,-2,2,-11,0,12.9
2581,-1,-6,-1,-1,-1,0,26,0,12.905000000000001
2582,2,18,-17,-4,-2,-7,-8,-1,12.91
2583,-1,-14,-63,-1,1,0,-25,1,12.915000000000001
2584,-2,-2,-64,-2,-1,4,40,-6,12.92
2585,-2,-9,-52,-1,-2,-4,-6,1,12.925
2586,-1,9,-45,1,-1,-1,0,0,12.93
2587,-1,-3,-16,3,1,-2,-3,-1,12.935
2588,2,-1,-14,-3,-3,-1,-12,-1,12.94
2589,-3,-13,-18,-4,-4,-2,-3,-1,12.945
2590,-3,-9,-22,-4,1,1,10,-4,12.950000000000001
2591,3,4,12,0,1,0,-4,-1,12.955
2592,-2,-14,16,-2,0,-3,-12,1,12.96
2593,1,2,15,-1,-1,-3,-1,-3,12.965
2594,-1,-3,8,-1,-4,0,-4,1,12.97
2595,0,5,14,1,-2,0,14,1,12.975
2596,-1,5,12,-2,1,-3,-8,-1,12.98
2597,-6,6,-5,-7,-2,0,1,-2,12.985
2598,1,-6,-1,5,2,-3,-19,-3,12.99
2599,-1,1,19,-5,0,0,-15,0,12.995000000000001
2600,-4,18,8,11,-3,-3,18,-2,13.0
2601,6,-3,8,4,0,-3,13,6,13.005
2602,-1,-1,-16,-7,-5,-1,-7,-2,13.01
2603,2,14,38,-4,-5,-4,44,1,13.015
2604,1,-5,17,-8,1,0,-16,0,13.02
2605,0,-1,19,4,3,2,-13,-5,13.025
2606,1,9,25,1,1,2,6,1,13.030000000000001
2607,1,-1,9,4,1,-3,-17,-5,13.035
2608,5,21,16,-3,-1,-3,-4,1,13.040000000000001
2609,-6,-29,-37,-7,-4,-5,-6,-2,13.045
2610,4,-1,11,10,4,6,27,4,13.05
2611,-5,1,-15,1,-5,-4,-2,-5,13.055
2612,-2,-14,-22,-17,-2,0,-4,-1,13.06
2613,6,-13,22,0,2,0,12,7,13.065
2614,-3,20,29,3,-2,-1,33,-5,13.07
2615,-10,-31,-2,-11,-3,-5,-6,-5,13.075000000000001
2616,2,-11,22,4,-2,-2,-5,3,13.08
2617,-1,-2,7,1,-1,-1,-24,-4,13.085
2618,-3,-4,8,0,1,2,-14,-2,13.09
2619,3,14,17,10,3,3,19,5,13.095
2620,-3,-9,5,2,0,-5,-33,-3,13.1
2621,0,12,20,-17,-1,5,15,-2,13.105
2622,-2,-8,-15,-1,-8,-8,-7,-1,13.11
2623,4,8,23,-5,1,-2,-16,-4,13.115
2624,0,-12,31,-5,-2,0,10,0,13.120000000000001
2625,-3,2,3,10,-3,1,-1,-4,13.125
2626,3,1,6,-3,5,2,-7,0,13.13
2627,3,2,-11,1,-1,2,11,3,13.135
2628,-4,1,-32,0,-5,-8,-6,-4,13.14
2629,0,1,-15,-12,0,0,-1,0,13.145
2630,-2,-8,-5,-5,-2,0,4,0,13.15
2631,1,-9,-3,-2,1,0,-8,1,13.155000000000001
2632,1,-4,11,12,4,4,12,2,13.16
2633,-2,29,-4,4,-2,-2,-11,-5,13.165000000000001
2634,2,7,-10,-9,-4,-4,-15,-2,13.17
2635,-3,-17,-6,4,1,3,26,4,13.175
2636,-4,2,-1,0,-2,1,0,-5,13.18
2637,-2,-20,-4,-1,0,1,1,1,13.185
2638,-5,-23,-5,-3,-3,2,-12,-1,13.19
2639,-1,0,-1,2,-2,-4,-1,-5,13.195
2640,-2,-3,-4,-11,1,0,-8,-4,13.200000000000001
2641,-2,2,0,3,-1,-6,-16,-2,13.205
2642,-2,4,5,3,2,-3,-23,-2,13.21
2643,-5,-12,-10,6,-3,0,23,-1,13.215
2644,-2,-3,-2,-16,-2,-3,-4,0,13.22
2645,-2,1,6,3,1,2,-3,0,13.225
2646,0,30,-5,0,0,-3,-9,-1,13.23
2647,1,4,2,-2,-2,-3,5,0,13.235
2648,1,-8,10,13,3,2,-4,1,13.24
2649,-3,-15,4,-4,1,-1,-9,-1,13.245000000000001
2650,1,-14,-14,-3,-2,-1,7,-2,13.25
2651,-6,-29,-3,-8,1,2,-2,0,13.255
2652,1,12,6,4,0,-1,0,2,13.26
2653,-4,-13,-1,0,-2,-2,5,-7,13.265
2654,-4,-16,9,12,3,0,-8,2,13.27
2655,0,8,11,-13,-2,-1,-10,-3,13.275
2656,-5,-19,-28,-10,-3,-5,-28,-2,13.280000000000001
2657,0,3,5,9,1,5,42,0,13.285
2658,-2,-6,4,-7,-4,-2,-6,-3,13.290000000000001
2659,-3,-1,0,-3,2,1,4,4,13.295
2660,-2,5,31,5,-4,-3,-1,-3,13.3
2661,-2,5,3,0,1,0,-12,-3,13.305
2662,2,-2,-13,-2,-3,-1,4,2,13.31
2663,2,3,-8,0,-2,0,-13,-2,13.315
2664,3,12,4,-6,2,-3,20,4,13.32
2665,-1,-1,4,5,-2,-2,-3,1,13.325000000000001
2666,3,5,13,8,2,0,12,0,13.33
2667,-4,3,-13,-8,0,1,-14,-5,13.335
2668,0,-4,1,13,2,-1,-4,0,13.34
2669,-4,-3,-6,-6,-1,-1,-3,-1,13.345
2670,-1,-5,-4,7,0,-1,-15,0,13.35
2671,-1,-6,1,-14,-3,-3,12,-1,13.355
2672,5,13,-1,1,-1,2,2,1,13.36
2673,0,4,-3,-2,0,-2,-1,2,13.365
2674,0,4,3,3,-1,1,-13,-1,13.370000000000001
2675,0,7,18,-1,-2,-2,13,-2,13.375
2676,-6,-16,-18,-3,0,1,8,-1,13.38
2677,3,3,0,-2,-3,-3,-8,1,13.385
2678,-1,-3,4,-6,1,0,8,0,13.39
2679,2,-4,-3,4,1,-2,-8,0,13.395
2680,0,24,20,13,0,1,1,-3,13.4
2681,-3,4,-28,-29,-6,-4,-18,-3,13.405000000000001
2682,-6,-10,-17,-2,-1,-1,31,-1,13.41
2683,0,4,8,-5,1,-2,-29,-3,13.415000000000001
2684,-5,-5,-10,3,-5,0,9,-1,13.42
2685,3,23,10,11,1,0,-4,0,13.425
2686,1,12,8,-6,-1,1,-1,-1,13.43
2687,6,2,11,7,0,0,6,1,13.435
2688,-1,-17,-1,-1,2,4,-4,0,13.44
2689,-3,-12,2,0,-3,-3,7,0,13.445
2690,-4,-1,-10,-6,-4,-2,-1,-1,13.450000000000001
2691,3,6,-4,-10,-4,-1,-2,2,13.455
2692,-2,-4,1,-3,-1,-2,-5,-2,13.46
2693,2,-3,4,2,1,2,2,0,13.465
2694,-1,-4,9,-2,2,1,-7,-4,13.47
2695,-3,-4,2,22,2,-2,-18,-3,13.475
2696,-4,0,-19,-19,-4,2,36,1,13.48
2697,-2,27,-12,-4,-2,-2,-3,-1,13.485
2698,0,-2,9,-4,-1,-2,5,0,13.49
2699,-2,0,-2,0,-1,-1,-17,-1,13.495000000000001
2700,0,-3,5,-2,-2,-1,-8,0,13.5
2701,3,-12,15,9,1,0,-9,-3,13.505
2702,-5,-7,10,4,0,-2,0,-2,13.51
2703,-4,-3,-44,-32,-8,-4,23,4,13.515
2704,-2,-8,-3,7,-2,-3,-20,-7,13.52
2705,-2,-12,-2,-15,-3,-2,-3,0,13.525
2706,4,14,13,2,-2,0,-6,-1,13.530000000000001
2707,-1,-1,9,16,1,2,2,-2,13.535
2708,-1,-9,-7,-9,-1,-2,8,1,13.540000000000001
2709,2,7,14,12,3,-1,-6,0,13.545
2710,-3,-16,-30,-10,1,2,6,0,13.55
2711,-7,-5,2,3,-3,-2,-7,-6,13.555
2712,3,3,10,3,-5,-5,-8,2,13.56
2713,0,-2,2,6,2,-3,-39,-1,13.565
2714,-6,-6,11,-4,-2,0,35,1,13.57
2715,-6,-8,7,-3,-3,-2,-1,-3,13.575000000000001
2716,-3,-11,-41,-8,-1,0,-3,-3,13.58
2717,-3,-2,-1,9,-2,3,6,1,13.585
2718,3,11,1,-8,1,-1,-8,-1,13.59
2719,-2,10,-1,4,2,1,10,2,13.595
2720,0,7,14,5,0,-4,-44,-6,13.6
2721,-2,-6,-19,-6,-1,3,47,0,13.605
2722,0,-5,-12,1,0,-1,-8,1,13.61
2723,1,-2,15,6,-2,-2,0,-4,13.615
2724,6,15,4,1,3,0,4,2,13.620000000000001
2725,-3,-7,-8,-5,-3,-2,-23,-5,13.625
2726,1,3,7,-11,-3,-2,-2,1,13.63
2727,-1,-6,-1,-5,-1,-1,-1,0,13.635
2728,2,-3,17,-4,3,3,-1,1,13.64
2729,-6,-10,1,23,0,3,12,-1,13.645
2730,-2,-13,-13,-7,-8,-7,-2,-2,13.65
2731,-1,-18,-16,2,0,-3,-14,2,13.655000000000001
2732,-7,-13,1,0,0,0,12,-1,13.66
2733,6,25,6,-13,0,-1,3,1,13.665000000000001
2734,1,6,21,7,2,1,-10,-2,13.67
2735,-1,5,-7,3,3,2,21,4,13.675
2736,3,3,-2,-8,2,-1,-30,-4,13.68
2737,-7,-13,-15,1,-9,-4,21,-5,13.685
2738,-2,-1,-4,-5,-2,-4,3,-2,13.69
2739,4,12,11,-3,0,-2,-8,-1,13.695
2740,1,5,2,2,0,-1,21,1,13.700000000000001
2741,3,14,5,-1,2,-2,-25,-4,13.705
2742,5,-5,8,2,3,3,-8,2,13.71
2743,-3,-4,5,12,2,0,17,0,13.715
2744,-5,-5,-24,-10,-9,-7,-3,-2,13.72
2745,-5,-21,-3,-10,-2,-2,-1,0,13.725
2746,-3,2,8,4,1,1,-15,-3,13.73
2747,0,2,11,-4,0,1,-10,0,13.735
2748,7,15,31,19,6,5,10,0,13.74
2749,-3,-27,-13,-15,-13,-8,7,1,13.745000000000001
2750,1,13,-8,-5,-1,-2,-8,-2,13.75
2751,0,5,1,1,-1,0,-8,-2,13.755
2752,1,-10,-1,-6,1,1,2,1,13.76
2753,1,-1,14,7,6,3,-4,-2,13.765
2754,-1,-4,9,9,1,-2,-6,-2,13.77
2755,-2,5,-7,0,1,3,9,3,13.775
2756,-4,-1,16,10,-3,-2,-5,-2,13.780000000000001
2757,1,-3,-20,-18,2,1,1,-1,13.785
2758,-4,-4,5,-1,-3,-2,1,0,13.790000000000001
2759,4,20,1,-4,0,-1,-6,-2,13.795
2760,1,10,25,-2,-1,-1,6,2,13.8
2761,-10,-14,-2,22,-6,-3,4,-5,13.805
2762,-2,-9,0,-18,-4,-1,-7,-4,13.81
2763,-1,-8,4,-3,-2,-4,2,-1,13.815
2764,5,22,-1,3,2,1,5,2,13.82
2765,5,10,8,-2,5,4,3,4,13.825000000000001
2766,0,1,8,2,-1,-4,-6,-1,13.83
2767,-2,-14,-5,1,-1,-3,2,-5,13.835
2768,0,10,-3,8,1,1,0,1,13.84
2769,0,3,-3,-3,-1,-4,-44,-3,13.845
2770,-1,-4,-23,4,-1,3,63,2,13.85
2771,-2,-8,5,-9,-2,-3,-14,-3,13.855
2772,-3,-9,-16,8,0,-1,-4,-1,13.86
2773,4,-7,-10,-12,-1,-1,-1,2,13.865
2774,6,-1,13,-2,0,-4,-28,-5,13.870000000000001
2775,-3,-11,-15,-12,-1,2,0,-2,13.875
2776,-2,-1,7,15,-3,0,32,3,13.88
2777,0,8,10,0,0,-2,-4,-1,13.885
2778,3,0,-14,-2,-2,0,-4,1,13.89
2779,2,8,-8,-2,1,0,0,-1,13.895
2780,1,-2,2,3,1,-1,-11,-2,13.9
2781,0,17,3,-20,-3,-2,-1,-2,13.905000000000001
2782,-1,-7,-32,-16,-4,-2,1,0,13.91
2783,-4,-14,10,19,-3,0,-2,-2,13.915000000000001
2784,-6,-3,-32,-14,-4,-2,-2,-2,13.92
2785,2,4,19,13,4,2,2,0,13.925
2786,-2,-1,-8,-4,4,0,-21,1,13.93
2787,-4,-2,-5,9,-8,-5,25,-4,13.935
2788,-1,-8,-4,-13,0,0,2,-1,13.94
2789,7,1,-1,6,2,2,8,3,13.945
2790,-1,6,16,1,-1,-1,-3,2,13.950000000000001
2791,4,3,-6,0,1,1,-20,-1,13.955
2792,2,11,4,-2,-1,-1,-3,-2,13.96
2793,-2,-7,-8,6,1,0,11,0,13.965
2794,0,-4,5,-3,1,4,-9,-7,13.97
2795,-4,7,5,-8,-3,-6,-1,2,13.975
2796,-1,-6,-17,-7,-2,-1,1,-2,13.98
2797,-2,-20,11,1,0,-1,0,1,13.985
2798,-1,-4,-10,5,0,1,5,0,13.99
2799,2,8,-2,-1,1,1,1,-1,13.995000000000001
2800,-7,-12,3,-5,0,-2,-10,-3,14.0
2801,-1,16,-7,3,-1,-2,1,0,14.005
2802,-2,-1,11,6,-1,0,6,0,14.01
2803,0,3,-2,-4,1,2,-1,1,14.015
2804,-1,-14,8,3,-3,-2,-8,-2,14.02
2805,-5,-8,-20,-15,-3,-2,5,-4,14.025
2806,0,8,18,12,0,-1,8,2,14.030000000000001
2807,2,5,16,-7,5,5,-2,3,14.035
2808,0,-6,21,7,-3,-1,0,-1,14.040000000000001
2809,0,15,-23,-7,-4,0,-12,-5,14.045
2810,-1,4,7,1,2,-1,5,0,14.05
2811,1,-4,0,1,-3,-2,-22,-2,14.055
2812,0,-4,-16,-3,4,4,10,2,14.06
2813,-4,1,15,4,-3,-3,-22,-1,14.065
2814,-4,-1,-2,4,-3,-1,14,-4,14.07
2815,7,4,1,-1,-1,-2,0,4,14.075000000000001
2816,2,-4,-8,-6,0,0,-2,-2,14.08
2817,-2,9,6,7,-2,0,-4,0,14.085
2818,-1,0,2,-16,1,0,2,0,14.09
2819,-4,7,-9,5,0,1,1,-4,14.095
2820,-5,-15,0,14,-4,-2,0,-1,14.1
2821,5,19,5,1,3,2,8,1,14.105
2822,5,32,15,1,0,-1,-5,0,14.11
2823,-1,5,7,2,1,1,17,1,14.115
2824,0,17,-20,-15,0,0,-16,-4,14.120000000000001
2825,-3,-15,7,6,1,2,4,-1,14.125
2826,3,11,-13,1,-4,-3,-10,-2,14.13
2827,-3,1,-2,0,-5,-4,5,-2,14.135
2828,0,1,-1,-4,-2,-2,15,0,14.14
2829,0,0,6,-3,0,-2,-33,-6,14.145
2830,-2,-17,-3,-4,2,0,27,3,14.15
2831,-1,-8,-2,-3,-4,-1,-19,-5,14.155000000000001
2832,1,-1,7,4,0,-5,-21,-1,14.16
2833,-1,-4,-5,-10,1,3,28,1,14.165000000000001
2834,-2,-10,12,0,-4,-2,-14,-2,14.17
2835,-2,-1,-11,3,2,2,6,2,14.175
2836,-1,0,8,-1,-2,0,-8,0,14.18
2837,-6,-27,-48,-18,-6,-2,10,-3,14.185
2838,-4,-4,18,7,0,-1,-11,-2,14.19
2839,4,2,-4,-3,-3,-4,1,1,14.195
2840,2,30,5,-8,0,2,0,1,14.200000000000001
2841,4,5,17,7,0,-3,6,2,14.205
2842,-1,-4,-3,-9,0,2,0,0,14.21
2843,-1,8,-2,19,-4,-4,-6,-2,14.215
2844,-3,-14,-9,-7,-1,0,-6,-4,14.22
2845,2,7,25,-4,-1,-1,24,2,14.225
2846,-1,-12,-4,1,2,1,-13,-1,14.23
2847,1,3,0,-19,-1,-2,0,-1,14.235
2848,0,-2,6,11,-1,-2,8,0,14.24
2849,-3,-1,-1,10,2,-2,-10,0,14.245000000000001
2850,0,2,5,5,1,-1,10,0,14.25
2851,0,-6,-18,-17,0,-2,-27,-3,14.255
2852,-5,-14,-17,-14,-3,1,44,4,14.26
2853,-1,2,11,2,0,2,-24,-6,14.265
2854,0,-13,-12,-4,0,-2,-5,3,14.27
2855,1,11,-10,7,-1,0,-2,-1,14.275
2856,0,6,-3,-4,-4,-3,-9,-2,14.280000000000001
2857,-1,-9,15,-2,-2,-1,-5,0,14.285
2858,-2,-2,2,8,-1,0,12,-2,14.290000000000001
2859,-5,-14,-13,-7,-1,2,1,1,14.295
2860,-1,-2,9,2,2,-2,4,0,14.3
2861,0,31,5,7,-1,0,-8,-1,14.305
2862,-2,-7,-19,-12,-7,-7,-15,-2,14.31
2863,-1,-5,5,-5,-4,-1,10,0,14.315
2864,-1,-8,-5,1,0,0,-8,-4,14.32
2865,-5,-21,1,-1,0,0,-1,0,14.325000000000001
2866,0,5,-2,2,0,1,1,0,14.33
2867,0,8,9,5,1,-2,0,-2,14.335
2868,2,0,3,1,0,2,1,2,14.34
2869,2,-5,-2,-6,2,2,3,0,14.345
2870,-4,-13,14,2,-1,0,3,2,14.35
2871,-3,-21,-11,7,1,0,1,-3,14.355
2872,-3,-14,-24,-22,-2,-4,-7,-1,14.36
2873,3,3,-2,-6,1,0,9,2,14.365
2874,-1,8,6,10,-4,-1,-8,-3,14.370000000000001
2875,-3,-12,22,-2,3,2,15,3,14.375
2876,-1,1,7,13,-1,-1,-2,0,14.38
2877,0,-9,-9,-3,0,-1,2,-1,14.385
2878,1,1,-2,-6,-1,-2,-8,0,14.39
2879,-2,6,-14,3,-1,-3,-3,-3,14.395
2880,-1,-16,6,2,0,2,9,2,14.4
2881,-6,-24,-6,-1,-3,-2,-7,-4,14.405000000000001
2882,-5,7,10,10,0,-4,-33,-6,14.41
2883,-2,-4,-14,-22,-3,1,18,-1,14.415000000000001
2884,6,4,-8,3,-2,-2,-1,1,14.42
2885,-1,-10,10,9,0,-3,2,-2,14.425
2886,0,0,-22,0,1,1,5,2,14.43
2887,-2,-12,11,-7,0,-1,-6,-3,14.435
2888,-6,-12,6,-2,2,0,-9,-3,14.44
2889,1,0,-5,1,0,-1,3,1,14.445
2890,1,10,12,3,-2,0,4,-1,14.450000000000001
2891,4,10,7,10,3,-3,-4,1,14.455
2892,-3,-6,-11,-17,-3,2,-9,-4,14.46
2893,-2,7,10,8,0,2,22,7,14.465
2894,-1,8,-10,1,-3,-4,2,-1,14.47
2895,-1,-4,-5,-1,-2,1,5,3,14.475
2896,-2,3,10,-7,-1,-3,-12,-2,14.48
2897,-1,4,-3,-4,-2,0,-3,-3,14.485
2898,2,-10,-3,-8,1,2,2,1,14.49
2899,-2,-26,0,6,-2,-3,-4,0,14.495000000000001
2900,2,19,6,6,0,-1,-1,-2,14.5
2901,3,3,-1,1,-2,-2,-2,0,14.505
2902,-1,-14,23,-1,4,4,7,1,14.51
2903,1,8,-17,8,-6,-5,-2,-1,14.515
2904,-4,-4,-17,-8,-4,-5,-1,-4,14.52
2905,3,4,4,-1,0,0,-8,-1,14.525
2906,1,4,-1,-10,-2,-3,4,-4,14.530000000000001
2907,-1,1,1,-10,2,2,-3,-1,14.535
2908,0,3,11,4,0,-1,0,1,14.540000000000001
2909,-2,5,-2,6,1,0,1,0,14.545
2910,2,8,4,1,-1,1,-3,0,14.55
2911,0,2,2,-5,-3,0,2,0,14.555
2912,1,7,-6,0,0,-2,1,-2,14.56
2913,-2,-5,0,-7,-2,-2,-7,-4,14.565
2914,-2,10,-2,-2,-3,-1,-16,1,14.57
2915,3,-1,19,12,1,-3,17,1,14.575000000000001
2916,-4,2,-15,-18,-1,0,-1,-1,14.58
2917,-2,-10,-20,-3,-2,-2,-2,-3,14.585
2918,-1,-4,-2,-9,-2,0,1,0,14.59
2919,0,3,8,5,0,-1,-8,-2,14.595
2920,2,8,16,10,3,0,-3,-1,14.6
2921,0,4,-3,-1,-3,-2,3,0,14.605
2922,-3,-3,-9,3,-2,-3,4,-2,14.61
2923,0,2,1,-1,-1,-1,-6,-3,14.615
2924,1,1,10,8,3,2,11,2,14.620000000000001
2925,-4,-3,-25,-7,-4,-3,2,-2,14.625
2926,-3,-11,-14,-3,-2,0,-4,-7,14.63
2927,2,-7,7,2,2,2,-4,5,14.635
2928,-5,-18,-20,-18,-6,-4,-10,-2,14.64
2929,-1,36,14,15,-2,-2,6,1,14.645
2930,-6,-10,-9,-5,0,-1,5,-1,14.65
2931,-1,7,4,-1,-1,1,-1,-4,14.655000000000001
2932,2,7,8,0,2,0,-1,0,14.66
2933,0,-12,-7,0,2,-1,-5,-2,14.665000000000001
2934,0,-1,-3,2,-3,0,5,0,14.67
2935,-1,8,-9,-5,2,-1,-3,-3,14.675
2936,-1,-5,1,9,-2,0,1,2,14.68
2937,-1,-5,5,1,1,0,0,-1,14.685
2938,-2,-23,-2,-7,-3,-2,-2,-2,14.69
2939,-7,-23,-4,4,2,1,-1,0,14.695
2940,-1,4,-11,4,2,1,1,-2,14.700000000000001
2941,-4,-13,-10,-4,-1,-2,-5,-1,14.705
2942,-1,5,-9,-5,-3,-2,2,0,14.71
2943,0,7,-6,-3,-3,-3,-4,-1,14.715
2944,2,-4,13,4,-1,0,0,0,14.72
2945,-1,-2,7,7,0,1,-1,0,14.725
2946,3,8,3,-2,3,2,3,1,14.73
2947,-3,3,4,-6,-4,-3,-5,-3,14.735
2948,10,37,-6,-1,-1,0,0,1,14.74
2949,-1,-3,2,-4,3,1,1,1,14.745000000000001
2950,0,6,2,3,0,1,4,3,14.75
2951,-1,4,-8,-1,-2,0,3,0,14.755
2952,-2,-11,-20,-5,-3,-2,-16,-2,14.76
2953,0,-2,0,-2,-2,-2,6,-1,14.765
2954,0,5,16,5,1,1,-5,0,14.77
2955,3,10,1,9,0,1,13,0,14.775
2956,-3,-6,5,-11,-1,-1,7,1,14.780000000000001
2957,1,4,-4,-4,0,-1,-6,0,14.785
2958,-2,-12,-7,-1,-3,-2,-3,-1,14.790000000000001
2959,-4,-45,-8,-17,-5,-3,0,-2,14.795
2960,-2,-6,-9,6,-2,-1,-7,-3,14.8
2961,2,0,21,-4,0,-1,7,2,14.805
2962,3,9,5,7,2,0,0,0,14.81
2963,-1,3,-4,2,1,-3,-8,-1,14.815
2964,-2,-4,16,1,0,1,-7,-2,14.82
2965,-2,-8,-9,6,-3,0,-4,-1,14.825000000000001
2966,1,-3,-4,-11,-3,-4,-1,-3,14.83
2967,0,14,3,-9,0,1,6,2,14.835
2968,-7,-18,10,17,-2,-3,5,-3,14.84
2969,-3,-14,-14,-5,1,3,-2,-2,14.845
2970,-1,2,6,5,1,1,1,0,14.85
2971,0,7,8,1,-2,2,-7,-2,14.855
2972,2,12,27,-5,2,2,3,1,14.86
2973,-4,-5,-28,-5,-8,-6,-27,-8,14.865
2974,-2,-1,6,9,-3,-4,17,0,14.870000000000001
2975,4,0,4,-19,0,0,0,0,14.875
2976,-2,1,1,25,0,-4,3,-1,14.88
2977,4,0,-4,3,2,2,-2,0,14.885
2978,-1,-5,-11,-14,0,0,-4,-1,14.89
2979,-1,-8,14,9,-1,2,2,-1,14.895
2980,2,-8,-4,2,-1,1,-3,-1,14.9
2981,-2,-6,9,-21,0,-1,1,-1,14.905000000000001
2982,-3,-5,-1,9,-1,-2,-5,-1,14.91
2983,-3,-9,-9,-6,-2,-4,0,-1,14.915000000000001
2984,2,5,-4,-7,-2,-3,-10,-4,14.92
2985,-1,3,2,10,-3,-3,2,2,14.925
2986,0,-5,-3,-7,2,2,0,-1,14.93
2987,-2,10,12,9,4,2,15,5,14.935
2988,-7,-6,-11,-3,-4,-2,-6,-6,14.94
2989,9,6,12,1,0,-1,-2,3,14.945
2990,1,4,-16,-11,-2,-1,-8,-3,14.950000000000001
2991,-1,-1,-8,0,-3,-4,-11,-2,14.955
2992,2,6,-1,6,4,3,37,4,14.96
2993,-4,-9,27,-9,1,1,4,-1,14.965
2994,0,4,-3,20,-4,-1,3,0,14.97
2995,-1,2,-6,-4,-2,-3,-17,-7,14.975
2996,-1,-5,-14,-13,-1,-1,-15,1,14.98
2997,0,8,0,5,0,2,-1,-1,14.985
2998,-2,-3,3,5,-1,1,25,1,14.99
2999,-1,1,-6,-5,-1,0,-13,-4,14.995000000000001
3000,5,20,14,4,0,-1,-27,1,15.0
3001,-3,7,-26,-10,-4,-4,12,-2,15.005
3002,-1,-1,5,-8,-1,-2,-8,-2,15.01
3003,1,11,-5,7,0,3,9,3,15.015
3004,2,0,4,-7,-1,-1,-6,-1,15.02
3005,1,5,25,8,1,1,-5,-2,15.025
3006,-9,-5,-4,7,-1,-5,-1,-2,15.030000000000001
3007,-1,-17,-5,-11,-3,-4,4,1,15.035
3008,-1,2,4,12,1,1,5,0,15.040000000000001
3009,-2,-2,-11,-15,-1,-1,-1,0,15.045
3010,1,5,20,1,2,-1,-3,-1,15.05
3011,0,1,-6,5,0,0,-4,-5,15.055
3012,-5,-10,-31,-3,0,0,3,2,15.06
3013,2,7,7,0,-1,0,9,0,15.065
3014,-3,-10,-16,-11,-5,-2,-15,-5,15.07
3015,-4,2,-4,1,-1,-9,-46,-7,15.075000000000001
3016,10,23,-3,-9,-3,1,27,0,15.08
3017,-2,-14,5,13,2,-2,-7,3,15.085
3018,1,12,-3,2,3,1,-6,-2,15.09
3019,-2,-8,0,-4,-1,2,11,0,15.095
3020,-7,-15,5,8,-2,-3,-4,-2,15.1
3021,-2,-10,5,-5,-2,-1,-2,-2,15.105
3022,1,-5,0,-2,1,-2,-4,0,15.11
3023,3,11,3,-15,-2,0,-3,0,15.115
3024,-4,-17,-12,-5,-1,-2,2,1,15.120000000000001
3025,2,35,9,7,-2,0,1,-1,15.125
3026,-2,-19,3,-2,1,4,0,3,15.13
3027,-1,-2,-7,6,3,1,10,2,15.135
3028,-4,-6,3,-10,-4,-1,10,2,15.14
3029,-1,4,0,0,0,-3,-9,-3,15.145
3030,-1,1,6,3,1,0,-14,-3,15.15
3031,-3,-8,-1,2,1,-1,3,3,15.155000000000001
3032,-3,-1,5,8,-1,0,4,-7,15.16
3033,-2,6,6,10,-1,-1,-13,-1,15.165000000000001
3034,-1,-36,-16,-26,-5,-1,8,1,15.17
3035,-5,-18,-17,-5,-3,0,3,-1,15.175
3036,-8,-16,1,3,-2,-2,0,2,15.18
3037,-2,-17,-5,1,3,6,7,-2,15.185
3038,1,5,6,6,2,-2,-5,-3,15.19
3039,3,13,16,10,2,0,-25,1,15.195
3040,-3,1,-28,-20,-5,0,29,-2,15.200000000000001
3041,-1,1,-1,9,-2,-1,8,3,15.205
3042,-1,-10,-15,-14,-6,-3,3,1,15.21
3043,0,3,17,23,-1,3,1,-1,15.215
3044,2,11,12,-12,2,-1,-18,-3,15.22
3045,-3,-11,-10,-5,-3,-2,6,-2,15.225
3046,1,12,-7,-2,0,-3,-5,-2,15.23
3047,3,2,4,-11,-3,-2,16,2,15.235
3048,0,-13,-15,1,1,2,-9,2,15.24
3049,0,14,5,-9,-3,-3,-3,-5,15.245000000000001
3050,0,9,-6,15,2,3,3,2,15.25
3051,-3,-2,2,-5,-2,-2,8,0,15.255
3052,0,-15,7,-1,1,-2,-7,0,15.26
3053,1,-3,4,-5,-1,-2,0,-1,15.265
3054,4,19,-2,-4,0,-2,-2,-1,15.27
3055,0,-10,-16,-3,-3,-1,14,-2,15.275
3056,2,-9,8,-4,-1,2,-18,-2,15.280000000000001
3057,-16,-43,-23,4,2,1,7,2,15.285
3058,1,11,13,-2,0,1,-6,-2,15.290000000000001
3059,2,5,3,-13,0,0,4,1,15.295
3060,1,12,3,4,-4,-3,-5,-2,15.3
3061,1,1,2,6,-1,0,-8,0,15.305
3062,-4,-14,-4,-5,2,4,14,3,15.31
3063,-4,-2,1,7,-2,-3,-11,-4,15.315
3064,-3,-4,-19,-5,-3,-2,4,-1,15.32
3065,0,4,19,-8,-2,-1,-13,-2,15.325000000000001
3066,3,13,14,8,1,1,9,3,15.33
3067,2,-3,-23,-3,1,-1,-8,-4,15.335
3068,2,14,11,8,2,0,6,3,15.34
3069,4,14,-10,10,-4,-6,-3,-6,15.345
3070,-2,-8,10,-1,0,-3,-15,-2,15.35
3071,1,4,-14,7,-2,1,25,-1,15.355
3072,2,12,8,-15,0,1,14,2,15.36
3073,-2,-5,-8,-7,-1,-3,-4,1,15.365
3074,-2,2,7,9,1,1,12,1,15.370000000000001
3075,1,3,5,0,1,-2,-32,-5,15.375
3076,-6,-3,-7,-5,-2,-2,-18,-3,15.38
3077,1,4,-1,3,-1,2,16,1,15.385
3078,-2,-3,-1,0,-2,-5,-18,-6,15.39
3079,-6,-19,-6,-16,-3,-1,12,2,15.395
3080,3,-4,10,-4,1,0,1,2,15.4
3081,-1,-2,-9,-2,0,-2,-15,-3,15.405000000000001
3082,2,12,2,2,-1,0,-1,0,15.41
3083,3,7,11,3,0,1,4,0,15.415000000000001
3084,1,6,-3,-12,-1,-3,-8,-2,15.42
3085,-2,-12,-21,-14,-2,-3,4,-2,15.425
3086,2,7,11,14,-1,-2,0,0,15.43
3087,2,22,-10,1,-1,-1,3,-1,15.435
3088,-1,-4,10,22,3,1,1,0,15.44
3089,-1,-5,8,-10,-1,1,-1,-1,15.445
3090,-4,2,-14,-10,-5,-3,-1,-3,15.450000000000001
3091,-5,-13,6,4,-3,-2,-12,-2,15.455
3092,-1,6,-3,4,2,2,3,2,15.46
3093,1,10,3,2,2,1,10,-2,15.465
3094,0,-6,4,-5,0,1,-2,0,15.47
3095,-1,0,-1,-1,0,0,0,1,15.475
3096,-4,-13,1,7,-2,-1,-4,0,15.48
3097,3,3,8,-9,0,1,1,-2,15.485000000000001
3098,-1,5,-10,3,-2,0,15,2,15.49
3099,-1,-1,-18,0,0,-1,-13,-2,15.495000000000001
3100,1,-1,-2,0,-2,-1,4,-1,15.5
3101,2,4,8,1,-2,0,-7,0,15.505
3102,0,2,-4,-1,1,-2,-5,-2,15.51
3103,-4,-7,5,1,1,2,5,3,15.515
3104,-6,-11,-9,-10,-5,0,13,-1,15.52
3105,-3,-29,6,0,2,-1,-1,1,15.525
3106,-1,-6,-17,-10,0,1,-2,1,15.530000000000001
3107,7,0,10,7,1,1,1,0,15.535
3108,-3,6,-2,5,-2,-3,-10,-3,15.540000000000001
3109,-8,-4,-2,2,-3,-3,3,-2,15.545
3110,-5,-2,12,6,-2,-1,-8,0,15.55
3111,-3,-2,-7,-9,0,0,2,-2,15.555
3112,2,-5,-2,0,-4,-3,-1,-1,15.56
3113,1,5,-10,-9,-3,-2,-4,0,15.565
3114,2,3,5,4,-1,0,0,0,15.57
3115,0,7,7,-1,-1,-3,1,1,15.575000000000001
3116,4,2,10,1,-1,-1,-3,1,15.58
3117,0,6,4,2,1,0,-2,1,15.585
3118,-2,-4,-1,-1,0,1,2,0,15.59
3119,-3,-4,8,-1,0,-1,2,-3,15.595
3120,3,3,1,0,0,0,-6,-2,15.6
3121,3,5,-3,-3,-1,1,0,2,15.605
3122,-5,-6,-1,-5,-1,-1,2,1,15.610000000000001
3123,2,-16,-16,-5,0,-2,-1,-1,15.615
3124,-8,-22,3,-1,-1,-1,-4,-4,15.620000000000001
3125,-2,7,2,4,3,3,12,1,15.625
3126,1,-29,8,-2,0,-3,-6,-4,15.63
3127,10,14,5,-1,-1,3,4,1,15.635
3128,-10,-4,5,8,-2,-3,4,-5,15.64
3129,4,-5,-9,-13,-4,-3,-10,-3,15.645
3130,-6,-1,7,-7,-1,-2,-18,-3,15.65
3131,-12,-10,13,6,-1,-4,3,-6,15.655000000000001
3132,9,-2,4,-4,3,-2,-13,0,15.66
3133,1,4,-8,11,0,-1,13,4,15.665000000000001
3134,-2,30,-1,2,2,1,-6,6,15.67
3135,6,-11,9,-2,-3,0,14,-7,15.675
3136,-11,-16,-31,-21,-8,-4,-8,-4,15.68
3137,-1,-19,4,0,1,-3,-2,-2,15.685
3138,29,11,7,0,3,3,8,7,15.69
3139,-17,14,-10,8,3,2,17,10,15.695
3140,4,20,4,-10,-4,-4,-13,-3,15.700000000000001
3141,6,1,-17,-2,-1,1,-20,-1,15.705
3142,2,6,-4,-3,-3,-2,15,-2,15.71
3143,-9,-5,25,3,1,2,5,-6,15.715
3144,8,-32,1,-8,-4,-7,-27,6,15.72
3145,-24,32,4,25,0,-2,-28,-10,15.725
3146,18,-5,-3,-8,0,4,60,13,15.73
3147,9,-9,-8,-4,0,-1,-8,8,15.735000000000001
3148,-28,-7,-43,4,5,1,-12,-6,15.74
3149,3,-28,35,-8,-2,0,6,-11,15.745000000000001
3150,-22,-31,-7,-9,-5,-4,-9,-14,15.75
3151,8,-6,-16,-7,-6,-6,-16,2,15.755
3152,13,22,10,13,6,8,14,8,15.76
3153,28,40,16,12,13,10,6,18,15.765
3154,-32,7,-20,30,-10,-6,-14,-13,15.77
3155,1,13,22,1,5,-2,-2,-1,15.775
3156,5,8,14,-10,1,3,31,9,15.780000000000001
3157,29,63,9,-4,6,8,25,11,15.785
3158,-24,-12,-17,-7,-6,-3,3,0,15.790000000000001
3159,-32,-5,17,20,-3,-5,-22,-19,15.795
3160,-2,34,-6,-4,6,2,5,-7,15.8
3161,-27,-71,14,-13,-20,-19,-1,-3,15.805
3162,-15,-20,-17,-24,-3,0,-48,-37,15.81
3163,52,41,-38,-25,5,6,-6,34,15.815
3164,14,36,49,69,9,-1,-8,-8,15.82
3165,-31,-52,-17,-28,1,-4,75,15,15.825000000000001
3166,-1,2,22,-21,-6,-2,-70,-1,15.83
3167,-4,-13,1,13,1,4,39,2,15.835
3168,-14,-17,9,-22,-2,3,-28,-18,15.84
3169,6,11,-10,41,5,6,-17,25,15.845
3170,26,42,1,-31,5,2,12,-16,15.85
3171,41,-23,14,-40,-13,-6,4,1,15.855
3172,-64,-1,-43,25,-1,-1,-4,11,15.860000000000001
3173,21,-33,35,11,-7,-3,-8,-14,15.865
3174,5,26,-30,-11,2,-2,23,-31,15.870000000000001
3175,-3,15,-89,41,11,0,-28,-9,15.875
3176,80,-50,-102,-80,-9,4,32,76,15.88
3177,-10,53,-5,1,-10,-11,-40,-9,15.885
3178,-21,-16,34,36,17,10,28,47,15.89
3179,-5,15,29,4,-4,-2,-1,13,15.895
3180,-60,-48,57,8,-14,-25,-31,-91,15.9
3181,15,-37,-20,-32,-3,4,-22,-32,15.905000000000001
3182,21,7,14,10,2,0,29,-21,15.91
3183,48,49,74,18,2,8,22,106,15.915000000000001
3184,-51,-12,46,7,-3,-7,3,-7,15.92
3185,-43,-41,16,-14,0,-5,-22,-23,15.925
3186,1,-20,-22,6,-8,-15,-24,-24,15.93
3187,-14,3,-29,-20,1,5,-4,-52,15.935
3188,-18,2,14,10,-3,-1,22,18,15.94
3189,9,3,2,-17,-8,1,-6,3,15.945
3190,7,-14,55,-21,-13,-7,-10,5,15.950000000000001
3191,0,-46,-1,18,0,3,3,-46,15.955
3192,17,27,-4,-36,18,17,9,65,15.96
3193,32,50,19,40,16,0,47,32,15.965
3194,4,77,20,-47,-15,-15,-34,-27,15.97
3195,-47,-82,-36,-16,-36,-7,-10,-1,15.975
3196,-18,-10,24,39,41,9,3,-45,15.98
3197,19,-21,-40,-4,-51,-3,-5,15,15.985000000000001
3198,40,51,30,-32,107,22,34,53,15.99
3199,-57,-18,35,15,-25,-24,-34,-41,15.995000000000001
3200,18,31,-61,64,-26,2,-3,-19,16.0
3201,-14,21,-28,20,1,7,21,21,16.005
3202,42,10,80,-45,-14,-1,6,20,16.01
3203,-39,-29,-3,-16,-7,-6,-14,0,16.015
3204,29,-38,11,10,13,12,22,23,16.02
3205,-25,-12,-41,5,13,4,-9,-32,16.025
3206,60,-25,-126,17,-11,16,23,6,16.03
3207,-30,28,45,1,19,-14,-3,23,16.035
3208,48,65,-88,-55,-45,-13,-16,-17,16.04
3209,-22,3,2,7,9,9,-3,-1,16.045
3210,40,-40,-70,23,-3,10,38,70,16.05
3211,8,18,-111,6,-1,4,-16,-46,16.055
3212,-49,-83,-7,4,3,-4,-16,-93,16.06
3213,33,-64,-50,-35,19,13,21,98,16.065
3214,-43,70,-105,53,-16,-2,17,34,16.07
3215,32,-65,-56,-13,11,-3,-21,-81,16.075
3216,26,37,-55,-24,0,8,46,65,16.080000000000002
3217,-65,40,-69,-7,4,-13,-56,-51,16.085
3218,-16,-80,-104,23,-24,-5,-14,-18,16.09
3219,23,85,-88,-77,0,25,46,29,16.095
3220,-55,24,20,7,6,-22,-34,-27,16.1
3221,-42,-23,78,-18,-27,-7,4,-28,16.105
3222,-18,-23,127,2,0,-2,2,28,16.11
3223,31,-9,108,-76,17,-12,-24,-30,16.115000000000002
3224,15,83,94,55,4,14,14,24,16.12
3225,50,-9,75,-75,-3,-14,2,10,16.125
3226,-112,-106,81,-20,-26,-17,-33,-60,16.13
3227,-5,-64,66,90,-5,12,25,37,16.135
3228,84,76,49,-47,1,-7,-13,11,16.14
3229,-22,-72,38,59,6,-4,2,-28,16.145
3230,48,39,28,18,0,6,4,42,16.15
3231,-11,18,30,15,8,10,9,-16,16.155
3232,90,-70,19,9,-3,7,15,27,16.16
3233,-88,80,-3,2,15,-7,-32,-1,16.165
3234,-20,-15,8,-35,-15,2,-4,-31,16.17
3235,-41,-91,12,-9,1,-10,-7,7,16.175
3236,29,95,6,82,-2,12,16,9,16.18
3237,19,-67,-4,-61,19,3,-10,-50,16.185
3238,-9,-53,5,-6,12,7,16,11,16.19
3239,-32,127,11,38,-9,-10,-19,2,16.195
3240,21,-96,0,-18,22,-1,0,0,16.2
3241,-3,77,-2,-1,-20,-3,14,-5,16.205000000000002
3242,-35,-42,4,8,-4,-15,-25,25,16.21
3243,13,-119,-1,31,6,10,3,-53,16.215
3244,-46,50,-1,-59,-13,-1,3,29,16.22
3245,-11,-78,-3,35,-1,-3,5,32,16.225
3246,19,37,2,-24,-8,2,-1,-45,16.23
3247,21,1,1,46,25,8,5,51,16.235
3248,-55,94,0,-15,-7,0,-8,-30,16.240000000000002
3249,62,-30,0,-6,-34,-19,-9,-28,16.245
3250,73,107,0,34,16,14,20,50,16.25
3251,-1,48,2,-22,-3,-12,2,-20,16.255
3252,-17,-85,1,-19,-29,4,14,-10,16.26
3253,-11,93,-4,58,-5,-26,-38,-5,16.265
3254,-40,-85,0,-59,-16,-6,-16,-43,16.27
3255,50,59,1,15,20,13,18,48,16.275
3256,-26,-41,0,43,22,1,-9,-29,16.28
3257,77,18,-2,-4,-28,26,54,56,16.285
3258,-59,-17,0,95,43,1,-16,-31,16.29
3259,-37,-28,2,-58,-10,-14,-24,-15,16.295
3260,-51,-118,0,-16,-17,-29,-44,-40,16.3
3261,102,95,-1,2,19,41,60,67,16.305
3262,-35,88,1,-19,4,-9,-32,-37,16.31
3263,-19,-43,0,36,-13,-6,10,-11,16.315
3264,-33,78,-1,-48,-6,-6,-1,48,16.32
3265,26,-76,-1,-48,2,-14,-30,-54,16.325
3266,2,36,0,35,2,0,13,7,16.330000000000002
3267,9,61,-1,42,15,25,10,24,16.335
3268,5,-6,-1,-69,-36,-13,-11,-16,16.34
3269,-9,44,0,37,29,23,27,26,16.345
3270,67,-127,-1,-34,20,13,36,77,16.35
3271,-49,94,0,-23,-47,-33,-62,-89,16.355
3272,22,-109,0,-25,2,2,3,-10,16.36
3273,6,117,-1,-8,30,23,47,44,16.365000000000002
3274,29,10,-1,57,-17,-16,-32,-38,16.37
3275,5,-46,0,-100,-19,3,11,33,16.375
3276,58,101,-1,-5,20,9,25,10,16.38
3277,-76,-123,-1,31,-4,-18,-43,-31,16.385
3278,-3,67,0,11,-11,15,13,28,16.39
3279,86,24,0,-21,16,4,6,-30,16.395
3280,-69,-107,-1,28,-19,-16,-22,17,16.4
3281,37,43,-1,-25,10,5,19,-9,16.405
3282,0,65,0,46,-18,-7,-11,3,16.41
3283,9,88,-1,-55,-15,2,-1,57,16.415
3284,-23,-25,0,-37,21,-6,-10,-81,16.42
3285,-40,-14,-1,30,-21,-38,-71,-56,16.425
3286,-64,-34,0,-16,-3,-8,-24,-56,16.43
3287,-38,-55,0,-15,-19,5,27,31,16.435
3288,87,43,-1,39,3,18,22,55,16.44
3289,11,48,-1,-18,12,11,20,20,16.445
3290,-26,-17,-1,-67,-4,-15,-14,-28,16.45
3291,-4,-43,-1,68,17,2,2,7,16.455000000000002
3292,0,33,-1,-32,-25,-4,6,17,16.46
3293,-1,-22,-1,16,-6,-27,-36,-36,16.465
3294,-10,-102,0,-37,2,13,12,-20,16.47
3295,-12,33,-1,37,9,5,0,1,16.475
3296,-18,4,-1,6,18,13,15,42,16.48
3297,-43,-6,-1,-37,-43,-34,-29,-39,16.485
3298,47,46,-1,1,7,0,-3,7,16.490000000000002
3299,34,8,-1,-2,9,15,17,65,16.495
3300,-64,5,-1,46,-2,2,-12,-39,16.5
3301,-21,89,-1,8,15,9,15,-17,16.505
3302,23,-88,-1,-3,-12,-7,2,77,16.51
3303,-19,42,-1,-36,-11,-26,-33,-108,16.515
3304,0,-49,-1,-16,-15,11,16,19,16.52
3305,-18,15,-1,51,49,28,29,37,16.525
3306,-39,59,1,-3,-37,-29,-19,-43,16.53
3307,6,-83,7,51,4,2,5,26,16.535
3308,73,16,7,-76,-3,-8,-1,20,16.54
3309,-69,-38,2,-12,-6,4,-4,-33,16.545
3310,58,26,11,-6,9,6,4,-2,16.55
3311,35,24,8,101,-18,-4,2,10,16.555
3312,-52,8,4,20,70,24,39,8,16.56
3313,33,-125,-2,-22,-34,-19,-52,23,16.565
3314,-22,56,-1,55,14,9,4,-15,16.57
3315,27,21,1,-119,5,-8,10,28,16.575
3316,35,-61,-2,49,-11,-19,-25,-39,16.580000000000002
3317,11,126,8,9,4,17,25,27,16.585
3318,-38,-49,-1,-31,-11,-2,10,-34,16.59
3319,-2,15,0,21,1,-7,21,9,16.595
3320,-41,13,-1,22,1,-4,-68,-75,16.6
3321,63,63,4,-25,19,31,94,116,16.605
3322,-108,-91,-8,-34,-32,-31,-56,-125,16.61
3323,-19,-14,20,0,0,1,-2,31,16.615000000000002
3324,39,30,29,10,7,-11,0,23,16.62
3325,10,29,30,22,-5,1,-18,-23,16.625
3326,32,66,32,10,15,18,28,57,16.63
3327,-11,-20,18,-15,8,6,-10,-29,16.635
3328,-25,-43,20,8,-12,-7,0,0,16.64
3329,-1,-29,11,55,-28,-8,-3,-23,16.645
3330,31,12,48,-56,64,28,31,46,16.65
3331,-48,-62,97,8,-2,-7,-19,-24,16.655
3332,28,62,72,8,-15,-2,0,14,16.66
3333,-28,-65,18,-26,-7,-14,-11,-47,16.665
3334,10,-15,55,7,-16,-9,-1,11,16.67
3335,-8,4,17,10,5,8,-11,3,16.675
3336,22,47,61,4,11,11,26,45,16.68
3337,19,-5,8,-23,-1,-2,-25,-4,16.685
3338,-23,-28,-45,22,-8,-5,-17,-33,16.69
3339,25,8,-72,-11,7,6,32,11,16.695
3340,-14,7,-61,15,-7,-12,3,17,16.7
3341,1,-22,-32,-19,3,-2,-11,1,16.705000000000002
3342,11,31,-27,7,-7,-3,-8,11,16.71
3343,8,7,-14,6,3,4,-13,-7,16.715
3344,-1,-6,-18,-15,-10,-7,2,-19,16.72
3345,-14,-28,-1,-6,1,-2,-18,-6,16.725
3346,14,-20,-8,18,5,9,13,18,16.73
3347,-8,15,71,-16,-7,-12,-3,-10,16.735
3348,-18,-24,63,-1,-4,2,-10,-8,16.740000000000002
3349,-7,-24,76,-13,3,0,2,-7,16.745
3350,29,25,7,9,-8,-6,9,10,16.75
3351,-12,9,-35,-4,-1,-4,1,-2,16.755
3352,-3,-8,-10,-3,0,3,-8,1,16.76
3353,5,0,-6,-1,0,0,21,-1,16.765
3354,4,27,-62,5,-1,1,2,7,16.77
3355,3,-1,-54,-2,-1,-1,-10,-1,16.775
3356,-3,-18,-65,5,4,1,-42,-13,16.78
3357,-11,-12,-39,-6,-4,-10,38,-18,16.785
3358,7,19,-17,2,-4,-3,-2,30,16.79
3359,-1,-4,27,-2,3,5,8,14,16.795
3360,3,3,20,3,-2,-2,0,-3,16.8
3361,-3,-3,34,-4,1,2,4,-6,16.805
3362,-4,11,34,1,-4,-3,-3,-4,16.81
3363,-2,-10,-34,-2,-3,0,4,-2,16.815
3364,-1,0,-71,4,1,2,-3,-2,16.82
3365,-1,-9,-88,-4,0,-1,-20,-1,16.825
3366,4,40,-78,0,-1,5,13,2,16.830000000000002
3367,-8,-28,69,4,4,4,-5,2,16.835
3368,3,-15,123,0,-2,-1,10,-4,16.84
3369,-10,2,125,-3,3,2,-6,-3,16.845
3370,2,-7,47,1,-2,0,-2,2,16.85
3371,6,23,-37,-5,-1,-3,-3,-5,16.855
3372,3,25,-69,2,1,6,13,6,16.86
3373,3,2,-66,-2,-1,0,-5,3,16.865000000000002
3374,-1,-22,-38,1,-2,-4,-7,-1,16.87
3375,-7,-3,-50,5,2,2,4,-1,16.875
3376,-2,22,-45,-4,-1,2,6,-1,16.88
3377,-2,-2,-50,3,-3,0,-12,-3,16.885
3378,0,-7,-1,-11,-3,-5,11,2,16.89
3379,1,-13,-26,5,-2,-5,-19,-5,16.895
3380,4,-21,-26,-12,-1,-2,-27,0,16.9
3381,-1,-3,-16,-1,0,-1,32,-4,16.905
3382,2,26,2,18,2,5,11,1,16.91
3383,-7,-8,-9,7,0,-3,11,-1,16.915
3384,-6,-13,-14,-28,-5,-4,-1,1,16.92
3385,-2,-1,-7,-9,-4,-1,-22,-2,16.925
3386,0,-2,8,3,-1,0,-5,-1,16.93
3387,4,7,-10,-7,2,-1,17,4,16.935
3388,-1,7,-3,11,3,4,-27,-9,16.94
3389,-13,-26,-6,12,1,-5,-17,-5,16.945
3390,-2,-3,4,-14,-9,-6,20,1,16.95
3391,10,7,-2,-8,0,2,-1,2,16.955000000000002
3392,-5,-10,-5,-2,-6,-10,-11,1,16.96
3393,8,6,-3,16,3,5,6,-2,16.965
3394,-2,12,3,-6,4,2,-15,-5,16.97
3395,-4,-13,-1,5,0,0,-5,-2,16.975
3396,2,-1,-2,-2,-1,-2,8,-2,16.98
3397,-13,6,-5,-28,-1,0,-16,-2,16.985
3398,10,-12,5,16,-1,1,1,2,16.990000000000002
