slno,emg1,emg2,emg3,emg4,emg5,emg6,emg7,emg8,Time
0,-1,3,-29,-37,-14,-5,0,-1,0.0
1,-3,-7,24,26,-4,-1,0,-2,0.005
2,2,9,7,15,25,7,4,-1,0.01
3,-1,-7,-11,-9,-6,-2,-2,-3,0.015
4,-3,8,-3,3,0,0,-2,0,0.02
5,-3,-12,-18,-21,-10,-2,-1,0,0.025
6,2,6,5,-13,-5,0,1,1,0.03
7,-2,-6,8,10,1,0,-2,1,0.035
8,1,2,4,11,7,1,-2,0,0.04
9,1,9,18,16,3,-1,-1,1,0.045
10,-1,0,-18,-6,-2,0,-1,-1,0.05
11,-2,-4,-19,-13,-4,-2,-1,-2,0.055
12,-1,-7,14,3,-7,-2,0,-2,0.06
13,0,-2,-8,-7,6,2,0,-2,0.065
14,0,2,8,9,-5,-2,-1,-2,0.07
15,0,0,-16,-26,-10,0,0,0,0.075
16,-1,-4,9,21,15,1,-3,-3,0.08
17,0,4,0,1,0,0,-1,-1,0.085
18,0,-10,-22,-22,-6,0,2,-1,0.09
19,-6,-1,15,18,1,-4,-5,0,0.095
20,1,-4,5,-3,1,1,-1,0,0.1
21,-1,2,-13,-4,-1,-1,1,-2,0.105
22,-1,-4,-14,-17,-7,0,-2,0,0.11
23,-3,2,1,-2,-4,-4,-1,-2,0.115
24,3,8,-1,-23,2,2,2,0,0.12
25,-2,-8,28,40,-5,-2,-1,-2,0.125
26,-3,1,-9,-16,1,-2,-1,0,0.13
27,0,0,-6,7,2,1,1,0,0.135
28,-1,2,3,-10,-6,-3,0,-2,0.14
29,1,2,-26,-13,10,2,2,0,0.145
30,1,-3,30,14,-5,-1,-1,-1,0.15
31,-1,-1,-10,3,7,1,0,0,0.155
32,0,4,11,11,7,4,1,1,0.16
33,-3,2,0,-4,-4,-1,-1,0,0.165
34,-3,-5,-18,-10,-11,-3,-3,-2,0.17
35,1,4,0,-9,1,-1,0,-1,0.17500000000000002
36,-3,-10,3,12,-1,0,1,-2,0.18
37,1,3,-4,-10,3,-1,-1,-1,0.185
38,-1,-4,-3,3,-2,-2,-1,-2,0.19
39,-1,0,-5,-9,-7,-3,-3,-2,0.195
40,1,0,-4,9,1,2,1,1,0.2
41,-2,-1,7,0,-1,-1,-1,0,0.20500000000000002
42,-1,1,-2,5,-2,-3,-4,-3,0.21
43,-1,-8,2,3,-1,-1,1,-1,0.215
44,0,-1,-1,-1,0,1,2,1,0.22
45,-2,-5,-24,-27,-10,-3,-2,-1,0.225
46,2,6,4,-3,9,1,0,1,0.23
47,-3,-4,29,20,-3,-2,-1,-2,0.23500000000000001
48,-1,7,-1,3,5,-1,-1,-1,0.24
49,1,-3,-10,3,2,0,0,-2,0.245
50,0,0,2,-4,-1,-1,0,0,0.25
51,-2,-8,-29,-20,-5,-1,1,-3,0.255
52,2,16,15,-2,-5,-2,-2,-1,0.26
53,-1,-3,9,13,1,-1,-1,-2,0.265
54,-1,-4,-5,0,-3,-2,0,-2,0.27
55,2,-1,-1,-4,1,1,-2,-2,0.275
56,-2,-5,-14,-3,-3,-2,-1,-2,0.28
57,-2,-8,7,4,0,2,-2,0,0.28500000000000003
58,-2,7,-5,0,0,-1,0,-2,0.29
59,0,-1,5,-3,-11,-4,-3,2,0.295
60,-1,-3,-4,13,5,0,0,-1,0.3
61,0,4,8,2,-1,-3,-1,0,0.305
62,-1,-9,-5,-2,4,-1,-1,0,0.31
63,-2,1,-13,-15,-15,-4,-2,-2,0.315
64,0,-1,3,3,11,5,0,0,0.32
65,-1,5,-8,-21,-2,-1,1,-1,0.325
66,0,-1,22,23,-3,-3,-2,1,0.33
67,0,3,-2,0,0,-1,0,-2,0.335
68,-2,-8,-6,-5,-9,-3,-2,-3,0.34
69,-1,-9,-13,-10,2,-1,-1,-2,0.34500000000000003
70,1,15,-19,-32,-9,-2,-1,-1,0.35000000000000003
71,-3,-12,22,36,17,2,1,1,0.355
72,-2,-6,-2,-3,-8,-2,1,0,0.36
73,1,4,1,3,0,0,-1,-2,0.365
74,-2,-4,-1,-3,-1,1,0,-1,0.37
75,1,5,-3,-16,-4,-1,0,1,0.375
76,-1,0,-9,1,-2,-2,-1,0,0.38
77,-2,0,7,14,-3,-1,-4,1,0.385
78,-1,-3,-2,5,1,0,0,-1,0.39
79,2,7,-2,-4,4,1,-1,-1,0.395
80,0,-2,-9,-12,-6,-1,1,0,0.4
81,-1,-1,10,1,-9,-4,-2,-2,0.405
82,-1,-13,1,2,6,2,-1,-1,0.41000000000000003
83,-1,7,-1,2,-3,-2,-1,1,0.41500000000000004
84,-1,0,-3,-10,-3,-2,-1,-1,0.42
85,-3,0,-2,2,-1,-1,-2,-1,0.425
86,0,-2,-4,4,0,-2,0,-1,0.43
87,-1,0,-5,-1,2,0,1,-1,0.435
88,1,2,-1,12,9,2,-1,1,0.44
89,-1,0,-6,-25,-11,-4,-2,-2,0.445
90,1,6,18,27,6,0,0,1,0.45
91,-3,-13,-16,-16,-6,-2,-2,-1,0.455
92,-2,7,14,13,9,0,2,-1,0.46
93,-2,-3,-24,-23,-3,0,-1,0,0.465
94,2,11,18,3,-4,-2,-1,-1,0.47000000000000003
95,-1,4,3,-25,-4,-2,0,-2,0.47500000000000003
96,0,-4,-2,26,13,3,0,1,0.48
97,0,-4,3,13,3,0,-1,-1,0.485
98,0,1,-7,0,-4,-1,0,0,0.49
99,0,4,-2,2,7,-1,-3,2,0.495
100,-2,-6,1,-8,-9,-3,-1,-3,0.5
101,1,0,0,-3,3,-1,-1,-1,0.505
102,-1,-17,-23,-18,-6,-2,-2,-1,0.51
103,0,11,22,6,-2,-1,-1,-1,0.515
104,2,4,4,4,-2,-1,-2,0,0.52
105,-1,0,5,10,-1,0,-1,0,0.525
106,-3,-6,-7,-13,1,1,-1,-2,0.53
107,-2,-6,-9,-2,-10,-2,-2,-1,0.535
108,1,-1,-4,-5,11,1,-1,1,0.54
109,0,3,8,-13,2,-2,-1,-1,0.545
110,-4,-5,-2,5,-6,-2,-2,-1,0.55
111,-2,-1,14,19,1,0,0,-3,0.555
112,-1,-1,5,8,2,2,-2,0,0.56
113,-2,-3,-4,-7,-4,-2,0,-2,0.5650000000000001
114,-1,1,-17,-14,-3,-3,-2,-1,0.5700000000000001
115,1,1,-9,-3,1,2,2,-2,0.5750000000000001
116,0,-4,7,-10,-5,0,-2,-1,0.58
117,-2,1,6,17,3,1,-1,0,0.585
118,-1,0,13,2,-1,-1,0,1,0.59
119,0,-5,-6,-1,0,-1,-3,-1,0.595
120,0,0,-17,-29,-15,-5,-1,-2,0.6
121,-1,-2,6,-11,-6,0,-1,-1,0.605
122,-3,-3,9,38,23,6,0,-2,0.61
123,1,2,-14,-12,-2,-2,-2,1,0.615
124,-2,7,11,21,0,-3,0,0,0.62
125,-1,-2,-1,-1,-6,-4,-3,-1,0.625
126,0,-4,-2,-12,-6,-2,0,-1,0.63
127,-2,-7,-7,-11,1,1,-2,-1,0.635
128,-2,-9,-1,6,-4,-1,-1,-3,0.64
129,0,8,12,0,-2,-3,0,-1,0.645
130,-1,1,-21,-16,1,-1,-2,-1,0.65
131,0,7,26,27,4,1,1,0,0.655
132,1,-5,2,-6,-2,1,-3,1,0.66
133,-1,-6,-1,6,-4,-3,0,-1,0.665
134,0,2,-15,-31,-3,2,-1,-3,0.67
135,-2,1,17,25,4,-2,-2,0,0.675
136,0,-1,-1,-10,-8,0,0,0,0.68
137,0,-7,-7,14,10,1,1,0,0.685
138,1,8,1,-12,-3,0,-1,1,0.6900000000000001
139,-2,-5,-8,0,-4,1,2,-1,0.6950000000000001
140,-2,6,-4,-9,0,-1,0,-2,0.7000000000000001
141,-1,-7,4,12,1,-1,-1,0,0.705
142,-2,6,9,1,-7,-1,-2,-1,0.71
143,0,-5,-12,-11,4,0,0,0,0.715
144,-2,-2,0,-2,-1,-4,0,-3,0.72
145,1,6,0,0,-1,1,-1,0,0.725
146,-2,-17,1,10,1,0,1,-1,0.73
147,-1,5,-4,-3,-4,-2,-1,0,0.735
148,-3,-1,-8,-15,1,-1,-1,-1,0.74
149,-2,-1,-6,-6,-3,-3,-2,0,0.745
150,-1,1,7,12,0,0,-1,1,0.75
151,1,2,-3,-2,-3,-1,-3,-1,0.755
152,1,-6,-15,-26,-5,0,-1,-3,0.76
153,1,7,8,21,13,2,-1,-2,0.765
154,-2,-4,6,15,-2,-1,-2,-2,0.77
155,-1,-4,-7,-13,-1,0,1,-1,0.775
156,-2,-1,5,13,-5,-2,-3,1,0.78
157,-1,2,-9,-12,-6,-3,-2,-1,0.785
158,3,2,-3,-7,6,0,-1,-1,0.79
159,-1,-1,9,7,-1,-1,1,0,0.795
160,-1,0,-3,1,-7,-3,-2,-2,0.8
161,-2,-6,-20,-23,-2,0,-1,0,0.805
162,-1,1,6,7,-5,-2,-1,0,0.81
163,-3,-1,-10,-5,1,0,-4,-2,0.8150000000000001
164,0,0,5,-17,-5,-2,0,0,0.8200000000000001
165,-3,-11,-12,4,-15,-2,-1,-2,0.8250000000000001
166,1,-2,16,20,7,0,0,-2,0.8300000000000001
167,1,2,5,3,2,0,-1,1,0.835
168,-3,-6,-6,-3,1,-2,-1,0,0.84
169,-1,-5,-11,-18,-4,-1,1,1,0.845
170,-1,3,-16,-17,-5,-1,-3,-1,0.85
171,1,0,8,2,-3,-3,0,-1,0.855
172,-3,-6,0,13,7,0,-1,0,0.86
173,2,4,-9,-19,-2,0,0,-1,0.865
174,-3,-8,37,27,0,0,-3,0,0.87
175,-3,-1,-25,-11,-4,-2,-1,-1,0.875
176,1,-2,-8,-3,-3,0,-2,-1,0.88
177,0,-4,-1,5,0,-1,0,0,0.885
178,0,6,-25,-22,2,1,2,0,0.89
179,-1,-2,29,11,-2,0,-1,-2,0.895
180,0,1,-16,-6,5,0,0,-1,0.9
181,0,-3,26,30,10,3,-2,-2,0.905
182,-2,-3,-14,-14,1,-2,-1,-1,0.91
183,1,0,-5,-6,-1,0,0,-1,0.915
184,-2,4,2,8,8,2,0,-3,0.92
185,-2,-4,6,10,-6,-3,0,-1,0.925
186,2,1,8,-1,-8,-5,-1,-1,0.93
187,0,-2,-13,-10,-1,-2,-2,-1,0.935
188,-2,0,2,-1,0,-3,-2,0,0.9400000000000001
189,-1,0,-5,-6,-4,-1,0,2,0.9450000000000001
190,-2,-1,1,0,-2,-1,-2,-2,0.9500000000000001
191,0,-2,-3,-9,-4,-1,-1,-3,0.9550000000000001
192,-1,2,3,3,-2,0,-2,-1,0.96
193,0,-2,-4,-8,1,0,0,-1,0.965
194,-1,-1,25,24,-5,-2,0,0,0.97
195,1,7,-16,-4,7,1,1,2,0.975
196,-2,-13,18,14,-1,0,-2,0,0.98
197,-3,-1,-19,-18,-13,-6,-4,-2,0.985
198,2,1,-14,-17,5,0,4,1,0.99
199,-3,-7,-3,5,-2,0,-1,-1,0.995
200,0,7,6,4,2,1,1,-2,1.0
201,-1,3,-15,-22,-5,-2,-2,0,1.0050000000000001
202,-2,-12,3,4,-3,-1,-1,-2,1.01
203,-2,-4,4,7,-4,-2,-1,-1,1.0150000000000001
204,0,-3,0,2,0,-3,0,1,1.02
205,1,0,1,2,10,2,0,-2,1.025
206,-1,5,-9,-9,-3,0,-1,-1,1.03
207,-1,-2,3,9,1,-1,1,1,1.035
208,0,0,1,-5,-11,-4,-2,0,1.04
209,-1,-2,-2,8,9,1,0,-2,1.045
210,-1,2,-6,-11,-2,-1,0,-1,1.05
211,0,-1,6,-6,-4,0,0,-1,1.055
212,-1,2,-8,-7,1,0,-1,-2,1.06
213,-3,-4,5,7,-8,-2,-1,-1,1.065
214,2,4,3,4,2,0,0,0,1.07
215,-1,-2,-5,-6,11,2,0,0,1.075
216,-1,1,12,14,0,0,0,-2,1.08
217,-4,-1,0,-3,-2,-2,-3,-3,1.085
218,2,5,-17,-5,-2,0,-1,0,1.09
219,-3,-7,4,-6,-7,-2,-1,0,1.095
220,1,3,-10,3,3,1,0,1,1.1
221,1,1,-1,-3,0,1,-2,-1,1.105
222,-1,-4,-10,5,-2,0,-1,-1,1.11
223,-1,1,9,-2,-4,-1,-3,-2,1.115
224,-2,-1,-3,-9,-4,-2,-2,-1,1.12
225,-1,-6,4,4,-4,-1,0,-1,1.125
226,0,9,15,-16,1,0,1,-2,1.1300000000000001
227,-1,-3,-14,17,6,-1,0,-5,1.135
228,-1,-2,12,9,-4,1,0,1,1.1400000000000001
229,2,1,6,13,4,1,-1,2,1.145
230,-2,-6,1,1,-3,1,-2,-1,1.1500000000000001
231,0,5,-3,-15,-8,-1,-1,0,1.155
232,-1,1,2,-2,-4,-3,2,-1,1.16
233,2,1,0,-6,3,0,1,0,1.165
234,-2,-5,-11,-1,1,0,-1,-2,1.17
235,0,5,-7,-3,2,2,0,2,1.175
236,-1,-1,13,5,-1,-3,-2,-1,1.18
237,-4,-7,-14,-15,-2,-1,-1,0,1.185
238,1,-3,15,18,1,0,-1,0,1.19
239,0,1,-4,-4,-3,-1,-2,-1,1.195
240,0,-5,-6,-10,-3,0,-1,0,1.2
241,-2,10,5,5,7,1,1,-2,1.205
242,-3,-1,-5,-6,-6,-3,-1,0,1.21
243,-2,-1,-3,-6,-1,0,-1,0,1.215
244,-3,-14,-24,-14,-2,-2,0,-1,1.22
245,1,11,27,16,-7,-4,-4,-2,1.225
246,-1,6,-1,8,1,0,1,0,1.23
247,-2,-7,3,11,5,0,-1,-2,1.235
248,0,4,-19,-19,-4,-2,-2,-1,1.24
249,-1,-8,-1,-3,-8,-2,1,0,1.245
250,-2,-3,2,-1,4,1,-2,-1,1.25
251,0,2,4,2,-1,-1,1,-2,1.2550000000000001
252,-4,-4,-5,-5,-1,0,0,0,1.26
253,-2,3,-2,-10,-1,-2,-2,0,1.2650000000000001
254,-3,-11,4,5,-5,-3,-2,-2,1.27
255,1,-1,2,-3,3,2,-1,0,1.2750000000000001
256,1,2,13,7,-2,-3,0,0,1.28
257,3,1,-13,-1,7,2,0,2,1.285
258,0,0,-11,-23,-3,-3,-1,-1,1.29
259,-1,-1,-1,23,4,0,-1,-2,1.295
260,0,0,0,-8,2,1,-1,-2,1.3
261,0,14,14,14,2,1,-1,-1,1.305
262,-3,-19,-9,-10,-6,-1,-1,-1,1.31
263,1,5,13,7,5,-2,1,1,1.315
264,0,-1,-25,-18,-2,-1,-4,0,1.32
265,-3,-5,26,18,2,1,1,-3,1.325
266,1,1,-19,-19,-3,-2,-1,-1,1.33
267,0,-1,12,9,1,0,-1,0,1.335
268,-1,-1,-9,-3,-1,-2,1,1,1.34
269,0,-5,-20,-21,0,0,-1,0,1.345
270,-1,3,5,-6,-3,1,0,0,1.35
271,-2,-6,-2,5,-7,-4,-1,-1,1.355
272,0,4,6,15,4,-2,-2,0,1.36
273,-2,-5,-26,-30,-6,-2,0,-2,1.365
274,-1,2,29,18,-3,-3,-1,-1,1.37
275,1,5,1,-6,-2,2,1,0,1.375
276,0,-2,-8,6,10,2,1,1,1.3800000000000001
277,-1,-3,6,14,4,-1,-1,-2,1.385
278,0,3,-12,-10,-6,-1,0,0,1.3900000000000001
279,-1,-4,-13,-18,-10,0,-3,-1,1.395
280,-3,8,-20,-15,-2,1,-1,0,1.4000000000000001
281,1,0,38,6,-1,0,-2,0,1.405
282,-2,7,-13,-5,7,1,1,-1,1.41
283,-3,-8,5,1,-7,-4,-1,0,1.415
284,-1,-7,8,5,-3,-1,-1,-2,1.42
285,-2,-2,-24,0,-4,-2,-1,-1,1.425
286,1,8,5,1,4,1,-1,0,1.43
287,-2,-1,2,-4,-2,0,0,-1,1.435
288,-2,2,3,5,-4,-1,-3,-2,1.44
289,0,2,4,5,-1,-2,0,1,1.445
290,0,-8,-5,4,0,0,-2,0,1.45
291,0,0,-18,-16,0,0,0,0,1.455
292,1,-1,20,17,-1,-2,-3,-2,1.46
293,-1,0,-1,-2,-1,-1,1,-1,1.465
294,-2,-2,-10,-18,-7,-4,-3,-1,1.47
295,0,3,17,37,11,3,1,-1,1.475
296,-5,-7,-3,-4,-7,-3,1,-2,1.48
297,0,-1,-6,-16,-2,-1,-4,-2,1.485
298,0,-2,2,15,0,0,1,1,1.49
299,-1,1,-1,-17,-4,-2,-1,-2,1.495
300,-1,-2,2,-16,-5,-1,-3,1,1.5
301,-1,1,-13,6,6,1,2,0,1.5050000000000001
302,-1,-1,7,12,9,2,1,0,1.51
303,0,6,18,10,3,0,0,0,1.5150000000000001
304,-3,-15,-7,-10,-7,-1,-3,-2,1.52
305,2,19,-7,-8,-6,-3,-1,0,1.5250000000000001
306,-2,-4,-6,3,5,1,-1,-2,1.53
307,0,-10,-18,-1,-2,1,1,0,1.5350000000000001
308,2,11,10,-8,-1,-1,-1,0,1.54
309,-2,-4,16,9,-5,-1,-1,0,1.545
310,0,5,6,6,0,-3,-1,-1,1.55
311,0,-1,-14,-16,-2,-1,-1,0,1.555
312,-2,-3,-2,-1,0,-1,-1,-2,1.56
313,-2,-11,1,7,-7,-3,-1,-1,1.565
314,-2,-4,2,4,4,5,1,-1,1.57
315,-1,2,-14,-15,2,0,-2,-2,1.575
316,2,7,15,9,2,0,-1,-1,1.58
317,-2,-4,-11,-15,-2,-3,-1,-1,1.585
318,-1,0,-4,7,-3,-2,-3,-1,1.59
319,-2,-5,-6,-7,-3,1,-1,-1,1.595
320,1,-2,4,5,0,0,0,0,1.6
321,0,-4,-6,0,0,-1,0,-2,1.605
322,-2,-3,15,-6,-6,-2,-1,0,1.61
323,0,1,2,8,9,3,-1,0,1.615
324,-3,-2,1,15,7,1,-2,-1,1.62
325,-1,-2,-18,-20,-2,0,0,0,1.625
326,-1,1,-9,-10,-9,-4,-2,0,1.6300000000000001
327,0,9,15,8,3,2,1,-2,1.635
328,0,-2,-7,-4,-6,-2,-1,1,1.6400000000000001
329,1,-10,-22,-13,3,2,0,0,1.645
330,-1,4,20,12,-2,0,-1,-1,1.6500000000000001
331,0,-2,4,8,-4,-3,-2,1,1.655
332,-3,-3,-3,2,0,-2,-1,-1,1.6600000000000001
333,0,1,8,4,-2,2,1,-1,1.665
334,0,-1,-28,-25,-2,0,1,-1,1.67
335,0,-2,7,7,-2,-2,-1,-1,1.675
336,-2,-8,-1,0,1,1,-1,2,1.68
337,-1,8,2,4,0,-2,-1,-1,1.685
338,0,-4,-6,-11,0,0,0,-1,1.69
339,-1,1,-11,-2,-2,-1,1,-3,1.695
340,0,3,13,14,0,0,-1,-1,1.7
341,0,0,12,19,1,0,-2,-3,1.705
342,-1,-5,-4,-3,5,1,1,-1,1.71
343,-4,-14,-12,-9,-5,-1,-2,0,1.715
344,0,2,4,-6,-9,-5,-2,-2,1.72
345,-1,0,9,10,13,3,1,0,1.725
346,1,2,-7,-3,-4,-1,-2,-3,1.73
347,0,2,6,-3,1,-2,0,-2,1.735
348,-2,-6,-23,-23,-2,0,-2,-2,1.74
349,-2,-1,12,11,-5,-3,-1,0,1.745
350,0,1,-2,9,3,1,0,0,1.75
351,0,-2,-1,-5,-5,-2,2,0,1.7550000000000001
352,0,-2,-18,-13,0,-2,-2,-2,1.76
353,-1,-3,2,-6,1,1,0,-1,1.7650000000000001
354,-1,2,4,19,-3,-2,-1,0,1.77
355,0,-6,16,12,5,3,-1,2,1.7750000000000001
356,-1,1,2,0,-1,-1,-2,0,1.78
357,-1,-5,-10,-7,-13,-3,0,-1,1.7850000000000001
358,-1,-5,-13,-16,9,1,-2,-2,1.79
359,-1,6,16,16,8,2,-1,-3,1.795
360,1,-2,-12,-4,-2,-2,0,0,1.8
361,-1,-9,-6,-12,-3,1,1,-1,1.805
362,-1,7,22,23,-5,-3,1,1,1.81
363,-2,-1,-12,-21,-5,0,1,0,1.815
364,1,-6,6,28,16,2,1,0,1.82
365,1,9,-9,-8,-3,-1,-4,-3,1.825
366,-1,-8,-8,-7,7,2,0,-2,1.83
367,-1,-3,-19,-33,-9,-4,-1,-2,1.835
368,-1,1,33,33,2,2,1,0,1.84
369,-1,-4,-3,1,2,-1,0,2,1.845
370,1,2,-8,-9,2,1,0,1,1.85
371,0,-1,-12,0,-5,-3,-2,1,1.855
372,-3,4,-16,-30,-10,-2,-1,-3,1.86
373,0,-1,16,23,5,-2,-2,1,1.865
374,-1,2,4,0,2,0,3,-2,1.87
375,-1,-3,-8,-3,-11,-5,0,-2,1.875
376,-2,-5,3,6,-3,-3,-2,-2,1.8800000000000001
377,-1,9,12,1,1,1,-1,-1,1.885
378,1,-7,-10,-1,1,1,-2,-1,1.8900000000000001
379,2,13,-6,-16,-4,-2,0,0,1.895
380,-2,-6,-4,-1,-6,-2,1,-1,1.9000000000000001
381,0,-1,5,7,8,0,-3,1,1.905
382,-1,-4,-10,-10,-6,0,1,-2,1.9100000000000001
383,1,8,9,1,1,2,-2,-2,1.915
384,0,1,2,10,0,-1,-1,0,1.92
385,-3,-6,7,6,-8,-3,-2,-1,1.925
386,-2,0,-12,-8,-1,-2,-3,0,1.93
387,-2,-6,8,13,12,4,0,0,1.935
388,-1,4,-7,-13,-8,-4,0,0,1.94
389,0,-3,-13,-12,-4,-1,-1,-2,1.945
390,0,1,0,-4,0,-1,0,0,1.95
391,-1,-3,2,-2,-7,-3,-1,-1,1.955
392,0,2,-31,-20,10,-1,0,-1,1.96
393,1,0,44,24,2,0,0,1,1.965
394,0,-1,30,36,4,0,-3,1,1.97
395,1,3,-3,-5,3,-1,1,-1,1.975
396,-1,-3,3,4,-2,0,0,-1,1.98
397,-3,-5,-32,-31,-4,2,1,-4,1.985
398,0,1,-3,-3,-3,-1,0,-3,1.99
399,-1,-4,10,9,-3,-3,-3,-1,1.995
400,-1,-11,-23,-20,-8,0,0,-2,2.0
401,0,16,5,14,25,2,0,-2,2.005
402,-6,-20,-11,-11,-10,-3,-1,0,2.0100000000000002
403,-2,1,26,27,3,1,1,0,2.015
404,-2,-4,7,9,-7,-5,-3,0,2.02
405,1,-3,-17,-11,-7,-2,-1,0,2.025
406,1,6,1,3,6,0,0,-1,2.0300000000000002
407,0,-3,-23,-29,-6,-2,-2,-1,2.035
408,0,-3,4,2,9,1,-1,-1,2.04
409,-1,-6,-2,-1,-7,-2,-1,-1,2.045
410,0,2,-8,0,1,-2,-2,-3,2.05
411,-1,4,6,6,2,0,-2,0,2.055
412,-2,1,-22,-35,-3,0,0,-1,2.06
413,-1,-4,37,38,-1,-3,-3,2,2.065
414,-2,2,2,-6,-4,-1,-1,-1,2.07
415,-2,-4,-1,6,-3,0,-1,-2,2.075
416,-1,1,2,-2,-3,-2,-3,1,2.08
417,0,-9,-30,-28,-4,0,1,-3,2.085
418,2,9,8,-2,-1,1,2,0,2.09
419,-2,-2,-7,4,8,1,-1,-1,2.095
420,0,-2,3,9,-1,1,-3,-1,2.1
421,1,1,-18,-26,-7,0,-2,0,2.105
422,-1,4,48,46,1,-1,-2,0,2.11
423,-2,-4,-13,-6,-2,-3,0,-1,2.115
424,-1,-2,13,7,-2,0,0,-1,2.12
425,-2,-6,-26,-19,-10,-3,-1,0,2.125
426,-1,2,-15,-15,-3,-3,0,-1,2.13
427,-2,-8,-11,-6,4,0,1,0,2.1350000000000002
428,-1,-1,10,5,-9,-3,0,-1,2.14
429,-1,9,16,-24,-2,-1,1,-3,2.145
430,0,-2,-15,18,21,4,1,0,2.15
431,0,-1,-24,-31,-9,-2,0,0,2.1550000000000002
432,-2,-4,35,51,8,1,-2,0,2.16
433,-1,-6,4,1,5,2,-1,1,2.165
434,-2,1,11,1,-9,-2,-5,0,2.17
435,0,0,-7,-14,-8,-3,-1,-2,2.1750000000000003
436,-1,5,-16,-13,-3,-3,-1,-2,2.18
437,0,-1,-12,1,-3,-2,-2,-2,2.185
438,0,-5,-6,-10,-5,-4,0,-1,2.19
439,0,-7,3,10,-5,-1,0,1,2.195
440,1,15,2,-4,6,2,0,-1,2.2
441,0,-6,-15,-4,2,1,0,-1,2.205
442,-2,3,19,15,3,-2,-2,1,2.21
443,1,9,31,20,6,2,-1,-2,2.215
444,-4,-13,4,-10,-8,-5,-2,-1,2.22
445,-1,0,1,16,1,-1,0,0,2.225
446,-1,-2,-16,-20,-4,-3,0,-1,2.23
447,-1,3,-10,-4,-3,-1,-1,-1,2.235
448,-3,-7,-9,-12,-2,-1,-1,1,2.24
449,0,9,8,9,0,-1,0,-1,2.245
450,0,3,-14,-20,-10,-3,-2,-1,2.25
451,-5,-18,-14,3,6,2,-1,-2,2.255
452,0,2,15,4,-5,-2,-2,0,2.2600000000000002
453,-2,-7,3,-2,-3,-3,-1,-2,2.265
454,3,9,19,24,-1,1,1,-1,2.27
455,0,-1,-25,-18,7,0,-1,0,2.275
456,1,-5,-7,-4,1,2,-1,-2,2.2800000000000002
457,-3,1,-2,6,0,-1,-2,1,2.285
458,-2,-6,-15,-34,-6,-2,-2,-2,2.29
459,-2,2,5,3,-14,-4,-1,0,2.295
460,3,0,11,33,14,7,1,2,2.3000000000000003
461,0,7,23,13,-4,-2,-2,0,2.305
462,-4,-6,-15,2,2,0,0,0,2.31
463,-1,0,16,-4,-6,-4,-3,-1,2.315
464,-1,-2,-21,-20,-8,-5,-2,-1,2.32
465,0,-5,-22,-15,1,-1,-2,-2,2.325
466,0,-5,2,1,-1,2,0,-2,2.33
467,-2,8,-10,-20,-13,-4,-2,-1,2.335
468,-1,6,12,22,18,4,-2,0,2.34
469,-3,-9,-9,-17,-6,-1,1,-2,2.345
470,-2,-1,14,18,1,-1,-1,-1,2.35
471,0,-3,11,17,-1,-2,3,1,2.355
472,1,2,-7,-15,-7,-2,-3,-1,2.36
473,-2,3,-6,-1,0,0,-1,0,2.365
474,-1,0,-3,-8,-4,-1,-4,-1,2.37
475,2,0,-1,1,4,2,1,-1,2.375
476,-2,-6,7,7,-8,-6,-1,-1,2.38
477,1,1,0,3,4,1,-2,-1,2.3850000000000002
478,-1,-4,-9,-10,-5,-1,0,0,2.39
479,-1,0,5,7,4,-1,0,-1,2.395
480,-1,1,-11,-13,-6,-2,1,-1,2.4
481,-1,-3,-8,-12,-6,-1,-2,-2,2.4050000000000002
482,0,2,13,18,2,1,0,2,2.41
483,-1,-4,3,5,-1,-1,-3,0,2.415
484,-1,0,-5,-8,-1,3,2,-1,2.42
485,0,-2,-12,-10,2,-2,-1,0,2.4250000000000003
486,-1,0,9,-2,2,2,-1,-2,2.43
487,-2,0,11,18,2,-3,-3,0,2.435
488,-1,-5,-13,-17,-8,-3,-3,-2,2.44
489,0,3,11,16,-4,-4,0,0,2.445
490,0,-8,-25,-19,12,2,1,-2,2.45
491,0,4,-5,-10,0,1,0,-2,2.455
492,-1,7,35,12,-6,-4,-3,1,2.46
493,-3,-11,0,30,11,3,1,1,2.465
494,1,6,-8,-10,-2,-2,-1,-3,2.47
495,-3,-13,-14,-10,-4,-1,-1,-3,2.475
496,0,3,-13,-13,2,0,0,0,2.48
497,-1,-3,7,-10,-6,-3,-1,-2,2.485
498,-3,-2,-7,-7,-10,-5,-1,0,2.49
499,-1,1,1,8,7,1,0,-1,2.495
500,1,-4,-10,-11,-5,-2,0,1,2.5
501,0,9,15,19,4,0,-1,-1,2.505
502,3,6,-14,-15,0,-1,1,1,2.5100000000000002
503,-2,0,15,3,-14,-3,-4,-2,2.515
504,-2,-1,15,25,10,4,0,0,2.52
505,0,-11,-17,-9,-3,0,-3,0,2.525
506,-1,-4,-3,-3,-2,-3,-2,1,2.5300000000000002
507,-1,1,-3,-9,-5,-4,-1,0,2.535
508,-1,-14,-20,-13,3,3,1,1,2.54
509,1,16,35,14,3,0,0,-1,2.545
510,-2,-2,8,13,-6,-2,-2,0,2.5500000000000003
511,1,-6,-13,-13,9,1,0,0,2.555
512,0,8,3,2,-4,-3,0,-1,2.56
513,-4,-21,-3,4,1,1,0,0,2.565
514,-1,-1,-4,-4,-2,-1,-1,-2,2.57
515,-1,-1,4,-7,1,0,-2,-2,2.575
516,1,4,-3,3,-9,-1,-1,-1,2.58
517,-2,2,-29,-15,3,-1,-1,1,2.585
518,0,-1,27,32,-1,-2,-1,-2,2.59
519,-2,0,-5,6,6,-1,-2,-2,2.595
520,-2,-3,-13,-22,-14,-4,-1,-3,2.6
521,1,6,7,0,1,1,1,0,2.605
522,-3,-8,-12,-9,6,1,0,0,2.61
523,-1,0,8,0,-5,-2,-2,-1,2.615
524,-1,2,-10,-13,-1,-3,-2,-1,2.62
525,-1,1,13,11,-7,-3,-1,0,2.625
526,-3,0,-7,-9,0,2,1,-1,2.63
527,1,1,2,4,-1,-1,-1,0,2.6350000000000002
528,-2,-5,5,9,1,-1,-3,-1,2.64
529,-1,5,-9,-17,0,0,-1,0,2.645
530,-2,-1,5,8,-3,0,-1,-1,2.65
531,-2,-3,-24,-21,-6,-4,0,-3,2.6550000000000002
532,-1,10,30,23,-4,-2,-2,-3,2.66
533,1,6,-4,8,17,4,1,-1,2.665
534,-4,-3,-6,-13,-6,-1,-3,-1,2.67
535,0,-4,3,7,0,-1,1,1,2.6750000000000003
536,-1,-2,-16,-5,3,-2,2,2,2.68
537,0,10,3,-15,-10,-3,-2,-1,2.685
538,0,-10,16,20,0,-1,-1,1,2.69
539,-1,-8,-5,1,3,-1,-2,1,2.695
540,-2,-10,-10,-3,1,1,1,-1,2.7
541,1,5,7,4,-4,-2,-1,0,2.705
542,0,2,-16,-18,1,-1,1,-1,2.71
543,-2,6,8,15,-3,-1,-1,-1,2.715
544,1,2,3,0,5,0,1,0,2.72
545,-2,-6,-3,-9,-3,-1,1,-2,2.725
546,0,3,-6,2,-3,0,-1,1,2.73
547,-1,-3,-3,-1,1,0,-1,-1,2.735
548,-1,-9,-18,-16,-5,-2,-1,1,2.74
549,0,1,11,8,5,2,1,-1,2.745
550,-1,3,5,-1,-4,-1,0,-4,2.75
551,-2,1,-13,-13,10,2,-1,0,2.755
552,-2,-2,26,32,7,2,-2,-1,2.7600000000000002
553,-4,-13,-15,1,-13,-3,-3,-3,2.765
554,-1,10,-5,-7,-8,-1,0,1,2.77
555,2,11,10,-4,6,1,-1,-1,2.775
556,-2,-9,3,7,1,-1,-2,0,2.7800000000000002
557,2,0,-14,-13,-3,-1,0,2,2.785
558,1,-2,-7,-12,-1,0,0,0,2.79
559,-1,-1,16,19,-4,-1,-2,0,2.795
560,-2,5,-6,-12,-4,-1,-3,-2,2.8000000000000003
561,-2,-1,3,-4,-4,-3,-1,-2,2.805
562,-1,1,-8,-2,7,1,0,-1,2.81
563,-2,-4,2,2,-5,-2,-2,0,2.815
564,1,1,-6,-8,1,-1,-1,-2,2.82
565,1,1,3,4,3,3,1,-1,2.825
566,-2,-3,0,-2,-1,-1,-1,-2,2.83
567,-2,-2,-7,-10,-14,-3,-2,-1,2.835
568,-3,-3,-3,5,16,4,-2,0,2.84
569,2,5,15,10,2,-2,-3,-2,2.845
570,-2,-6,0,-1,-1,-2,0,-1,2.85
571,-1,-1,-19,-12,-7,-2,-1,-3,2.855
572,-1,1,2,-3,-18,-6,0,0,2.86
573,1,-5,-22,-5,11,5,1,-2,2.865
574,3,6,27,15,3,0,0,1,2.87
575,-3,-1,1,-11,-7,-4,-2,-1,2.875
576,3,2,-2,12,12,3,2,0,2.88
577,-3,-9,-8,-11,-8,-3,-3,-2,2.8850000000000002
578,0,2,7,15,4,-1,1,-1,2.89
579,0,0,-2,-3,4,2,-2,-1,2.895
580,-1,1,4,-12,-5,-4,-1,-2,2.9
581,-2,3,-13,1,-6,0,-2,0,2.9050000000000002
582,-2,-12,-6,1,11,3,1,-1,2.91
583,2,-1,6,2,-2,-3,-1,0,2.915
584,-2,-5,-10,-8,-2,0,-1,0,2.92
585,-3,-4,-2,-9,-7,-4,-4,-3,2.9250000000000003
586,-2,-2,7,-4,-9,-3,-1,0,2.93
587,-1,4,5,11,4,0,-1,-2,2.935
588,-3,2,2,-2,-1,0,3,-1,2.94
589,0,0,2,-1,0,0,1,-1,2.945
590,2,0,-18,-13,-1,0,-2,-2,2.95
591,-1,-4,7,7,1,0,1,1,2.955
592,1,-1,3,2,-2,-2,-1,0,2.96
593,2,3,17,20,5,1,0,1,2.965
594,-3,-3,-13,-12,-4,-3,-1,-1,2.97
595,-2,-6,-5,-4,-5,-2,-1,-2,2.975
596,1,1,-6,2,16,6,2,0,2.98
597,-3,-11,-9,-6,-3,-1,-2,-1,2.985
598,3,14,3,-6,5,3,1,0,2.99
599,-2,0,7,13,-4,-3,-3,0,2.995
600,-1,1,-1,-4,-3,-1,-3,-1,3.0
601,-1,-4,-7,-10,-5,-4,-1,2,3.005
602,-1,-2,-1,-1,-3,-2,-1,0,3.0100000000000002
603,-1,-4,-6,-6,-1,-1,-1,2,3.015
604,1,9,12,6,-2,0,0,-2,3.02
605,-2,-14,-23,-18,-1,1,2,1,3.025
606,-3,-5,-2,5,-4,-2,-4,-1,3.0300000000000002
607,1,-4,3,5,0,-2,-2,1,3.035
608,0,0,-3,-4,-1,-1,-2,-1,3.04
609,0,3,9,4,4,0,2,-2,3.045
610,0,-3,-12,-14,-3,0,-1,-1,3.0500000000000003
611,-2,1,8,5,-6,-2,-1,-2,3.055
612,-1,0,2,6,-1,-3,-2,-2,3.06
613,-1,7,8,5,4,1,1,0,3.065
614,-1,-6,-6,2,-1,-1,-2,0,3.0700000000000003
615,1,3,-22,-23,2,1,-1,0,3.075
616,-1,1,12,7,-10,-3,-3,0,3.08
617,-2,-4,-3,0,3,-1,1,0,3.085
618,-1,6,22,3,-3,-3,-3,-2,3.09
619,-3,-3,-3,-2,-5,-1,1,-2,3.095
620,1,0,-18,-10,8,1,1,0,3.1
621,0,-1,12,10,-5,-3,-3,0,3.105
622,1,2,-5,-3,1,2,0,1,3.11
623,-3,-5,-5,-9,5,0,0,-3,3.115
624,-1,-4,-5,-3,-15,-3,-2,-2,3.12
625,-2,2,-3,0,1,0,-2,-2,3.125
626,-1,-4,15,19,8,2,0,1,3.13
627,-1,0,25,16,4,0,-4,0,3.1350000000000002
628,-1,-6,-26,-20,-6,-3,-1,0,3.14
629,1,5,10,14,-3,-1,-2,0,3.145
630,1,3,-8,-6,-5,1,2,0,3.15
631,0,-3,-12,-12,0,-1,1,-1,3.1550000000000002
632,-1,-1,20,11,-3,0,2,-1,3.16
633,-3,-4,-19,-16,0,0,-2,-1,3.165
634,0,-1,-2,2,-1,-3,-2,1,3.17
635,-1,-7,-1,1,-1,-4,0,0,3.1750000000000003
636,-4,-5,-22,-24,2,0,0,-2,3.18
637,0,9,29,23,0,-2,1,-2,3.185
638,-2,-9,-3,1,1,-2,-1,-1,3.19
639,-1,-6,-30,-32,-6,1,0,-1,3.1950000000000003
640,2,7,43,33,3,-1,0,1,3.2
641,-1,3,10,7,5,1,-1,0,3.205
642,0,1,-22,-15,-8,-1,-2,-1,3.21
643,-2,-2,-6,8,9,1,-1,0,3.215
644,-2,-4,-15,-13,-2,-1,-1,0,3.22
645,-1,1,-13,-38,-4,-2,-1,-1,3.225
646,0,9,10,31,-18,-3,1,-1,3.23
647,-2,-10,1,1,5,1,1,-3,3.235
648,-2,5,0,2,-1,0,-3,1,3.24
649,-2,-4,9,7,-1,-1,-2,0,3.245
650,-1,2,-12,-19,-5,-4,-1,-1,3.25
651,0,2,4,1,-7,-1,-1,1,3.255
652,-1,-5,-2,2,2,-1,0,-2,3.2600000000000002
653,-1,4,-15,-12,-7,-2,-1,-1,3.265
654,0,-6,15,1,8,2,-1,0,3.27
655,0,4,3,13,0,-1,-2,-2,3.275
656,0,0,1,-1,2,2,0,0,3.2800000000000002
657,-2,-3,-13,-11,-4,-1,0,0,3.285
658,-3,-3,11,13,6,2,0,-1,3.29
659,0,4,6,1,-4,-3,-1,-2,3.295
660,1,4,2,1,5,0,1,-1,3.3000000000000003
661,-2,-18,-5,6,-2,-2,-1,-2,3.305
662,0,13,2,-11,-1,-1,-1,0,3.31
663,-1,1,-5,-1,-1,-2,-4,-1,3.315
664,1,-3,-5,-3,-2,-1,-1,-1,3.3200000000000003
665,1,2,14,20,3,2,2,-1,3.325
666,-1,-3,-6,-13,4,0,1,-1,3.33
667,-4,-9,4,8,-2,0,0,-1,3.335
668,0,-2,-18,-28,-2,-3,-2,-3,3.34
669,0,1,23,33,2,-1,1,0,3.345
670,0,-1,2,5,2,2,-3,-2,3.35
671,0,1,-3,-7,-4,-2,0,-2,3.355
672,-1,-3,-2,-2,0,-1,-1,-2,3.36
673,1,9,-7,-18,-11,-2,-1,-1,3.365
674,-2,-11,-12,-2,13,3,2,-2,3.37
675,-2,0,-1,5,0,-2,-1,0,3.375
676,-2,-3,12,16,1,1,-1,0,3.38
677,1,9,-3,-6,0,0,-1,1,3.3850000000000002
678,-1,0,1,2,-6,-2,-2,-3,3.39
679,0,0,-10,-20,0,-1,-3,-2,3.395
680,-2,-1,2,4,0,-2,-4,-3,3.4
681,1,1,-13,-5,-2,-1,-2,0,3.4050000000000002
682,1,-4,13,17,0,-1,0,0,3.41
683,0,-4,9,10,3,-1,0,1,3.415
684,-1,2,-3,-9,-5,-2,0,-2,3.42
685,-2,-4,-6,-8,3,1,0,-3,3.4250000000000003
686,-1,0,-11,-16,-8,-2,-1,-1,3.43
687,-1,6,6,6,3,1,1,-1,3.435
688,1,-1,-14,-13,-5,-2,2,-1,3.44
689,1,-3,8,5,0,-3,-4,-1,3.4450000000000003
690,-1,-1,18,20,12,0,0,-1,3.45
691,-3,2,2,4,-3,-3,-3,-2,3.455
692,-2,-2,-5,-6,1,2,-1,0,3.46
693,-1,-1,-9,-4,-1,-1,2,-3,3.465
694,-1,1,-9,-16,-8,-3,-2,-2,3.47
695,1,-1,-6,-4,-1,-2,-2,0,3.475
696,1,43,16,12,4,0,-3,0,3.48
697,0,12,-28,-24,-5,-1,-1,0,3.485
698,-2,2,14,8,-5,-3,-2,-2,3.49
699,-2,-10,-4,2,4,1,2,2,3.495
700,-2,-22,3,6,-2,-1,-4,0,3.5
701,-2,-15,-2,-5,2,1,-1,-2,3.505
702,0,1,-4,0,-1,-1,2,-1,3.5100000000000002
703,-3,-10,-8,-13,-5,-3,-1,-3,3.515
704,0,-3,16,15,0,-1,0,2,3.52
705,0,1,2,-1,0,0,-2,-1,3.525
706,0,-14,-6,3,2,2,1,-2,3.5300000000000002
707,-3,2,-6,-11,-4,-1,-2,-1,3.535
708,-2,-9,-16,-12,-8,0,-1,-2,3.54
709,-2,-3,15,18,8,1,-2,1,3.545
710,0,-4,-22,-21,-2,0,0,0,3.5500000000000003
711,0,10,14,7,-5,-3,-4,-2,3.555
712,-4,16,-6,-3,7,0,0,-1,3.56
713,-1,6,-2,-1,-1,-1,-1,0,3.565
714,-1,2,4,-1,-2,-3,0,0,3.5700000000000003
715,2,1,-21,-25,-3,1,0,0,3.575
716,2,-17,23,25,0,-2,-2,4,3.58
717,-1,-14,-12,-11,-5,-2,-1,-1,3.585
718,0,8,18,17,7,1,-2,1,3.59
719,-2,-3,-11,-13,-4,-2,-2,-5,3.595
720,-3,-10,-9,-6,-1,-2,-1,-4,3.6
721,3,9,26,20,-1,-2,1,0,3.605
722,-1,-6,-13,-17,-5,-1,1,-2,3.61
723,-1,-15,3,4,-9,-2,-3,-1,3.615
724,-2,-3,6,6,13,2,-1,-1,3.62
725,-2,-5,-1,-6,-1,-2,-3,0,3.625
726,0,1,1,2,-7,-3,-2,-2,3.63
727,1,1,2,9,5,1,0,1,3.6350000000000002
728,0,-7,-11,-10,-5,-1,2,-1,3.64
729,0,-2,-6,-1,-6,-2,2,0,3.645
730,-2,-3,-4,-2,6,1,-4,1,3.65
731,-2,1,3,4,1,-3,0,1,3.6550000000000002
732,1,2,2,0,-1,1,-1,-1,3.66
733,0,6,-17,-13,-7,-4,0,0,3.665
734,-1,-5,-5,-7,-7,-2,-2,-3,3.67
735,-2,-1,10,14,3,-1,0,0,3.6750000000000003
736,0,-2,-8,-10,-2,-2,3,-1,3.68
737,-1,-1,3,-5,-5,-1,-2,-3,3.685
738,-1,0,0,5,2,1,-1,0,3.69
739,0,7,-9,-13,1,-2,-2,-1,3.6950000000000003
740,-4,-5,9,7,-8,-4,-1,-3,3.7
741,-1,-6,6,7,3,-2,-1,0,3.705
742,1,5,8,16,6,1,2,2,3.71
743,-2,-4,-12,-27,0,0,-2,-2,3.715
744,0,-3,9,18,-6,-1,-4,-1,3.72
745,0,1,-8,-14,-3,0,-2,-1,3.725
746,-3,4,-4,-6,-3,-2,-1,1,3.73
747,1,4,1,11,-5,-3,4,2,3.735
748,0,2,-21,-26,5,1,-1,-1,3.74
749,-2,-10,0,-2,-2,-2,-1,-1,3.745
750,0,11,24,29,-3,-2,-2,-1,3.75
751,1,0,4,6,-3,0,-1,-1,3.755
752,1,4,-4,-4,-4,-1,1,-1,3.7600000000000002
753,-3,-7,-11,-5,1,1,-1,-2,3.765
754,-2,-6,-12,-24,-9,-3,0,-1,3.77
755,-1,4,3,11,7,-1,-2,-1,3.775
756,0,-3,2,2,-3,0,-1,0,3.7800000000000002
757,-1,2,6,6,-7,-2,-1,0,3.785
758,-1,-4,-11,2,16,4,2,-1,3.79
759,-3,-2,14,10,-2,-2,-4,-2,3.795
760,-2,-6,-16,-12,-3,0,0,0,3.8000000000000003
761,2,8,8,7,1,-1,1,-1,3.805
762,-3,-4,-2,-8,-8,-3,-3,0,3.81
763,0,1,1,2,1,1,2,0,3.815
764,-2,-6,-14,-7,-1,-2,-3,-1,3.8200000000000003
765,-1,1,16,13,3,1,-2,0,3.825
766,-1,4,1,-9,-5,-2,-1,-2,3.83
767,-2,-1,-7,-9,-4,-2,0,-1,3.835
768,-1,-8,10,13,-1,2,-1,0,3.84
769,-2,-2,-7,-3,2,1,0,1,3.845
770,-1,-1,-13,-14,0,0,-3,0,3.85
771,1,1,11,8,-5,-2,2,0,3.855
772,1,11,-24,-22,-11,-4,-3,-1,3.86
773,-4,-17,24,14,6,0,0,-3,3.865
774,0,-7,-6,3,4,1,3,-2,3.87
775,-2,6,19,12,1,0,-4,-1,3.875
776,0,3,9,-1,-1,0,-2,1,3.88
777,0,6,-9,-4,1,-1,-1,0,3.8850000000000002
778,-2,-5,-4,-17,-11,-7,-3,1,3.89
779,2,-2,-18,-10,0,-1,1,-2,3.895
780,-2,-5,9,16,6,2,1,0,3.9
781,1,7,4,-3,-2,-2,0,0,3.9050000000000002
782,-1,-2,4,13,7,1,0,0,3.91
783,-1,-3,-12,-8,-1,-1,-1,-1,3.915
784,-4,0,4,3,-2,-2,3,-1,3.92
785,1,-1,-12,-5,2,0,-2,-2,3.9250000000000003
786,0,3,1,-2,-5,-1,-2,-3,3.93
787,-1,-8,-8,-11,-9,-2,0,0,3.935
788,1,5,11,8,6,0,-2,-2,3.94
789,0,-3,-11,-8,8,1,0,-1,3.9450000000000003
790,0,3,16,20,1,-1,-1,0,3.95
791,-1,2,-1,0,-2,-2,-1,-1,3.955
792,0,-3,-4,-8,-3,0,1,-2,3.96
793,-2,5,-3,0,0,1,-1,1,3.9650000000000003
794,-2,-10,-17,-1,1,-2,-2,-1,3.97
795,0,0,10,-12,0,0,-2,-1,3.975
796,0,0,4,1,-1,0,-2,-2,3.98
797,-1,-1,-2,1,7,3,2,-2,3.985
798,-2,-6,6,6,-3,-1,-2,-1,3.99
799,-2,-3,11,20,3,1,-2,1,3.995
800,-2,0,-7,-4,-4,-1,-2,0,4.0
801,-1,1,-6,-13,-8,-3,0,-1,4.005
802,2,0,-7,-6,-5,0,0,0,4.01
803,-1,1,-10,4,13,3,3,-2,4.015
804,-2,-6,1,-5,-3,-2,-4,-2,4.0200000000000005
805,-1,0,-1,4,-3,-2,0,-2,4.025
806,-1,1,-2,-15,-5,-1,-4,-1,4.03
807,0,3,5,1,-5,-2,0,0,4.035
808,0,3,-1,2,2,-1,4,0,4.04
809,-1,-2,-16,-29,-1,1,-2,-1,4.045
810,-2,0,6,19,0,0,0,-1,4.05
811,-1,-3,-3,2,0,-1,-3,0,4.055
812,-3,0,15,15,1,-1,1,-2,4.0600000000000005
813,-1,-2,-5,-2,-4,-3,-3,-2,4.065
814,0,-1,-6,-9,1,1,0,-1,4.07
815,0,4,-7,-5,0,-1,-1,-1,4.075
816,-2,-10,-18,-14,-5,-1,0,-1,4.08
817,-4,3,5,2,-4,-2,-2,0,4.085
818,-1,10,10,5,2,0,-4,1,4.09
819,-1,-1,15,23,6,0,-3,-1,4.095
820,3,-1,-6,-9,-3,-3,-3,2,4.1
821,-1,-3,-12,-5,-4,0,3,-1,4.105
822,-3,-3,4,-5,-3,-2,-1,-2,4.11
823,-1,-4,-10,-10,-8,-1,0,-2,4.115
824,0,3,22,15,1,-1,1,-1,4.12
825,-1,-2,2,7,-1,1,0,0,4.125
826,-1,1,-7,-14,-3,-3,-1,-2,4.13
827,-1,0,1,-8,-3,-3,-1,-1,4.135
828,-2,-1,-14,-17,-2,-1,-1,0,4.14
829,-1,-1,3,19,10,2,-1,2,4.1450000000000005
830,-2,-1,-10,-17,-1,-3,-1,0,4.15
831,0,1,28,25,-2,-1,-3,0,4.155
832,1,1,2,1,3,1,-1,1,4.16
833,1,-4,-9,-2,-5,-2,1,0,4.165
834,-1,0,-4,-16,-14,-2,-1,-2,4.17
835,0,-4,-14,-9,14,2,1,-1,4.175
836,0,-1,-13,-10,0,1,1,0,4.18
837,0,1,25,12,-3,-3,-1,-1,4.1850000000000005
838,-1,-6,-4,9,4,1,1,-2,4.19
839,-2,-2,-7,-12,-12,-3,-1,-2,4.195
840,-1,7,-6,-11,-2,3,0,-1,4.2
841,-2,-14,0,7,3,1,-2,-2,4.205
842,0,-3,-1,3,-5,-6,-1,0,4.21
843,1,7,12,7,1,0,-2,0,4.215
844,-1,-3,-9,-5,1,0,-2,0,4.22
845,0,5,0,-9,0,-2,0,0,4.225
846,-1,-7,-24,-18,-8,-2,2,-1,4.23
847,-1,-2,17,18,8,2,-1,0,4.235
848,-1,-2,12,21,0,-2,-1,-3,4.24
849,0,2,8,-5,2,1,1,1,4.245
850,2,-1,0,6,5,2,1,-1,4.25
851,-2,-1,-7,-2,-8,-3,-1,2,4.255
852,-2,-1,-7,-16,-11,-6,-3,-1,4.26
853,2,-2,8,23,12,3,3,-1,4.265
854,2,1,-3,-6,-2,0,-3,1,4.2700000000000005
855,-3,-13,-18,-24,-9,-4,-1,-4,4.275
856,-1,1,19,27,7,1,-2,0,4.28
857,-2,0,-5,-6,-10,-4,-3,-1,4.285
858,0,2,5,3,0,0,-2,0,4.29
859,0,-4,-9,-6,1,2,3,-1,4.295
860,2,2,1,-2,-1,-2,-2,0,4.3
861,-1,1,-11,-17,-8,-2,1,0,4.305
862,1,3,21,26,16,5,3,1,4.3100000000000005
863,-2,-1,0,2,0,0,-3,1,4.315
864,-2,-4,-10,-5,-1,-1,2,-2,4.32
865,3,12,4,0,-2,-1,0,-1,4.325
866,-3,-15,3,3,0,-2,1,1,4.33
867,1,2,-9,-13,-3,-2,0,-2,4.335
868,-2,-7,1,8,-1,-1,1,-1,4.34
869,1,4,-4,-1,5,1,0,-2,4.345
870,-2,3,-5,-9,-5,-2,-1,-3,4.3500000000000005
871,1,3,-8,-4,4,4,-2,0,4.355
872,0,-1,7,9,-6,-4,-3,0,4.36
873,-1,-1,2,6,-3,-2,-1,0,4.365
874,-1,2,4,3,-3,-2,-4,-1,4.37
875,2,3,2,-7,-3,-1,0,-1,4.375
876,-3,-11,-14,-18,-1,-1,0,-2,4.38
877,-1,-3,5,10,2,0,1,-2,4.385
878,1,-2,-8,-19,0,-2,-2,-1,4.39
879,-4,-7,-4,13,-4,-3,0,-1,4.3950000000000005
880,2,7,-3,-3,5,1,1,-1,4.4
881,-3,-6,4,12,-1,0,0,-1,4.405
882,-2,-3,-1,-9,-7,-2,-3,-1,4.41
883,1,3,-1,4,0,0,0,0,4.415
884,-1,2,-1,-7,-7,-3,-1,0,4.42
885,2,-4,-3,-3,6,4,0,0,4.425
886,-3,3,-4,1,1,-2,-2,-3,4.43
887,-1,3,21,11,1,-1,-3,-1,4.4350000000000005
888,0,2,-1,-1,0,1,0,0,4.44
889,-2,-2,-7,-17,-7,-3,-2,-1,4.445
890,1,1,3,3,4,1,1,-1,4.45
891,-1,-4,-20,-9,-8,-1,0,-1,4.455
892,0,-2,-10,-22,-10,-1,0,-1,4.46
893,3,8,-7,9,11,4,1,1,4.465
894,-1,3,21,29,13,0,-1,-1,4.47
895,0,-4,-15,-19,-4,-2,0,0,4.4750000000000005
896,0,-5,11,17,8,1,-1,-1,4.48
897,-3,-6,9,-6,-7,-2,-1,-2,4.485
898,1,3,6,10,-5,-2,-2,1,4.49
899,1,0,-5,-8,0,0,1,-2,4.495
900,0,1,-7,-7,1,2,0,-2,4.5
901,0,1,-12,-17,-5,-2,-3,-1,4.505
902,-2,-5,-2,6,1,0,-2,-1,4.51
903,-2,-2,7,7,-3,-3,-2,-3,4.515
904,-2,1,-4,0,5,4,2,0,4.5200000000000005
905,0,1,11,14,-1,-2,-1,-1,4.525
906,1,-1,-4,-10,-5,-1,-1,1,4.53
907,-1,-1,-8,-3,0,1,3,0,4.535
908,-1,1,3,5,-2,-2,-3,-1,4.54
909,-1,-5,-9,-8,0,-1,-1,-1,4.545
910,-2,3,-12,-20,-10,-2,-1,-2,4.55
911,0,8,28,31,5,1,0,-3,4.555
912,0,4,7,5,5,0,-1,-1,4.5600000000000005
913,-2,-1,-6,-15,-5,-2,-3,0,4.565
914,-1,-2,-7,-1,-6,-2,-2,-1,4.57
915,-2,-10,-1,0,3,1,-2,-1,4.575
916,1,4,-13,-20,-7,-1,-1,0,4.58
917,-1,1,30,33,0,-2,3,-1,4.585
918,1,-3,-17,-12,-2,0,-2,-1,4.59
919,0,1,-6,-11,-2,0,0,-1,4.595
920,1,3,8,9,4,0,0,0,4.6000000000000005
921,0,0,-13,-19,-5,-3,0,-1,4.605
922,-4,-5,4,13,3,0,-3,-1,4.61
923,0,2,-2,-4,0,2,0,1,4.615
924,0,2,-2,-3,-6,-3,-1,1,4.62
925,1,1,-3,-2,5,3,1,1,4.625
926,-2,-2,30,33,4,0,-1,-1,4.63
927,-1,0,-10,-13,-1,-1,0,-1,4.635
928,-2,-5,0,0,0,-2,-2,-3,4.64
929,0,-5,-10,-5,0,1,-2,1,4.6450000000000005
930,-1,-5,-16,-20,-7,-2,-1,1,4.65
931,0,1,6,7,7,3,2,-1,4.655
932,-1,-3,-3,3,-1,0,0,-3,4.66
933,-1,3,-14,-15,-5,0,-1,-1,4.665
934,1,3,16,23,7,0,-1,0,4.67
935,-4,-10,-12,-16,-2,-2,-4,-1,4.675
936,0,1,15,21,3,-1,-2,0,4.68
937,-1,-4,-4,-2,1,-1,0,-1,4.6850000000000005
938,-1,5,-15,-22,-11,-2,-1,0,4.69
939,-1,-4,-6,1,-4,-3,-2,0,4.695
940,-1,7,-1,2,4,0,3,-3,4.7
941,0,-5,-5,-9,-5,-3,-3,-3,4.705
942,0,1,17,22,8,-1,0,0,4.71
943,-1,-5,-1,0,-7,-4,-3,-2,4.715
944,-2,-2,-2,-1,-3,0,-4,1,4.72
945,1,7,7,8,-4,-1,-1,1,4.7250000000000005
946,-1,-1,-25,-31,-5,-2,-1,-2,4.73
947,-3,-8,-2,1,1,-2,2,0,4.735
948,0,-2,2,-2,-1,-1,-2,-1,4.74
949,0,-1,8,-7,6,3,1,-1,4.745
950,-2,-6,-12,-3,3,2,1,0,4.75
951,1,6,1,-11,-3,-1,-1,-2,4.755
952,0,-2,-9,13,-8,-1,2,-1,4.76
953,0,-1,-11,-13,0,1,0,-1,4.765
954,-2,3,33,20,-8,-2,-1,-2,4.7700000000000005
955,1,4,3,24,10,4,0,-1,4.775
956,-2,-9,-17,-28,-5,-2,-2,0,4.78
957,0,9,24,30,1,-5,-2,0,4.785
958,-1,-3,-21,-16,-4,-1,1,0,4.79
959,2,1,-12,-22,-13,-5,-2,0,4.795
960,-3,0,19,12,5,2,-1,-2,4.8
961,-2,-7,-14,-7,-4,-2,0,-2,4.805
962,0,2,-2,-7,3,0,-3,0,4.8100000000000005
963,-1,6,-2,-13,-4,-1,0,-1,4.815
964,0,-1,7,16,5,0,0,2,4.82
965,-2,0,4,11,-1,0,0,-1,4.825
966,0,0,-8,-6,-5,-2,0,-3,4.83
967,-1,-1,-16,-11,4,1,0,1,4.835
968,-3,-2,11,8,2,0,1,-1,4.84
969,-2,-3,-6,-7,-2,-1,-1,-1,4.845
970,-2,-5,3,3,-4,-3,-1,0,4.8500000000000005
971,-1,-3,12,12,-1,0,-4,-1,4.855
972,-1,-2,-3,-7,2,0,0,-2,4.86
973,0,5,4,11,2,1,0,0,4.865
974,-4,-13,-23,-17,-1,2,1,-1,4.87
975,1,12,13,7,0,-1,-1,-1,4.875
976,2,15,-14,-21,-5,-3,-3,-2,4.88
977,-3,-14,9,15,4,0,-1,-1,4.885
978,0,2,9,-1,3,1,0,-1,4.89
979,-1,-6,-1,1,-3,0,0,-1,4.8950000000000005
980,0,-2,-17,-18,-9,-3,0,0,4.9
981,-3,-7,-9,-3,-3,-2,-1,-1,4.905
982,0,-1,10,17,7,1,-1,0,4.91
983,-1,-2,-6,-1,2,0,-2,0,4.915
984,-1,-1,6,4,2,2,0,-1,4.92
985,1,4,8,-2,-8,-1,4,0,4.925
986,-1,-3,-8,-8,-2,0,-3,-1,4.93
987,0,-2,-2,6,-2,1,-2,-1,4.9350000000000005
988,0,-3,6,4,-3,-2,-1,-1,4.94
989,2,0,-6,1,9,3,1,1,4.945
990,0,1,-10,-11,-5,-2,-1,0,4.95
991,0,3,-7,-5,2,0,1,0,4.955
992,-1,-4,0,-3,-10,-2,-4,-2,4.96
993,0,6,4,11,3,1,-2,-2,4.965
994,-2,-4,-11,-15,-2,-5,-1,-2,4.97
995,-1,-6,1,-16,-8,-3,-3,-1,4.9750000000000005
996,0,5,11,22,8,4,3,1,4.98
997,1,5,-14,-20,2,0,-2,-1,4.985
998,-1,1,14,24,-8,-3,-2,1,4.99
999,-2,-5,-1,6,9,1,3,0,4.995
1000,0,-1,-2,-10,-2,0,-2,0,5.0
1001,-2,-2,-14,-6,1,0,-1,-2,5.005
1002,-1,3,-12,-24,-6,-3,-2,-1,5.01
1003,0,-12,22,33,0,0,2,1,5.015
1004,-1,-5,-15,-10,0,-1,-2,-1,5.0200000000000005
1005,-2,1,14,5,-10,-3,-3,-1,5.025
1006,1,-3,-7,-9,9,2,1,0,5.03
1007,0,6,-2,-5,-1,-2,-2,-2,5.035
1008,-1,-1,-9,-16,-4,0,0,-1,5.04
1009,1,-5,-5,4,-1,0,0,0,5.045
1010,-1,-1,15,4,-10,-3,-1,-2,5.05
1011,-1,7,2,10,16,4,0,0,5.055
1012,-1,-1,5,11,3,0,-2,0,5.0600000000000005
1013,-1,1,-1,-8,-5,-2,-1,-1,5.065
1014,-2,-2,-3,-6,-4,-2,1,-1,5.07
1015,-1,2,-4,0,-6,-2,-4,-1,5.075
1016,-3,-11,-12,-9,-3,1,1,-3,5.08
1017,3,-2,3,9,3,0,0,0,5.085
1018,-2,-5,4,10,3,1,-1,-1,5.09
1019,0,0,3,-2,-5,-2,0,0,5.095
1020,-1,1,5,1,-1,1,3,0,5.1000000000000005
1021,-1,1,-6,-14,-3,-2,0,-3,5.105
1022,0,-4,-14,-10,-2,-1,-1,-1,5.11
1023,-2,0,4,9,6,2,4,-2,5.115
1024,0,-4,4,-4,-1,-3,-2,-1,5.12
1025,-2,5,1,7,1,-1,1,-1,5.125
1026,-2,-1,7,7,1,-1,-3,0,5.13
1027,-2,2,0,-6,-5,-2,-2,-1,5.135
1028,-1,-4,-19,-15,0,0,-1,0,5.14
1029,0,-4,11,15,0,-1,0,1,5.1450000000000005
1030,-2,-3,-7,-11,-14,-4,-4,-2,5.15
1031,0,-3,-9,-16,1,-1,-2,-2,5.155
1032,0,-2,6,9,6,5,2,-1,5.16
1033,-3,0,9,5,2,-2,-3,0,5.165
1034,2,2,-7,1,1,-1,-2,-1,5.17
1035,0,-2,0,0,-14,-5,-1,-1,5.175
1036,0,-1,0,2,4,0,0,-1,5.18
1037,1,-1,-14,-19,-2,1,0,0,5.1850000000000005
1038,-1,0,7,7,3,0,1,-1,5.19
1039,-1,-5,-27,-44,-6,-2,-1,-2,5.195
1040,0,1,44,46,2,-2,-1,1,5.2
1041,-1,-6,-10,-6,-1,-2,-1,-1,5.205
1042,-1,2,-1,-2,3,0,0,-1,5.21
1043,-1,1,-7,-4,-7,-1,-2,-1,5.215
1044,0,1,-23,-21,6,0,-1,0,5.22
1045,1,6,26,17,-2,-3,-1,-3,5.2250000000000005
1046,-2,-14,1,-8,0,-2,-2,0,5.23
1047,-3,-1,6,19,5,2,0,0,5.235
1048,-1,5,-2,-9,-5,-4,-1,-3,5.24
1049,0,-5,-6,-2,-2,-2,-3,-1,5.245
1050,1,-1,-8,-4,0,-1,0,-1,5.25
1051,-2,-1,10,9,1,-1,-2,-1,5.255
1052,-1,-5,9,12,0,-1,0,-1,5.26
1053,-3,-2,-14,-13,2,1,-1,-2,5.265
1054,-1,2,-8,-16,-9,-1,-1,-2,5.2700000000000005
1055,1,-1,7,18,18,5,1,1,5.275
1056,0,3,-7,-10,-7,-4,-1,-2,5.28
1057,-3,-1,-3,5,3,1,-1,-1,5.285
1058,-3,-2,2,-7,-2,-2,1,-2,5.29
1059,0,0,10,6,-4,0,-1,0,5.295
1060,-1,1,-2,10,5,0,-1,0,5.3
1061,0,1,3,-5,-3,2,-2,1,5.305
1062,-1,-2,0,1,3,0,-1,-1,5.3100000000000005
1063,-1,-2,-4,5,3,0,0,-3,5.315
1064,-1,-1,-6,-15,-11,-3,-2,-2,5.32
1065,-1,-1,-2,-4,3,-1,0,-1,5.325
1066,-1,-1,-22,-14,2,0,-1,0,5.33
1067,1,1,30,28,0,1,0,0,5.335
1068,-1,-2,-8,4,-1,-1,-4,0,5.34
1069,0,1,-7,-10,-3,-2,0,0,5.345
1070,-1,-3,-12,-19,-10,-3,-3,-3,5.3500000000000005
1071,-1,0,25,21,1,0,0,0,5.355
1072,0,-5,-7,0,0,0,-2,-1,5.36
1073,0,4,12,3,-2,-3,-2,1,5.365
1074,1,1,-7,-8,3,1,0,0,5.37
1075,-1,2,-9,-5,-5,-3,-1,-1,5.375
1076,-2,-3,-3,-5,2,0,0,-1,5.38
1077,-1,-6,0,1,-3,-1,-1,-1,5.385
1078,-1,0,5,12,0,0,1,1,5.39
1079,-2,-5,-16,-13,-4,-2,-3,-1,5.3950000000000005
1080,-1,3,5,-4,-2,1,1,-1,5.4
1081,0,0,-11,-12,0,0,0,-1,5.405
1082,0,-5,17,28,9,0,0,-1,5.41
1083,-2,0,-10,-13,-4,-2,0,0,5.415
1084,-1,2,-2,-9,-4,-2,-2,0,5.42
1085,-2,-6,-3,6,-1,-1,0,-1,5.425
1086,2,12,13,8,-5,1,-1,0,5.43
1087,-2,-2,-17,-17,1,0,0,-2,5.4350000000000005
1088,-1,-3,4,6,-3,-1,-3,0,5.44
1089,-2,-4,6,-4,-5,-4,-1,-1,5.445
1090,1,-2,-6,16,-1,0,0,1,5.45
1091,-2,-5,3,-8,1,0,0,-1,5.455
1092,-1,6,-10,-14,-3,-2,-1,1,5.46
1093,-1,-3,6,7,-6,-3,0,-2,5.465
1094,3,4,-19,-3,6,2,-2,-1,5.47
1095,0,-5,-7,-6,0,2,-1,-2,5.4750000000000005
1096,1,-3,1,1,0,-1,-2,-2,5.48
1097,-2,-2,-13,-17,-4,-3,-1,-2,5.485
1098,-1,-1,11,13,1,-2,0,-2,5.49
1099,1,7,12,-2,-7,-2,1,1,5.495
1100,-1,-1,0,2,-3,-1,-1,1,5.5
1101,1,3,-2,-4,4,2,0,0,5.505
1102,-1,-4,-2,-5,-1,-1,0,-1,5.51
1103,0,1,-1,-2,1,-2,-3,0,5.515
1104,-2,-4,17,26,1,-1,1,0,5.5200000000000005
1105,-1,-5,-6,-2,-4,-3,-3,-1,5.525
1106,-2,-1,3,-10,-2,-2,-1,0,5.53
1107,-2,0,-7,-4,-9,-2,0,0,5.535
1108,0,0,-13,-13,4,2,3,0,5.54
1109,-2,1,7,17,12,2,0,-1,5.545
1110,-2,0,14,11,3,0,-1,0,5.55
1111,1,1,-11,-15,-9,-1,-2,0,5.555
1112,-1,-3,7,-16,-7,-4,-3,0,5.5600000000000005
1113,-2,-6,-11,10,-10,-2,-2,-1,5.565
1114,-1,2,8,6,10,3,1,3,5.57
1115,2,-6,-12,-7,-1,-1,-5,0,5.575
1116,0,17,4,2,2,1,2,0,5.58
1117,0,2,1,-15,-3,-4,-3,0,5.585
1118,-1,-17,-11,-11,-9,-1,2,-4,5.59
1119,-4,-11,-10,6,1,-1,-4,-2,5.595
1120,-1,-5,7,14,3,-2,-3,-2,5.6000000000000005
1121,-1,3,9,5,1,1,0,-1,5.605
1122,-3,3,-2,-9,-6,-3,-1,0,5.61
1123,-1,0,-16,-18,-3,-2,0,-2,5.615
1124,1,-4,7,16,10,3,0,-2,5.62
1125,-2,-2,-8,2,1,1,-2,0,5.625
1126,0,1,6,6,0,-3,-3,-2,5.63
1127,-3,-1,-5,-9,1,1,2,1,5.635
1128,0,4,-14,-16,-3,-2,0,-1,5.64
1129,-3,-2,-5,-5,-8,-1,0,-2,5.6450000000000005
1130,-1,1,22,13,-1,-1,-2,0,5.65
1131,0,4,6,6,5,-2,-2,-2,5.655
1132,-2,-5,-5,11,8,3,0,0,5.66
1133,0,-5,-6,-9,-1,0,-1,0,5.665
1134,-2,1,-21,-31,-8,-4,0,-3,5.67
1135,1,4,19,20,8,3,2,0,5.675
1136,0,3,10,4,-6,-1,1,-1,5.68
1137,0,-10,-7,1,4,1,1,-1,5.6850000000000005
1138,-2,4,-2,-2,0,-3,-2,-1,5.69
1139,2,2,1,-5,-3,-2,-1,-2,5.695
1140,0,10,-30,-25,-2,0,0,-1,5.7
1141,-6,-11,18,20,-5,-4,-3,-2,5.705
1142,-1,2,7,7,2,0,-3,1,5.71
1143,0,-3,-5,-9,-2,0,0,-2,5.715
1144,0,-2,4,7,-2,-1,-3,-1,5.72
1145,-1,4,-8,-9,-3,-3,-1,0,5.7250000000000005
1146,-1,-6,-5,6,0,2,1,-1,5.73
1147,-1,1,-6,-6,0,-2,-1,0,5.735
1148,-1,-3,12,-4,-2,-2,0,1,5.74
1149,-1,0,-1,0,0,-1,-1,-1,5.745
1150,-1,0,-2,0,2,1,-1,-2,5.75
1151,1,-1,-1,3,-5,3,2,1,5.755
1152,-1,-8,-18,-14,-6,-4,-4,-4,5.76
1153,-1,2,9,4,0,-3,-4,-1,5.765
1154,-1,-2,14,14,-7,-4,-1,-2,5.7700000000000005
1155,0,2,0,10,8,1,2,-1,5.775
1156,-1,-3,-6,-17,-4,0,0,1,5.78
1157,0,5,-1,4,1,1,-1,0,5.785
1158,0,0,-8,-6,-6,-1,0,2,5.79
1159,-2,2,17,16,9,1,-2,-1,5.795
1160,-1,-6,-7,-1,4,-1,0,0,5.8
1161,0,-1,-6,-21,-12,-3,-2,-1,5.805
1162,1,5,-8,-12,6,3,1,0,5.8100000000000005
1163,-2,4,13,27,6,-1,1,1,5.815
1164,-1,-17,0,3,0,0,-1,-1,5.82
1165,1,1,1,1,-1,0,4,0,5.825
1166,1,-1,-17,-22,-5,-3,-2,-1,5.83
1167,-3,-6,6,5,-7,0,-2,-1,5.835
1168,-4,2,9,6,-8,-2,0,-1,5.84
1169,-1,3,0,-1,9,3,0,1,5.845
1170,-2,-4,-10,-4,-6,-1,-1,-2,5.8500000000000005
1171,0,-10,-6,-2,7,2,-1,0,5.855
1172,0,3,0,-5,-2,1,1,0,5.86
1173,0,0,3,-4,1,0,-3,-1,5.865
1174,0,2,15,24,-1,-2,0,1,5.87
1175,0,4,-3,-6,-6,-3,0,-2,5.875
1176,0,1,-1,-2,-2,-2,-2,-2,5.88
1177,-1,-5,-1,-1,3,0,-3,0,5.885
1178,2,2,-6,-4,3,1,-2,-1,5.89
1179,-3,-5,-2,-10,-17,-4,-2,-2,5.8950000000000005
1180,1,-7,-8,2,16,4,0,0,5.9
1181,-1,7,0,-14,-11,0,-4,-1,5.905
1182,-1,-6,8,7,8,0,-3,0,5.91
1183,-1,-3,0,7,-3,0,0,-2,5.915
1184,0,3,-4,-1,-3,-2,0,1,5.92
1185,1,3,-6,-14,-5,-2,1,1,5.925
1186,-1,-5,4,17,4,-1,1,-2,5.93
1187,1,10,-3,-22,-3,0,0,0,5.9350000000000005
1188,0,2,13,31,2,1,1,0,5.94
1189,-1,-8,-4,1,-1,-1,-2,-2,5.945
1190,0,-2,-5,-19,-9,-2,-1,0,5.95
1191,-3,-4,-13,-10,-2,-2,-3,-4,5.955
1192,0,9,18,13,0,-1,0,-2,5.96
1193,-1,-5,-14,-9,-3,-3,-1,1,5.965
1194,-2,-4,1,5,-3,-1,-1,-3,5.97
1195,-1,9,16,-7,4,-2,-1,-2,5.9750000000000005
1196,-3,0,5,2,-6,-1,-4,-1,5.98
1197,0,1,4,11,7,0,1,-2,5.985
1198,-1,-5,-14,-6,-3,-1,2,0,5.99
1199,1,-7,-19,-11,-2,0,0,0,5.995
1200,1,7,0,-4,-3,-3,0,-2,6.0
1201,-1,-2,-6,-2,-1,-2,-4,-2,6.005
1202,-1,6,-11,-27,-7,-3,-2,0,6.01
1203,0,-6,37,48,7,3,0,1,6.015000000000001
1204,-1,-4,-13,-6,0,-1,0,-1,6.0200000000000005
1205,-1,-2,-1,-23,-17,-4,-1,-1,6.025
1206,1,5,-1,21,20,7,3,-1,6.03
1207,1,-4,-2,-1,0,-3,-1,-1,6.035
1208,-1,-4,-10,-9,2,1,1,-1,6.04
1209,-3,-2,11,13,-2,-3,0,-1,6.045
1210,0,-1,5,-10,-17,-5,-1,0,6.05
1211,0,2,-19,-2,18,4,0,-1,6.055
1212,-2,0,-4,-7,-3,-1,-1,-1,6.0600000000000005
1213,-2,-5,-1,11,1,-1,-1,0,6.065
1214,-1,2,8,7,0,0,1,0,6.07
1215,-1,2,-14,-12,-7,-2,-2,-2,6.075
1216,1,-4,9,2,-7,-3,-3,-1,6.08
1217,-1,-3,-15,-23,0,-1,-1,1,6.085
1218,-2,-1,12,26,5,-1,-2,-1,6.09
1219,-2,0,-11,-9,1,2,-2,0,6.095
1220,-1,-8,-9,-16,-6,-3,-1,1,6.1000000000000005
1221,0,1,37,27,4,0,1,-1,6.105
1222,-1,4,-5,-12,-4,-2,-2,-1,6.11
1223,-2,-3,2,0,-7,-3,0,-2,6.115
1224,0,3,-5,3,2,-1,1,0,6.12
1225,-1,-5,-11,-9,-1,-1,0,0,6.125
1226,-1,0,-10,-3,2,0,-3,-1,6.13
1227,-2,-5,12,5,0,-1,0,0,6.135
1228,3,9,8,5,2,3,2,-1,6.140000000000001
1229,-1,-8,-9,-3,1,-2,-1,0,6.1450000000000005
1230,-2,-3,-3,0,2,-1,-1,-1,6.15
1231,0,-1,-14,-15,-10,-1,-1,0,6.155
1232,-1,4,6,13,2,-1,1,-1,6.16
1233,0,-2,-10,-15,-7,-3,-1,-1,6.165
1234,1,-1,-11,-13,3,1,0,0,6.17
1235,3,4,34,31,-4,0,3,-1,6.175
1236,-2,-17,-16,-14,1,-1,-3,-1,6.18
1237,2,3,-12,-3,-1,-2,-2,-3,6.1850000000000005
1238,1,-3,14,12,-2,-1,-1,0,6.19
1239,-3,-2,-10,-10,-1,-3,3,0,6.195
1240,-2,-5,-10,-38,-13,-4,-2,0,6.2
1241,-4,12,3,33,22,5,4,-1,6.205
1242,-5,-1,30,29,4,1,-1,2,6.21
1243,-3,0,-32,-38,-10,-2,1,-1,6.215
1244,-1,3,33,42,9,3,-1,0,6.22
1245,-3,-8,-9,-15,-10,-2,-3,-2,6.2250000000000005
1246,-1,-3,-14,-16,-6,-3,0,-3,6.23
1247,0,-2,-1,6,1,-1,0,-1,6.235
1248,3,8,-11,-18,-5,-2,-1,0,6.24
1249,1,-1,-2,0,0,0,-1,0,6.245
1250,-1,2,22,12,1,-2,-2,-3,6.25
1251,1,-5,-7,-3,-4,-1,-2,1,6.255
1252,-2,1,-10,-1,2,-1,-1,-2,6.26
1253,-2,0,7,5,-1,0,-1,-1,6.265000000000001
1254,2,0,-2,-8,2,1,-1,-2,6.2700000000000005
1255,1,7,-29,-39,-13,-3,-3,0,6.275
1256,-3,-8,38,45,13,2,2,-1,6.28
1257,-1,0,7,14,3,1,-2,-2,6.285
1258,-1,-3,-11,-7,2,0,0,0,6.29
1259,0,3,0,-5,5,3,-1,-1,6.295
1260,0,-9,-6,5,-5,-2,-1,-3,6.3
1261,-2,5,-5,-21,-5,-1,0,0,6.305
1262,2,6,9,8,-10,-2,-2,-1,6.3100000000000005
1263,-1,1,7,8,8,4,-1,-3,6.315
1264,-2,-2,-7,-9,-3,-1,-1,0,6.32
1265,0,-5,-8,-14,-5,-2,-1,0,6.325
1266,-1,-5,-22,-35,-3,-1,-1,0,6.33
1267,0,0,32,60,10,-2,-2,0,6.335
1268,1,5,2,-1,1,-1,-1,-2,6.34
1269,-1,-5,-12,-9,-5,-2,-3,-1,6.345
1270,1,1,-4,2,0,1,-1,-2,6.3500000000000005
1271,-2,-6,7,-10,-12,-5,-1,-1,6.355
1272,-2,0,-15,-10,13,1,1,0,6.36
1273,-1,1,12,16,1,-1,0,0,6.365
1274,-1,-4,-7,-5,-3,-2,1,-1,6.37
1275,-2,-3,-9,-4,-2,-1,1,-2,6.375
1276,0,7,8,7,-12,-1,-1,-2,6.38
1277,-2,-6,-7,-11,-3,-2,-3,-1,6.385
1278,1,-2,-4,4,2,0,0,-1,6.390000000000001
1279,-1,-2,6,-8,-11,-5,-4,-1,6.3950000000000005
1280,-2,-3,-11,-8,9,0,-1,0,6.4
1281,2,-5,4,19,3,1,3,0,6.405
1282,0,12,-18,-19,-2,-1,3,1,6.41
1283,-2,-5,9,8,-1,-1,-5,-1,6.415
1284,-2,0,0,-7,-8,-2,0,1,6.42
1285,-2,-6,-5,-10,-2,-2,-2,-2,6.425
1286,-2,0,7,10,7,1,-1,0,6.43
1287,1,4,-8,-15,-3,1,0,-1,6.4350000000000005
1288,-3,-3,-2,4,-3,0,-1,-2,6.44
1289,-1,-4,2,7,9,-1,0,-2,6.445
1290,0,-7,0,5,-3,-2,0,0,6.45
1291,1,1,3,2,3,1,0,-1,6.455
1292,-1,-2,-4,-8,-7,-3,-1,-2,6.46
1293,-3,-1,-6,-5,-4,-3,-2,-1,6.465
1294,1,5,7,3,0,-3,-2,-2,6.47
1295,-2,-5,-9,-6,-1,-2,1,0,6.4750000000000005
1296,1,-3,-12,-9,-5,-1,1,-1,6.48
1297,-1,1,-36,-25,2,-1,-1,-2,6.485
1298,-1,1,65,46,-2,1,0,-1,6.49
1299,-1,3,9,15,1,-2,-1,0,6.495
1300,-1,-3,-2,1,9,2,1,0,6.5
1301,-2,-4,-2,-5,-4,-2,-1,0,6.505
1302,-2,6,-23,-21,-3,-1,-1,0,6.51
1303,1,-2,-4,-3,1,5,1,0,6.515000000000001
1304,0,-3,10,18,5,0,0,-1,6.5200000000000005
1305,0,6,-7,-8,-5,-2,-1,-2,6.525
1306,-1,-2,14,6,0,-3,-1,1,6.53
1307,-3,-1,3,-2,2,-2,-1,-1,6.535
1308,1,1,-7,-14,-8,-1,-2,0,6.54
1309,-1,-5,-5,1,1,1,-3,-2,6.545
1310,-4,-7,-13,-7,0,-1,-2,0,6.55
1311,-1,-3,-8,-3,1,1,-1,-2,6.555
1312,3,4,15,5,-1,0,0,0,6.5600000000000005
1313,-1,-1,-2,-1,-2,-1,0,-2,6.565
1314,-2,-5,5,6,-1,-1,0,-2,6.57
1315,0,0,-3,-2,1,-1,-1,-2,6.575
1316,0,0,-1,-3,-1,0,0,0,6.58
1317,-1,0,10,0,-4,-1,-1,0,6.585
1318,0,-2,-10,2,1,1,2,-3,6.59
1319,-1,-2,-12,-24,-9,-3,-2,0,6.595
1320,-2,4,20,15,5,0,-3,-1,6.6000000000000005
1321,1,7,7,14,-8,-2,1,2,6.605
1322,-2,-15,-18,-14,-7,1,-2,-2,6.61
1323,-2,0,-1,14,8,4,0,-1,6.615
1324,-1,-1,-16,-5,-4,2,-1,-2,6.62
1325,-3,-3,21,13,1,-1,1,0,6.625
1326,0,-4,-24,-21,-14,0,-3,-2,6.63
1327,2,11,23,7,4,-2,1,-1,6.635
1328,-4,-7,-12,-3,-3,-4,-3,-1,6.640000000000001
1329,1,3,7,-5,-3,-4,-2,-1,6.6450000000000005
1330,-2,6,-2,-6,-6,-5,-2,-2,6.65
1331,0,-8,-13,-1,4,-1,1,0,6.655
1332,0,5,4,-3,-1,-3,1,-1,6.66
1333,0,-3,3,-4,-3,1,3,-2,6.665
1334,-1,0,-4,-1,5,1,-3,2,6.67
1335,-3,-2,-2,3,-6,-1,-2,0,6.675
1336,-1,1,-4,-1,8,1,-1,-1,6.68
1337,-1,-6,-7,1,1,-2,-5,0,6.6850000000000005
1338,0,-1,-1,-19,3,-3,-2,0,6.69
1339,0,8,-9,10,-2,-1,-1,1,6.695
1340,-3,-20,1,7,6,2,1,3,6.7
1341,-2,0,-15,-31,-12,-3,-2,1,6.705
1342,0,2,27,35,19,1,3,2,6.71
1343,-1,-2,3,-8,-5,-2,-2,-2,6.715
1344,-1,2,-11,-10,-7,-3,-2,-4,6.72
1345,-2,-1,-1,0,3,2,-1,-1,6.7250000000000005
1346,-1,0,-13,-15,-8,-1,0,-2,6.73
1347,-2,-5,-3,-2,-1,-1,-1,-3,6.735
1348,1,1,-12,-17,-4,-1,-2,-4,6.74
1349,-3,6,18,14,-4,-2,-4,-2,6.745
1350,1,-4,5,10,-4,1,0,-2,6.75
1351,0,1,7,22,8,-1,-3,-2,6.755
1352,0,-2,-1,-6,1,0,-2,-2,6.76
1353,0,1,-8,-4,-1,0,1,-1,6.765000000000001
1354,-1,-4,-19,-22,-1,-2,-1,-3,6.7700000000000005
1355,0,-4,-5,5,-4,0,0,0,6.775
1356,-3,0,0,-7,-16,-5,-1,0,6.78
1357,-1,-3,3,4,10,2,-2,-1,6.785
1358,1,6,4,14,-1,0,-2,0,6.79
1359,1,-6,-5,-14,0,0,0,0,6.795
1360,0,3,-4,-3,-3,-1,-2,0,6.8
1361,2,-3,6,9,-3,-2,4,-1,6.805
1362,0,4,-4,-10,6,1,0,-2,6.8100000000000005
1363,-1,-11,-9,-10,-3,-2,0,-1,6.815
1364,-2,2,5,8,1,0,1,0,6.82
1365,0,-2,8,-2,1,-1,0,0,6.825
1366,-4,-7,-1,5,0,0,-1,0,6.83
1367,-3,6,28,23,-1,-3,-3,-1,6.835
1368,3,10,-1,3,-1,-1,-1,1,6.84
1369,-3,-13,-19,-26,-5,-2,-2,-1,6.845
1370,-2,-10,-21,-1,-13,-6,0,-1,6.8500000000000005
1371,0,14,9,3,16,6,2,1,6.855
1372,-1,1,-3,-13,-1,-1,-1,0,6.86
1373,1,6,4,18,0,1,-2,-1,6.865
1374,-1,-1,8,-1,-4,-2,-1,0,6.87
1375,1,-1,-6,-12,-8,-3,0,0,6.875
1376,-2,-6,-6,-2,2,0,-1,-1,6.88
1377,2,-1,3,6,3,0,-2,1,6.885
1378,-2,3,-2,-7,-6,-1,-1,-2,6.890000000000001
1379,1,-2,8,6,-2,-1,-1,0,6.8950000000000005
1380,-2,-2,-5,-2,4,2,0,-3,6.9
1381,-3,-4,1,7,-1,-2,-2,-2,6.905
1382,-2,-1,-6,-11,-5,-3,-1,0,6.91
1383,-2,-1,-4,-5,4,2,0,-1,6.915
1384,-2,-5,-17,-27,-10,-6,-2,-2,6.92
1385,-1,5,11,23,12,3,1,-3,6.925
1386,1,4,27,16,-3,-2,-3,0,6.93
1387,0,-3,-2,-7,-8,-3,0,-1,6.9350000000000005
1388,1,-1,0,9,10,2,-2,1,6.94
1389,-1,2,-17,-21,-2,-3,-1,0,6.945
1390,0,3,-8,-10,5,-1,-1,-2,6.95
1391,-1,-7,-7,-4,-10,-1,-3,-1,6.955
1392,0,-3,11,14,0,0,0,2,6.96
1393,0,5,5,-3,-4,-1,-1,0,6.965
1394,-1,-4,-15,-5,1,0,1,1,6.97
1395,0,-6,-13,-4,-3,-2,0,-1,6.9750000000000005
1396,-3,0,15,10,-7,-3,-3,-1,6.98
1397,0,-6,-2,-5,-7,-3,-1,0,6.985
1398,2,12,16,20,19,5,1,0,6.99
1399,-1,-5,-18,-19,-3,-3,-1,0,6.995
1400,-2,-3,8,9,1,-1,-1,-3,7.0
1401,1,0,4,5,-1,1,-1,-2,7.005
1402,-1,-9,-14,-18,-10,-4,-3,0,7.01
1403,-1,-2,-16,-13,-5,-3,-1,-1,7.015000000000001
1404,-2,4,12,6,0,-1,-1,1,7.0200000000000005
1405,-2,0,1,4,1,-1,-3,-1,7.025
1406,1,4,1,5,6,0,0,0,7.03
1407,-4,-9,1,2,-2,-1,0,-4,7.035
1408,1,-11,-14,-14,-3,-2,0,-2,7.04
1409,0,-4,3,7,-1,-2,-1,-1,7.045
1410,-1,1,-10,-16,-3,2,0,-1,7.05
1411,-1,7,30,18,-3,-1,1,0,7.055
1412,1,3,-12,1,0,1,0,-1,7.0600000000000005
1413,-2,-3,-10,-14,-2,-1,1,-2,7.065
1414,-2,-8,7,14,2,-1,-1,0,7.07
1415,0,8,4,-1,2,0,0,-1,7.075
1416,-1,-6,-6,-1,-6,-3,-1,0,7.08
1417,0,8,-9,-13,2,2,0,0,7.085
1418,-1,3,16,9,-8,0,-2,-1,7.09
1419,0,-3,-11,-9,1,2,-2,-1,7.095
1420,-1,-2,22,17,-4,-2,-3,-1,7.1000000000000005
1421,-3,-10,-14,-10,-1,-2,-2,-1,7.105
1422,-1,-5,-10,-6,2,1,1,-2,7.11
1423,0,1,-1,0,-3,-3,0,-1,7.115
1424,-2,-1,-16,-17,-1,-1,-1,-1,7.12
1425,-2,-6,4,7,-14,-3,-1,0,7.125
1426,0,6,17,15,11,3,1,0,7.13
1427,-1,0,-12,-9,1,-1,-1,0,7.135
1428,-1,0,-5,1,-4,-2,-4,-1,7.140000000000001
1429,-1,0,17,11,-2,-2,-2,0,7.1450000000000005
1430,0,-6,-2,-8,-6,-1,0,1,7.15
1431,-4,-3,-8,-7,0,1,1,-2,7.155
1432,1,7,-9,-16,0,0,1,-1,7.16
1433,-1,12,26,22,-1,-2,0,0,7.165
1434,-3,-28,-14,1,-1,0,-1,-1,7.17
1435,3,16,10,1,2,0,1,-1,7.175
1436,0,-2,-4,-2,-2,-2,2,-1,7.18
1437,0,2,-5,-2,5,1,-1,-1,7.1850000000000005
1438,1,0,-8,-7,-3,-1,0,0,7.19
1439,-2,2,-17,-16,-6,-3,-3,-2,7.195
1440,-3,-5,18,23,9,-1,1,-2,7.2
1441,0,-2,-20,-11,1,0,-2,-1,7.205
1442,0,3,14,12,1,-2,0,0,7.21
1443,0,-9,-3,1,2,-1,-2,0,7.215
1444,-1,2,-2,-10,-7,-1,-2,1,7.22
1445,-1,-6,-2,0,0,-1,0,0,7.2250000000000005
1446,0,1,-11,-13,0,1,-2,-3,7.23
1447,-1,2,7,-6,-6,-1,-1,0,7.235
1448,-4,-12,-11,2,3,-2,-2,-1,7.24
1449,2,1,-13,-11,1,3,2,0,7.245
1450,-1,4,29,34,2,-1,-2,-2,7.25
1451,0,0,7,11,6,1,0,2,7.255
1452,0,-5,-2,-7,-5,0,-3,-2,7.26
1453,-1,-6,-9,-2,-2,-1,-1,0,7.265000000000001
1454,0,8,-8,-18,-3,-2,-1,0,7.2700000000000005
1455,0,-5,3,9,-6,-1,0,-3,7.275
1456,0,4,-3,-10,9,2,0,0,7.28
1457,0,-1,2,-1,-3,-3,-3,-1,7.285
1458,-1,1,4,5,3,1,1,-1,7.29
1459,0,-2,-7,-8,0,1,0,0,7.295
1460,-1,-1,7,1,-8,-1,-1,-1,7.3
1461,-1,-3,-6,-4,0,2,0,-1,7.305
1462,-2,-1,-6,-8,-5,-2,-2,1,7.3100000000000005
1463,-1,1,16,20,-2,-3,-1,0,7.315
1464,0,-2,-9,-4,-4,1,0,-1,7.32
1465,1,-1,15,13,4,1,-1,0,7.325
1466,-2,-2,-22,-18,-4,-3,1,0,7.33
1467,-1,-2,-21,-18,0,-1,-1,0,7.335
1468,1,3,19,7,-7,-3,-3,-2,7.34
1469,0,-1,7,26,9,0,-1,1,7.345
1470,-1,-1,-6,-11,-4,-1,-1,-2,7.3500000000000005
1471,0,-7,-3,7,-4,0,-1,-1,7.355
1472,1,3,-1,-15,-9,-4,-2,0,7.36
1473,-1,2,-3,-8,4,1,-2,-1,7.365
1474,0,9,5,-1,-1,0,-2,-1,7.37
1475,-1,-9,6,7,3,0,-1,0,7.375
1476,-2,-1,-18,-10,-7,-4,0,-3,7.38
1477,-2,-1,-10,-11,-5,-2,-2,-2,7.385
1478,-1,-8,-4,5,0,0,-1,-2,7.390000000000001
1479,-2,-1,-5,-6,-2,0,-1,-1,7.3950000000000005
1480,-2,2,-12,-6,4,-1,0,-1,7.4
1481,0,-2,2,4,-5,-1,-1,0,7.405
1482,-2,-1,15,8,-1,0,-2,0,7.41
1483,0,6,4,5,7,2,-1,0,7.415
1484,-1,-12,-5,0,1,-3,-1,-1,7.42
1485,3,13,-5,-8,-4,-3,1,-1,7.425
1486,-3,-12,-2,1,-4,-2,-3,0,7.43
1487,1,5,2,3,7,3,-2,1,7.4350000000000005
1488,-2,-8,-7,4,-5,-1,-1,0,7.44
1489,-3,3,10,-13,-6,1,-1,-2,7.445
1490,0,-1,-25,-11,-1,-2,1,-3,7.45
1491,-2,2,18,14,3,0,1,0,7.455
1492,1,-3,-11,-1,1,0,-1,1,7.46
1493,-1,-5,3,-11,-6,-3,-1,-2,7.465
1494,0,4,-7,-2,-4,-1,0,2,7.47
1495,-3,-8,-24,-23,5,0,-1,-3,7.4750000000000005
1496,-2,0,24,32,-2,1,0,0,7.48
1497,-2,1,13,6,1,-2,-1,-1,7.485
1498,-1,1,9,4,2,2,-1,-1,7.49
1499,-1,1,-3,-8,0,1,1,-1,7.495
1500,-1,4,-25,-37,0,1,-1,0,7.5
1501,-3,-11,21,35,-1,-1,-1,1,7.505
1502,-2,-5,5,1,0,1,-1,-2,7.51
1503,2,15,0,9,-1,0,0,0,7.515000000000001
1504,-1,3,10,2,-6,-2,-2,-1,7.5200000000000005
1505,1,1,-17,-8,2,-2,-1,-1,7.525
1506,1,6,6,7,6,5,0,0,7.53
1507,-1,-6,4,1,-4,-3,0,-3,7.535
1508,0,7,0,-4,-2,0,1,-2,7.54
1509,-2,-21,-25,-17,-5,0,0,0,7.545
1510,3,9,21,16,2,0,0,-3,7.55
1511,-3,-3,-1,-3,-4,-2,-2,1,7.555
1512,-1,-1,-1,0,8,2,-2,1,7.5600000000000005
1513,-3,4,7,16,0,-2,1,-1,7.565
1514,-1,-2,-18,-19,-2,-2,0,-1,7.57
1515,-3,-7,6,2,-5,-1,-2,-2,7.575
1516,0,3,-5,-4,-7,-3,0,-1,7.58
1517,-1,-2,3,6,5,3,0,0,7.585
1518,-2,-3,-3,1,2,-1,0,-2,7.59
1519,0,2,2,-3,-2,-1,-1,-1,7.595
1520,-1,-3,2,4,-3,-1,-1,-1,7.6000000000000005
1521,0,2,-14,-20,-6,0,1,0,7.605
1522,-2,-3,-12,-6,5,-1,-2,0,7.61
1523,-1,-3,15,4,-1,-3,0,0,7.615
1524,-1,-4,-3,14,2,-2,-3,-3,7.62
1525,0,-1,-2,-3,2,1,-1,-2,7.625
1526,-1,2,-6,-26,-9,-4,-3,-1,7.63
1527,-3,-1,5,18,6,1,0,1,7.635
1528,0,-6,-7,-6,0,-1,0,1,7.640000000000001
1529,-1,2,-2,4,-3,-2,-1,0,7.6450000000000005
1530,3,-3,13,5,-7,-2,3,1,7.65
1531,0,2,-6,-1,-1,0,0,1,7.655
1532,-1,-2,-7,-7,0,-1,0,-1,7.66
1533,3,11,2,-5,4,1,1,-1,7.665
1534,-7,-21,-13,5,-3,2,0,-2,7.67
1535,0,2,-1,-2,-1,0,-1,1,7.675
1536,-1,0,9,4,-1,-1,-3,-1,7.68
1537,-2,2,-1,-10,-1,0,-1,-1,7.6850000000000005
1538,1,7,-3,-6,2,0,0,-1,7.69
1539,-2,-9,-5,8,-7,-1,0,-2,7.695
1540,0,1,15,20,5,-1,-1,0,7.7
1541,-1,-4,-7,-12,-7,0,-1,-1,7.705
1542,1,0,2,6,8,1,0,1,7.71
1543,0,-1,-6,-16,-6,-1,2,0,7.715
1544,0,1,-8,-15,-3,-2,2,-1,7.72
1545,-1,-2,9,19,11,0,0,0,7.7250000000000005
1546,0,2,4,0,-7,-4,-2,0,7.73
1547,0,0,-10,-9,-6,-2,-2,0,7.735
1548,-2,-1,0,0,3,2,0,0,7.74
1549,-3,-3,-15,-18,-4,-1,-1,-1,7.745
1550,-1,-1,-5,7,-2,-1,-2,-3,7.75
1551,2,5,24,21,6,1,-2,0,7.755
1552,-1,-3,-3,-7,-4,1,-1,0,7.76
1553,-3,-4,-9,-11,-8,-3,-4,1,7.765000000000001
1554,1,4,1,4,7,3,0,1,7.7700000000000005
1555,-2,-3,-1,-1,0,-2,0,-2,7.775
1556,-1,-4,6,4,-1,-1,0,-1,7.78
1557,1,4,1,-3,-4,-2,0,0,7.785
1558,-1,-2,-3,-5,-4,1,-1,2,7.79
1559,-2,-2,-8,1,4,1,-2,0,7.795
1560,0,-1,-3,-2,5,0,-2,1,7.8
1561,-1,-4,7,9,0,-1,-3,-2,7.805000000000001
1562,0,1,-14,-21,-8,-3,-1,-1,7.8100000000000005
1563,-1,0,28,19,-4,-4,0,0,7.815
1564,-3,-4,-12,-2,-6,-2,-2,0,7.82
1565,-1,2,3,0,-10,-2,0,-2,7.825
1566,1,7,-4,11,19,3,0,-1,7.83
1567,0,-7,-15,-21,0,1,1,-1,7.835
1568,-2,-3,0,-10,-3,-1,-1,-1,7.84
1569,0,-10,3,9,-3,-1,-1,-2,7.845
1570,2,11,14,-5,-8,-2,-2,0,7.8500000000000005
1571,-1,-2,-15,-7,3,-2,0,-2,7.855
1572,0,1,-7,0,-1,1,-1,-2,7.86
1573,-1,-3,4,0,-3,-3,-3,0,7.865
1574,-2,-13,3,3,-9,-3,-2,-1,7.87
1575,1,12,5,6,11,3,1,0,7.875
1576,-1,-1,9,12,1,0,1,-2,7.88
1577,-2,2,-3,-6,2,-1,-1,1,7.885
1578,-3,-1,-3,-3,-7,-4,-2,-2,7.890000000000001
1579,-2,-9,-6,-4,-7,-2,-2,-2,7.8950000000000005
1580,-1,0,-12,-17,-1,-2,-2,-2,7.9
1581,-1,1,-5,-8,0,2,2,1,7.905
1582,-3,-1,16,19,5,0,-1,-1,7.91
1583,0,1,-10,-8,-5,0,-2,-2,7.915
1584,0,-4,-3,-22,-7,-2,-2,0,7.92
1585,1,6,18,40,14,3,0,-1,7.925
1586,2,-4,-2,-16,-3,1,-1,0,7.930000000000001
1587,1,0,-8,6,9,2,-2,-1,7.9350000000000005
1588,-2,-4,8,15,-1,-1,-2,0,7.94
1589,-1,1,-1,-9,-2,-1,-1,-2,7.945
1590,-1,6,-4,-8,-8,-1,-1,-3,7.95
1591,-3,-5,8,3,-4,-3,-3,-2,7.955
1592,-3,-5,-17,-11,1,0,0,-1,7.96
1593,-2,-1,15,10,4,-1,-2,1,7.965
1594,0,1,-9,4,4,1,-1,0,7.97
1595,-1,-9,-13,-18,-8,-2,-1,-1,7.9750000000000005
1596,0,11,20,12,-4,-1,-1,-2,7.98
1597,-3,-7,-7,1,2,-2,0,-2,7.985
1598,0,3,0,-2,1,0,-1,-1,7.99
1599,-1,-2,-2,-1,-1,-2,1,0,7.995
1600,1,-1,-18,-17,-1,-2,-2,-1,8.0
1601,-1,-2,6,1,-3,1,0,-1,8.005
1602,-2,-4,5,8,1,0,0,-1,8.01
1603,0,6,0,-1,-4,-2,0,0,8.015
1604,-1,0,-1,0,4,0,1,-1,8.02
1605,1,3,-11,-5,3,0,0,0,8.025
1606,-1,-4,-5,-8,-6,-2,-1,-3,8.03
1607,0,2,2,8,5,1,1,0,8.035
1608,0,-3,1,-1,-12,-3,-1,-2,8.040000000000001
1609,0,-2,-2,0,9,1,0,0,8.045
1610,0,-6,-24,-18,-3,0,2,1,8.05
1611,0,3,35,29,-1,-1,0,-2,8.055
1612,-1,-4,5,14,4,1,-2,1,8.06
1613,-1,-1,-7,-13,-9,-2,-1,0,8.065
1614,0,0,2,2,-3,0,-1,-1,8.07
1615,-1,-2,-9,-13,-3,-1,0,1,8.075
1616,-1,-1,-3,0,2,1,1,-3,8.08
1617,-1,6,1,1,-1,1,0,0,8.085
1618,-1,-2,-17,-17,-3,-4,-1,0,8.09
1619,0,-1,7,7,1,1,0,0,8.095
1620,0,7,-6,9,-1,-2,-2,-1,8.1
1621,-1,4,16,-2,-1,2,1,0,8.105
1622,-2,-3,8,14,0,0,-1,-1,8.11
1623,-1,4,-14,-10,3,1,0,-1,8.115
1624,-3,-4,-3,-10,-2,-3,-2,0,8.120000000000001
1625,0,-5,-5,-2,-4,-3,-2,-2,8.125
1626,-1,0,6,4,2,1,-1,0,8.13
1627,-2,-6,-2,-18,-16,-3,-2,1,8.135
1628,0,-2,-1,10,10,1,-2,1,8.14
1629,1,-2,-20,-8,2,-1,0,-1,8.145
1630,-3,2,30,25,6,2,0,-1,8.15
1631,-1,-3,-16,-14,-11,-2,1,-2,8.155
1632,-2,-1,3,-7,-6,-3,0,-3,8.16
1633,-2,-1,-6,-4,-5,-1,-1,-2,8.165000000000001
1634,-1,-8,-17,5,0,-4,-2,-1,8.17
1635,0,2,2,-7,-3,-2,-2,-2,8.175
1636,1,12,17,8,10,5,3,-2,8.18
1637,-2,-2,3,-1,8,1,3,-1,8.185
1638,-3,-6,-17,-47,-17,-5,-5,-2,8.19
1639,1,2,13,29,-15,-6,-1,-2,8.195
1640,-12,-13,-9,-10,0,-3,-3,-1,8.2
1641,-10,-15,-5,25,-20,-5,0,-6,8.205
1642,20,19,6,5,27,7,6,4,8.21
1643,9,7,1,-48,-21,-7,-6,1,8.215
1644,-8,1,-13,37,-14,-5,-2,-4,8.22
1645,19,36,7,-24,19,4,2,-35,8.225
1646,-16,-62,10,-2,5,6,27,11,8.23
1647,1,-45,-6,27,-21,-15,-9,47,8.235
1648,-17,-25,18,-79,-58,-7,-31,-16,8.24
1649,-2,-45,-46,-73,7,3,2,1,8.245000000000001
1650,8,4,8,113,35,6,-13,-28,8.25
1651,-21,-42,3,59,19,3,11,-10,8.255
1652,13,67,21,-31,-21,-8,8,14,8.26
1653,6,-3,-29,33,-17,1,-11,28,8.265
1654,-1,-1,-18,-128,-50,-5,5,0,8.27
1655,8,62,53,-9,73,10,15,-93,8.275
1656,7,-128,-30,104,-25,-8,-2,70,8.28
1657,12,8,49,93,39,16,-10,12,8.285
1658,-1,15,7,-96,-110,-36,-5,22,8.290000000000001
1659,-23,-24,-29,-70,-34,-4,-24,-64,8.295
1660,-47,96,14,37,100,23,4,-8,8.3
1661,70,-7,-63,-111,-99,-48,20,52,8.305
1662,-46,-85,-11,127,115,60,42,1,8.31
1663,20,51,54,-88,-37,-12,-25,19,8.315
1664,66,11,12,-64,-91,-22,-31,5,8.32
1665,-74,-50,15,-97,43,12,-35,17,8.325
1666,8,121,-19,31,-9,-20,-30,-111,8.33
1667,-49,-68,-55,-40,-16,8,41,112,8.335
1668,12,-83,-3,27,-28,7,17,27,8.34
1669,6,-70,43,127,23,19,21,45,8.345
1670,-20,-128,-31,-117,-88,-44,-10,-29,8.35
1671,60,-28,18,127,119,57,31,-46,8.355
1672,-6,33,-47,-34,-27,-4,-5,-40,8.36
1673,17,72,-3,-79,-1,-6,19,-36,8.365
1674,-16,66,93,49,41,7,-19,13,8.370000000000001
1675,-19,61,-98,-101,-71,-16,-44,24,8.375
1676,37,41,-24,45,55,-1,31,-7,8.38
1677,24,40,39,-3,3,5,17,37,8.385
1678,-28,46,-8,-93,57,12,-25,10,8.39
1679,14,24,64,9,2,-5,-23,-19,8.395
1680,-55,13,-34,-51,-31,-13,-20,-24,8.4
1681,-6,23,-55,27,-39,-7,-2,-80,8.405
1682,-12,21,33,-58,-14,3,32,67,8.41
1683,86,6,42,-25,-30,-9,1,27,8.415000000000001
1684,-102,-4,18,-38,-14,0,13,-55,8.42
1685,62,10,34,66,69,42,35,55,8.425
1686,38,58,-57,-112,-57,-26,-39,40,8.43
1687,-38,49,48,-5,-57,-32,-23,-45,8.435
1688,20,9,-24,38,74,31,30,-36,8.44
1689,17,98,9,10,13,0,-38,36,8.445
1690,50,63,-12,40,6,24,33,50,8.45
1691,-21,-27,-69,-38,4,-4,-6,-11,8.455
1692,-64,-99,-14,-73,-84,-41,-15,0,8.46
1693,-43,45,22,-120,37,-3,11,-61,8.465
1694,37,81,43,127,56,24,-11,1,8.47
1695,-22,-54,-40,-51,-22,-8,19,26,8.475
1696,-24,-80,-32,-55,13,4,-11,-14,8.48
1697,-22,-18,52,127,23,6,-18,-47,8.485
1698,-17,-53,-112,-128,-85,-44,-21,-66,8.49
1699,-25,-4,19,127,113,37,44,-30,8.495000000000001
1700,113,127,89,32,104,41,55,117,8.5
1701,54,-3,15,-128,-99,-34,-22,68,8.505
1702,-65,-73,19,83,33,19,19,-54,8.51
1703,11,-24,-26,-25,-47,-11,-1,3,8.515
1704,39,23,-30,68,-48,-30,-90,73,8.52
1705,-74,-23,-10,96,54,-6,-32,-31,8.525
1706,-8,-46,-94,-92,-126,-45,6,-68,8.53
1707,-29,-41,32,100,116,61,46,25,8.535
1708,8,101,80,-1,-42,-25,-24,-85,8.540000000000001
1709,-13,-34,-71,47,17,22,51,-9,8.545
1710,-30,-19,63,15,-60,-17,-21,27,8.55
1711,73,20,-41,-11,20,-1,-7,-13,8.555
1712,-26,11,-77,-110,-93,-37,-8,-30,8.56
1713,-33,-57,40,76,55,55,27,-32,8.565
1714,39,8,-23,-104,-13,7,37,92,8.57
1715,53,101,21,-19,-43,-16,-4,115,8.575000000000001
1716,8,-34,33,19,42,6,-40,-52,8.58
1717,-49,26,34,-55,-26,-14,24,-118,8.585
1718,-19,-71,-3,127,68,11,-32,83,8.59
1719,25,94,-27,-126,-51,-22,-74,57,8.595
1720,14,-37,-36,12,22,8,20,-8,8.6
1721,-46,-47,-76,-45,-22,-16,-7,-59,8.605
1722,-1,13,127,68,89,26,22,-37,8.61
1723,-32,-26,-36,15,-32,-12,-6,-47,8.615
1724,-47,-69,18,108,23,23,28,-52,8.620000000000001
1725,60,2,-28,-128,-60,-13,11,64,8.625
1726,45,86,47,110,94,35,14,35,8.63
1727,-40,-107,-41,-64,-34,-19,-22,-63,8.635
1728,53,-21,-1,-50,-22,-9,-6,20,8.64
1729,-24,20,-39,38,50,-7,10,71,8.645
1730,8,-2,-16,-53,-27,-3,-32,22,8.65
1731,-35,30,12,-114,-64,-2,20,-59,8.655
1732,-30,-54,-23,-77,-18,-10,46,40,8.66
1733,12,15,-5,-25,-65,-18,-86,-31,8.665000000000001
1734,20,19,6,87,70,23,-13,-44,8.67
1735,-110,-69,-13,-49,-117,-63,-11,-117,8.675
1736,46,59,-27,91,117,71,36,55,8.68
1737,46,-16,16,-86,-30,-7,-23,102,8.685
1738,32,-5,-20,-128,-128,-49,4,-18,8.69
1739,37,13,27,124,62,43,33,119,8.695
1740,-14,11,39,-106,-59,-6,2,-22,8.700000000000001
1741,-79,-62,-76,-43,-57,-5,17,-106,8.705
1742,-49,-70,-102,-117,-126,-59,-40,39,8.71
1743,67,-8,24,-34,-2,2,-13,57,8.715
1744,-11,5,-14,-60,-21,-8,-14,-38,8.72
1745,-9,-19,44,45,11,19,-3,-22,8.725
1746,15,-6,-80,-57,8,-9,21,-52,8.73
1747,4,41,60,30,11,-2,-2,-6,8.735
1748,31,8,17,127,50,19,25,47,8.74
1749,-2,26,-71,-128,-128,-34,1,-44,8.745000000000001
1750,-43,-32,72,127,115,39,32,53,8.75
1751,6,54,32,-60,-49,-13,-4,47,8.755
1752,-59,-42,54,65,44,1,-59,-81,8.76
1753,-9,-45,-67,-66,-94,-44,47,-5,8.765
1754,91,5,62,122,110,66,-15,89,8.77
1755,39,74,-7,-87,-1,-8,-53,-61,8.775
1756,-48,-43,35,63,10,-2,-24,-67,8.78
1757,24,87,50,-41,48,9,17,36,8.785
1758,-49,-65,-29,-110,-22,-1,35,-54,8.790000000000001
1759,-21,-72,-50,-72,-67,-28,-6,-8,8.795
1760,-10,19,9,-7,43,34,43,-25,8.8
1761,-2,-12,-36,-8,58,29,-14,70,8.805
1762,-4,-8,30,-121,-57,-8,-10,-24,8.81
1763,-4,-35,23,73,25,1,16,9,8.815
1764,6,77,-28,-128,-103,-36,23,-88,8.82
1765,-18,-21,53,127,111,30,35,113,8.825000000000001
1766,59,10,-23,-128,-73,-2,-42,19,8.83
1767,-62,3,-57,-93,-88,-32,-36,-105,8.835
1768,31,-10,7,-25,82,44,24,60,8.84
1769,65,34,29,107,8,5,-40,32,8.845
1770,-44,-23,-64,-115,-110,-45,-13,-69,8.85
1771,-23,-32,75,127,127,63,60,-25,8.855
1772,-7,8,-43,0,45,10,-17,39,8.86
1773,-27,29,104,-128,-55,-11,26,-34,8.865
1774,-14,-1,-24,127,43,-10,-15,-32,8.870000000000001
1775,9,0,-108,8,-77,-7,0,13,8.875
1776,-9,17,73,-84,-43,-16,-16,-54,8.88
1777,-11,-10,-7,127,48,14,21,42,8.885
1778,50,54,2,36,16,11,34,-24,8.89
1779,-55,-72,-22,-58,-66,-20,69,5,8.895
1780,34,49,-19,-92,-96,-22,-61,127,8.9
1781,73,32,13,-102,-35,-33,-102,-41,8.905
1782,-5,40,32,-66,-69,-13,-30,-22,8.91
1783,-2,17,8,47,123,37,11,-35,8.915000000000001
1784,-33,-112,-41,-123,-91,1,90,-4,8.92
1785,-55,-74,-42,-61,-111,-33,11,-40,8.925
1786,17,35,-58,88,74,40,11,77,8.93
1787,15,-31,52,7,28,5,-15,-6,8.935
1788,-42,-20,4,127,-31,-27,-42,-59,8.94
1789,-48,-39,-13,50,27,12,5,-46,8.945
1790,57,14,-37,-33,-58,-27,41,27,8.950000000000001
1791,-16,-12,40,68,42,13,-17,30,8.955
1792,23,37,-7,-54,-60,-22,12,23,8.96
1793,-41,-46,-8,-92,-38,-25,-6,-59,8.965
1794,-48,-31,-38,94,77,37,24,72,8.97
1795,109,93,69,74,24,9,-50,54,8.975
1796,28,39,-85,-120,-103,-44,-55,-62,8.98
1797,-19,13,65,107,79,25,10,-63,8.985
1798,-72,-50,32,-33,5,-1,-23,-41,8.99
1799,-21,-1,-44,-128,-82,-25,20,54,8.995000000000001
1800,71,80,32,127,127,51,40,48,9.0
1801,35,-42,-52,-70,-103,-10,-1,5,9.005
1802,-2,-4,115,11,24,16,-1,-88,9.01
1803,-38,-11,-33,-40,-22,-12,4,0,9.015
1804,-91,-102,25,11,-22,-10,4,8,9.02
1805,93,112,58,76,95,32,-21,39,9.025
1806,42,66,20,-101,-28,-11,15,27,9.03
1807,-80,-81,-24,-123,-65,-33,-37,-128,9.035
1808,-60,-45,-88,90,55,18,101,122,9.040000000000001
1809,77,19,23,23,10,2,-37,92,9.045
1810,-60,-39,-77,-93,-92,-18,-45,-108,9.05
1811,18,-40,54,47,10,15,17,57,9.055
1812,12,80,52,-51,51,-9,-80,0,9.06
1813,-37,0,-28,0,-40,-21,-10,-49,9.065
1814,28,11,17,-24,-80,-37,-8,-11,9.07
1815,-51,-28,-37,-48,48,55,21,-73,9.075000000000001
1816,-6,-24,123,-43,-86,-33,1,-32,9.08
1817,25,3,18,-20,-61,-10,19,34,9.085
1818,-65,-38,64,51,78,11,13,-50,9.09
1819,37,53,0,43,15,15,27,19,9.095
1820,79,1,-108,-56,-1,2,-4,77,9.1
1821,-21,3,-9,-126,-49,-32,-37,-60,9.105
1822,-97,-42,32,-74,-49,-13,-18,-97,9.11
1823,-67,-51,13,-22,89,12,37,79,9.115
1824,112,72,27,47,126,44,-39,70,9.120000000000001
1825,74,89,-33,-22,-46,-5,-56,49,9.125
1826,-36,-13,-62,-63,15,11,41,-32,9.13
1827,-13,37,5,107,73,16,-11,-10,9.135
1828,-52,-83,42,43,-71,-34,-22,-80,9.14
1829,-56,-29,-65,-65,-16,-5,24,-39,9.145
1830,28,4,-32,127,-17,13,8,6,9.15
1831,52,75,53,58,-11,-2,2,38,9.155
1832,-11,20,-10,-95,-46,-11,-4,-5,9.16
1833,-54,-76,127,127,127,56,19,-18,9.165000000000001
1834,77,12,-36,-105,0,-10,0,26,9.17
1835,6,50,-84,-28,-65,-19,-6,-33,9.175
1836,-43,-70,-23,-8,30,19,30,-54,9.18
1837,-9,4,-63,-73,-33,-15,23,26,9.185
1838,36,65,18,-41,-6,-1,-29,89,9.19
1839,33,5,24,53,11,-7,-8,13,9.195
1840,-7,-18,9,-55,-22,-19,-14,-66,9.200000000000001
1841,-78,-50,-44,-54,-18,3,21,-5,9.205
1842,46,35,16,98,57,13,0,48,9.21
1843,30,5,1,-11,-30,-18,-30,9,9.215
1844,-12,63,-40,-81,-34,-1,13,-43,9.22
1845,-34,33,40,76,7,0,27,-28,9.225
1846,10,77,24,2,-22,-4,-4,42,9.23
1847,8,93,9,9,25,7,-14,-13,9.235
1848,-28,33,-71,-108,-39,-13,8,-18,9.24
1849,24,69,16,109,88,24,10,14,9.245000000000001
1850,-14,31,22,24,10,3,-25,0,9.25
1851,-11,-53,14,-43,-39,-11,6,-33,9.255
1852,7,-1,37,20,0,1,4,22,9.26
1853,21,3,22,-49,-25,-14,-39,4,9.265
1854,-20,-94,-22,9,20,4,25,-22,9.27
1855,-15,-125,-23,-39,-13,8,-13,-7,9.275
1856,5,-101,-7,29,17,13,50,25,9.28
1857,79,-73,-5,-30,-23,-26,-26,-13,9.285
1858,-91,14,19,2,-5,-14,-21,-2,9.290000000000001
1859,7,38,-10,-27,-12,-2,69,30,9.295
1860,6,27,0,28,-9,4,-44,14,9.3
1861,-40,41,-8,-1,2,26,55,-13,9.305
1862,34,54,3,1,12,11,15,-4,9.31
1863,-13,66,-13,-19,-11,-12,-35,-1,9.315
1864,7,73,11,26,9,-3,-11,-7,9.32
1865,6,74,-4,33,6,-11,-1,-9,9.325000000000001
1866,5,61,46,-13,-8,-7,-18,6,9.33
1867,3,12,-12,-21,-19,-8,-14,-7,9.335
1868,7,-26,10,39,5,-2,0,-6,9.34
1869,-14,-31,-50,-3,-3,1,-8,0,9.345
1870,-6,-26,25,-21,-6,-1,8,-1,9.35
1871,-2,30,-30,-4,-12,-5,-1,-9,9.355
1872,1,39,31,22,1,3,-2,4,9.36
1873,-8,11,-28,-37,0,-1,-2,1,9.365
1874,2,-42,-8,34,12,4,11,0,9.370000000000001
1875,7,-10,-15,-23,-8,-4,-3,-5,9.375
1876,5,-29,-2,-3,3,3,-9,5,9.38
1877,-8,-16,-5,-10,-5,1,1,-3,9.385
1878,3,-37,14,16,2,-1,5,-2,9.39
1879,2,-70,-25,-16,-6,-3,-10,3,9.395
1880,-4,-78,13,11,0,0,-1,0,9.4
1881,-8,-116,8,0,-6,-1,2,0,9.405
1882,0,-112,-12,-14,1,1,4,1,9.41
1883,3,-95,-4,0,-1,-1,-5,1,9.415000000000001
1884,-1,-55,-4,-6,-5,-1,0,-1,9.42
1885,1,-40,-2,-9,-9,-1,2,0,9.425
1886,2,11,-18,0,10,1,-3,3,9.43
1887,1,51,9,2,-3,-2,-2,-3,9.435
1888,1,66,5,14,-5,-5,1,0,9.44
1889,-2,68,12,-13,-5,-2,-2,0,9.445
1890,0,60,-12,5,7,2,2,1,9.450000000000001
1891,-1,1,8,19,-1,-1,-2,-1,9.455
1892,1,-25,-14,-34,-14,-4,-4,-1,9.46
1893,0,-24,8,19,15,4,0,1,9.465
1894,-3,-25,-8,1,-2,1,1,0,9.47
1895,-1,-6,-7,-5,-4,-3,-1,0,9.475
1896,0,2,6,-7,-5,0,-5,-1,9.48
1897,-2,-16,3,-6,-8,-3,1,-2,9.485
1898,2,-31,-5,-6,-2,-3,1,-3,9.49
1899,-1,-15,8,1,-1,-1,-3,-2,9.495000000000001
1900,-5,-14,-24,-4,-1,-2,-1,-1,9.5
1901,-4,4,-1,-4,-6,-2,-1,-3,9.505
1902,0,-21,-5,3,7,1,2,1,9.51
1903,2,-22,-10,-12,-9,-1,-1,-1,9.515
1904,0,-5,12,28,18,3,2,0,9.52
1905,-3,-23,-3,-9,-6,-1,-2,0,9.525
1906,0,-4,-2,-9,-5,-3,-1,2,9.53
1907,-1,0,14,17,-3,-4,-4,-4,9.535
1908,0,2,-10,-6,16,6,3,1,9.540000000000001
1909,1,2,6,-3,-1,-3,-1,-1,9.545
1910,-1,0,1,15,-1,-1,0,0,9.55
1911,-1,-3,-15,-13,-2,0,0,-1,9.555
1912,1,0,11,11,-2,-2,0,-3,9.56
1913,-2,1,-17,-16,-3,-1,-1,-2,9.565
1914,1,9,-15,-21,-7,-1,-1,-3,9.57
1915,1,15,13,21,9,3,-2,-1,9.575000000000001
1916,1,22,14,-9,-10,-1,-1,1,9.58
1917,2,26,-2,4,4,1,1,-1,9.585
1918,-5,1,4,10,-2,-1,-2,0,9.59
1919,-3,-1,-12,-15,-7,-4,-1,-2,9.595
1920,-1,1,12,20,-2,-1,1,-1,9.6
1921,1,2,-3,-14,-7,1,0,-2,9.605
1922,3,9,5,-4,12,1,-1,0,9.61
1923,-2,0,0,14,1,-1,-1,1,9.615
1924,-1,7,-14,-11,-3,1,-1,-3,9.620000000000001
1925,0,7,11,5,-5,-2,-1,-1,9.625
1926,-2,7,-12,10,3,0,0,-3,9.63
1927,-4,-8,15,-4,-3,0,1,0,9.635
1928,-1,12,-16,-11,-3,0,-1,-2,9.64
1929,-4,15,7,4,0,-1,-1,-1,9.645
1930,2,8,2,-10,-3,-2,-1,-3,9.65
1931,1,3,-4,-3,1,-1,0,1,9.655
1932,-1,-5,0,2,-9,-2,-1,1,9.66
1933,0,1,-15,-13,4,1,0,-1,9.665000000000001
1934,-2,5,18,21,-3,-1,1,0,9.67
1935,1,9,-3,-4,-2,1,-1,-2,9.675
1936,-3,6,-3,4,2,0,-2,-1,9.68
1937,-1,-52,-8,-5,-2,-1,-3,0,9.685
1938,0,-7,7,-3,-2,1,0,0,9.69
1939,0,9,-7,-15,-1,-2,-1,-2,9.695
1940,-4,-9,5,10,-7,-4,0,-1,9.700000000000001
1941,-1,17,3,11,12,2,0,-1,9.705
1942,-1,10,-6,-10,-3,1,0,-1,9.71
1943,-1,-5,-10,2,-1,-4,-3,-1,9.715
1944,0,12,-1,-14,-5,-4,-2,-2,9.72
1945,-1,8,17,14,2,-1,1,1,9.725
1946,-2,-1,-15,-9,-1,-1,-1,1,9.73
1947,0,5,3,1,-2,0,-1,1,9.735
1948,0,-3,-15,-13,1,1,1,-2,9.74
1949,-2,-2,19,15,-4,-3,-2,-1,9.745000000000001
1950,-2,-17,-5,-11,-7,-4,-1,-2,9.75
1951,0,-3,-6,-21,-2,-1,0,-1,9.755
1952,-1,-1,4,29,22,5,0,-2,9.76
1953,-2,13,-9,-9,-5,-1,-2,-1,9.765
1954,0,10,-4,2,-2,-3,-2,0,9.77
1955,0,7,24,8,-1,-1,-3,-1,9.775
1956,0,-4,-20,-15,-7,-3,-1,1,9.78
1957,0,11,2,-2,4,0,-2,-2,9.785
1958,1,22,-1,0,1,0,-1,-1,9.790000000000001
1959,-1,-2,-3,-2,-2,-2,-1,0,9.795
1960,-1,-3,2,-1,0,-3,-1,-1,9.8
1961,0,-10,-1,0,-3,0,0,1,9.805
1962,-4,-17,5,1,-8,-1,-3,0,9.81
1963,0,-9,-2,6,1,1,-1,-2,9.815
1964,-2,-7,5,-1,-2,0,-1,0,9.82
1965,-1,-10,-16,-15,-5,-2,0,-1,9.825000000000001
1966,1,4,11,5,1,-2,-1,-1,9.83
1967,-2,-1,-4,10,6,-1,1,-1,9.835
1968,1,-10,5,1,-1,-1,-1,-1,9.84
1969,-2,-111,-2,-5,-5,-3,-3,-1,9.845
1970,0,-58,-3,-2,0,0,0,-1,9.85
1971,-1,-15,-4,-3,-2,-1,-1,-1,9.855
1972,0,35,-6,-2,2,1,0,0,9.86
1973,1,72,2,-1,0,0,1,-2,9.865
1974,0,34,-1,3,-3,-3,-1,-1,9.870000000000001
1975,-5,-13,-6,-10,-3,-1,-1,-2,9.875
1976,1,10,3,0,3,2,2,-1,9.88
1977,0,33,-5,-3,-4,-2,-1,-2,9.885
1978,-2,23,-6,-13,-4,-1,0,0,9.89
1979,1,26,-8,-5,-2,-3,-2,-2,9.895
1980,0,-66,31,35,6,2,0,0,9.9
1981,-1,-89,-3,-1,-1,-1,-1,0,9.905
1982,-2,-29,-9,-3,-6,-2,1,-3,9.91
1983,-1,10,-11,-11,-6,-2,-1,1,9.915000000000001
1984,-3,28,1,5,5,0,0,-3,9.92
1985,0,58,-22,-41,-11,-3,-1,-2,9.925
1986,-4,10,28,40,4,-1,-1,-2,9.93
1987,1,-35,11,8,2,0,0,1,9.935
1988,-1,-3,-14,-12,-9,-5,-2,0,9.94
1989,1,30,2,-13,5,2,0,0,9.945
1990,0,0,-14,6,5,-1,-1,1,9.950000000000001
1991,0,-22,-3,0,1,0,0,-3,9.955
1992,-3,-28,-3,-15,-10,-4,-1,-1,9.96
1993,-1,-36,-2,9,5,-2,-2,-2,9.965
1994,-1,9,2,-13,-6,0,-3,0,9.97
1995,-1,15,3,9,1,-1,-1,0,9.975
1996,0,50,-10,-3,0,1,0,0,9.98
1997,-2,50,9,4,-9,-4,-2,0,9.985
1998,-1,27,-7,-7,3,2,0,-1,9.99
1999,-3,6,-2,2,0,0,0,-1,9.995000000000001
2000,-1,23,-5,-12,-8,-4,-1,0,10.0
2001,0,20,2,9,8,4,3,0,10.005
2002,2,-53,-19,-29,0,-1,0,0,10.01
2003,1,-21,30,26,-2,-1,-1,1,10.015
2004,-1,0,5,29,-3,-1,0,1,10.02
2005,-1,2,-1,-3,1,0,0,0,10.025
2006,-2,22,5,5,1,-2,-1,-2,10.03
2007,-1,29,-17,-22,-1,-2,-1,-3,10.035
2008,-1,9,-9,-20,-2,0,0,-2,10.040000000000001
2009,-2,10,-3,5,-1,0,-1,-1,10.045
2010,-2,11,-3,-10,-7,-2,-2,-2,10.05
2011,-1,23,-2,-3,5,2,-1,0,10.055
2012,-1,5,-3,-10,0,0,-2,-3,10.06
2013,-2,-2,20,9,4,1,-1,0,10.065
2014,1,14,5,25,5,3,0,-1,10.07
2015,0,16,-1,4,-2,0,-2,-1,10.075000000000001
2016,0,-2,-7,-11,-1,-2,-1,-1,10.08
2017,-1,-2,-10,-14,-3,-3,0,-1,10.085
2018,-3,-6,1,-6,0,0,0,-2,10.09
2019,-2,-9,-2,-8,-12,-3,-2,-1,10.095
2020,1,-13,2,13,13,4,0,2,10.1
2021,0,-13,0,-3,-8,-5,-1,-1,10.105
2022,0,-8,0,-2,-5,-3,-1,-1,10.11
2023,-1,-6,-6,12,7,2,-2,1,10.115
2024,-2,-14,0,-14,-10,-3,-1,-2,10.120000000000001
2025,3,-14,5,17,7,4,-1,0,10.125
2026,-3,-12,-4,-8,-5,-2,-1,-2,10.13
2027,-2,-1,-1,-5,6,0,0,-1,10.135
2028,0,-4,14,18,-4,-2,-4,-1,10.14
2029,-2,2,-11,7,-2,0,0,1,10.145
2030,-1,8,-16,-21,-6,-3,-1,-2,10.15
2031,0,-8,1,-6,-5,-2,-1,1,10.155
2032,0,-4,4,6,6,0,-1,-1,10.16
2033,-1,5,-10,-9,-7,-3,-1,-1,10.165000000000001
2034,-1,-9,-5,-1,3,-1,0,-2,10.17
2035,-4,5,0,-1,1,-2,-1,-1,10.175
2036,-1,0,-12,-11,2,0,0,0,10.18
2037,0,-4,14,13,-4,-1,-2,-2,10.185
2038,-1,5,-2,-5,-6,-2,-1,1,10.19
2039,-1,1,1,2,9,3,1,-1,10.195
2040,-1,-5,3,3,-8,-2,0,1,10.200000000000001
2041,1,0,-3,2,11,1,-3,-2,10.205
2042,-1,-1,1,-22,-6,-2,0,0,10.21
2043,0,-4,-10,14,-10,-7,0,-1,10.215
2044,0,0,1,7,10,4,2,0,10.22
2045,-1,-1,-8,-9,-9,-4,-1,-1,10.225
2046,2,2,20,18,9,0,-1,-1,10.23
2047,0,-3,-1,-11,-9,-3,-3,-1,10.235
2048,2,0,-4,-11,-4,-2,-1,1,10.24
2049,1,-3,-2,0,0,-1,0,0,10.245000000000001
2050,-2,-2,-9,-4,-2,-1,-2,-1,10.25
2051,0,-2,-3,-6,-2,-2,0,-1,10.255
2052,-2,8,9,11,2,0,-3,-2,10.26
2053,-1,-3,-7,-12,-1,2,1,1,10.265
2054,-2,4,23,33,6,0,-1,0,10.27
2055,-2,-4,-5,2,1,1,0,-2,10.275
2056,-1,-1,-4,-10,-4,-1,-1,0,10.28
2057,-3,-1,-2,-6,-3,-2,-2,-1,10.285
2058,-3,1,-2,-2,-1,-1,-3,-1,10.290000000000001
2059,1,-1,-5,-5,0,0,0,-1,10.295
2060,-2,-1,-14,-19,-3,-3,-1,-3,10.3
2061,1,7,-7,-13,7,1,2,0,10.305
2062,-5,-24,27,32,-1,-2,-3,-3,10.31
2063,0,2,28,14,1,0,-1,0,10.315
2064,1,-7,-13,-4,-1,-1,1,0,10.32
2065,-2,-2,-9,-1,0,-2,-1,0,10.325000000000001
2066,3,1,-25,-16,0,0,3,1,10.33
2067,-1,-5,-12,-15,-7,-2,-1,-1,10.335
2068,-2,-3,12,3,0,-1,-1,0,10.34
2069,-1,-7,-1,-30,-18,-5,-2,-2,10.345
2070,0,-3,-16,28,30,8,2,2,10.35
2071,0,0,-5,-14,0,0,0,-1,10.355
2072,0,3,52,54,4,1,0,2,10.36
2073,-1,-2,2,0,-6,-2,-2,0,10.365
2074,-2,1,-5,-24,-15,-7,-3,-1,10.370000000000001
2075,-1,-2,-10,-5,1,0,-3,0,10.375
2076,1,-3,-16,-19,1,0,-1,0,10.38
2077,-2,-1,4,12,2,-1,1,1,10.385
2078,0,2,2,-10,-10,-2,-2,-1,10.39
2079,1,8,-4,4,8,0,-2,0,10.395
2080,-2,-8,-22,-15,-3,0,-1,-2,10.4
2081,-2,0,34,31,-4,1,-1,-2,10.405
2082,-2,2,5,10,1,0,-1,-1,10.41
2083,-2,3,5,-2,-7,-3,-1,0,10.415000000000001
2084,0,-1,-6,-10,-2,-1,-1,0,10.42
2085,-1,0,-14,-5,7,0,1,0,10.425
2086,0,2,-10,-17,-6,-1,-1,1,10.43
2087,-2,-4,3,2,-3,0,-1,0,10.435
2088,0,-5,-5,-4,-5,-3,0,0,10.44
2089,0,2,-9,8,11,4,0,-1,10.445
2090,-1,2,8,-4,-1,-1,0,-1,10.450000000000001
2091,-1,1,-5,-7,-3,-3,1,-1,10.455
2092,-1,8,18,18,2,-1,0,-1,10.46
2093,-3,-12,4,5,-4,-2,-2,-3,10.465
2094,-1,-3,-12,-10,-4,-2,-2,1,10.47
2095,-1,-6,-5,0,4,0,0,-1,10.475
2096,-1,4,-9,-11,-2,-1,0,-1,10.48
2097,-1,2,0,0,-1,-2,-2,-1,10.485
2098,-2,-5,-12,-24,-13,-3,-2,-2,10.49
2099,3,5,17,32,9,2,2,0,10.495000000000001
2100,0,-4,-5,3,8,3,-1,0,10.5
2101,0,2,16,15,0,1,-1,0,10.505
2102,1,-3,-3,-2,-5,-1,-1,0,10.51
2103,-2,-2,0,-9,-9,-4,-1,-2,10.515
2104,1,-1,-7,-9,-3,1,-1,0,10.52
2105,0,1,-8,-5,1,0,1,0,10.525
2106,-1,3,-3,-1,-3,-1,-2,-1,10.53
2107,0,-1,-2,-3,-1,-1,-1,0,10.535
2108,-1,-2,-1,1,2,1,1,0,10.540000000000001
2109,0,-2,-9,-12,0,-2,-2,0,10.545
2110,-1,0,9,8,-4,-2,-3,-1,10.55
2111,-3,-3,-5,-2,3,1,-1,0,10.555
2112,-5,-6,17,18,-3,-3,0,-2,10.56
2113,1,7,-1,-7,-4,-2,0,0,10.565
2114,-2,-3,-11,2,1,0,-1,-1,10.57
2115,-1,-2,-12,-10,0,1,0,-2,10.575000000000001
2116,-2,-1,-9,-11,-3,-1,-2,-2,10.58
2117,-2,-2,-1,0,-2,0,0,0,10.585
2118,-1,-2,-11,-13,-6,-2,0,0,10.59
2119,-1,-1,20,13,15,3,0,-1,10.595
2120,-1,-2,2,1,-1,0,-1,-2,10.6
2121,-1,-3,-12,-14,-2,-3,-2,0,10.605
2122,1,1,24,26,3,1,0,0,10.61
2123,-2,-2,-4,-6,-8,-3,-3,2,10.615
2124,-2,2,-2,-5,-4,-1,-1,1,10.620000000000001
2125,-2,1,-4,0,3,1,0,-1,10.625
2126,-2,0,-11,-11,2,-2,-2,-1,10.63
2127,-1,-3,-4,-3,-4,-2,0,-2,10.635
2128,-1,3,-4,-1,3,-2,-1,-2,10.64
2129,0,-15,3,0,-3,-1,1,-1,10.645
2130,0,-10,5,3,0,-3,0,0,10.65
2131,0,6,-2,2,-14,-2,-1,-2,10.655
2132,-1,2,8,13,15,4,-2,1,10.66
2133,0,4,-3,4,1,2,-1,0,10.665000000000001
2134,-1,4,1,-1,2,0,0,-2,10.67
2135,0,-6,-14,-17,-5,-1,0,0,10.675
2136,1,2,-7,-11,-7,-2,-2,-3,10.68
2137,0,4,3,5,-2,-1,-2,0,10.685
2138,-2,1,-2,-4,3,1,0,-1,10.69
2139,0,5,-2,1,0,-2,0,0,10.695
2140,-1,5,-3,-5,-4,-2,0,-1,10.700000000000001
2141,0,3,1,3,3,-1,0,0,10.705
2142,1,-2,-6,-3,-1,-1,-2,-2,10.71
2143,-1,-5,3,5,-1,0,-1,0,10.715
2144,-1,-9,-9,-16,-1,-2,2,0,10.72
2145,0,-2,31,31,1,0,-1,0,10.725
2146,-1,-5,1,5,-1,-2,-1,-1,10.73
2147,-2,-4,1,1,1,-3,0,-2,10.735
2148,-1,-1,-14,-11,-3,0,0,-2,10.74
2149,0,0,-15,-15,-1,-1,1,0,10.745000000000001
2150,1,3,3,-1,1,-2,-1,0,10.75
2151,0,-2,-1,0,1,-1,-1,-2,10.755
2152,-2,-3,4,0,-3,-3,-1,-2,10.76
2153,-1,-2,-3,-2,0,1,1,-1,10.765
2154,-2,-9,3,3,0,-2,-2,-1,10.77
2155,1,-105,-5,-10,-3,-1,-2,0,10.775
2156,-1,-66,-1,2,3,-4,-2,1,10.78
2157,3,-3,-16,-16,-2,2,2,-1,10.785
2158,-4,-5,32,29,-3,1,-1,2,10.790000000000001
2159,0,63,-11,-6,1,1,0,-1,10.795
2160,0,43,19,13,-1,-3,-4,-2,10.8
2161,0,21,-8,-7,-1,-1,0,-2,10.805
2162,1,29,-20,-14,-2,0,-2,-2,10.81
2163,-2,34,3,1,-2,0,-3,0,10.815
2164,0,11,-33,-31,-7,0,-1,0,10.82
2165,-2,15,40,34,0,-2,-2,-2,10.825000000000001
2166,-1,2,2,3,2,-2,-1,1,10.83
2167,0,-1,-6,-7,3,0,1,0,10.835
2168,2,15,19,24,-2,0,2,-1,10.84
2169,-2,-4,-14,-14,-4,0,0,-1,10.845
2170,-2,-4,-5,-8,-5,-3,-2,-1,10.85
2171,0,-2,-5,0,10,0,-3,-1,10.855
2172,-2,2,-5,-8,-3,-2,2,-2,10.86
2173,-1,-9,-7,0,5,0,-1,-1,10.865
2174,-1,-4,2,-3,-3,-1,0,0,10.870000000000001
2175,-1,8,5,1,-4,1,-1,-2,10.875
2176,0,-3,4,4,-1,0,0,0,10.88
2177,-2,-10,0,5,0,-3,-2,-1,10.885
2178,-1,-3,-17,-17,-3,-2,0,-1,10.89
2179,-2,2,-4,-9,-2,-1,0,1,10.895
2180,0,-1,15,24,6,1,-1,0,10.9
2181,-1,-4,-4,-4,-10,-3,-1,1,10.905
2182,0,-4,14,11,3,1,-1,-2,10.91
2183,1,-5,7,13,-1,0,-1,0,10.915000000000001
2184,0,-2,-3,-5,0,0,-1,-2,10.92
2185,1,2,-13,-15,0,0,-2,0,10.925
2186,-3,-13,-9,-10,-1,-1,-5,-1,10.93
2187,-3,-4,-7,-4,-9,-2,-3,0,10.935
2188,0,3,10,2,6,2,0,-1,10.94
2189,0,0,-20,-14,6,3,0,-1,10.945
2190,-1,-4,15,16,1,0,0,0,10.950000000000001
2191,-1,8,19,7,-12,-5,-3,-2,10.955
2192,0,-6,-20,4,7,2,2,-1,10.96
2193,0,1,-3,-10,-4,-3,-1,-2,10.965
2194,-1,-6,-11,-5,-1,2,2,-3,10.97
2195,0,1,1,-5,-1,-3,2,-2,10.975
2196,1,0,7,-1,-9,-2,0,1,10.98
2197,-2,-5,-2,5,1,-1,-1,1,10.985
2198,-1,2,-15,-12,-4,-1,-1,-2,10.99
2199,1,-1,-2,4,3,1,-1,0,10.995000000000001
2200,0,-1,-21,-24,-5,-1,-3,-2,11.0
2201,-3,-4,35,30,3,1,-1,-1,11.005
2202,-1,1,-5,-7,-4,-3,-3,0,11.01
2203,-1,-1,1,5,4,3,1,-1,11.015
2204,-1,-3,-6,-8,0,-2,-1,-2,11.02
2205,-1,-2,-4,-5,-6,-2,0,0,11.025
2206,-1,3,-12,-21,-3,-2,-2,-1,11.03
2207,-3,-10,19,23,10,0,-1,-3,11.035
2208,0,2,7,6,-5,-1,-1,2,11.040000000000001
2209,2,1,0,1,0,-1,-1,0,11.045
2210,-1,0,-10,-1,-4,-4,1,-3,11.05
2211,1,8,-17,-16,-1,2,-2,-1,11.055
2212,-2,-18,-2,-4,-5,0,-1,-1,11.06
2213,1,-6,1,-5,-4,-1,1,2,11.065
2214,1,7,3,4,5,1,0,3,11.07
2215,-1,1,-27,-27,-6,-3,3,-1,11.075000000000001
2216,-2,3,28,20,-2,-1,-2,0,11.08
2217,-2,0,10,9,11,1,-1,-2,11.085
2218,0,-3,-4,0,2,0,-2,-3,11.09
2219,0,-3,0,2,3,-1,0,-1,11.095
2220,-1,2,-3,-3,-3,-1,-2,0,11.1
2221,0,-1,-9,-9,-4,-1,0,1,11.105
2222,-1,1,3,0,0,-1,-1,-2,11.11
2223,0,0,6,6,-1,-1,-2,0,11.115
2224,-2,-1,-11,-6,-2,-1,0,0,11.120000000000001
2225,-2,2,-1,-13,1,-1,-1,-2,11.125
2226,-2,0,15,17,-1,-1,0,-1,11.13
2227,0,0,19,24,-2,0,0,-2,11.135
2228,1,0,-4,-3,-1,-1,-1,0,11.14
2229,-2,-5,-10,-5,-5,-3,-2,-2,11.145
2230,0,-1,-6,-8,-2,-1,1,0,11.15
2231,0,-5,-6,-7,1,1,-1,0,11.155
2232,-1,-1,-3,-5,1,-2,-1,-2,11.16
2233,0,2,-3,0,-3,0,1,0,11.165000000000001
2234,-1,3,-26,-26,-4,-3,-1,0,11.17
2235,-4,-6,47,42,-2,-3,-4,-1,11.175
2236,-1,-2,-9,-7,0,-1,0,0,11.18
2237,-1,-2,9,13,-4,0,-3,-2,11.185
2238,-2,0,-8,-11,-2,-3,-1,-1,11.19
2239,-1,-2,-20,-15,1,0,2,0,11.195
2240,-1,-8,-5,-7,0,0,0,-1,11.200000000000001
2241,-1,0,-3,-6,-2,-1,0,-1,11.205
2242,0,9,4,5,0,2,-1,1,11.21
2243,0,19,-6,-18,-6,-4,-2,-2,11.215
2244,-2,2,4,18,4,-1,-1,-1,11.22
2245,3,0,-6,8,21,6,4,1,11.225
2246,-1,-8,-1,-7,-3,-2,-3,-3,11.23
2247,-3,-11,18,18,3,1,0,0,11.235
2248,-2,2,-11,-21,-9,-4,-1,0,11.24
2249,-4,-5,19,19,-9,-4,-1,0,11.245000000000001
2250,0,0,0,1,2,-2,-1,1,11.25
2251,-2,-8,-26,-15,-2,-1,-1,-2,11.255
2252,-1,6,7,-1,1,1,0,-3,11.26
2253,0,6,2,-13,-4,-2,-3,-2,11.265
2254,-1,-18,5,11,-1,-1,-4,0,11.27
2255,0,11,-10,-7,-4,0,0,-1,11.275
2256,-1,-7,-3,9,3,1,-1,-1,11.28
2257,-1,1,-8,-5,0,-1,0,-2,11.285
2258,-1,-5,6,-6,-4,-4,-1,-3,11.290000000000001
2259,0,-5,1,4,1,0,-2,-1,11.295
2260,0,-3,1,-1,1,0,1,-2,11.3
2261,0,0,13,6,-3,-1,0,0,11.305
2262,-1,-1,-1,3,-2,-1,-3,0,11.31
2263,0,-4,-11,-8,-2,-1,-1,-1,11.315
2264,1,3,0,-1,-3,0,0,0,11.32
2265,0,-7,-11,-15,-10,-3,-3,-1,11.325000000000001
2266,2,10,3,13,11,3,0,1,11.33
2267,-2,-7,-11,-8,0,-2,1,0,11.335
2268,-2,0,-15,-18,-5,-2,1,0,11.34
2269,-2,-2,-2,1,-5,-3,0,0,11.345
2270,-1,1,29,21,-5,-3,0,-1,11.35
2271,2,4,5,5,5,1,0,-1,11.355
2272,0,3,-5,-4,2,-1,-2,-2,11.36
2273,-1,-3,-15,-13,-1,-2,-2,-1,11.365
2274,-2,-1,-8,-9,-1,0,1,-2,11.370000000000001
2275,1,-2,-3,-5,-1,-1,0,1,11.375
2276,0,-2,6,6,-1,-1,0,-1,11.38
2277,1,7,-4,-3,2,-2,-2,-2,11.385
2278,-1,-7,-4,-4,-5,-2,0,-1,11.39
2279,0,3,7,4,1,0,0,-1,11.395
2280,-2,-4,-1,-10,-5,-4,-2,-1,11.4
2281,-1,10,17,20,3,1,0,0,11.405
2282,-2,-3,-11,-4,-3,-2,0,-1,11.41
2283,-1,-1,-6,-7,-2,1,-1,-2,11.415000000000001
2284,-1,0,1,2,-3,-1,-2,1,11.42
2285,-2,-7,-13,-8,4,0,0,0,11.425
2286,0,-1,-1,-6,-10,-2,-1,-2,11.43
2287,0,2,-5,-8,4,2,1,-3,11.435
2288,0,-1,10,11,3,-1,-2,-3,11.44
2289,-3,-6,-8,-7,-1,0,-1,-1,11.445
2290,-2,-3,0,7,4,1,-2,0,11.450000000000001
2291,1,-1,6,3,-1,-2,1,1,11.455
2292,0,5,4,0,-3,-2,-1,1,11.46
2293,-1,-1,0,-2,-1,0,-2,-1,11.465
2294,-2,-2,-3,-5,0,-1,-1,-2,11.47
2295,-2,-2,-6,-3,-1,0,1,0,11.475
2296,-1,-5,-22,-17,2,1,0,-2,11.48
2297,1,5,33,29,-4,-2,-1,-2,11.485
2298,0,-1,3,1,1,0,-2,-2,11.49
2299,0,0,-2,4,-3,-2,-2,-1,11.495000000000001
2300,-2,0,10,7,0,-1,0,2,11.5
2301,-1,-1,-28,-22,-3,-2,-1,0,11.505
2302,0,0,-7,-10,-3,-2,0,-1,11.51
2303,-1,-2,5,6,0,-2,-4,0,11.515
2304,0,-5,-6,-11,-1,0,0,0,11.52
2305,-1,-9,-36,-29,2,-2,-2,-2,11.525
2306,1,13,53,46,0,0,-1,-1,11.53
2307,-2,-2,-6,-2,-8,-2,0,1,11.535
2308,0,3,14,15,4,2,0,-2,11.540000000000001
2309,-2,0,-3,-6,-1,0,-1,-1,11.545
2310,1,-2,-24,-23,-5,0,-2,-1,11.55
2311,0,-1,-7,-6,2,-1,-2,-1,11.555
2312,-1,-1,3,4,-2,-2,-1,-1,11.56
2313,1,9,-9,-10,-3,0,0,-2,11.565
2314,-2,-13,4,7,3,-1,-2,0,11.57
2315,-2,-1,13,10,-4,-1,0,-1,11.575000000000001
2316,1,5,4,11,2,2,1,0,11.58
2317,-3,-4,9,10,-1,-1,-1,0,11.585
2318,0,3,-12,-10,-1,1,1,0,11.59
2319,0,-2,-10,-10,-1,-2,-1,-2,11.595
2320,-1,-2,-11,-8,1,-2,-3,-2,11.6
2321,2,3,28,18,-5,1,0,0,11.605
2322,-2,-2,-10,-7,-3,-4,-3,0,11.61
2323,0,3,5,-2,1,-2,-2,-2,11.615
2324,-5,-9,0,6,1,0,-2,-2,11.620000000000001
2325,0,-3,-1,0,1,-2,-1,0,11.625
2326,-1,0,-10,-10,-2,0,1,-1,11.63
2327,-2,-3,-6,-1,-1,1,-1,-2,11.635
2328,1,2,-2,-3,0,-3,-2,0,11.64
2329,-1,-5,-3,6,-1,-2,-1,-1,11.645
2330,-2,-3,17,14,-1,-3,-1,-1,11.65
2331,0,8,-14,-13,-1,-1,1,0,11.655
2332,-1,0,1,-7,-3,-1,0,0,11.66
2333,-3,-4,10,8,3,0,-1,-2,11.665000000000001
2334,1,-2,-5,-5,2,-1,-2,1,11.67
2335,1,-3,-2,2,-2,-2,-2,-1,11.675
2336,-1,2,1,-5,-3,0,0,-1,11.68
2337,-1,-3,-7,-11,-7,-3,-4,-2,11.685
2338,-1,-3,-8,2,4,1,0,-1,11.69
2339,0,1,3,-1,1,0,0,0,11.695
2340,0,6,-2,-6,-3,-1,0,0,11.700000000000001
2341,-4,-17,-3,5,-1,1,0,0,11.705
2342,-2,3,9,3,0,-2,-1,-2,11.71
2343,0,-3,7,1,0,0,-2,1,11.715
2344,0,2,-6,-3,0,1,-1,0,11.72
2345,-1,0,-9,-4,-1,-2,-1,-1,11.725
2346,0,1,-2,-5,-1,-2,-1,-1,11.73
2347,-1,-11,-7,3,2,0,0,1,11.735
2348,1,4,3,-6,-3,-1,-1,1,11.74
2349,0,6,-3,-2,-3,-3,-1,-2,11.745000000000001
2350,0,-1,2,4,4,2,2,-1,11.75
2351,-1,4,18,19,1,1,0,-1,11.755
2352,-2,-11,5,12,-2,-1,-2,-1,11.76
2353,0,4,-15,-19,-3,-1,0,1,11.765
2354,-1,5,-9,-14,-9,-2,-2,0,11.77
2355,-1,2,0,3,2,-1,-1,-4,11.775
2356,-3,-5,-3,-2,0,1,1,1,11.78
2357,-2,-2,1,1,-6,-4,0,-2,11.785
2358,0,-3,-13,-1,4,-2,0,-1,11.790000000000001
2359,-1,-4,-2,-1,-7,-3,-3,0,11.795
2360,0,0,-2,5,-3,-3,0,-2,11.8
2361,0,-2,-6,-16,-1,-1,-1,-2,11.805
2362,-2,3,13,14,3,0,-1,0,11.81
2363,2,-1,-1,5,2,-1,1,-1,11.815
2364,-1,-10,-6,4,1,-1,-3,-2,11.82
2365,0,3,8,3,-1,-1,0,1,11.825000000000001
2366,1,-5,-6,-9,-1,0,1,-1,11.83
2367,0,1,-7,-11,3,2,-1,-1,11.835
2368,2,3,-10,-11,0,0,1,1,11.84
2369,-1,-3,14,15,2,-2,-1,0,11.845
2370,-1,-2,-5,-8,-2,-2,-2,-2,11.85
2371,0,-1,6,0,3,0,1,0,11.855
2372,-2,-4,-7,-1,0,-2,-2,-1,11.86
2373,-2,-4,-8,-9,0,0,-2,-1,11.865
2374,0,1,13,17,1,1,2,0,11.870000000000001
2375,-2,-4,-8,-7,-4,-2,-3,-3,11.875
2376,0,13,14,5,3,1,0,-2,11.88
2377,0,4,-11,-2,-2,-2,-2,0,11.885
2378,-1,-3,-12,-11,-2,0,-1,0,11.89
2379,-1,0,3,-7,-11,-5,-2,0,11.895
2380,2,-3,-2,2,8,4,1,0,11.9
2381,0,-2,-1,4,2,0,0,-1,11.905
2382,-3,-9,-3,-5,-3,-1,-2,-1,11.91
2383,-2,-8,-5,-1,2,0,0,-1,11.915000000000001
2384,0,10,12,-4,-3,-1,-1,-1,11.92
2385,-2,-3,1,0,-2,0,-1,1,11.925
2386,0,2,-3,0,2,-2,-2,1,11.93
2387,0,3,2,-1,-1,1,0,0,11.935
2388,-1,6,-5,4,-1,0,0,0,11.94
2389,-4,-4,-5,-15,-1,-1,-1,-2,11.945
2390,-3,-3,17,14,-2,-2,-3,1,11.950000000000001
2391,0,6,-3,-6,0,0,-2,-1,11.955
2392,0,-6,3,7,1,-1,0,0,11.96
2393,0,1,-3,-3,-1,0,-1,0,11.965
2394,-1,1,-10,-13,-1,-1,0,0,11.97
2395,-1,0,3,2,1,0,-1,-2,11.975
2396,0,-4,-1,-1,-3,-2,-1,0,11.98
2397,-2,-3,3,4,-2,-2,-1,-1,11.985
2398,1,4,-4,-5,0,-2,-2,-2,11.99
2399,-3,0,1,4,1,0,0,1,11.995000000000001
2400,-1,-4,-3,-3,-5,-3,-2,-2,12.0
2401,0,1,3,2,-3,-1,0,0,12.005
2402,-1,-1,-5,-1,-3,-1,-1,-1,12.01
2403,1,-1,-1,-10,-1,0,1,-1,12.015
2404,-3,-4,-3,5,-1,-2,-1,-1,12.02
2405,-3,-6,-1,3,-9,-1,-1,-2,12.025
2406,-2,0,-2,-19,-17,-4,-1,-2,12.030000000000001
2407,0,-7,-1,29,29,4,-1,-1,12.035
2408,0,17,-5,-16,-8,1,0,-1,12.040000000000001
2409,-2,-10,8,4,2,-4,-2,-3,12.045
2410,-3,-11,-13,3,4,0,0,-1,12.05
2411,0,6,14,-43,-18,-4,2,1,12.055
2412,-7,-12,-17,20,-13,-12,-6,-4,12.06
2413,-5,-3,-2,18,-40,1,2,-1,12.065
2414,0,0,6,6,30,10,0,0,12.07
2415,3,15,-20,-77,-43,-13,-6,-6,12.075000000000001
2416,-8,8,-1,71,79,25,11,0,12.08
2417,30,106,25,-66,-40,-17,-3,11,12.085
2418,3,114,-29,18,21,-8,-12,-4,12.09
2419,35,127,18,39,-50,1,3,-16,12.095
2420,-61,60,25,-10,12,7,5,9,12.1
2421,-42,-107,-13,-65,0,-5,2,-31,12.105
2422,-8,-115,-16,9,21,11,7,32,12.11
2423,47,-128,-3,24,-64,-16,6,17,12.115
2424,31,-76,7,33,18,0,-13,7,12.120000000000001
2425,-12,-112,-28,26,7,-2,-2,-5,12.125
2426,12,-97,19,80,15,8,-18,-3,12.13
2427,-45,-63,-8,-103,-35,-18,-17,-14,12.135
2428,46,-51,2,-81,-25,4,12,-22,12.14
2429,-29,-78,-30,-58,-20,-12,-11,-21,12.145
2430,-21,-49,-69,1,4,-11,39,8,12.15
2431,7,81,80,101,96,31,18,12,12.155000000000001
2432,-22,-104,47,64,27,-7,-41,33,12.16
2433,66,51,-19,7,-36,2,-14,5,12.165000000000001
2434,5,-38,-61,-47,1,-6,-20,20,12.17
2435,-27,-24,-12,22,-27,1,26,-34,12.175
2436,-14,-11,15,94,-17,-7,19,-6,12.18
2437,34,64,24,-57,-5,-2,-23,22,12.185
2438,-55,-95,29,-17,5,-5,2,-3,12.19
2439,56,-86,-100,-115,-19,-9,2,26,12.195
2440,-18,-42,-31,-128,-128,-48,-19,-50,12.200000000000001
2441,-40,27,106,127,127,72,39,-18,12.205
2442,36,127,25,-107,-85,-18,-13,-28,12.21
2443,-40,80,-19,16,77,3,-27,16,12.215
2444,10,91,-21,33,-25,-14,-2,-7,12.22
2445,-3,64,14,-89,-44,-16,0,-9,12.225
2446,3,97,0,-41,4,10,5,-4,12.23
2447,-27,12,-31,69,90,13,6,56,12.235
2448,41,56,18,-68,-12,-1,33,29,12.24
2449,-14,37,-63,126,61,4,-15,-8,12.245000000000001
2450,14,25,99,-93,-18,0,-12,-56,12.25
2451,1,14,-59,55,-74,2,4,-2,12.255
2452,2,32,51,3,49,8,-13,31,12.26
2453,8,1,-80,-128,-103,-37,27,12,12.265
2454,6,14,-18,127,90,22,-5,-59,12.27
2455,-32,5,97,-24,0,5,-31,8,12.275
2456,21,53,-56,-111,-29,6,2,10,12.280000000000001
2457,20,47,82,112,71,35,4,-47,12.285
2458,8,36,-7,87,-9,-15,13,27,12.290000000000001
2459,-30,11,-19,-37,-30,-20,-11,23,12.295
2460,27,75,1,-11,42,19,19,36,12.3
2461,6,14,-36,-102,1,-1,-3,21,12.305
2462,-54,-1,-22,-95,-91,-28,-4,-75,12.31
2463,-21,-65,15,6,55,20,27,11,12.315
2464,24,-13,-20,-34,12,-5,-25,4,12.32
2465,-2,22,-30,-75,-104,-22,-20,-10,12.325000000000001
2466,-5,-37,58,86,81,49,16,29,12.33
2467,-3,-6,-85,-128,-59,-21,-28,-47,12.335
2468,-28,-11,21,93,-52,-17,34,-23,12.34
2469,50,66,-24,21,49,13,1,55,12.345
2470,-20,-29,71,-62,-29,-17,-52,-23,12.35
2471,66,69,-2,-53,-3,9,19,-24,12.355
2472,-27,-6,-54,-57,25,13,26,-52,12.36
2473,-38,-9,26,81,21,-2,8,47,12.365
2474,96,33,27,14,-39,-10,-28,127,12.370000000000001
2475,-14,-8,-29,-66,-33,-9,-17,-62,12.375
2476,-29,23,79,109,35,-6,-6,-65,12.38
2477,-45,-72,-53,-31,-19,-13,21,36,12.385
2478,-36,-94,-89,-76,-113,-33,12,4,12.39
2479,-33,25,103,118,116,53,10,-40,12.395
2480,28,-14,-9,-14,-9,0,-25,-42,12.4
2481,56,51,74,106,-38,-15,11,46,12.405000000000001
2482,22,0,-6,13,60,12,32,32,12.41
2483,-65,-62,-49,-92,-89,-35,-21,-14,12.415000000000001
2484,-3,-2,-7,103,62,28,15,-8,12.42
2485,25,1,51,-63,0,-17,-30,-47,12.425
2486,-8,78,-65,-90,-61,-17,-23,-2,12.43
2487,20,-40,77,127,26,18,46,33,12.435
2488,-20,-49,-95,-77,-57,-17,-64,5,12.44
2489,-3,-26,-5,-94,-14,3,14,-16,12.445
2490,16,72,79,119,68,13,19,21,12.450000000000001
2491,-23,-29,-52,-128,-41,-2,-45,-40,12.455
2492,6,55,28,27,-33,-21,26,59,12.46
2493,-1,-74,-81,26,20,11,13,61,12.465
2494,-45,-43,7,19,33,8,-16,-70,12.47
2495,11,4,120,124,-43,-6,16,25,12.475
2496,16,30,44,-24,34,13,-1,-28,12.48
2497,2,36,23,80,-11,-3,-3,0,12.485
2498,-17,-88,-127,-100,-104,-32,15,-18,12.49
2499,9,14,18,26,66,30,13,40,12.495000000000001
2500,9,-7,-6,58,-84,-12,7,17,12.5
2501,-38,-35,18,-14,41,9,11,-25,12.505
2502,2,60,18,-119,-40,-11,-59,-2,12.51
2503,16,5,44,92,-9,-18,15,-31,12.515
2504,-74,-40,-84,-62,-9,-14,-32,17,12.52
2505,37,16,-43,-127,-44,-6,-37,12,12.525
2506,18,16,9,78,46,42,53,12,12.530000000000001
2507,27,-39,-18,14,85,21,14,-14,12.535
2508,-27,-10,84,-44,7,1,-2,-21,12.540000000000001
2509,13,15,-17,-103,-62,-32,-13,-23,12.545
2510,-3,-1,-54,-128,-73,-18,-20,-54,12.55
2511,-32,24,24,52,64,28,15,54,12.555
2512,81,22,21,-24,9,8,17,36,12.56
2513,-104,-51,-10,127,55,-2,17,-35,12.565
2514,56,-46,9,-14,1,18,-5,7,12.57
2515,1,64,44,-128,-82,-41,-32,-69,12.575000000000001
2516,-8,-31,-44,101,107,56,-34,39,12.58
2517,11,6,12,-37,-22,-20,1,-44,12.585
2518,-8,39,49,-5,5,5,42,-16,12.59
2519,23,-11,-49,-114,-94,-38,-18,121,12.595
2520,14,17,11,18,59,40,1,24,12.6
2521,9,38,-20,-99,-102,-34,-26,-38,12.605
2522,-11,-63,-82,114,125,5,13,14,12.61
2523,-12,5,68,65,44,-7,-23,-80,12.615
2524,-19,10,-52,-128,-99,-33,13,-14,12.620000000000001
2525,3,59,60,114,3,15,9,16,12.625
2526,-2,-62,-13,34,7,18,5,-60,12.63
2527,-25,-14,-128,-128,-128,-53,-9,22,12.635
2528,4,8,71,114,127,51,20,77,12.64
2529,35,12,97,-24,10,20,44,-13,12.645
2530,31,81,-43,-58,-82,-24,-32,48,12.65
2531,20,-8,82,56,60,32,67,-20,12.655000000000001
2532,-21,-78,-91,-27,-128,-33,-33,-24,12.66
2533,30,7,32,0,23,-12,-92,-18,12.665000000000001
2534,-54,-8,35,-28,-33,-4,8,6,12.67
2535,38,7,-38,-60,2,9,40,88,12.675
2536,-46,-33,-35,-128,-83,-31,8,-43,12.68
2537,-8,10,23,6,81,31,15,-8,12.685
2538,33,10,9,74,12,9,-3,-11,12.69
2539,-38,0,57,-74,-99,-30,-21,-47,12.695
2540,-19,-90,-59,50,74,44,35,-15,12.700000000000001
2541,-69,-54,28,-27,-39,7,-22,6,12.705
2542,33,33,-60,-71,-7,-14,9,-66,12.71
2543,42,32,-119,75,38,12,6,79,12.715
2544,75,73,103,-70,-58,-19,-8,13,12.72
2545,-24,-45,-111,125,77,25,-15,7,12.725
2546,-53,-5,48,24,83,23,46,-10,12.73
2547,-20,-1,-15,-99,-71,7,3,36,12.735
2548,16,-25,-29,-77,-25,-45,-52,-12,12.74
2549,30,9,10,8,35,21,12,22,12.745000000000001
2550,-1,1,-26,-67,-90,-71,-66,-9,12.75
2551,-19,-14,46,127,92,25,8,-61,12.755
2552,3,44,32,-18,55,42,72,30,12.76
2553,-5,-20,-89,-128,-41,-16,-21,-38,12.765
2554,-54,-57,-18,-7,-60,-25,-22,-85,12.77
2555,-9,38,75,-15,82,34,25,-14,12.775
2556,45,78,-41,114,19,1,-1,75,12.780000000000001
2557,0,-42,63,-84,-99,-26,47,-44,12.785
2558,-28,10,49,77,80,23,-11,127,12.790000000000001
2559,15,-55,-41,-87,-26,-28,-104,-59,12.795
2560,-68,2,67,100,17,10,52,-49,12.8
2561,35,-15,-24,-122,-46,-19,-30,10,12.805
2562,52,53,35,-23,-18,-4,12,81,12.81
2563,19,-15,-54,-42,-115,-24,-12,-13,12.815
2564,-18,-18,-15,27,51,3,-36,-59,12.82
2565,-20,7,12,-75,-71,-14,19,-71,12.825000000000001
2566,-34,-28,-55,106,127,53,14,38,12.83
2567,41,15,-67,-105,-42,-26,-2,20,12.835
2568,-26,-43,51,28,-53,-19,-7,-32,12.84
2569,-57,-2,7,127,113,27,13,-10,12.845
2570,21,12,78,-70,33,40,16,24,12.85
2571,-26,-51,-55,-70,1,-23,22,-79,12.855
2572,-11,66,1,-99,7,5,24,-43,12.86
2573,70,55,-48,-34,39,15,-95,108,12.865
2574,33,0,42,63,-23,-6,2,59,12.870000000000001
2575,26,37,48,127,56,19,7,18,12.875
2576,-32,-26,74,-64,8,-3,50,-56,12.88
2577,-24,-46,-116,-52,-55,-3,-35,13,12.885
2578,-33,18,-12,-17,-11,-25,-44,-66,12.89
2579,58,51,57,-17,3,23,10,18,12.895
2580,-18,-37,-20,15,-17,-15,-8,-45,12.9
2581,-20,-19,24,102,85,39,55,-9,12.905000000000001
2582,24,30,97,17,46,18,-6,43,12.91
2583,-58,-26,-88,-99,-65,-21,-5,-33,12.915000000000001
2584,19,-23,-25,-73,-37,1,13,-35,12.92
2585,4,-6,76,97,84,28,25,73,12.925
2586,6,-24,-39,-119,-104,-33,-28,-26,12.93
2587,-32,8,57,34,16,19,20,-31,12.935
2588,14,31,-118,-128,-82,-42,-55,12,12.94
2589,11,8,-7,-33,-50,-20,40,5,12.945
2590,5,28,50,88,10,4,-18,41,12.950000000000001
2591,-3,-13,32,-23,15,-5,-34,0,12.955
2592,-21,-38,-9,22,-22,-6,-41,-10,12.96
2593,0,15,-1,-96,-44,-19,50,-28,12.965
2594,14,-10,-17,80,82,34,49,-2,12.97
2595,4,21,3,-9,-43,-6,-15,12,12.975
2596,-25,15,-25,-72,-7,-16,-18,-33,12.98
2597,14,20,45,123,105,34,26,39,12.985
2598,9,37,41,-72,-44,-9,-3,-11,12.99
2599,-11,-14,-29,-59,-51,-7,-7,-40,12.995000000000001
2600,43,6,6,12,13,3,15,78,13.0
2601,-12,-8,-12,-47,-51,-20,-4,6,13.005
2602,1,14,-22,-73,-43,-20,-21,-42,13.01
2603,-39,-54,2,82,65,3,-7,-87,13.015
2604,26,30,-7,14,-7,8,-49,93,13.02
2605,6,12,-2,-21,-15,-3,26,4,13.025
2606,3,41,-36,-28,-27,-7,15,41,13.030000000000001
2607,14,89,-19,-17,18,0,0,50,13.035
2608,-3,67,-45,-27,-46,-18,-7,-36,13.040000000000001
2609,-24,90,114,95,26,5,-16,-36,13.045
2610,-20,78,-55,-92,-15,6,25,-41,13.05
2611,5,48,-41,-63,-32,-18,-13,27,13.055
2612,9,-20,29,86,-19,22,21,16,13.06
2613,-5,55,-69,-92,-45,-11,-11,-13,13.065
2614,-1,-28,22,16,-33,-5,8,-28,13.07
2615,10,-75,39,5,9,4,0,29,13.075000000000001
2616,-11,-104,-29,-57,-3,-1,5,1,13.08
2617,-35,-128,-34,-40,-35,-15,-22,-35,13.085
2618,52,-72,-39,-1,7,15,35,32,13.09
2619,31,-29,-19,28,6,-5,2,29,13.095
2620,-1,-76,36,37,24,-10,-30,-7,13.1
2621,-14,-57,-27,20,-2,-10,-4,-21,13.105
2622,-34,-73,-10,-62,-26,8,19,-8,13.11
2623,7,21,38,65,36,8,-22,-22,13.115
2624,11,34,13,11,17,13,56,68,13.120000000000001
2625,2,-1,-8,-24,-6,13,12,-3,13.125
2626,-8,-19,10,8,-5,-6,8,-17,13.13
2627,7,33,-43,-37,3,12,36,10,13.135
2628,-9,66,61,97,17,-12,-37,-27,13.14
2629,9,19,-19,-37,-26,-19,-15,8,13.145
2630,-3,40,10,7,-23,-7,5,-15,13.15
2631,-3,62,-34,-22,31,10,-7,10,13.155000000000001
2632,-4,105,3,7,-10,-11,-10,-10,13.16
2633,15,127,10,-27,-12,-1,0,14,13.165000000000001
2634,-9,127,2,18,-2,-4,-11,-17,13.17
2635,-8,21,-17,-24,-6,-3,-10,7,13.175
2636,6,-37,-7,-20,6,4,13,0,13.18
2637,8,-88,4,16,-2,-8,-25,-4,13.185
2638,-14,-128,-25,-23,-4,-16,-28,-20,13.19
2639,-8,-128,0,30,1,9,20,12,13.195
2640,12,-127,5,-8,5,24,29,6,13.200000000000001
2641,-6,-128,22,4,-4,6,11,-2,13.205
2642,-1,-60,-3,-26,3,-4,-20,1,13.21
2643,2,-56,37,57,5,-3,5,11,13.215
2644,8,-17,-31,-35,-1,-3,-2,-6,13.22
2645,-1,-32,-23,3,-4,-5,-13,-3,13.225
2646,-1,-4,32,20,4,-3,4,-3,13.23
2647,-2,15,-30,18,5,2,6,5,13.235
2648,-5,52,-23,-58,-20,-9,-14,-7,13.24
2649,1,74,7,4,-2,-4,-5,2,13.245000000000001
2650,-2,65,-15,-3,3,3,4,-2,13.25
2651,0,22,22,34,3,1,-7,0,13.255
2652,2,32,24,1,6,-1,-6,-4,13.26
2653,-1,-28,-14,-3,-4,-2,-2,2,13.265
2654,-3,-73,17,-2,1,4,5,-5,13.27
2655,-3,-71,-16,-2,-8,-1,-5,1,13.275
2656,0,-77,-3,-2,6,0,2,-1,13.280000000000001
2657,5,-61,-8,-14,-10,-3,1,2,13.285
2658,-5,-40,1,2,-6,0,-2,-6,13.290000000000001
2659,-2,-26,24,20,5,-1,-1,2,13.295
2660,-2,-33,-10,-16,-6,-1,1,3,13.3
2661,0,-12,3,15,16,2,-3,0,13.305
2662,-3,-10,-14,-22,-5,0,-2,-3,13.31
2663,1,16,-1,2,-5,0,2,2,13.315
2664,2,6,33,5,16,3,-1,-2,13.32
2665,0,6,-4,-2,-9,-4,-4,-4,13.325000000000001
2666,-2,-19,-32,2,-5,-2,0,-4,13.33
2667,-1,24,49,13,0,-2,0,1,13.335
2668,-2,7,-6,-2,-2,-2,-4,-1,13.34
2669,-2,-2,-12,-27,-13,-4,-2,0,13.345
2670,1,4,14,19,20,6,2,-1,13.35
2671,1,1,-25,-23,-5,-4,-4,-1,13.355
2672,2,13,7,27,5,1,-2,-2,13.36
2673,0,-7,-5,2,-4,-3,-2,0,13.365
2674,-1,11,21,25,3,2,2,-1,13.370000000000001
2675,-5,-2,-25,-28,-5,-1,-1,0,13.375
2676,-2,7,-26,-18,-3,-5,0,-1,13.38
2677,1,19,24,4,-7,-1,0,-1,13.385
2678,2,18,7,3,6,2,0,0,13.39
2679,0,4,12,10,-2,-2,-1,0,13.395
2680,2,8,-15,-1,0,-1,1,0,13.4
2681,0,12,-10,6,0,-1,-1,-3,13.405000000000001
2682,-4,1,-10,-15,-8,-3,-2,-1,13.41
2683,2,16,26,30,-4,0,0,0,13.415000000000001
2684,-2,23,-1,-9,2,3,-1,2,13.42
2685,-1,2,-18,-16,-4,-2,-1,0,13.425
2686,-2,13,7,-18,-3,-2,-3,-1,13.43
2687,-3,-3,-20,3,8,3,3,-2,13.435
2688,-1,-2,4,-1,-5,-3,-2,-2,13.44
2689,1,11,3,7,1,2,0,0,13.445
2690,-1,0,-15,-10,-2,-1,-1,-3,13.450000000000001
2691,-1,4,-1,-9,-4,-4,-3,-1,13.455
2692,1,6,6,3,-2,-2,-2,0,13.46
2693,-3,2,12,8,2,0,-2,-1,13.465
2694,-2,1,-7,2,-3,2,3,0,13.47
2695,-1,6,0,-11,1,-1,0,-4,13.475
2696,-1,7,14,14,2,-1,1,-2,13.48
2697,-2,4,-11,-8,-6,-2,-2,1,13.485
2698,1,27,0,-5,-7,-2,0,0,13.49
2699,1,31,-3,19,13,4,2,0,13.495000000000001
2700,-1,14,-18,-18,-7,0,-1,-3,13.5
2701,0,5,-5,-10,6,0,0,0,13.505
2702,0,-6,4,7,5,0,-1,-2,13.51
2703,-3,-9,15,10,-7,-5,-3,-1,13.515
2704,-1,-39,5,5,-5,-4,0,-1,13.52
2705,-2,-13,-17,-5,6,2,0,0,13.525
2706,0,-3,11,-6,-9,-2,-2,0,13.530000000000001
2707,-1,6,-9,-18,5,1,-1,0,13.535
2708,-2,7,11,17,-2,-1,-3,0,13.540000000000001
2709,3,12,-1,-29,-10,-2,-1,0,13.545
2710,-3,-10,-8,35,19,4,1,2,13.55
2711,0,-6,-4,-9,-9,-5,-2,-1,13.555
2712,2,12,-3,-10,5,0,-1,0,13.56
2713,-1,3,22,26,5,1,1,1,13.565
2714,-2,3,-2,-7,-6,-3,-2,-2,13.57
2715,0,-6,8,14,4,2,-1,0,13.575000000000001
2716,-4,-20,-16,-16,-18,-3,0,-2,13.58
2717,0,1,-6,-9,0,0,-1,-2,13.585
2718,1,-3,0,-5,1,0,-1,-1,13.59
2719,-1,7,8,11,-2,-2,-1,-1,13.595
2720,-1,1,-11,-15,-5,-2,-3,-1,13.6
2721,-1,9,9,10,7,3,1,-2,13.605
2722,-1,-4,-8,-4,-5,0,0,-2,13.61
2723,-1,-4,0,-5,-2,-1,0,0,13.615
2724,-2,-1,21,16,-2,-3,-2,-2,13.620000000000001
2725,-1,-7,-3,4,2,1,1,-1,13.625
2726,1,1,-6,-11,1,-3,0,-2,13.63
2727,0,27,-10,-13,-3,0,0,0,13.635
2728,-1,10,2,9,4,-1,0,0,13.64
2729,1,12,-3,0,-1,0,-2,-1,13.645
2730,-4,-7,-4,-4,-5,0,-2,0,13.65
2731,0,-17,-4,-4,0,-1,0,-1,13.655000000000001
2732,-2,-20,9,9,2,1,0,1,13.66
2733,-1,-17,-23,-27,-3,-1,-1,-2,13.665000000000001
2734,2,3,27,41,6,0,0,-1,13.67
2735,-2,-3,4,-1,-11,-2,-2,1,13.675
2736,0,-5,-12,-3,3,-1,-1,-1,13.68
2737,-3,7,7,9,2,-3,-3,0,13.685
2738,0,4,-25,-21,-2,1,-1,0,13.69
2739,-1,0,-4,-23,-15,-6,0,1,13.695
2740,2,4,12,20,25,7,3,-1,13.700000000000001
2741,1,1,-1,7,0,-1,0,-1,13.705
2742,-1,-3,-3,-6,-1,-1,-2,-1,13.71
2743,1,-3,-11,-19,3,1,0,-1,13.715
2744,-3,-11,15,14,-11,-6,-2,1,13.72
2745,-1,10,-2,2,-3,-2,1,-1,13.725
2746,0,11,9,2,5,0,1,0,13.73
2747,-1,-47,-3,3,-1,2,0,2,13.735
2748,0,-34,-16,-24,-10,-1,-1,-2,13.74
2749,0,-81,7,11,4,2,-1,0,13.745000000000001
2750,-1,-93,-4,-1,-8,-4,-1,1,13.75
2751,0,-39,-4,0,4,0,1,0,13.755
2752,-2,11,4,3,-4,-2,-1,0,13.76
2753,0,39,3,2,-2,-1,-2,0,13.765
2754,-1,59,-2,-8,-1,-1,0,0,13.77
2755,0,46,-1,-3,-1,-1,0,-2,13.775
2756,-1,18,-16,-4,3,-1,-1,-1,13.780000000000001
2757,0,33,13,2,-2,0,1,-1,13.785
2758,-2,-89,6,4,-1,0,2,1,13.790000000000001
2759,-1,-115,5,7,1,1,-1,0,13.795
2760,-1,-54,-9,-8,-8,-3,-4,0,13.8
2761,-2,-49,-12,-9,-1,1,0,-1,13.805
2762,2,34,0,-1,-1,0,-2,-2,13.81
2763,0,80,0,4,4,1,1,0,13.815
2764,-5,30,-13,-11,-3,-1,-1,-2,13.82
2765,-2,60,-5,-7,0,0,-3,0,13.825000000000001
2766,2,30,13,16,0,1,0,0,13.83
2767,0,60,0,5,2,1,-1,-1,13.835
2768,1,65,4,-2,-2,-1,-3,0,13.84
2769,-1,48,-5,-2,-1,-2,-2,-1,13.845
2770,-3,44,-3,-8,-3,0,0,-2,13.85
2771,0,31,-1,2,1,0,-2,0,13.855
2772,-3,31,-1,-2,1,-1,0,-1,13.86
2773,0,-1,-7,-12,-4,-1,-1,-1,13.865
2774,0,-20,11,4,3,1,-2,0,13.870000000000001
2775,-3,-28,0,3,-8,-3,-2,-2,13.875
2776,0,-5,6,2,5,2,-1,-2,13.88
2777,-2,40,2,7,-1,-1,0,-1,13.885
2778,0,78,-8,-6,1,0,0,0,13.89
2779,1,34,-5,-5,0,1,0,-1,13.895
2780,0,-17,-3,-6,-5,-1,-2,0,13.9
2781,1,-24,22,20,3,-2,0,-1,13.905000000000001
2782,0,-108,-11,-1,-1,-1,-1,0,13.91
2783,-1,-26,-8,-17,1,0,0,-1,13.915000000000001
2784,-1,-14,8,9,0,-1,1,0,13.92
2785,0,-16,13,13,1,-1,-1,-2,13.925
2786,-2,31,2,-7,-9,-3,-2,0,13.93
2787,1,14,-3,12,8,3,1,1,13.935
2788,-2,-15,-12,-10,2,0,-1,-2,13.94
2789,0,11,-12,-11,-3,-1,-1,0,13.945
2790,0,21,2,-2,-1,-3,-2,-1,13.950000000000001
2791,-1,17,0,-1,-3,-1,0,0,13.955
2792,0,-12,-4,-7,-4,-2,0,-1,13.96
2793,-1,-24,-3,-1,-1,-1,1,-1,13.965
2794,0,-4,-10,-10,-1,-1,-2,-1,13.97
2795,-1,0,19,16,1,0,-1,1,13.975
2796,-2,8,9,10,3,0,-1,-1,13.98
2797,-1,0,-12,-18,-12,-3,-2,-2,13.985
2798,0,33,6,17,15,5,1,1,13.99
2799,0,24,-4,-2,-2,-1,0,1,13.995000000000001
2800,-1,12,-1,-3,-5,-3,-1,1,14.0
2801,-1,-1,-7,-4,-2,-1,-2,-1,14.005
2802,-3,19,-3,-8,-3,-3,0,-2,14.01
2803,-3,-9,-3,0,1,-1,-2,-3,14.015
2804,-1,-5,-14,-16,0,1,-1,-1,14.02
2805,1,-6,15,11,-1,-2,0,0,14.025
2806,-1,-13,14,16,-4,-3,-1,-1,14.030000000000001
2807,0,-13,7,6,0,2,-1,-1,14.035
2808,-1,-2,-20,-15,-5,-2,-1,-3,14.040000000000001
2809,-1,-2,0,0,3,1,1,-1,14.045
2810,-2,-1,-4,-7,-1,-1,0,-2,14.05
2811,0,-7,2,0,-2,-2,-1,-1,14.055
2812,-2,5,0,-4,-3,-2,-1,-1,14.06
2813,0,-10,-4,-3,1,0,-2,0,14.065
2814,0,-6,5,-2,-4,-2,-2,-2,14.07
2815,-2,-37,-6,-6,-2,-1,0,1,14.075000000000001
2816,-1,-31,-6,-6,-3,-3,0,-1,14.08
2817,0,-13,20,16,0,1,1,0,14.085
2818,0,-2,-3,5,10,0,0,1,14.09
2819,0,12,-7,-8,-1,-3,0,-2,14.095
2820,0,10,6,7,-3,-2,-1,-1,14.1
2821,-2,-1,-9,-9,-3,-1,2,-1,14.105
2822,0,5,-8,-11,-4,0,-1,-1,14.11
2823,-1,1,3,3,1,0,-2,0,14.115
2824,1,-5,4,4,0,-2,-2,0,14.120000000000001
2825,0,-23,-5,-3,2,-2,-1,-2,14.125
2826,-1,-19,-5,-6,-6,-2,0,-1,14.13
2827,0,-10,0,2,0,-1,-1,-2,14.135
2828,-2,-9,2,2,-5,0,-2,0,14.14
2829,0,9,2,4,1,-1,-3,0,14.145
2830,-3,-60,6,0,0,-1,0,-2,14.15
2831,0,5,-7,-1,-2,-1,-1,-2,14.155000000000001
2832,-1,13,0,1,1,0,0,2,14.16
2833,0,101,-40,-42,-3,0,-1,-3,14.165000000000001
2834,-2,70,49,51,3,0,0,0,14.17
2835,-1,30,6,3,-2,-2,-1,-2,14.175
2836,0,26,2,2,1,-1,-1,-3,14.18
2837,-2,-17,-10,-11,-3,-2,0,1,14.185
2838,-2,1,-18,-16,-1,-1,0,-3,14.19
2839,-1,-6,-4,-7,-3,-1,-1,-1,14.195
2840,-1,-17,7,8,-1,0,-1,-1,14.200000000000001
2841,1,-32,0,2,0,-1,-1,-1,14.205
2842,2,-10,-16,-15,-8,-3,-2,-2,14.21
2843,-2,-20,21,21,3,0,-1,-1,14.215
2844,0,-8,-17,-12,-3,-2,-2,-1,14.22
2845,-1,-16,0,4,5,1,-2,1,14.225
2846,0,-5,10,10,-1,0,-1,0,14.23
2847,-1,-13,-9,-9,-3,0,-1,0,14.235
2848,0,-8,4,1,-4,-2,-1,0,14.24
2849,-2,-10,-1,-1,-3,0,0,-2,14.245000000000001
2850,0,-10,-9,-10,-1,1,-1,-2,14.25
2851,-1,-23,-20,-31,-2,-1,0,0,14.255
2852,2,2,22,29,2,-1,2,-3,14.26
2853,1,7,15,22,-1,-2,-4,-1,14.265
2854,1,26,-8,-15,-2,-2,0,0,14.27
2855,-1,-6,7,9,0,0,0,-1,14.275
2856,-1,-2,-6,-10,-2,-2,0,0,14.280000000000001
2857,-1,-9,-2,-3,1,0,1,0,14.285
2858,-1,0,-3,1,-1,2,1,0,14.290000000000001
2859,0,12,-5,-5,0,-2,-1,-1,14.295
2860,-1,0,-5,-4,-2,-1,-3,0,14.3
2861,-2,-6,7,6,-2,0,-1,-2,14.305
2862,-1,2,-10,-9,-1,-2,-2,-1,14.31
2863,-1,4,-14,-15,-4,-1,0,-1,14.315
2864,-4,1,33,32,3,1,-1,-1,14.32
2865,-1,-3,3,-2,-4,-4,-1,0,14.325000000000001
2866,0,-1,-11,-7,0,0,-1,0,14.33
2867,0,8,-3,-2,-3,-2,0,-1,14.335
2868,0,2,-7,-11,-2,0,0,1,14.34
2869,-2,-8,-1,-1,0,0,0,-1,14.345
2870,-1,-19,-1,1,-2,-1,-1,-1,14.35
2871,-1,-7,3,6,1,-1,-2,-1,14.355
2872,-2,-1,-11,-13,-1,-3,-1,-2,14.36
2873,-1,8,-26,-30,0,-1,0,-1,14.365
2874,-3,4,43,44,-1,-2,-2,0,14.370000000000001
2875,1,13,3,6,1,3,-1,0,14.375
2876,-2,5,4,8,-1,0,0,-1,14.38
2877,-1,-5,-8,-4,-4,-2,-1,0,14.385
2878,1,-4,-20,-18,1,0,0,-1,14.39
2879,-1,-8,0,2,1,-2,-1,0,14.395
2880,0,2,-8,-15,-5,-3,-2,-1,14.4
2881,-2,-6,5,5,0,2,1,0,14.405000000000001
2882,-1,-4,-10,-12,-2,-2,-1,-1,14.41
2883,-1,-1,15,22,4,1,-1,-1,14.415000000000001
2884,-1,-10,-12,-12,-2,-3,-1,1,14.42
2885,-1,-5,7,9,-1,-1,-2,0,14.425
2886,-1,-4,-8,-8,0,-2,-1,0,14.43
2887,-2,-3,5,-1,-5,-1,0,-1,14.435
2888,-2,-1,-1,0,0,-1,-3,-1,14.44
2889,-1,3,11,10,-4,1,-1,0,14.445
2890,1,1,-14,-12,7,2,0,0,14.450000000000001
2891,-2,2,-15,-16,-3,0,-2,-2,14.455
2892,0,3,26,27,0,1,-1,0,14.46
2893,-1,-5,-17,-10,-3,-2,0,-1,14.465
2894,-1,5,11,4,-4,-3,1,0,14.47
2895,1,2,-6,-8,-1,-2,-1,0,14.475
2896,-3,-2,-5,-6,0,-2,0,-1,14.48
2897,0,1,-3,-2,2,0,0,-2,14.485
2898,-3,-4,-5,0,-2,0,-2,-1,14.49
2899,1,-2,2,4,0,-1,0,-1,14.495000000000001
2900,-1,-10,-18,-17,-4,-1,-3,0,14.5
2901,0,-10,12,13,0,0,-3,-1,14.505
2902,1,-8,3,-3,-2,0,-2,-2,14.51
2903,-3,-7,17,18,0,-3,0,0,14.515
2904,1,8,-7,-6,0,-1,0,1,14.52
2905,-1,5,-4,-4,0,0,0,2,14.525
2906,-3,6,-8,-5,1,2,-1,0,14.530000000000001
2907,-1,7,-7,-6,-1,0,-1,0,14.535
2908,1,-3,-4,-5,-1,0,-1,-3,14.540000000000001
2909,0,-2,6,4,1,-2,0,-1,14.545
2910,-1,11,-8,-8,-2,0,-2,0,14.55
2911,-1,12,7,7,-4,0,-1,-1,14.555
2912,-2,-1,-11,-10,3,0,0,0,14.56
2913,1,1,18,21,0,1,1,-2,14.565
2914,-3,0,-2,1,-3,1,0,1,14.57
2915,0,0,-4,-4,-4,-3,0,-1,14.575000000000001
2916,0,16,-4,-6,-2,-1,0,1,14.58
2917,2,32,3,-2,0,-1,-1,1,14.585
2918,0,4,-12,-9,-2,-2,0,-3,14.59
2919,0,-1,0,-2,3,2,-1,0,14.595
2920,-4,-19,3,4,-1,-1,-2,-3,14.6
2921,-2,-19,0,-3,-1,-1,-1,0,14.605
2922,-2,-15,4,7,0,-1,0,0,14.61
2923,-1,-18,-8,-5,-1,-3,-1,-2,14.615
2924,0,-10,2,4,-1,-1,0,-1,14.620000000000001
2925,0,-8,-6,-6,0,-1,-2,1,14.625
2926,-1,-11,1,3,-2,1,0,-1,14.63
2927,-1,9,2,2,-1,-1,-2,-1,14.635
2928,-1,-11,-9,-9,-4,-2,-2,1,14.64
2929,-5,-8,-14,-16,-1,-2,-2,-5,14.645
2930,-1,1,26,17,-4,-3,0,-1,14.65
2931,-2,-5,6,14,8,0,-1,-1,14.655000000000001
2932,-2,5,2,2,-1,-1,1,0,14.66
2933,0,-3,-6,-7,-1,-2,-2,0,14.665000000000001
2934,-1,-6,-13,-12,0,0,0,-1,14.67
2935,0,1,-4,-6,-4,-3,-1,-1,14.675
2936,2,1,1,-1,-3,0,0,-1,14.68
2937,-1,-4,3,7,1,1,0,-1,14.685
2938,-1,1,-35,-40,-2,0,0,-1,14.69
2939,-1,-2,42,46,-1,0,-1,0,14.695
2940,-2,-2,3,0,-1,-2,-1,2,14.700000000000001
2941,0,-1,6,5,-2,-1,-1,0,14.705
2942,1,2,0,4,-1,0,0,-1,14.71
2943,-2,-4,-29,-25,-2,1,0,-1,14.715
2944,0,3,-1,-2,-1,-1,-3,-1,14.72
2945,1,4,7,6,1,1,1,0,14.725
2946,-2,-2,-1,3,0,-2,-3,-1,14.73
2947,-2,-6,-12,-13,-3,-3,-2,-2,14.735
2948,-2,1,8,8,-2,-1,-2,-1,14.74
2949,0,4,-3,-5,-1,-1,0,1,14.745000000000001
2950,-1,4,6,4,1,0,0,-1,14.75
2951,-2,-4,-12,-17,-9,-4,1,0,14.755
2952,-1,1,-11,-10,10,2,0,-2,14.76
2953,0,-4,23,24,1,0,1,0,14.765
2954,-1,-6,1,6,0,0,0,-1,14.77
2955,1,12,-1,-5,-3,-1,-1,0,14.775
2956,-3,-6,-15,-15,-5,-1,-1,-2,14.780000000000001
2957,0,-3,1,4,-1,0,-1,0,14.785
2958,1,-1,5,10,0,-1,-3,0,14.790000000000001
2959,-1,-1,-4,-1,0,0,0,-1,14.795
2960,1,3,-1,0,0,-2,1,-1,14.8
2961,-2,-1,-9,-7,-1,-1,-1,-1,14.805
2962,0,0,-8,-10,0,-1,0,0,14.81
2963,0,-1,4,0,0,-1,0,-1,14.815
2964,-2,-4,18,31,-1,-1,0,-2,14.82
2965,-3,-1,-2,-3,-3,-1,-1,1,14.825000000000001
2966,1,3,-1,-3,-2,-2,-1,0,14.83
2967,1,-1,-13,-14,1,0,-3,-1,14.835
2968,2,3,-3,-4,-1,-1,-1,-2,14.84
2969,-1,4,0,-1,-1,-1,-1,-1,14.845
2970,-1,0,0,0,-1,2,3,-1,14.85
2971,-2,-4,-9,-9,-2,-1,-3,-1,14.855
2972,0,-7,7,4,-3,-2,-1,-1,14.86
2973,0,-6,-3,-2,-4,-1,-2,-1,14.865
2974,-2,1,0,-2,4,0,0,-1,14.870000000000001
2975,1,6,1,-3,-2,-3,-1,0,14.875
2976,-2,-16,5,9,-1,0,0,1,14.88
2977,0,3,-9,-10,-3,-1,-1,0,14.885
2978,-3,2,14,16,-2,-3,-2,-2,14.89
2979,-1,1,-8,-6,1,0,0,-1,14.895
2980,-1,8,-7,-11,-3,-1,-3,-1,14.9
2981,2,-2,-5,-1,2,0,2,-3,14.905000000000001
2982,-2,-2,4,4,0,0,-1,-2,14.91
2983,-2,-4,-2,-2,-2,-2,0,0,14.915000000000001
2984,2,1,-14,-13,-2,-2,-1,-1,14.92
2985,0,1,14,16,3,2,-1,-1,14.925
2986,-1,0,9,6,2,-1,-4,-1,14.93
2987,0,-6,-20,-11,-4,-3,-3,0,14.935
2988,-1,3,11,16,2,0,0,0,14.94
2989,0,-1,-14,-16,-1,0,-1,0,14.945
2990,1,-5,-6,-6,-1,-1,0,0,14.950000000000001
2991,-3,-2,11,9,1,1,-1,-1,14.955
2992,0,-3,-9,-12,-2,-1,0,-2,14.96
2993,1,2,-6,-5,-3,-3,-2,-1,14.965
2994,-1,-9,-11,-4,6,2,0,-1,14.97
2995,-2,0,13,7,1,-1,0,-1,14.975
2996,-1,7,1,-8,-2,0,-2,-1,14.98
2997,0,11,26,24,2,0,1,-1,14.985
2998,-1,-12,-4,2,-4,-3,-2,0,14.99
2999,-1,0,-8,-7,-1,-1,-1,1,14.995000000000001
3000,-1,0,-6,-3,1,0,-1,-1,15.0
3001,-1,2,-6,-7,-2,-2,1,-1,15.005
3002,0,5,-3,-6,-2,2,-1,0,15.01
3003,-3,-6,2,3,-5,0,1,-2,15.015
3004,0,1,-5,-7,-4,-3,0,1,15.02
3005,-2,-6,-3,-4,-1,0,-2,-3,15.025
3006,2,5,6,2,-2,-2,2,0,15.030000000000001
3007,0,3,20,19,1,-1,-2,-2,15.035
3008,-1,-2,-9,-1,-2,1,0,0,15.040000000000001
3009,-2,-4,-13,-12,-2,1,0,0,15.045
3010,-1,2,-4,-5,-2,0,-1,1,15.05
3011,-2,1,2,-2,-2,-2,-1,-1,15.055
3012,0,1,0,-2,-1,-2,-1,-1,15.06
3013,-2,-4,-1,-3,1,-1,1,1,15.065
3014,-3,-3,-2,5,-3,-2,-2,-2,15.07
3015,2,2,-5,-11,-8,-2,-1,1,15.075000000000001
3016,0,3,7,12,14,3,1,-1,15.08
3017,0,-4,-7,-13,-3,0,-2,-1,15.085
3018,-3,1,30,31,-3,-3,-1,-1,15.09
3019,-2,-2,-10,-4,1,-1,-1,-3,15.095
3020,-2,-3,-2,-1,-2,-1,0,-2,15.1
3021,0,-1,-9,-8,-2,0,0,-1,15.105
3022,1,1,-10,-10,2,2,0,-1,15.11
3023,-1,-3,-2,1,-1,-1,0,0,15.115
3024,0,-2,-2,-3,-5,-2,-4,0,15.120000000000001
3025,1,3,4,2,1,1,0,0,15.125
3026,0,-7,-11,-17,-3,-1,-1,-2,15.13
3027,-2,-4,-35,-23,-2,-2,-2,-2,15.135
3028,0,1,54,45,-2,-2,-1,0,15.14
3029,-1,0,2,4,0,0,-1,0,15.145
3030,1,3,2,-1,0,0,-2,-1,15.15
3031,-1,-1,-11,-13,-2,-1,0,0,15.155000000000001
3032,0,-2,-18,-16,-2,-1,-1,-1,15.16
3033,0,-3,1,3,-1,-2,-2,-1,15.165000000000001
3034,0,3,-1,-1,0,-1,0,-1,15.17
3035,0,-1,6,4,-1,-1,-3,0,15.175
3036,-2,1,-2,-4,0,-1,-1,-1,15.18
3037,0,-1,1,2,0,-1,0,0,15.185
3038,0,12,-1,1,0,-1,0,0,15.19
3039,0,-1,8,9,0,1,-2,-1,15.195
3040,0,-2,-4,-3,-4,-1,-2,1,15.200000000000001
3041,0,-5,-6,-8,-1,-2,-1,0,15.205
3042,-1,-11,-30,-39,-3,0,2,-1,15.21
3043,3,26,53,53,2,1,-1,1,15.215
3044,-4,-3,-13,-7,1,1,1,-2,15.22
3045,-4,-3,11,5,1,-1,-1,-1,15.225
3046,1,-3,1,2,0,-1,0,0,15.23
3047,-2,-9,-9,-12,-2,-2,0,-1,15.235
3048,2,-2,-15,-14,-3,-1,-1,-1,15.24
3049,-1,-2,-1,4,0,-1,0,-3,15.245000000000001
3050,-1,0,10,3,-3,-4,-1,-1,15.25
3051,0,-6,1,5,0,-2,-1,-2,15.255
3052,-1,0,4,5,-5,-1,-1,1,15.26
3053,-2,-2,-15,-13,-2,-1,-1,-2,15.265
3054,0,1,-3,-6,-1,-1,-1,2,15.27
3055,-2,-6,5,8,1,-1,0,1,15.275
3056,-1,2,-5,-7,1,0,-1,-2,15.280000000000001
3057,-1,2,3,4,0,-2,0,-2,15.285
3058,-1,1,3,5,2,2,-2,0,15.290000000000001
3059,0,-2,-4,-8,-6,-1,-2,-2,15.295
3060,0,-2,2,0,-4,-1,0,1,15.3
3061,-1,-1,-4,2,9,2,0,0,15.305
3062,-1,-2,-1,9,-1,0,0,-2,15.31
3063,1,1,-35,-43,-2,1,0,-3,15.315
3064,0,-5,43,48,3,0,0,-2,15.32
3065,2,3,0,-3,-1,2,0,0,15.325000000000001
3066,1,-1,4,10,0,1,2,-1,15.33
3067,-1,0,1,-1,1,-2,-1,1,15.335
3068,-1,3,-22,-24,-2,-1,-1,-1,15.34
3069,-2,-1,-4,-7,-2,-2,0,-1,15.345
3070,-1,-7,4,11,-1,0,-1,0,15.35
3071,-3,2,-5,-8,-3,-4,-1,-1,15.355
3072,1,2,-4,-8,1,0,1,-1,15.36
3073,0,-2,5,4,-1,0,-2,0,15.365
3074,-2,1,-3,0,-2,-1,-3,-2,15.370000000000001
3075,-1,-6,1,3,-2,0,-1,0,15.375
3076,-1,-2,-8,-4,-1,1,-1,-1,15.38
3077,0,5,-3,-3,-2,0,1,0,15.385
3078,0,-5,-7,-8,-2,-1,3,-1,15.39
3079,-2,-5,5,6,-5,-1,-1,-1,15.395
3080,0,1,-4,-8,4,0,0,-1,15.4
3081,-1,-3,3,4,-4,0,-2,0,15.405000000000001
3082,-2,5,4,3,-1,-2,-2,2,15.41
3083,-2,-4,0,2,-2,-1,-2,0,15.415000000000001
3084,-1,-1,-8,-9,-1,1,0,-1,15.42
3085,0,2,-18,-23,-7,-1,-2,-3,15.425
3086,1,1,25,26,0,1,-1,0,15.43
3087,1,8,14,13,3,1,-1,-2,15.435
3088,-4,-8,-4,3,-4,-3,-1,-3,15.44
3089,-2,-5,-1,2,0,-1,-2,-1,15.445
3090,-1,2,-11,-14,-1,0,1,-2,15.450000000000001
3091,0,-3,-11,-10,0,-1,1,0,15.455
3092,1,2,0,0,0,-1,1,2,15.46
3093,-1,2,-8,-11,0,-3,-2,-2,15.465
3094,-2,-6,24,21,0,1,-1,0,15.47
3095,-2,-3,-9,-7,0,0,-1,-2,15.475
3096,0,0,4,-1,-5,-1,-2,-1,15.48
3097,1,-2,-2,8,11,2,-1,0,15.485000000000001
3098,1,2,-12,-13,-2,-1,0,-2,15.49
3099,-2,-3,-4,-2,1,0,-1,-1,15.495000000000001
3100,-1,0,3,-8,-6,-1,-1,0,15.5
3101,-2,-1,2,11,-4,-1,1,-2,15.505
3102,-1,1,-3,-1,1,-1,-1,-1,15.51
3103,-1,-7,2,3,-2,-2,-3,-3,15.515
3104,-1,5,-13,-18,-2,-1,-1,0,15.52
3105,0,-2,23,22,-1,-1,0,0,15.525
3106,0,-5,-7,0,3,2,-1,2,15.530000000000001
3107,-2,-8,-19,-26,-8,-3,-2,-1,15.535
3108,1,3,27,38,10,4,0,-3,15.540000000000001
3109,-1,-8,-9,-10,0,-3,-2,-1,15.545
3110,-1,3,-5,-7,-11,-3,-1,-2,15.55
3111,0,9,3,0,8,2,-1,-1,15.555
3112,-3,-17,1,-13,4,0,-1,-1,15.56
3113,-2,7,-11,-14,-5,0,0,2,15.565
3114,-1,-1,18,27,15,2,1,-1,15.57
3115,-2,4,-14,-14,-5,-2,-1,1,15.575000000000001
3116,1,7,3,6,-2,-1,1,1,15.58
3117,0,-4,7,2,-6,0,0,-3,15.585
3118,0,1,-11,-19,-6,-3,-3,-1,15.59
3119,1,-6,-5,-5,1,1,0,-1,15.595
3120,0,3,4,7,-2,-1,-2,-2,15.6
3121,-1,-3,0,3,-3,-1,0,-1,15.605
3122,-1,3,2,-1,-1,-1,0,-1,15.610000000000001
3123,-2,-1,5,8,2,1,1,-1,15.615
3124,-1,-1,-18,-14,-2,0,-1,-1,15.620000000000001
3125,1,3,-2,0,0,0,-2,1,15.625
3126,-2,-1,-10,-7,0,-1,-3,-2,15.63
3127,-3,-8,2,5,-1,-3,-1,0,15.635
3128,-1,0,12,2,-3,-3,2,-1,15.64
3129,-1,-2,-21,-18,-4,1,0,2,15.645
3130,3,2,16,17,-4,-2,-1,-1,15.65
3131,-1,2,2,11,11,2,-3,-1,15.655000000000001
3132,-2,-6,-4,1,1,0,-2,-1,15.66
3133,-1,-1,7,4,-1,-2,-2,-1,15.665000000000001
3134,0,-1,-17,-21,1,0,0,1,15.67
3135,1,5,1,-2,-9,-3,-1,-2,15.675
3136,-1,-5,-11,-5,2,2,0,-1,15.68
3137,0,-3,8,6,4,1,1,1,15.685
3138,-1,6,6,0,-3,-2,0,0,15.69
3139,-2,2,8,8,-1,-2,0,1,15.695
3140,-1,3,-12,-8,4,0,0,0,15.700000000000001
3141,-1,-6,-9,-14,-1,-1,1,-3,15.705
3142,1,-2,3,14,3,3,-2,-2,15.71
3143,-2,-3,1,-5,-5,-4,-2,-2,15.715
3144,-2,0,-4,0,-8,-3,-1,-2,15.72
3145,-1,1,2,2,4,0,-2,-1,15.725
3146,0,-2,4,3,0,-1,-1,1,15.73
3147,-1,1,-5,-4,-1,-2,-2,0,15.735000000000001
3148,-2,-12,-21,-22,-6,0,-1,-1,15.74
3149,-2,3,7,17,-3,1,-1,1,15.745000000000001
3150,-5,-1,22,-4,-6,-5,-3,-3,15.75
3151,3,10,-6,0,-2,1,1,-1,15.755
3152,4,15,-11,-3,3,-1,0,0,15.76
3153,2,-1,-5,2,-5,-2,-2,-2,15.765
3154,-7,-15,-41,-8,2,0,0,-2,15.77
3155,-4,-45,30,-11,-19,-5,0,0,15.775
3156,2,-18,15,17,12,4,0,0,15.780000000000001
3157,-2,-36,-7,11,-25,-6,-4,-2,15.785
3158,1,-95,-3,21,13,5,1,-1,15.790000000000001
3159,-4,-54,-9,-1,33,8,-3,-4,15.795
3160,3,-8,4,-1,-9,-2,-1,-1,15.8
3161,11,42,-4,11,15,5,2,3,15.805
3162,-1,102,-14,-39,-16,-8,-5,-1,15.81
3163,-1,117,10,37,-7,-2,-1,0,15.815
3164,-16,113,4,-26,-13,-3,2,-3,15.82
3165,-11,127,-16,-30,1,3,0,-5,15.825000000000001
3166,10,114,22,31,-6,-2,1,1,15.83
3167,13,75,-9,-22,-10,-2,0,4,15.835
3168,0,-48,-8,23,4,0,0,2,15.84
3169,-5,-126,26,13,9,5,1,1,15.845
3170,-15,-128,-34,-18,11,-1,0,-3,15.85
3171,2,-128,9,3,8,-2,-6,-3,15.855
3172,5,-113,-2,-23,3,1,-1,-3,15.860000000000001
3173,2,-92,47,14,-2,-2,2,0,15.865
3174,-1,-87,-33,-6,-3,2,1,2,15.870000000000001
3175,3,-83,-21,-54,-24,-6,-4,-5,15.875
3176,3,-64,-21,-42,17,-1,2,4,15.88
3177,-7,-58,4,43,-29,-19,-14,-7,15.885
3178,15,-10,17,13,73,22,-2,-6,15.89
3179,-29,-31,-24,9,-4,1,4,3,15.895
3180,-6,-4,19,16,-7,-1,8,-1,15.9
3181,3,4,-6,-15,-20,9,11,6,15.905000000000001
3182,22,22,24,-25,-26,-9,-17,-11,15.91
3183,-3,12,-40,27,27,-2,-5,25,15.915000000000001
3184,-6,-24,4,7,-2,-3,-7,-15,15.92
3185,7,41,20,-48,-11,1,6,11,15.925
3186,-32,7,-43,52,28,6,5,-2,15.93
3187,3,30,14,-37,2,1,-8,-12,15.935
3188,2,7,11,23,-38,-11,-4,6,15.94
3189,1,5,-34,-57,9,-1,-1,-10,15.945
3190,2,-25,7,26,-15,1,2,-1,15.950000000000001
3191,5,-25,15,-1,-11,3,9,3,15.955
3192,-13,-20,13,-28,32,1,-5,-6,15.96
3193,-11,-5,20,103,27,10,0,-2,15.965
3194,22,18,7,-36,-19,-5,12,19,15.97
3195,-18,-2,-4,-25,19,1,-1,-12,15.975
3196,23,6,-52,72,-28,7,2,-2,15.98
3197,12,-3,15,22,40,4,-5,1,15.985000000000001
3198,-26,-25,-12,-107,-67,-29,-8,-29,15.99
3199,7,-2,26,-10,28,13,-7,14,15.995000000000001
3200,5,-7,-16,4,1,-6,-11,24,16.0
3201,-12,31,42,-26,-35,-18,-17,-13,16.005
3202,-12,-34,6,50,36,1,0,-17,16.01
3203,1,-18,-11,-118,-34,-15,2,3,16.015
3204,2,-18,-26,71,-33,-4,8,-3,16.02
3205,-3,-128,-10,-13,19,11,39,14,16.025
3206,-13,-105,-9,-64,-65,-17,-39,-12,16.03
3207,6,-72,32,64,10,-4,-11,-23,16.035
3208,-17,15,27,-15,24,10,-9,3,16.04
3209,35,55,-40,-101,-16,-21,-14,-1,16.045
3210,20,87,50,113,71,35,32,19,16.05
3211,0,79,-72,10,-15,-1,9,1,16.055
3212,-7,79,31,-73,-53,-13,1,19,16.06
3213,-48,48,-20,-68,23,6,7,-10,16.065
3214,-5,56,1,82,14,0,1,7,16.07
3215,-9,51,5,122,-8,-14,-19,-3,16.075
3216,35,26,-22,27,76,14,-6,-40,16.080000000000002
3217,18,62,35,-12,-62,-12,-11,16,16.085
3218,-31,27,-4,-28,-5,-2,3,10,16.09
3219,5,-9,48,46,8,12,12,-3,16.095
3220,3,-7,-49,-37,-26,-2,17,10,16.1
3221,3,-17,7,49,-53,-30,-24,-23,16.105
3222,-13,33,7,70,43,21,3,7,16.11
3223,-30,-13,16,23,6,1,5,5,16.115000000000002
3224,38,89,2,-112,9,1,-2,-16,16.12
3225,1,20,-1,120,84,31,25,36,16.125
3226,3,42,-22,-69,-45,-10,5,4,16.13
3227,-4,35,-9,-54,-61,-14,-16,-9,16.135
3228,-32,26,-21,111,-42,-5,10,-2,16.14
3229,9,18,10,46,71,20,-1,-1,16.145
3230,2,-4,-52,-11,-18,-10,-20,-10,16.15
3231,-5,-6,23,-79,6,0,-5,-7,16.155
3232,-26,14,31,-17,29,-4,-12,-7,16.16
3233,16,-14,-2,3,-32,0,6,-3,16.165
3234,14,-37,-18,-116,-45,-4,24,6,16.17
3235,11,-54,6,71,46,17,4,3,16.175
3236,-35,-77,52,16,20,-12,-13,4,16.18
3237,-19,-28,-13,-11,37,4,-2,-13,16.185
3238,-28,13,20,-90,-21,-8,-7,-9,16.19
3239,71,91,-49,-52,-35,-7,17,16,16.195
3240,-7,98,48,45,67,25,-1,14,16.2
3241,-15,-44,-128,-35,-46,-21,-18,-18,16.205000000000002
3242,22,24,90,-71,-8,-3,-13,6,16.21
3243,-31,-9,30,83,56,12,11,-13,16.215
3244,23,16,-36,74,79,29,17,19,16.22
3245,32,53,-44,-128,-22,-6,2,4,16.225
3246,-51,-41,-35,-18,-72,-43,-29,-39,16.23
3247,28,65,64,-58,53,18,7,12,16.235
3248,-25,-75,-8,-4,-52,-14,6,5,16.240000000000002
3249,30,-25,1,35,20,0,-10,-3,16.245
3250,-1,33,-64,-20,-23,-7,-6,-19,16.25
3251,-27,-39,21,42,-5,11,7,8,16.255
3252,39,43,28,-7,-35,-11,-2,-2,16.26
3253,-1,-22,27,-107,-44,5,39,40,16.265
3254,11,-13,21,127,63,13,-6,-15,16.27
3255,-26,-47,-46,-114,-113,-31,-28,-4,16.275
3256,-23,-41,-4,-22,51,-1,-23,5,16.28
3257,25,49,31,35,-103,-24,-34,-12,16.285
3258,17,54,45,-123,71,26,16,17,16.29
3259,-7,-34,-28,74,99,35,24,-14,16.295
3260,-20,-49,17,52,0,-5,-2,-21,16.3
3261,-26,10,60,-75,-28,-16,-11,-9,16.305
3262,36,6,10,80,24,16,17,11,16.31
3263,12,-7,13,48,-3,7,14,21,16.315
3264,3,-23,-50,-73,-33,-13,-6,-2,16.32
3265,-26,-40,31,-17,-14,-4,-7,-14,16.325
3266,-9,53,-20,-26,36,12,-3,-15,16.330000000000002
3267,-10,-51,-45,-5,-46,-18,-7,-5,16.335
3268,23,-24,-3,1,-1,11,17,26,16.34
3269,18,6,22,6,-4,-1,18,20,16.345
3270,-29,-41,-9,-14,-40,-21,-30,-18,16.35
3271,-42,-10,1,-28,-65,-15,-12,-91,16.355
3272,7,-9,-35,-55,20,-5,-7,82,16.36
3273,-5,19,-66,-27,-54,-21,-7,35,16.365000000000002
3274,43,54,100,127,108,40,41,17,16.37
3275,67,24,-88,-120,-13,-8,-48,5,16.375
3276,-18,62,52,-84,-79,-18,-15,-71,16.38
3277,-40,-25,24,75,65,21,-4,-25,16.385
3278,-3,-62,-59,-77,-67,-25,1,11,16.39
3279,-26,9,83,38,-26,9,25,-5,16.395
3280,17,-67,-11,0,29,11,8,5,16.4
3281,-1,-20,-105,-3,-22,-9,-11,-3,16.405
3282,-46,-72,26,-111,-50,-23,0,-22,16.41
3283,-5,24,-2,110,72,19,8,11,16.415
3284,22,18,14,46,-19,-10,-11,14,16.42
3285,8,-16,10,-18,24,14,21,-1,16.425
3286,1,-21,-58,-77,-54,-43,-31,-51,16.43
3287,55,24,-3,35,11,-13,-27,43,16.435
3288,-29,65,0,10,47,29,11,7,16.44
3289,-48,-84,14,39,67,23,4,-18,16.445
3290,17,28,-16,-100,-79,-16,-13,13,16.45
3291,21,40,-5,-11,64,15,26,28,16.455000000000002
3292,-3,-25,30,114,-18,-11,-7,-45,16.46
3293,-3,50,86,-39,17,9,-3,-5,16.465
3294,-5,-15,-78,-22,-50,-23,-13,12,16.47
3295,-10,-19,70,77,68,33,18,-10,16.475
3296,-1,6,49,-43,-31,-4,3,-8,16.48
3297,-3,-15,-73,-33,-2,6,7,0,16.485
3298,-1,-2,40,-22,-19,-9,-16,0,16.490000000000002
3299,-40,-53,-47,20,-1,-4,4,2,16.495
3300,55,54,-25,-83,-16,-13,-3,-28,16.5
3301,-31,-81,27,14,-70,-14,14,-9,16.505
3302,59,51,35,127,127,35,-1,95,16.51
3303,10,37,-25,-66,-46,-23,-16,-19,16.515
3304,-19,-7,-13,-62,-2,25,37,3,16.52
3305,-10,31,-63,-66,3,-16,-45,-24,16.525
3306,-19,-64,-27,70,-6,3,12,-8,16.53
3307,-14,-18,68,-91,-97,-23,-2,6,16.535
3308,-10,-6,-74,-127,-70,-17,0,-8,16.54
3309,22,74,82,103,99,35,18,-6,16.545
3310,-7,-1,16,88,32,23,9,6,16.55
3311,16,-20,-68,-78,22,7,6,7,16.555
3312,-47,-5,41,12,-31,-24,-24,-22,16.56
3313,-4,-27,-72,41,25,8,6,5,16.565
3314,-9,-51,36,-1,-39,-3,-2,1,16.57
3315,21,0,-12,19,-10,7,12,-3,16.575
3316,59,51,-22,-38,-2,3,-4,10,16.580000000000002
3317,-31,-42,37,4,8,-7,-18,-26,16.585
3318,13,38,-12,-13,16,7,12,51,16.59
3319,-54,22,11,-25,-30,-26,-13,-10,16.595
3320,2,-16,-20,13,5,5,0,-11,16.6
3321,46,22,-43,-74,2,2,3,37,16.605
3322,-21,-4,59,24,-73,-30,-7,-33,16.61
3323,8,17,-2,-87,-42,0,-4,5,16.615000000000002
3324,-24,-40,23,104,-80,-16,-2,0,16.62
3325,23,41,2,-50,24,14,3,-14,16.625
3326,-4,-14,-32,21,50,7,3,-9,16.63
3327,-13,-22,58,18,19,-7,0,4,16.635
3328,-2,-64,-34,-58,30,-7,-3,-4,16.64
3329,36,58,-26,104,-2,18,22,19,16.645
3330,-6,-80,-65,-29,26,11,1,14,16.65
3331,-12,62,55,-66,-45,-12,-1,-46,16.655
3332,-38,-26,34,-71,30,4,2,-45,16.66
3333,-16,-18,12,85,4,-26,-25,74,16.665
3334,91,114,16,-99,-38,12,-14,30,16.67
3335,-9,-7,-36,65,40,7,-13,-16,16.675
3336,-6,4,-38,-119,-87,-19,-1,-25,16.68
3337,-14,-16,-7,50,27,10,22,-5,16.685
3338,-22,-11,47,38,60,11,17,-14,16.69
3339,8,-12,-43,-50,-43,-11,-2,12,16.695
3340,-13,-12,-4,-36,2,-10,-18,1,16.7
3341,-3,-16,-41,24,-35,-5,-3,-18,16.705000000000002
3342,-14,-37,-43,-7,11,6,1,-10,16.71
3343,-21,-49,-34,-30,-47,-9,-1,-6,16.715
3344,26,21,45,70,82,22,9,38,16.72
3345,22,40,-11,-34,-20,0,2,-1,16.725
3346,-7,44,72,-5,-25,-11,-2,-11,16.73
3347,6,-50,-24,-11,11,2,-8,6,16.735
3348,-13,8,-18,34,-9,-6,-4,10,16.740000000000002
