slno,emg1,emg2,emg3,emg4,emg5,emg6,emg7,emg8,Time
0,0,-3,1,-6,-15,-9,-2,-1,0.0
1,0,1,-1,-3,3,3,-1,-1,0.005
2,-4,-6,-2,-1,0,-9,-4,-3,0.01
3,1,0,0,0,-2,-1,0,-1,0.015
4,2,3,-2,2,-2,3,0,0,0.02
5,-5,-6,0,-2,-4,1,2,-1,0.025
6,2,4,0,1,5,2,-1,2,0.03
7,-2,-3,-3,-5,-3,1,-1,-2,0.035
8,-5,-5,-3,-3,2,-2,-2,-1,0.04
9,3,2,1,1,-4,-3,0,-1,0.045
10,0,0,0,-5,-8,-1,0,0,0.05
11,-2,1,-1,2,8,1,-1,1,0.055
12,-1,3,-3,-2,4,0,-1,0,0.06
13,2,4,-1,-4,-16,-5,-5,1,0.065
14,-2,-4,1,0,10,-1,-1,-2,0.07
15,-4,-6,-2,2,-1,-4,-2,-1,0.075
16,1,0,-1,-3,-6,2,2,-3,0.08
17,-4,-3,0,-3,10,8,0,0,0.085
18,0,-1,0,0,-6,-7,-1,-1,0.09
19,-2,-2,0,0,-4,-9,-2,-2,0.095
20,1,0,2,5,10,1,-1,1,0.1
21,0,2,0,5,2,0,-2,0,0.105
22,1,3,2,-2,-6,0,6,1,0.11
23,-2,-9,-8,-5,-2,-1,-5,-2,0.115
24,-1,-1,1,-2,-2,-2,0,-1,0.12
25,-1,-1,-1,0,5,-6,-3,-1,0.125
26,0,3,2,4,5,7,3,0,0.13
27,-4,-2,1,0,0,-1,-1,-2,0.135
28,0,2,-2,-4,-20,-7,-4,-2,0.14
29,-2,-2,0,-4,-2,-4,0,0,0.145
30,-2,-3,-5,-2,4,-6,-3,-2,0.15
31,0,1,1,3,8,7,2,-1,0.155
32,0,0,1,0,10,7,-2,-1,0.16
33,-2,2,1,-3,-11,-2,1,-2,0.165
34,2,3,-2,-2,-10,-10,-2,-1,0.17
35,-1,-1,-1,0,1,0,1,-1,0.17500000000000002
36,0,-5,-5,-2,-3,-8,-7,-3,0.18
37,-3,2,0,0,-2,-3,0,1,0.185
38,2,-1,-1,-1,13,14,-2,-1,0.19
39,2,5,0,-1,-2,5,5,-1,0.195
40,2,1,1,1,5,5,2,0,0.2
41,-5,-4,-3,-5,-11,4,3,-2,0.20500000000000002
42,-7,-4,0,-5,-9,-13,-1,-1,0.21
43,2,3,3,2,2,-6,-3,1,0.215
44,1,1,0,4,8,7,3,1,0.22
45,7,3,-3,-1,4,5,-2,-1,0.225
46,-8,-3,-1,0,-3,-2,-7,-1,0.23
47,5,0,-2,-4,-8,-10,-3,-3,0.23500000000000001
48,-6,-2,-3,-2,6,6,-1,-2,0.24
49,1,-2,-3,-2,-10,-11,-2,-2,0.245
50,-4,0,2,2,2,-1,3,-2,0.25
51,6,2,0,2,-3,1,0,1,0.255
52,2,1,-1,0,4,0,-9,-1,0.26
53,-5,-3,-2,0,10,1,-3,-1,0.265
54,6,0,0,-4,-11,4,25,0,0.27
55,-5,-3,-3,-5,-12,-11,-17,-3,0.275
56,-1,-5,-5,-3,-3,-6,2,0,0.28
57,-1,2,4,5,20,14,1,1,0.28500000000000003
58,3,4,0,6,5,3,-11,-1,0.29
59,-5,-3,0,3,0,-1,12,-1,0.295
60,0,1,3,-1,-8,-5,-1,-1,0.3
61,-1,-2,-4,-5,-9,-11,-4,-1,0.305
62,-5,-6,-1,-6,-4,-3,-12,-2,0.31
63,3,-1,-3,-4,1,0,9,1,0.315
64,-2,1,-1,3,-3,-9,-5,0,0.32
65,0,-2,2,3,2,3,5,-2,0.325
66,-1,-3,2,2,1,2,-4,-1,0.33
67,-6,-4,-2,-1,0,1,-7,-2,0.335
68,-3,-5,-4,-6,-5,-6,3,-1,0.34
69,1,-1,-1,3,-6,-1,-5,0,0.34500000000000003
70,1,4,-1,1,5,4,6,-1,0.35000000000000003
71,-2,-3,-3,-2,-3,-4,-2,0,0.355
72,0,2,3,5,10,4,3,0,0.36
73,1,0,2,1,0,7,4,0,0.365
74,-1,-2,-4,-1,-2,0,-7,-1,0.37
75,-2,0,-2,-4,0,-5,1,-2,0.375
76,-1,-4,1,-1,-5,1,-14,-4,0.38
77,0,-5,-3,-3,-8,-11,12,2,0.385
78,0,2,-3,-3,-5,6,8,2,0.39
79,1,12,3,5,15,3,2,-1,0.395
80,-4,-1,-7,-3,-2,5,1,-1,0.4
81,-1,5,2,0,1,-6,-12,-3,0.405
82,-1,-7,-3,-3,-6,-11,-1,-3,0.41000000000000003
83,-1,-9,-2,-4,-15,-2,0,-2,0.41500000000000004
84,-2,-11,1,2,5,1,4,0,0.42
85,-1,-6,1,1,10,3,-2,-1,0.425
86,-2,-13,-4,-2,1,-3,-1,-2,0.43
87,-2,-10,-2,1,1,2,-3,0,0.435
88,-3,-6,0,-4,-4,-3,3,0,0.44
89,1,-1,-1,-1,-4,1,2,1,0.445
90,-2,-5,-3,-2,3,-4,-3,0,0.45
91,-2,4,-2,-3,-3,0,-1,-3,0.455
92,2,13,6,1,-1,-2,2,2,0.46
93,-3,-4,-8,-6,-6,-3,-2,-1,0.465
94,0,7,3,-1,-8,0,-5,-2,0.47000000000000003
95,-2,0,-4,-7,-3,-2,-1,-1,0.47500000000000003
96,2,2,0,3,10,3,6,1,0.48
97,-8,-7,0,1,10,8,-3,-3,0.485
98,2,3,-1,-2,-12,-8,-2,2,0.49
99,0,2,3,4,5,-2,1,1,0.495
100,1,3,1,-3,-6,-4,-4,-2,0.5
101,-1,3,1,-2,2,1,-4,-3,0.505
102,-2,3,-1,0,5,0,4,-1,0.51
103,1,3,3,0,-5,-2,-4,-1,0.515
104,-3,-2,-2,0,-5,-6,-5,-3,0.52
105,1,-9,-8,-1,-2,-7,-5,-1,0.525
106,-3,1,-2,-2,1,5,0,-1,0.53
107,0,-4,-4,-3,-2,-2,-2,1,0.535
108,4,5,2,-2,-1,2,6,-1,0.54
109,-1,1,0,-1,-4,1,3,0,0.545
110,-3,-10,-1,1,3,-4,-3,-2,0.55
111,-4,-2,1,2,3,0,-3,-1,0.555
112,-2,-4,-6,-1,-1,-1,-3,1,0.56
113,0,7,2,-3,-4,-5,-4,-2,0.5650000000000001
114,-2,-7,-4,-1,2,0,2,-1,0.5700000000000001
115,-1,2,2,0,0,2,-3,0,0.5750000000000001
116,-2,0,-1,-3,-5,0,2,1,0.58
117,6,9,0,-1,-2,0,4,2,0.585
118,0,7,1,1,1,-8,-5,-1,0.59
119,-5,-11,0,0,1,5,3,-1,0.595
120,2,0,-1,2,6,4,2,0,0.6
121,3,12,5,4,2,4,1,2,0.605
122,-1,6,0,0,1,3,-2,-2,0.61
123,1,-4,-6,-4,-6,-7,0,-1,0.615
124,-2,-5,-1,-1,-5,-4,-1,-1,0.62
125,0,-7,2,5,1,0,-1,-1,0.625
126,-1,-1,2,0,-1,0,1,0,0.63
127,1,4,-2,1,-1,-3,2,-1,0.635
128,0,-5,-1,-2,2,3,-2,0,0.64
129,0,-5,-3,-1,-6,-4,-1,-1,0.645
130,-3,-11,-5,0,-5,0,1,0,0.65
131,-3,-5,0,2,3,1,-3,-2,0.655
132,2,6,0,-4,-5,-4,-2,-3,0.66
133,-2,-5,-4,-3,1,-1,-1,0,0.665
134,3,6,0,1,4,3,-1,2,0.67
135,-2,-2,-1,-1,0,-2,0,0,0.675
136,2,7,-1,-1,-3,-2,-2,0,0.68
137,-3,-2,-4,-3,-5,-1,-1,-3,0.685
138,-1,2,0,-2,-1,-1,-2,0,0.6900000000000001
139,2,4,0,1,2,4,4,1,0.6950000000000001
140,0,6,2,2,-2,-1,0,1,0.7000000000000001
141,-2,-4,-2,-6,-2,-1,-2,-3,0.705
142,1,-8,-1,-1,1,-1,-3,-1,0.71
143,0,5,0,-1,0,3,0,1,0.715
144,1,5,-1,-2,-3,-1,-1,-2,0.72
145,-1,-1,0,2,-1,-2,-3,-3,0.725
146,1,6,0,-4,-2,-1,-1,-1,0.73
147,0,1,0,-1,-2,-3,1,-1,0.735
148,-5,-11,-3,-2,-2,-1,-3,-2,0.74
149,-1,-4,-1,0,0,0,1,0,0.745
150,-1,-1,1,-3,-2,-1,-1,-1,0.75
151,2,6,2,0,-4,1,2,0,0.755
152,-6,-12,-1,0,2,-2,-6,-2,0.76
153,-2,-3,-1,0,1,0,1,-2,0.765
154,-3,-5,-1,0,-1,0,-5,-3,0.77
155,0,-3,-2,-4,-2,-1,-3,0,0.775
156,-2,3,-1,-1,-4,-1,4,0,0.78
157,0,4,2,1,1,-3,-6,0,0.785
158,1,-1,-1,0,-1,-1,4,1,0.79
159,2,-2,-4,0,-1,1,0,1,0.795
160,2,0,-2,-2,0,0,2,2,0.8
161,-1,2,-3,-2,-1,0,-1,-1,0.805
162,0,2,-1,3,1,-3,-5,-2,0.81
163,-11,-8,-1,-5,-2,0,1,-4,0.8150000000000001
164,2,4,0,1,2,0,0,0,0.8200000000000001
165,0,-3,-5,-2,-2,-1,0,-1,0.8250000000000001
166,1,3,1,-1,1,1,2,-1,0.8300000000000001
167,1,2,1,4,0,-1,-6,-2,0.835
168,-2,-5,-5,-5,-2,-1,-1,-1,0.84
169,-2,-4,0,0,-1,0,0,0,0.845
170,1,-3,0,0,1,-1,-3,0,0.85
171,1,4,1,3,0,-3,10,1,0.855
172,1,1,2,-1,-3,-2,-11,-1,0.86
173,-2,-6,-4,-2,-2,-1,-2,-1,0.865
174,0,5,-1,-1,-4,1,0,0,0.87
175,-2,-6,-2,1,3,0,-2,0,0.875
176,-2,-1,0,0,-2,0,3,-2,0.88
177,-2,-2,-6,-1,-2,0,2,-1,0.885
178,-1,-1,1,-2,-1,0,0,-1,0.89
179,0,0,2,-3,-1,-1,-3,-2,0.895
180,-1,-4,-4,-5,-2,-2,2,-2,0.9
181,4,6,1,-2,-4,-3,-2,2,0.905
182,-4,4,2,-9,-8,-3,2,-2,0.91
183,1,-4,-1,12,14,3,-1,1,0.915
184,-3,-3,-1,3,8,-1,-1,-2,0.92
185,0,4,3,3,3,0,-1,-1,0.925
186,0,-3,-5,-1,-1,1,3,0,0.93
187,0,1,0,-8,-9,-5,-7,-2,0.935
188,1,2,1,1,-4,-1,2,2,0.9400000000000001
189,-1,-2,-2,-2,-3,0,2,-1,0.9450000000000001
190,0,-1,1,3,1,2,-4,-2,0.9500000000000001
191,-2,-3,-4,-3,-5,-2,3,-1,0.9550000000000001
192,-2,-5,0,2,2,-1,1,-1,0.96
193,1,3,4,1,-2,0,7,0,0.965
194,-4,-10,-4,-2,-3,-6,-15,-2,0.97
195,-1,-4,-5,-2,-3,-1,-2,-3,0.975
196,0,6,-2,0,-3,0,1,-1,0.98
197,-3,-7,0,2,1,2,-1,2,0.985
198,1,-1,-2,0,4,1,2,0,0.99
199,4,7,3,-2,-2,-1,-2,0,0.995
200,-3,-7,-3,-2,-3,-4,-2,-1,1.0
201,1,7,0,-1,0,1,0,-1,1.0050000000000001
202,-1,-1,0,4,2,0,2,-1,1.01
203,-2,0,-3,-5,-4,-4,-5,0,1.0150000000000001
204,-4,-9,-1,1,-2,-1,0,-2,1.02
205,1,2,3,0,1,2,2,-3,1.025
206,-2,-11,-4,-1,-2,-2,2,-1,1.03
207,0,3,2,0,-3,2,-5,-2,1.035
208,2,5,-1,-2,-3,1,1,1,1.04
209,-4,-13,-6,-3,-1,-5,-4,-1,1.045
210,1,7,-1,-1,-2,-2,0,-1,1.05
211,-2,-2,-2,-1,-1,-2,-4,-2,1.055
212,-1,-2,-1,-3,-1,2,-1,-2,1.06
213,-2,-1,0,0,-1,-1,-1,-3,1.065
214,-1,1,-1,-3,-2,0,1,0,1.07
215,1,4,1,-1,0,-1,2,3,1.075
216,-2,-9,-1,0,-1,-4,-2,0,1.08
217,0,-2,0,0,-1,1,-1,0,1.085
218,-2,-3,-1,2,2,0,3,-1,1.09
219,-3,0,-2,-2,-1,-2,-2,-3,1.095
220,-3,-7,-2,-1,0,-3,-2,0,1.1
221,-1,-1,2,1,-1,-2,-4,0,1.105
222,3,5,-1,0,-2,-5,-2,3,1.11
223,-2,-5,-3,-2,-2,2,3,0,1.115
224,2,5,0,0,-1,-4,-3,-4,1.12
225,-3,-1,-3,-2,2,2,-1,-1,1.125
226,1,6,2,0,4,2,2,0,1.1300000000000001
227,2,-3,-2,-1,-3,1,5,0,1.135
228,2,2,0,-1,3,1,-4,0,1.1400000000000001
229,1,3,2,0,-6,-6,-3,1,1.145
230,-4,-8,-1,-3,-7,-3,-5,-2,1.1500000000000001
231,0,2,1,4,3,0,-7,-1,1.155
232,-1,2,1,2,5,0,1,0,1.16
233,1,0,-3,-4,-8,3,7,0,1.165
234,1,2,-1,-2,-4,-4,-3,-2,1.17
235,-2,-5,0,0,5,-3,-2,-2,1.175
236,-1,0,-1,0,-1,1,-1,-1,1.18
237,-3,0,-1,-3,-3,-2,-6,-1,1.185
238,1,1,-3,-3,-1,1,-1,0,1.19
239,-3,-1,-2,-2,2,4,-3,-3,1.195
240,-1,-3,2,1,-11,-8,2,0,1.2
241,1,2,-1,1,0,-4,0,-1,1.205
242,-1,1,-3,1,8,7,-2,-1,1.21
243,-3,-6,-3,-3,-5,-2,2,-1,1.215
244,0,3,-3,-4,8,6,0,-2,1.22
245,-1,-3,-2,0,-10,-3,-2,-1,1.225
246,4,17,3,-1,-2,-1,-1,0,1.23
247,2,4,2,6,15,4,3,1,1.235
248,-1,-2,-4,0,-1,-1,1,-2,1.24
249,1,0,2,-4,-1,-4,-3,-1,1.245
250,0,2,-3,-3,-2,-3,0,-1,1.25
251,-3,-4,-3,-7,-12,-5,-2,-1,1.2550000000000001
252,-3,-4,-1,-3,-6,-1,-2,-1,1.26
253,-1,0,1,4,19,9,-1,0,1.2650000000000001
254,0,0,0,4,8,10,3,1,1.27
255,1,4,0,-1,-2,-4,-3,0,1.2750000000000001
256,-1,0,-3,-3,-17,-9,2,0,1.28
257,-2,2,1,0,-6,-7,2,0,1.285
258,-4,-4,1,3,10,5,-1,0,1.29
259,-1,-4,-1,-1,2,0,-5,-2,1.295
260,2,3,0,2,6,5,0,-1,1.3
261,-3,-6,-2,-4,-4,-3,0,-2,1.305
262,-1,-11,-2,-5,-18,-13,-4,-1,1.31
263,-2,-2,0,-3,-5,2,3,-1,1.315
264,3,0,0,0,7,3,2,-1,1.32
265,2,0,1,0,1,4,0,-1,1.325
266,-2,-6,-1,-2,-2,-4,0,0,1.33
267,-2,-12,-2,1,-5,-3,-2,-1,1.335
268,-2,-12,0,1,0,-1,0,1,1.34
269,1,-4,0,1,2,-3,-2,0,1.345
270,-1,-3,0,-6,-23,-8,-1,-1,1.35
271,4,7,0,0,2,-5,0,1,1.355
272,-5,-4,1,4,18,8,0,-2,1.36
273,2,0,-1,3,2,4,3,0,1.365
274,-1,-1,1,-2,3,2,1,0,1.37
275,-1,1,-2,-3,-5,-4,-2,0,1.375
276,0,4,0,-4,-9,-6,-1,0,1.3800000000000001
277,-2,-2,-4,-4,-2,-6,-6,-1,1.385
278,-3,-3,-3,0,0,0,3,0,1.3900000000000001
279,4,10,4,1,-2,1,0,1,1.395
280,-3,-4,-5,-1,-1,6,-5,-1,1.4000000000000001
281,0,4,-1,-2,-3,3,8,0,1.405
282,0,-1,-2,2,3,-2,-4,-1,1.41
283,-6,-5,-2,-1,2,0,1,-3,1.415
284,-3,-2,0,0,-5,-5,-1,-1,1.42
285,-2,0,1,1,-2,-1,-5,-2,1.425
286,-3,-4,-3,-1,3,1,0,-2,1.43
287,1,-1,-1,0,2,3,0,0,1.435
288,0,4,0,-2,-5,-4,-1,0,1.44
289,-2,-3,-4,-3,-2,-5,-4,-1,1.445
290,0,0,1,-2,0,1,-1,0,1.45
291,0,-1,-3,-2,-3,-1,-2,-1,1.455
292,1,0,-2,-1,0,-4,-2,-1,1.46
293,1,1,0,0,3,2,-1,0,1.465
294,0,0,-1,0,-2,-3,0,-1,1.47
295,-1,0,-1,-2,-5,0,2,-1,1.475
296,0,2,-1,-1,1,4,-2,0,1.48
297,1,1,-3,-2,0,1,-2,-1,1.485
298,-4,-9,0,2,0,2,0,-2,1.49
299,0,0,-1,0,0,1,2,-2,1.495
300,2,3,3,1,-6,0,5,1,1.5
301,-1,1,-3,0,2,-3,1,-2,1.5050000000000001
302,2,6,-2,-3,-1,-5,-5,0,1.51
303,1,0,2,1,2,1,-2,0,1.5150000000000001
304,-2,-3,-4,-2,1,0,1,-1,1.52
305,-3,-2,-3,-8,-4,-1,1,0,1.5250000000000001
306,1,-3,2,2,1,-3,0,-1,1.53
307,-2,-8,-1,-3,-2,-5,-4,0,1.5350000000000001
308,1,-1,0,-3,-2,-3,-4,-1,1.54
309,-2,-3,2,2,1,-1,-2,1,1.545
310,1,5,-1,2,4,4,2,1,1.55
311,-3,-3,-2,0,-3,-1,-2,-1,1.555
312,-1,-1,-1,-2,-2,-3,-4,-1,1.56
313,0,3,1,1,0,0,0,-1,1.565
314,-3,0,-2,-4,-4,-6,-4,-1,1.57
315,-3,-1,-4,-1,-6,-7,2,-2,1.575
316,0,3,1,4,5,4,-1,-1,1.58
317,-1,0,2,3,2,3,1,0,1.585
318,-4,-7,-3,-1,1,2,-2,-3,1.59
319,1,3,-1,-2,-2,-1,2,3,1.595
320,-3,-4,-4,-3,-5,-9,-1,-1,1.6
321,-1,-2,-2,-1,3,-2,-3,-1,1.605
322,-1,4,0,-2,-3,2,0,-1,1.61
323,1,-3,0,0,-3,-2,-1,0,1.615
324,1,2,0,-3,1,-1,-3,0,1.62
325,-3,-1,-4,0,0,-2,4,0,1.625
326,-1,-1,-2,0,6,2,-2,1,1.6300000000000001
327,-1,1,1,2,1,4,-2,-2,1.635
328,-1,2,-2,-4,-5,-1,2,-1,1.6400000000000001
329,-1,1,0,-2,-3,-6,-8,-4,1.645
330,0,3,0,-2,-6,-8,-1,-1,1.6500000000000001
331,0,3,-1,2,1,6,2,0,1.655
332,1,0,-3,2,1,4,3,1,1.6600000000000001
333,1,0,1,-2,-3,-3,-1,1,1.665
334,0,-7,0,1,1,1,-1,-1,1.67
335,-1,-4,-1,-2,-1,-4,-6,-2,1.675
336,0,-6,-1,0,0,0,-2,-1,1.68
337,0,-7,-2,-1,-1,-2,-2,0,1.685
338,-1,-3,-1,-2,0,-1,3,-1,1.69
339,-1,-5,-1,-1,-1,-1,-4,0,1.695
340,-2,-3,-1,1,0,-2,0,0,1.7
341,-2,1,-1,-6,-6,-2,-1,-2,1.705
342,0,-3,-2,0,3,2,0,0,1.71
343,1,4,-2,-2,1,-2,1,1,1.715
344,-3,-5,1,0,0,0,3,-2,1.72
345,2,2,0,1,0,1,-5,-2,1.725
346,0,-2,-2,-2,0,-1,0,-2,1.73
347,1,1,-2,-1,-2,-1,0,-2,1.735
348,0,0,1,-2,-5,-2,0,-2,1.74
349,2,14,0,0,-1,-2,0,2,1.745
350,-1,4,-2,-1,0,1,0,0,1.75
351,0,3,0,-1,-1,-2,-3,0,1.7550000000000001
352,0,2,-1,2,0,-3,-3,0,1.76
353,-2,-9,0,0,0,2,2,0,1.7650000000000001
354,2,-1,2,0,-1,-2,-1,1,1.77
355,-3,-9,-2,-1,-1,-3,0,-1,1.7750000000000001
356,2,-2,0,-2,0,-2,-3,-1,1.78
357,-1,-3,0,-1,-2,1,-3,1,1.7850000000000001
358,-2,-3,0,0,0,1,-1,-2,1.79
359,0,-2,0,0,-1,-3,-1,1,1.795
360,-1,-1,-1,0,-1,2,3,0,1.8
361,-2,-4,-3,0,0,0,-3,0,1.805
362,1,-1,-3,-2,-4,-4,-2,-1,1.81
363,-1,-2,0,-2,-7,-2,-2,-2,1.815
364,-2,-2,-2,-3,10,2,-3,-1,1.82
365,-2,-2,1,0,-3,3,5,-2,1.825
366,-3,0,0,0,-2,-1,0,1,1.83
367,0,-3,-1,1,8,4,4,0,1.835
368,-2,-4,-5,-2,-4,-2,-5,0,1.84
369,0,-1,1,-1,0,-3,-6,0,1.845
370,-2,-4,-3,-4,-6,-2,-2,-2,1.85
371,0,0,1,-1,-11,-4,-5,-2,1.855
372,-1,1,0,1,9,-1,-3,-1,1.86
373,-2,-3,-2,2,8,10,11,-1,1.865
374,-1,-4,-2,1,-3,-3,-2,0,1.87
375,-2,-3,-3,-1,9,6,2,-1,1.875
376,-1,0,2,0,-18,-3,-2,-2,1.8800000000000001
377,-2,-3,-5,-4,-3,-8,-3,-2,1.885
378,-1,-1,0,-1,3,2,0,1,1.8900000000000001
379,-1,3,-1,-4,3,-3,-5,-1,1.895
380,-1,-4,-1,0,-4,-1,2,0,1.9000000000000001
381,1,-2,1,1,0,-2,-2,-1,1.905
382,0,2,-3,-1,-2,-1,-2,-2,1.9100000000000001
383,2,4,-2,-2,-1,2,0,-1,1.915
384,-1,4,1,-1,6,3,2,-1,1.92
385,0,2,-1,-3,-10,-8,-7,-3,1.925
386,0,2,-1,-3,-9,-3,-2,-1,1.93
387,-3,-3,1,1,2,3,3,-2,1.935
388,0,0,2,2,0,-1,-1,1,1.94
389,-1,-1,-2,-1,2,4,6,0,1.945
390,0,3,-4,0,1,1,-7,-3,1.95
391,-1,-3,-3,-1,-3,-2,1,0,1.955
392,1,-2,-1,-4,-10,-1,7,-1,1.96
393,1,0,2,-1,2,-4,-6,-1,1.965
394,1,5,5,1,3,3,3,-1,1.97
395,-5,-12,-3,3,9,8,1,-1,1.975
396,-2,-3,-3,0,-2,-3,-3,-2,1.98
397,-2,-3,-3,-5,-13,-6,1,-1,1.985
398,-2,-3,2,0,1,-5,-2,0,1.99
399,-1,2,-1,-2,0,-1,-1,-2,1.995
400,-1,3,-1,-1,2,0,-4,0,2.0
401,-1,0,-1,-2,-1,0,-2,-1,2.005
402,1,-2,1,0,2,0,1,0,2.0100000000000002
403,-1,3,2,1,-1,-2,0,0,2.015
404,-2,1,-1,-1,-1,0,-5,-2,2.02
405,1,6,-4,-2,-1,-1,0,0,2.025
406,-5,-9,-3,1,2,-2,0,-2,2.0300000000000002
407,2,4,0,-3,-5,-3,-1,0,2.035
408,1,5,3,0,-3,-1,-1,1,2.04
409,-6,-18,-5,0,2,4,2,0,2.045
410,-1,0,-1,1,-1,-2,2,-1,2.05
411,-2,-8,-2,0,0,-3,-6,-2,2.055
412,1,-1,-3,-2,-1,-3,1,0,2.06
413,-2,0,3,0,5,2,-6,-1,2.065
414,2,2,0,0,0,0,9,1,2.07
415,1,1,-1,-2,-6,-4,0,-2,2.075
416,-4,-9,0,0,3,0,2,-3,2.08
417,1,1,0,-3,10,4,-2,-2,2.085
418,-3,2,-1,-2,-8,-2,-3,-2,2.09
419,4,16,2,-2,0,0,1,2,2.095
420,-1,1,-3,1,-5,-3,-3,-1,2.1
421,-2,-2,1,-3,3,-3,2,1,2.105
422,-2,-4,0,2,4,-1,-3,0,2.11
423,-1,-6,-2,-3,-6,-1,-3,-1,2.115
424,1,2,1,0,-1,0,1,-1,2.12
425,1,2,1,1,-4,2,-2,-2,2.125
426,-1,-3,-2,-2,-1,3,1,0,2.13
427,-3,-4,-2,1,2,-4,0,-2,2.1350000000000002
428,0,-4,-1,-1,0,0,-1,-1,2.14
429,-1,0,1,2,-1,-2,-6,0,2.145
430,0,0,-1,-4,0,-1,1,-2,2.15
431,-2,-7,-1,0,-6,0,4,0,2.1550000000000002
432,-5,-9,0,-1,0,0,-3,-1,2.16
433,0,3,-1,1,-1,-4,1,-1,2.165
434,-2,-4,-3,-2,2,0,-2,-1,2.17
435,0,3,-1,0,3,-1,-2,-1,2.1750000000000003
436,-1,2,-1,-2,-1,-1,-1,-2,2.18
437,-1,-5,-3,-1,-5,-1,1,-1,2.185
438,1,1,-3,-3,-1,-2,-2,-2,2.19
439,1,6,1,0,-2,-1,0,-2,2.195
440,-2,-2,-3,-2,-4,-1,4,1,2.2
441,2,8,0,1,1,-3,-8,-2,2.205
442,0,4,3,5,5,5,4,0,2.21
443,-1,-1,-2,-2,-2,1,-1,-1,2.215
444,0,-1,1,1,1,-1,-1,-1,2.22
445,-1,1,-1,0,-2,-1,1,0,2.225
446,4,9,3,-2,-5,-4,-4,1,2.23
447,-7,-17,-6,-2,-4,-6,-7,-2,2.235
448,1,1,0,0,3,5,4,0,2.24
449,-2,-7,-3,-2,0,0,1,0,2.245
450,1,0,0,1,2,1,1,-1,2.25
451,-2,-2,3,-1,1,-3,0,0,2.255
452,-1,2,-2,-3,-3,-6,-10,-1,2.2600000000000002
453,3,8,0,0,0,2,7,2,2.265
454,-5,-8,-5,-2,-2,-1,-3,-3,2.27
455,-1,1,-1,-2,-1,0,1,1,2.275
456,-1,1,1,0,0,-2,-2,-3,2.2800000000000002
457,0,2,1,-1,-6,-2,-2,-2,2.285
458,-3,-6,-2,-3,-3,-2,1,0,2.29
459,1,3,1,1,3,1,-1,0,2.295
460,-1,-5,1,2,3,4,-1,0,2.3000000000000003
461,0,0,-3,0,-2,-3,3,1,2.305
462,-1,-1,-3,-3,-2,1,-9,-2,2.31
463,-4,-7,-1,-2,-2,-5,-6,-3,2.315
464,-2,-1,-2,-2,0,-3,2,0,2.32
465,-2,-5,1,-1,-3,-4,0,-1,2.325
466,0,-2,1,1,1,-2,0,-1,2.33
467,2,7,2,2,0,3,3,0,2.335
468,-1,-5,0,1,-1,-2,1,-1,2.34
469,-5,-8,-5,-3,-2,-3,-3,-2,2.345
470,0,2,1,1,0,0,2,0,2.35
471,1,1,-1,1,1,2,-2,-2,2.355
472,-1,0,0,0,1,0,3,-1,2.36
473,-2,-4,1,0,0,0,-2,-2,2.365
474,-2,-5,-2,-2,-3,0,2,-3,2.37
475,1,2,-4,-1,0,1,1,1,2.375
476,3,2,-1,-1,-1,-1,-3,0,2.38
477,0,-4,-1,0,-2,-2,0,0,2.3850000000000002
478,-1,1,0,-1,-3,-1,-6,-1,2.39
479,2,4,3,1,0,2,2,0,2.395
480,1,-2,-5,-1,-1,-1,-1,-1,2.4
481,0,1,1,-1,-2,2,2,-1,2.4050000000000002
482,-2,-4,-4,1,1,1,-1,0,2.41
483,-2,-2,-2,-3,-2,-4,0,-1,2.415
484,-1,4,2,1,-1,-1,1,0,2.42
485,-2,-3,0,0,-5,-5,-11,-4,2.4250000000000003
486,3,4,-1,0,0,-3,1,0,2.43
487,2,5,-1,0,5,2,0,-1,2.435
488,0,3,1,0,3,-3,-3,-1,2.44
489,2,3,-1,-2,-2,3,5,1,2.445
490,1,0,-1,-2,-4,-3,0,-1,2.45
491,-1,0,0,-1,-5,-5,-5,0,2.455
492,-2,-2,-2,-2,-3,1,0,0,2.46
493,2,6,3,1,0,1,0,-1,2.465
494,-3,-9,-6,-4,-2,-1,-1,-1,2.47
495,-2,-1,2,1,0,-1,-1,-1,2.475
496,-2,-3,-4,-2,-4,-3,-4,0,2.48
497,0,2,0,0,-1,4,2,-1,2.485
498,1,9,0,1,1,0,4,1,2.49
499,-1,-6,-2,-3,3,1,-4,-1,2.495
500,1,3,0,-1,-3,-3,0,0,2.5
501,-1,-2,-5,-2,0,-1,-3,1,2.505
502,-3,-4,0,0,-1,0,0,0,2.5100000000000002
503,-3,-2,0,0,0,0,1,0,2.515
504,-1,-2,1,-1,0,2,-1,-2,2.52
505,0,-1,-3,-1,-1,-1,2,-1,2.525
506,0,2,2,0,0,-2,-11,-1,2.5300000000000002
507,-1,-10,-5,1,-3,-6,-2,-1,2.535
508,0,-3,-1,0,2,3,3,0,2.54
509,0,1,0,-1,-8,-1,-2,0,2.545
510,1,-1,2,2,4,1,0,-2,2.5500000000000003
511,2,6,1,-2,0,0,2,-1,2.555
512,-4,-9,-2,-1,1,-2,-3,-2,2.56
513,0,2,0,0,1,0,2,2,2.565
514,-1,1,1,-1,1,0,2,0,2.57
515,2,-3,0,0,-2,-3,-1,0,2.575
516,1,1,-1,-1,-3,-4,-1,0,2.58
517,-5,0,-2,-4,2,-5,-2,-2,2.585
518,0,2,-2,-2,-3,-1,-4,-2,2.59
519,-5,4,-3,0,-3,2,5,-1,2.595
520,-1,-4,-2,-2,-1,-3,-5,-3,2.6
521,-2,-5,-3,0,-2,-3,-5,-2,2.605
522,2,1,0,0,0,-1,4,0,2.61
523,1,-1,-1,0,-3,3,1,0,2.615
524,3,7,1,0,-2,1,6,1,2.62
525,-3,-2,-1,1,1,-4,-6,-5,2.625
526,-4,-4,-5,-4,-2,-1,-2,-3,2.63
527,-2,2,1,-1,-1,-3,-3,-1,2.6350000000000002
528,1,3,1,0,-1,0,0,1,2.64
529,-1,-1,-2,-1,1,0,3,-3,2.645
530,-3,-1,2,1,0,0,-1,-1,2.65
531,-3,-3,0,-3,-3,-2,0,1,2.6550000000000002
532,2,1,-1,0,1,-3,-5,0,2.66
533,-4,-3,-1,-3,-2,1,0,-1,2.665
534,1,5,2,2,-3,0,-1,1,2.67
535,-1,-3,-5,-3,0,-1,-2,-3,2.6750000000000003
536,-2,-7,-2,-1,-1,0,0,-2,2.68
537,2,2,0,-1,2,2,1,0,2.685
538,-1,-2,-3,-1,-2,-1,-3,-1,2.69
539,-3,-5,-1,0,-1,-6,-10,-3,2.695
540,1,3,0,-1,-3,2,4,-2,2.7
541,-4,-9,-2,0,0,2,1,1,2.705
542,0,-1,0,-1,-2,-2,1,1,2.71
543,-1,0,-1,-1,-1,0,-3,-2,2.715
544,-2,-4,-3,-1,-1,-3,-3,-1,2.72
545,-2,-4,-1,-2,-2,0,-2,-1,2.725
546,0,1,0,-1,-1,-2,-2,-1,2.73
547,2,-2,-1,0,-2,3,4,0,2.735
548,-5,-8,-3,0,-1,-3,-3,-2,2.74
549,1,7,2,4,1,0,3,1,2.745
550,0,-3,-2,-2,1,-1,-6,-1,2.75
551,-2,1,2,1,2,1,1,-2,2.755
552,-1,1,-2,-3,0,-1,-7,-1,2.7600000000000002
553,0,-1,-1,-1,0,-2,-1,-1,2.765
554,-1,-3,-2,-1,-2,-1,3,-2,2.77
555,0,2,1,1,-2,-2,0,0,2.775
556,-1,0,-1,-3,-2,2,2,-2,2.7800000000000002
557,1,-5,-2,0,3,3,-2,-1,2.785
558,-4,-4,-5,-2,-5,-2,0,-1,2.79
559,-3,-7,-3,-4,-5,-1,2,-2,2.795
560,-1,2,0,-3,-3,-5,-1,1,2.8000000000000003
561,-1,-3,-2,-1,-1,-2,-4,-1,2.805
562,2,1,2,1,0,5,-2,-1,2.81
563,1,1,-1,-1,1,0,0,0,2.815
564,0,4,1,0,-1,3,-1,-1,2.82
565,0,4,1,-1,1,-1,-1,-1,2.825
566,-1,-4,0,2,1,-4,0,0,2.83
567,-2,-4,-1,1,-1,0,-2,0,2.835
568,1,2,0,2,0,1,0,0,2.84
569,-1,-3,-2,-2,0,-1,-1,-2,2.845
570,0,-2,-1,-1,0,0,-1,-1,2.85
571,-2,-6,-3,-2,-1,0,-2,-1,2.855
572,-1,0,1,0,1,0,1,0,2.86
573,-1,-2,-3,0,-2,-2,1,-1,2.865
574,0,4,0,-1,0,-1,1,-2,2.87
575,-4,-3,-2,-2,-3,0,0,0,2.875
576,0,0,-1,-5,-2,-5,-6,-2,2.88
577,-4,-6,-3,-3,-3,-4,-2,0,2.8850000000000002
578,-3,-4,0,0,-1,-1,-3,-1,2.89
579,-1,0,-1,3,3,5,5,0,2.895
580,1,1,-2,-2,-3,3,1,-1,2.9
581,3,2,2,-1,0,-1,1,1,2.9050000000000002
582,3,4,2,-1,0,-5,-4,-1,2.91
583,3,4,0,-1,0,-1,-2,1,2.915
584,-3,-4,0,1,-1,-3,0,-1,2.92
585,2,3,0,1,-2,1,0,-1,2.9250000000000003
586,-5,-12,-4,-1,-2,2,-2,-2,2.93
587,0,1,-1,-1,0,1,0,-2,2.935
588,-1,-3,0,0,1,1,2,0,2.94
589,-2,-1,-1,-2,-1,-2,-2,0,2.945
590,0,-1,0,-1,0,-3,-3,0,2.95
591,1,4,2,0,0,-3,-4,-1,2.955
592,-3,-5,-1,-4,-2,-2,-2,-1,2.96
593,-1,-2,1,0,-3,-1,1,-1,2.965
594,1,2,-1,-1,0,-1,1,-1,2.97
595,2,6,1,0,1,0,-2,1,2.975
596,-3,-6,-3,-1,-1,-2,-1,-2,2.98
597,2,4,1,0,1,3,2,0,2.985
598,-1,-1,-3,-5,-3,0,-2,-2,2.99
599,2,-1,-1,-2,-2,-3,1,-1,2.995
600,-1,-4,-3,3,1,-4,-2,0,3.0
601,0,0,0,0,0,1,-5,-3,3.005
602,-1,-5,-1,-1,-1,-1,2,0,3.0100000000000002
603,1,-3,2,0,0,-1,1,-2,3.015
604,2,9,3,0,-1,1,-1,1,3.02
605,-4,-7,-4,-5,-4,-5,-6,-3,3.025
606,2,2,2,0,0,3,4,2,3.0300000000000002
607,-4,-6,-2,0,-1,-2,-1,-2,3.035
608,0,-1,-5,-2,0,-1,-2,-1,3.04
609,1,4,-1,0,-2,-4,2,0,3.045
610,-1,2,0,0,-1,-2,-4,0,3.0500000000000003
611,-1,1,-2,-1,0,-2,-1,-1,3.055
612,-1,-3,2,2,0,4,1,-3,3.06
613,0,0,-1,1,0,-1,-2,1,3.065
614,0,-1,-1,-4,-2,-2,-2,-1,3.0700000000000003
615,0,-3,-2,-1,-3,-3,-1,0,3.075
616,1,0,-1,-1,-1,-2,0,-1,3.08
617,-1,-1,-2,-1,-1,-3,0,-1,3.085
618,-1,-1,-1,2,0,0,-1,0,3.09
619,-2,-2,-1,-2,-3,-1,-2,0,3.095
620,-1,-2,-2,-3,-2,-4,-3,-3,3.1
621,1,-1,0,-2,1,-2,-2,0,3.105
622,0,5,0,0,-2,2,1,1,3.11
623,1,4,-2,0,0,6,3,-2,3.115
624,1,0,-2,-1,-1,2,1,0,3.12
625,-1,-3,0,-2,-2,-3,-3,-1,3.125
626,-2,-3,-1,-1,-3,-1,-1,0,3.13
627,-1,-2,-2,0,-2,-4,-3,-3,3.1350000000000002
628,1,3,-2,-1,-1,3,3,2,3.14
629,-2,0,-3,-1,0,-2,-2,-1,3.145
630,3,5,-1,-1,2,-1,-1,0,3.15
631,-2,-1,0,3,0,-4,-3,-1,3.1550000000000002
632,-3,-9,-1,-1,-1,-1,-1,-1,3.16
633,-1,-2,-1,0,-2,1,-2,0,3.165
634,0,2,-2,-2,-1,3,4,-1,3.17
635,-2,-4,-3,-1,-1,-1,-2,-1,3.1750000000000003
636,-3,3,1,-1,-1,-5,-4,0,3.18
637,-1,-2,1,2,-1,4,3,1,3.185
638,-1,-3,1,-2,-1,-2,0,0,3.19
639,1,-1,-1,-3,-2,-4,-2,1,3.1950000000000003
640,-1,2,1,0,0,-1,-5,-1,3.2
641,-3,-4,-3,-3,-1,-1,0,-1,3.205
642,1,4,1,2,1,2,1,0,3.21
643,1,0,-3,-3,-4,-3,-1,2,3.215
644,-1,-2,-2,-2,-1,-1,0,1,3.22
645,-1,-1,0,0,1,0,0,-2,3.225
646,-3,-6,-2,0,-1,-3,-5,-3,3.23
647,1,5,3,-2,-1,-1,-1,1,3.235
648,-1,0,-2,-2,-4,-7,-3,0,3.24
649,-2,-5,-2,-1,0,6,7,-2,3.245
650,0,1,-2,-1,1,-1,0,-1,3.25
651,1,1,-1,-1,1,0,-2,2,3.255
652,-2,-5,-1,0,-1,2,5,0,3.2600000000000002
653,2,4,0,-2,-1,-7,-4,-1,3.265
654,-2,-3,-2,-2,-2,-3,-5,-3,3.27
655,-6,-10,-3,-2,0,1,0,-2,3.275
656,1,-1,0,0,1,2,6,0,3.2800000000000002
657,-2,-1,-3,1,-3,-3,-3,-1,3.285
658,-1,0,0,-1,-1,-1,0,0,3.29
659,0,0,0,1,0,2,-2,-2,3.295
660,0,0,1,-1,0,0,3,-1,3.3000000000000003
661,-2,-3,-5,-2,1,1,-5,1,3.305
662,0,0,-1,0,-3,-3,-2,-1,3.31
663,-2,-1,-3,0,0,-2,0,-2,3.315
664,-1,-2,0,0,0,0,0,-1,3.3200000000000003
665,0,3,2,1,-2,-2,-4,0,3.325
666,1,1,0,-1,-2,4,4,0,3.33
667,3,5,5,2,2,0,1,0,3.335
668,-4,-8,-7,-2,-2,-4,-5,-4,3.34
669,0,-1,0,-1,-2,-5,-1,0,3.345
670,1,3,-1,-3,-2,-1,-1,2,3.35
671,-1,-1,1,-1,0,1,1,1,3.355
672,-2,-3,0,-1,-2,-1,-2,-1,3.36
673,1,0,0,1,0,0,1,0,3.365
674,-1,0,-2,2,1,0,1,0,3.37
675,-1,2,-2,-1,-3,-3,-3,0,3.375
676,-3,-6,-2,1,0,3,-2,-2,3.38
677,0,1,-1,-3,-2,1,-1,0,3.3850000000000002
678,-2,-1,-2,2,-1,-2,3,-1,3.39
679,-1,0,-1,-3,0,-2,-2,-1,3.395
680,-1,-1,-2,-1,0,1,1,0,3.4
681,-1,-1,1,0,-1,-1,-1,-1,3.4050000000000002
682,-3,-3,-1,-2,1,-6,-8,-2,3.41
683,-3,-5,-4,-3,-3,2,3,-1,3.415
684,3,5,0,0,1,0,0,1,3.42
685,-1,-2,-1,-2,0,-1,-1,-1,3.4250000000000003
686,-1,-2,-3,-2,-2,-4,-2,-1,3.43
687,-2,1,-2,0,-2,-5,-5,-1,3.435
688,-6,-10,-2,-3,-2,-1,-2,-1,3.44
689,0,2,-1,0,-1,1,1,-1,3.4450000000000003
690,1,-1,-2,-1,1,1,-2,-1,3.45
691,-3,-7,-2,0,-2,0,-1,-2,3.455
692,2,3,3,2,2,0,0,3,3.46
693,-1,1,-2,-2,1,-3,0,-1,3.465
694,-2,-4,0,0,-1,0,-1,-2,3.47
695,1,3,0,1,-1,-1,2,-1,3.475
696,-3,-2,-2,-4,-4,-2,-1,-1,3.48
697,3,5,3,3,0,-1,1,0,3.485
698,-3,-9,-4,-2,-2,1,-3,-2,3.49
699,-1,-2,-2,-4,0,0,1,1,3.495
700,4,2,-2,0,-2,-2,-2,-2,3.5
701,-2,-2,-2,-1,0,2,-5,0,3.505
702,-4,-6,-4,-2,-3,-3,2,-3,3.5100000000000002
703,0,0,-1,1,-1,-1,-2,-1,3.515
704,1,3,1,1,0,-2,-2,-1,3.52
705,-1,1,-2,1,0,-3,0,-1,3.525
706,1,6,2,-1,-2,7,6,0,3.5300000000000002
707,-2,-6,-4,-2,-1,0,-2,-2,3.535
708,0,3,1,-1,2,1,1,-1,3.54
709,0,1,-1,1,-1,0,1,0,3.545
710,0,0,1,-2,0,-2,-1,0,3.5500000000000003
711,5,16,6,1,0,0,1,2,3.555
712,-3,-8,-7,-2,-1,-2,-2,0,3.56
713,-3,-5,-5,-5,-2,-2,-3,-1,3.565
714,1,4,2,2,2,1,3,1,3.5700000000000003
715,-1,-5,-2,1,0,1,-5,-1,3.575
716,1,5,0,-1,-2,-3,-2,-1,3.58
717,-2,-3,0,0,-1,1,2,-1,3.585
718,-2,-2,-1,-2,-4,-3,-3,0,3.59
719,0,5,3,-1,0,-2,0,-1,3.595
720,-1,2,-2,-2,-2,-3,-3,1,3.6
721,-2,-2,-1,-3,-1,2,1,1,3.605
722,1,0,-2,-2,-1,1,-2,0,3.61
723,-5,-9,-1,0,-5,-3,-1,-3,3.615
724,-1,-2,-1,-1,-2,1,1,0,3.62
725,0,-1,-2,-3,-3,-3,-2,-2,3.625
726,-4,-4,0,0,0,-4,-2,-1,3.63
727,-2,-2,-4,-1,1,1,3,-1,3.6350000000000002
728,3,5,4,3,1,-1,-3,-2,3.64
729,-3,-8,-2,-2,-2,1,1,-2,3.645
730,0,1,-1,-1,0,-4,-5,-1,3.65
731,-2,-2,-4,-1,0,-2,-1,0,3.6550000000000002
732,-2,-2,-2,0,-1,4,4,0,3.66
733,1,5,3,1,1,0,-4,-1,3.665
734,3,3,-1,-1,-2,-1,2,1,3.67
735,0,-2,0,0,-1,2,6,4,3.6750000000000003
736,-1,1,0,0,-1,-2,-3,-3,3.68
737,-2,-2,-4,-1,1,-1,-1,-1,3.685
738,-2,-3,-2,0,-1,-1,-2,0,3.69
739,1,0,1,1,-2,-4,-4,-2,3.6950000000000003
740,1,0,-3,-2,-2,-2,0,0,3.7
741,-2,-5,-1,0,-3,0,0,-2,3.705
742,-2,-3,-3,-3,0,-2,-1,-2,3.71
743,-1,-2,1,-2,-2,0,3,-2,3.715
744,-2,-2,0,-1,1,0,-1,-1,3.72
745,-1,1,-1,-1,-1,-3,-3,1,3.725
746,-2,-3,0,-1,0,3,1,1,3.73
747,-4,-2,-3,-3,-3,-6,-2,-2,3.735
748,-5,-8,-2,-4,-2,-3,-6,-1,3.74
749,1,4,4,3,2,6,3,-1,3.745
750,0,0,1,1,0,-1,-1,0,3.75
751,-1,-4,-2,-1,0,3,1,-2,3.755
752,3,6,0,1,0,-4,-2,0,3.7600000000000002
753,1,1,0,-3,-2,-3,-1,0,3.765
754,-4,-4,-2,-2,-1,0,4,0,3.77
755,1,2,1,0,-1,-3,-6,0,3.775
756,1,3,1,0,0,-1,0,-1,3.7800000000000002
757,-2,-3,-3,0,-1,0,1,-2,3.785
758,2,2,0,0,1,-1,-7,-1,3.79
759,0,2,-1,-3,0,-2,0,0,3.795
760,1,3,-1,-1,-1,0,0,1,3.8000000000000003
761,0,3,0,1,1,0,0,1,3.805
762,-3,-5,-3,-2,-1,-1,0,-1,3.81
763,-2,-1,1,1,2,-1,-2,-2,3.815
764,-2,0,0,0,0,0,0,0,3.8200000000000003
765,-2,-2,-2,-2,-4,-3,0,-1,3.825
766,1,3,1,1,-1,-1,-1,-2,3.83
767,-4,1,-1,-3,-3,1,-1,0,3.835
768,1,3,1,1,1,3,3,0,3.84
769,-4,-11,-2,-1,1,-2,-1,-1,3.845
770,0,-1,-2,-2,-1,-2,-1,-1,3.85
771,0,2,1,-2,-3,0,-1,0,3.855
772,-1,-3,0,1,0,-1,-1,-2,3.86
773,-1,-2,-5,-1,-3,-1,-1,-2,3.865
774,-4,-6,1,3,1,0,1,-2,3.87
775,-1,-3,-1,1,-1,0,-2,-1,3.875
776,0,-1,-3,-3,-1,-1,-1,-1,3.88
777,-1,3,3,2,-1,-1,-1,0,3.8850000000000002
778,1,1,-3,-2,-3,-1,2,0,3.89
779,1,2,-3,-3,-1,-1,-1,-1,3.895
780,-7,-16,-5,-3,-2,-4,-1,-2,3.9
781,0,-3,1,0,0,-1,0,-2,3.9050000000000002
782,-1,1,2,1,-2,1,-2,0,3.91
783,-2,-5,-4,0,1,2,1,1,3.915
784,0,-1,0,0,-2,-6,-1,-1,3.92
785,-1,-3,0,-1,-1,2,-2,1,3.9250000000000003
786,-2,-6,-2,-2,-2,-4,-4,-1,3.93
787,0,-2,0,1,2,2,-2,-2,3.935
788,-1,0,-1,-2,-2,4,3,1,3.94
789,-1,0,-4,-1,-3,-5,-3,0,3.9450000000000003
790,-1,2,1,-1,1,0,2,0,3.95
791,-2,-3,0,0,-1,-1,-3,-2,3.955
792,3,9,1,-2,-1,-3,-2,-2,3.96
793,-1,0,-1,0,0,1,3,0,3.9650000000000003
794,1,3,0,1,-1,3,0,2,3.97
795,3,2,0,-1,-2,-4,-2,1,3.975
796,0,2,0,0,4,3,2,0,3.98
797,2,0,3,0,0,-5,-4,0,3.985
798,-5,-3,-2,0,0,1,1,-4,3.99
799,-2,-5,-2,0,-1,0,2,-1,3.995
800,-2,-1,-2,-1,-1,0,-2,-1,4.0
801,1,2,1,0,0,1,0,0,4.005
802,2,6,0,0,-1,-1,2,1,4.01
803,-2,-5,-4,-2,-1,-1,1,0,4.015
804,2,1,3,1,0,0,-4,-1,4.0200000000000005
805,-2,1,0,0,0,1,4,0,4.025
806,0,-3,-3,-3,-1,-2,-4,-2,4.03
807,2,5,2,-2,-1,-3,0,0,4.035
808,-7,-12,-2,-2,-4,-3,-1,1,4.04
809,-3,0,0,0,-2,0,-5,-1,4.045
810,-3,-7,-3,-5,-2,-3,2,0,4.05
811,0,-1,-1,-1,0,2,0,-3,4.055
812,1,2,1,3,0,1,3,-2,4.0600000000000005
813,-3,-4,-1,-2,-3,-3,-2,-1,4.065
814,-1,-3,-1,0,0,2,-1,-2,4.07
815,-1,2,0,-4,-1,-1,-2,-1,4.075
816,4,7,-2,-1,0,-4,-5,-1,4.08
817,-1,-1,-2,-2,1,-1,-11,-3,4.085
818,1,4,1,-1,-1,-1,7,3,4.09
819,-1,1,2,1,-1,-3,5,0,4.095
820,-3,-4,-5,-3,-2,-2,-5,0,4.1
821,1,-2,-1,-2,-2,0,11,1,4.105
822,2,5,3,0,-1,-1,-6,-2,4.11
823,0,-4,-1,1,1,2,0,-1,4.115
824,-2,-5,-5,-4,-2,-2,-2,-1,4.12
825,-4,-5,-1,0,-2,-4,-10,-3,4.125
826,-2,-3,-1,-1,-2,-1,3,-1,4.13
827,3,6,1,-1,-2,1,-1,0,4.135
828,-5,-6,1,0,-3,-1,-7,-5,4.14
829,3,4,0,0,-1,-2,3,1,4.1450000000000005
830,1,-3,-3,2,0,-4,-19,-2,4.15
831,-2,-2,-2,0,-2,-1,-2,-3,4.155
832,-4,-7,-4,1,1,3,13,4,4.16
833,1,-1,-2,-3,0,3,17,3,4.165
834,-2,2,1,-1,-1,0,-2,-3,4.17
835,2,4,-3,-4,-3,-3,-8,-5,4.175
836,1,-1,2,1,-1,-2,-6,-2,4.18
837,-1,0,2,2,0,-2,-4,-1,4.1850000000000005
838,3,2,1,1,2,-1,4,1,4.19
839,-3,-9,-6,-2,0,-2,-4,-1,4.195
840,3,10,3,0,-3,0,0,0,4.2
841,-2,-4,-2,-1,-1,-2,-2,-2,4.205
842,0,-1,-1,1,-1,0,5,1,4.21
843,-3,-2,0,1,-1,-1,-1,-1,4.215
844,1,4,0,-3,-1,0,3,-1,4.22
845,0,0,1,1,-2,-1,-6,0,4.225
846,-2,-5,-7,-2,-2,-1,-2,-3,4.23
847,-3,-2,1,-2,-1,0,2,0,4.235
848,-1,-5,-3,0,2,0,2,0,4.24
849,2,3,1,-3,-2,-2,-4,-2,4.245
850,-2,-9,-1,0,0,0,-3,-2,4.25
851,0,0,0,1,-1,0,11,3,4.255
852,-1,2,1,1,1,-1,-1,-1,4.26
853,-2,0,-2,-3,1,1,-1,-1,4.265
854,0,3,1,-2,-2,-2,-5,0,4.2700000000000005
855,-1,-3,0,0,-1,-2,-7,-1,4.275
856,-2,-5,-2,0,-1,0,3,0,4.28
857,0,-3,-5,0,0,0,3,0,4.285
858,2,4,-2,0,-5,-2,0,0,4.29
859,-3,-2,0,1,-1,0,1,-3,4.295
860,0,3,-2,-2,0,-4,-9,-1,4.3
861,1,2,1,2,1,-2,-10,-1,4.305
862,-5,-10,-4,0,-1,-1,6,0,4.3100000000000005
863,0,0,0,0,-1,-4,-7,1,4.315
864,-2,-2,0,0,-1,3,10,0,4.32
865,0,-1,-2,-2,-1,-2,-1,0,4.325
866,1,2,1,-2,2,1,-1,-2,4.33
867,0,3,-1,-4,-3,-2,-6,-1,4.335
868,-2,-2,0,-2,-1,-2,5,-1,4.34
869,0,-1,-6,-2,0,-2,-6,0,4.345
870,-1,-2,0,-1,0,0,3,-1,4.3500000000000005
871,2,2,-1,-2,0,0,3,0,4.355
872,-1,-1,2,-1,-1,-3,-7,-1,4.36
873,-3,-4,0,1,-1,3,7,-1,4.365
874,0,2,-3,-4,0,-4,-5,0,4.37
875,-3,-6,-2,1,1,0,-2,-1,4.375
876,0,0,-2,1,0,2,1,-1,4.38
877,-3,-4,-1,1,-1,-1,0,0,4.385
878,0,4,3,0,-1,1,0,-1,4.39
879,-1,-4,2,1,-1,1,2,0,4.3950000000000005
880,-7,-13,-6,-2,-2,-4,-4,-1,4.4
881,-1,-3,-3,-1,-3,1,2,-1,4.405
882,2,5,0,1,0,-2,-12,-3,4.41
883,-1,2,2,2,-1,1,12,1,4.415
884,0,2,1,0,-2,1,-7,-2,4.42
885,-2,-4,-2,-2,0,0,4,0,4.425
886,-4,-5,-2,0,-1,-2,-1,-1,4.43
887,1,1,-4,-2,-1,-1,-3,-2,4.4350000000000005
888,2,4,2,-1,-2,-2,-7,-3,4.44
889,-1,0,0,-2,-2,-3,1,-2,4.445
890,-1,2,2,1,0,4,6,1,4.45
891,-4,-9,-5,-2,-2,-3,-1,-1,4.455
892,2,3,0,-2,1,-1,0,1,4.46
893,0,1,-3,-2,-1,0,-6,-2,4.465
894,-2,-5,-3,1,-1,-3,2,-2,4.47
895,-2,0,0,0,-1,-1,-7,-3,4.4750000000000005
896,-1,0,2,-1,-1,-1,4,0,4.48
897,-5,-11,-4,-1,-1,0,0,-2,4.485
898,0,-1,-2,-2,-2,1,1,0,4.49
899,-3,-1,1,-3,-1,-1,-3,0,4.495
900,-1,-2,-2,0,0,-2,-3,-2,4.5
901,1,2,1,0,-1,-1,-4,-1,4.505
902,-2,-5,-1,0,-2,-3,6,-1,4.51
903,0,0,-2,-1,0,0,-3,-2,4.515
904,-2,1,0,1,-2,-2,0,1,4.5200000000000005
905,-1,1,1,0,-1,4,5,0,4.525
906,0,3,-1,-1,0,-4,-13,-1,4.53
907,-2,-4,1,1,1,0,7,1,4.535
908,-2,-1,-2,-2,-1,0,3,0,4.54
909,1,5,0,1,0,-1,0,0,4.545
910,3,5,0,0,-1,2,0,-1,4.55
911,-4,-5,-2,-1,-2,-2,-2,-2,4.555
912,-3,-3,2,1,-2,-1,-2,-2,4.5600000000000005
913,1,-1,-1,0,-2,-3,1,-2,4.565
914,0,-4,-1,-1,-1,1,1,-1,4.57
915,2,4,2,1,-1,-1,2,0,4.575
916,1,3,2,2,0,-3,-2,-1,4.58
917,-3,-1,-1,-3,-1,-1,-6,1,4.585
918,-3,-2,1,0,-2,-1,5,0,4.59
919,0,-3,-2,-3,-2,2,0,-2,4.595
920,-6,-15,-3,-2,1,2,-4,-2,4.6000000000000005
921,0,-2,-1,0,-2,0,6,0,4.605
922,-1,0,-1,2,3,-3,-5,-1,4.61
923,-2,2,3,1,-2,-1,-3,-1,4.615
924,0,1,-4,-1,-3,1,1,-1,4.62
925,3,7,-2,-9,0,-3,-13,-2,4.625
926,-5,-7,-2,-4,-4,1,10,-1,4.63
927,-1,-3,-2,1,2,-4,-4,0,4.635
928,2,5,-1,-1,-1,0,4,-1,4.64
929,0,0,4,3,0,0,0,0,4.6450000000000005
930,-1,1,-2,-1,-2,-2,-3,0,4.65
931,0,0,-2,-2,-1,0,-1,0,4.655
932,4,8,0,-3,-2,-1,-2,-2,4.66
933,-1,-4,-3,0,1,-2,0,0,4.665
934,1,0,1,0,0,-2,-6,-1,4.67
935,-1,2,0,0,-1,2,4,0,4.675
936,-4,-5,-4,-3,0,1,3,0,4.68
937,0,1,0,0,-2,-1,4,-1,4.6850000000000005
938,-2,-6,0,-1,-1,0,-4,0,4.69
939,0,0,-1,0,0,-1,-2,-2,4.695
940,1,5,0,1,1,-2,-2,0,4.7
941,1,1,2,1,-2,-2,-3,0,4.705
942,1,5,1,-1,-2,0,1,1,4.71
943,2,-2,-5,0,-2,0,-2,0,4.715
944,1,-1,-2,0,1,0,0,1,4.72
945,-3,-2,-1,-3,-2,-2,-2,0,4.7250000000000005
946,1,5,0,-1,0,-1,-2,0,4.73
947,-2,-2,0,-2,-2,0,0,0,4.735
948,-4,-4,0,2,-1,-1,-2,-2,4.74
949,0,3,1,2,0,-2,-2,2,4.745
950,-3,-6,-4,-4,0,0,4,0,4.75
951,0,0,0,-2,1,1,-1,-1,4.755
952,-2,-6,-3,-1,-2,-1,-3,-1,4.76
953,0,-1,1,0,1,1,0,-3,4.765
954,1,3,1,0,1,0,-6,-1,4.7700000000000005
955,1,1,-1,-1,2,-1,4,1,4.775
956,-3,-6,2,1,1,1,1,-1,4.78
957,-2,-2,-2,-2,0,0,1,-3,4.785
958,-4,-5,1,1,-2,0,1,-1,4.79
959,0,-1,0,0,-3,-2,-4,-2,4.795
960,2,3,-2,-3,-3,-2,3,0,4.8
961,1,6,2,0,2,-2,1,0,4.805
962,-4,-6,-4,0,0,-1,-4,-2,4.8100000000000005
963,-2,-1,-2,-1,-1,-2,-1,-1,4.815
964,0,-2,-4,-2,-3,-2,-1,-2,4.82
965,0,-3,2,0,-3,0,0,-2,4.825
966,1,5,0,-2,-1,-1,0,0,4.83
967,-3,-4,-3,-2,-3,-1,1,-1,4.835
968,1,7,-1,-2,0,-2,-5,0,4.84
969,-2,-6,-2,0,0,-1,-2,-2,4.845
970,-1,-1,-2,1,0,-4,-3,0,4.8500000000000005
971,-1,3,0,2,1,4,-1,-1,4.855
972,0,3,0,0,2,2,5,1,4.86
973,-3,-3,-1,0,-1,-2,-4,0,4.865
974,-2,-3,2,0,1,1,1,-1,4.87
975,2,5,-1,0,-1,-3,-4,-1,4.875
976,-1,-1,-2,-4,-4,-2,-5,-2,4.88
977,-1,1,-3,3,0,-1,4,0,4.885
978,-2,-7,-5,-4,-2,-1,-1,-3,4.89
979,0,2,-1,0,-1,-5,-5,-1,4.8950000000000005
980,0,-1,2,1,0,1,-1,0,4.9
981,2,1,0,-1,-1,1,8,1,4.905
982,-2,-3,-4,-4,-1,-3,-5,-2,4.91
983,5,9,4,-2,-2,-1,0,1,4.915
984,-2,-8,-2,0,-4,-4,-3,-1,4.92
985,-2,-3,0,-2,-3,0,-4,-3,4.925
986,0,1,0,1,-2,0,5,2,4.93
987,-1,-1,-1,-4,1,-1,-4,-1,4.9350000000000005
988,-1,-1,-2,-1,-1,-1,3,-2,4.94
989,0,0,0,-2,-1,-1,-1,-1,4.945
990,-1,-4,-1,-1,-1,1,4,1,4.95
991,-5,-6,-3,-3,-2,0,-3,-1,4.955
992,2,2,0,0,1,-1,0,0,4.96
993,-3,-2,-4,-1,-2,-2,-1,-2,4.965
994,0,0,0,-2,0,0,-3,0,4.97
995,-5,-12,-3,0,0,1,1,-2,4.9750000000000005
996,-3,-4,0,1,1,-1,-5,-1,4.98
997,-3,-6,-1,0,-3,-1,6,1,4.985
998,0,-3,-1,-1,-2,-2,-2,-1,4.99
999,1,3,2,1,0,1,1,0,4.995
1000,1,3,0,0,0,0,0,-1,5.0
1001,0,-1,-2,-1,1,-1,-3,-1,5.005
1002,3,7,2,1,-2,-4,-5,-1,5.01
1003,-1,-4,-1,2,1,-1,0,-2,5.015
1004,-1,-1,-7,-9,-3,0,3,-1,5.0200000000000005
1005,1,4,-2,-1,-1,-1,-2,-1,5.025
1006,0,-3,-1,-1,-1,3,0,-2,5.03
1007,-1,-3,0,0,-2,-2,-1,-2,5.035
1008,0,-1,1,0,1,0,-3,-1,5.04
1009,1,6,-1,-1,-3,-1,-3,-1,5.045
1010,-2,0,1,1,1,1,-1,-1,5.05
1011,-1,-3,-2,0,0,0,1,0,5.055
1012,-1,-4,1,-1,-3,-4,-1,-1,5.0600000000000005
1013,-1,-2,-1,-1,-1,-1,-3,0,5.065
1014,-2,-2,1,0,-1,-2,-5,-2,5.07
1015,0,1,-4,-4,-1,-1,-2,0,5.075
1016,-3,-5,0,2,0,1,7,-1,5.08
1017,0,-1,-3,-2,1,-3,-1,0,5.085
1018,-2,-3,-2,-1,-1,0,-1,1,5.09
1019,-1,2,0,2,0,1,-3,0,5.095
1020,-1,1,2,-2,-2,-2,-4,-1,5.1000000000000005
1021,-3,-7,-2,0,-1,-1,1,-1,5.105
1022,-1,-3,-3,-2,0,0,-1,-2,5.11
1023,-1,0,-1,-3,-1,-1,0,0,5.115
1024,-1,2,-1,-2,0,-1,-1,2,5.12
1025,2,7,4,0,-2,1,-1,0,5.125
1026,2,4,0,0,0,0,0,0,5.13
1027,-2,-3,-1,-2,-2,1,1,0,5.135
1028,-1,-2,0,1,0,-3,-1,-1,5.14
1029,-2,-1,-4,-2,-1,0,-1,0,5.1450000000000005
1030,-1,-3,-3,-2,-2,-2,1,-2,5.15
1031,0,1,0,-1,-1,-1,-1,0,5.155
1032,-2,-4,0,0,1,-1,-1,-1,5.16
1033,0,-2,1,-1,-2,-1,-3,-4,5.165
1034,0,1,-1,0,-2,-2,-6,1,5.17
1035,1,3,-2,0,0,-2,6,0,5.175
1036,-1,-2,-1,-1,0,4,6,0,5.18
1037,-1,-3,-1,0,2,3,0,1,5.1850000000000005
1038,-1,-2,0,-1,0,1,-1,-3,5.19
1039,-1,-2,-1,-2,-4,-2,-2,-1,5.195
1040,0,-2,-2,0,-2,-5,-6,-2,5.2
1041,2,0,2,-1,0,-1,-1,-1,5.205
1042,3,6,0,0,-2,-1,4,0,5.21
1043,-3,-6,-3,0,-1,0,-3,-1,5.215
1044,-1,2,0,1,-2,-2,-8,-4,5.22
1045,0,-1,-3,-1,-2,-2,-5,1,5.2250000000000005
1046,3,4,-1,-1,-1,0,17,2,5.23
1047,-5,-10,9,0,0,-1,0,-1,5.235
1048,-3,-4,-10,0,0,0,-1,-2,5.24
1049,-3,-5,-7,-4,-2,-3,-15,-3,5.245
1050,1,1,-8,-3,-1,2,10,1,5.25
1051,3,5,-1,-2,-2,0,0,-1,5.255
1052,1,3,7,-1,-3,-1,-1,0,5.26
1053,1,3,6,-2,0,0,-5,-2,5.265
1054,-4,-11,-2,1,1,-3,-9,-2,5.2700000000000005
1055,0,1,-1,0,0,-3,4,-1,5.275
1056,-1,-2,-1,0,-2,1,2,2,5.28
1057,2,7,-1,1,-1,2,6,2,5.285
1058,-2,-3,4,1,-1,1,-5,-1,5.29
1059,0,-1,-2,1,0,-2,-4,-3,5.295
1060,0,-3,-1,0,1,-2,-7,0,5.3
1061,-1,-1,-1,0,-2,-4,0,-1,5.305
1062,-1,-2,2,-1,0,2,15,2,5.3100000000000005
1063,-3,-6,-1,0,0,-3,-8,-2,5.315
1064,0,-1,-2,1,0,6,15,3,5.32
1065,-8,-13,-2,2,0,-2,-12,-4,5.325
1066,-1,-1,-3,-2,-1,-2,-3,-1,5.33
1067,1,1,0,-1,1,2,5,2,5.335
1068,0,3,0,-3,2,-3,-8,0,5.34
1069,-1,-3,-1,-3,-2,-3,6,1,5.345
1070,2,4,-2,0,1,-2,-4,-1,5.3500000000000005
1071,-1,-1,-3,-3,-1,-1,-1,0,5.355
1072,2,7,2,1,0,0,-2,-2,5.36
1073,-4,-5,-3,-2,-1,-2,3,-1,5.365
1074,-1,3,1,-1,0,0,-3,-1,5.37
1075,-2,-2,-1,1,-1,-3,-5,-2,5.375
1076,-3,-6,-2,-1,-2,0,-1,-2,5.38
1077,1,0,-2,1,1,2,11,2,5.385
1078,-2,-1,-1,-1,-1,-3,-9,-1,5.39
1079,0,2,-1,-1,-1,2,5,0,5.3950000000000005
1080,-4,-9,-2,-1,-1,-1,-2,-2,5.4
1081,-1,-2,-2,0,-1,-1,0,-2,5.405
1082,0,1,1,-1,-2,-2,-4,-3,5.41
1083,0,4,-1,0,-3,-1,-6,0,5.415
1084,-1,-2,2,1,-3,-1,3,-1,5.42
1085,2,5,2,1,0,-1,-1,1,5.425
1086,-6,-8,0,0,2,-1,-2,-3,5.43
1087,-2,-1,-3,-2,0,0,0,-2,5.4350000000000005
1088,5,11,-1,-4,-2,-2,-3,2,5.44
1089,0,2,0,-3,0,0,-2,-1,5.445
1090,2,0,0,2,-1,-1,-1,0,5.45
1091,-1,1,-1,-2,-2,-1,2,0,5.455
1092,-3,-6,-3,1,1,-1,-1,-1,5.46
1093,-2,-1,2,0,1,-1,1,-1,5.465
1094,0,2,-2,-1,-2,-6,-14,-2,5.47
1095,-1,-2,-1,-1,-1,2,12,0,5.4750000000000005
1096,0,-1,-1,-1,-2,-3,1,-1,5.48
1097,0,-1,-2,0,-2,0,-3,0,5.485
1098,-5,-10,-3,-3,0,1,5,-2,5.49
1099,2,-2,0,0,1,-1,-9,-4,5.495
1100,-3,-3,-1,-2,-1,-2,-3,-1,5.5
1101,-3,0,-1,0,-4,-1,2,-1,5.505
1102,0,0,-1,0,-2,0,2,-2,5.51
1103,0,1,-2,0,0,-2,-9,-1,5.515
1104,0,5,1,0,0,0,2,-2,5.5200000000000005
1105,0,3,4,7,1,0,0,0,5.525
1106,1,3,-5,-9,-2,0,1,-1,5.53
1107,-1,-8,-7,-3,-2,0,3,0,5.535
1108,3,2,0,-2,1,-2,-3,1,5.54
1109,-2,-4,0,0,-1,1,0,-1,5.545
1110,-4,-2,4,3,1,0,1,-3,5.55
1111,0,-1,-1,1,0,-1,-2,0,5.555
1112,-6,-7,-3,-2,-3,-1,0,-2,5.5600000000000005
1113,-4,-9,-1,-2,0,-2,-2,-1,5.565
1114,1,0,-2,-1,2,-1,-2,1,5.57
1115,-2,-1,-1,-2,1,0,3,0,5.575
1116,-1,-1,1,3,1,1,-3,-1,5.58
1117,1,3,-4,-1,0,-2,6,-1,5.585
1118,0,2,2,-1,-3,0,-1,0,5.59
1119,0,2,-1,-1,-3,-1,-4,-1,5.595
1120,0,0,-4,-1,-1,0,-4,-2,5.6000000000000005
1121,-2,-3,-4,-1,-1,0,1,-1,5.605
1122,3,2,1,0,-2,-1,-3,-1,5.61
1123,1,0,4,0,-2,-1,4,1,5.615
1124,-1,-2,6,4,1,-1,0,-1,5.62
1125,0,1,-5,-2,2,-2,-5,0,5.625
1126,-3,-3,-8,-7,-2,0,0,-1,5.63
1127,-4,-6,-2,0,-1,1,-2,-1,5.635
1128,0,-2,-3,-3,-3,0,0,0,5.64
1129,-1,-4,0,3,0,1,-1,-2,5.6450000000000005
1130,1,3,0,0,-1,-2,-4,0,5.65
1131,-2,-8,-1,-4,-1,-1,3,-3,5.655
1132,-1,0,0,-1,0,-1,1,-1,5.66
1133,0,0,0,0,-1,-2,-3,-1,5.665
1134,-1,-5,0,2,1,-2,-5,-3,5.67
1135,-2,0,0,1,-1,-1,-2,-2,5.675
1136,2,3,-1,-1,-2,2,7,-1,5.68
1137,-3,-4,0,-2,-1,-1,-3,-2,5.6850000000000005
1138,2,0,0,0,-2,0,3,0,5.69
1139,2,0,-2,0,-1,-1,-4,-1,5.695
1140,-6,-8,-3,-3,-2,-3,-3,-3,5.7
1141,0,4,-1,-2,2,-2,-3,0,5.705
1142,-2,-1,1,2,0,-1,1,-2,5.71
1143,-2,-4,-4,-1,-1,0,1,-2,5.715
1144,0,-3,-2,-3,0,-4,-12,-3,5.72
1145,0,1,0,-3,-3,-3,9,1,5.7250000000000005
1146,-6,-6,-4,0,-1,0,-1,-3,5.73
1147,3,3,0,-1,-1,0,-2,0,5.735
1148,1,5,2,0,0,1,1,1,5.74
1149,-1,-5,-2,-5,-3,-1,-4,-2,5.745
1150,0,-1,0,0,1,-2,-3,-2,5.75
1151,2,6,-2,-2,-1,-2,3,-2,5.755
1152,-2,-2,-3,0,2,0,-5,-1,5.76
1153,0,1,1,-1,-1,-1,-5,-1,5.765
1154,1,1,-1,-3,-2,3,14,3,5.7700000000000005
1155,0,3,1,1,-1,-1,-5,0,5.775
1156,-4,-6,-3,0,-1,-1,4,-1,5.78
1157,-2,-2,-3,-3,-3,1,-2,-2,5.785
1158,0,0,0,1,-1,-2,-1,1,5.79
1159,-2,-3,0,1,1,-1,-2,0,5.795
1160,1,2,0,-1,-2,-2,-1,0,5.8
1161,-3,-3,-1,-1,1,0,-2,-2,5.805
1162,-3,-7,-2,0,-2,-3,-2,0,5.8100000000000005
1163,1,3,0,1,0,1,0,0,5.815
1164,-1,0,0,-1,-2,0,0,-1,5.82
1165,4,9,1,-1,0,0,0,-1,5.825
1166,-5,-7,0,-2,-1,-3,-8,-1,5.83
1167,-1,0,1,0,-1,1,8,0,5.835
1168,-1,-5,-5,-4,-2,-3,-3,-1,5.84
1169,2,0,0,0,-1,0,1,0,5.845
1170,-2,-2,0,0,0,-1,-3,-3,5.8500000000000005
1171,0,3,1,1,-1,-2,-6,-1,5.855
1172,0,-1,-2,0,0,1,5,-2,5.86
1173,-7,-7,1,-1,1,-1,0,0,5.865
1174,1,1,-2,0,1,1,-2,-1,5.87
1175,-2,-3,-1,-5,-1,-1,-4,-1,5.875
1176,1,4,1,0,-1,-1,2,1,5.88
1177,0,0,0,3,1,-2,-3,1,5.885
1178,0,2,-1,-1,-1,1,3,0,5.89
1179,-2,-2,-1,2,-1,-3,0,-2,5.8950000000000005
1180,-2,-4,-1,-3,-3,0,-4,0,5.9
1181,0,0,-1,-1,-3,-2,-1,-2,5.905
1182,2,9,2,-1,0,-2,-3,-1,5.91
1183,-1,-4,-2,-1,1,0,-3,0,5.915
1184,-2,0,0,0,1,-2,0,-2,5.92
1185,-4,-5,0,0,-1,-1,-1,-2,5.925
1186,-1,-2,0,-2,-1,-2,-1,0,5.93
1187,1,2,0,0,0,1,-1,0,5.9350000000000005
1188,-1,3,0,-1,-3,-3,-2,-1,5.94
1189,0,-1,-2,-2,-2,0,2,0,5.945
1190,-4,-6,-2,2,-1,-2,-3,-1,5.95
1191,-4,-4,-1,1,-2,-3,1,-2,5.955
1192,-1,-3,-1,-2,0,2,-1,0,5.96
1193,0,0,-4,-2,-2,-2,-2,-1,5.965
1194,-4,0,0,-1,0,0,0,0,5.97
1195,0,-2,0,0,-1,1,-1,0,5.9750000000000005
1196,0,-1,0,-1,0,2,-2,0,5.98
1197,2,2,0,0,-2,0,-3,-1,5.985
1198,0,-4,-2,-3,-3,-1,-1,-1,5.99
1199,-2,-6,-4,-3,-2,-1,0,-1,5.995
1200,-1,0,1,0,1,0,0,-2,6.0
1201,2,4,-1,-3,0,0,0,0,6.005
1202,0,-3,-3,-3,-1,-2,0,-1,6.01
1203,-1,2,2,0,2,-1,2,0,6.015000000000001
1204,-3,-4,-3,1,-1,-1,-3,-2,6.0200000000000005
1205,-3,-6,-2,-1,-1,-1,-6,0,6.025
1206,0,3,-1,1,-2,-1,4,0,6.03
1207,0,0,-3,-3,-2,0,0,-1,6.035
1208,1,2,1,-1,-1,-1,-3,0,6.04
1209,0,0,3,0,0,1,3,0,6.045
1210,-1,-2,-2,-2,0,0,-2,0,6.05
1211,4,2,0,0,-1,-3,-3,0,6.055
1212,-2,-3,-1,-2,-2,-1,2,0,6.0600000000000005
1213,-4,-7,-3,-3,-1,-1,0,-2,6.065
1214,0,-2,-2,-1,-2,-2,-6,0,6.07
1215,0,0,0,2,1,0,-1,0,6.075
1216,0,0,-1,-3,-1,0,-1,-2,6.08
1217,0,2,-2,-2,-1,0,1,0,6.085
1218,2,4,2,1,0,2,4,1,6.09
1219,-3,-5,0,0,0,-1,-3,-2,6.095
1220,0,1,-1,2,0,-2,1,0,6.1000000000000005
1221,-1,4,0,-1,-1,0,-1,-1,6.105
1222,-5,-4,-1,-1,-1,-1,-3,-1,6.11
1223,-2,-2,-2,-3,-2,-1,-2,0,6.115
1224,0,0,1,1,1,4,1,0,6.12
1225,0,1,-3,-1,-1,-1,5,0,6.125
1226,6,8,1,-1,-1,0,-2,0,6.13
1227,-4,-3,-2,-2,-1,-2,-5,-2,6.135
1228,-1,-1,-1,-2,1,-1,0,0,6.140000000000001
1229,0,0,1,0,0,-1,-5,-1,6.1450000000000005
1230,-1,0,0,0,0,-1,-1,0,6.15
1231,0,0,0,-2,-1,1,0,-1,6.155
1232,0,-1,-2,-1,-2,-6,-3,-3,6.16
1233,-2,-6,-4,-1,-1,0,-1,-2,6.165
1234,-3,-7,-3,-3,-2,0,1,-1,6.17
1235,0,1,0,1,-1,-1,-3,-2,6.175
1236,-2,-5,-3,0,0,0,0,-1,6.18
1237,-2,-5,0,-2,-3,-1,0,-2,6.1850000000000005
1238,0,2,0,2,0,-2,-4,-2,6.19
1239,-2,-3,0,-2,-2,0,-2,-1,6.195
1240,-2,3,1,2,2,0,-1,1,6.2
1241,-3,-5,-3,-2,0,0,-2,0,6.205
1242,-1,-4,-2,0,1,2,2,0,6.21
1243,3,-3,-6,-1,-1,-1,1,-1,6.215
1244,1,1,2,-1,-1,-1,-2,-2,6.22
1245,-2,1,0,-3,-2,1,-2,-1,6.2250000000000005
1246,1,3,3,3,1,0,-7,-1,6.23
1247,-5,-10,-4,-3,-2,-6,4,-2,6.235
1248,0,-3,-3,0,-2,2,3,0,6.24
1249,2,1,2,1,2,3,9,2,6.245
1250,-1,-3,-2,-2,-2,1,2,-2,6.25
1251,3,3,-1,-1,1,-4,-4,-2,6.255
1252,1,-2,-1,-1,0,0,-2,0,6.26
1253,-3,0,2,0,-1,0,-5,-1,6.265000000000001
1254,-1,0,-1,0,-2,-3,5,0,6.2700000000000005
1255,-1,0,2,-1,0,0,-2,-1,6.275
1256,-4,-5,-3,-4,-2,-1,-1,-1,6.28
1257,0,-1,-6,-3,-4,-2,-4,-1,6.285
1258,-2,-1,-2,-2,-1,-3,-7,-3,6.29
1259,-1,-1,-2,-1,-3,0,4,0,6.295
1260,-2,0,1,-1,-1,1,0,-2,6.3
1261,0,2,-1,-1,-1,-1,-4,-1,6.305
1262,-1,2,0,0,-3,0,3,1,6.3100000000000005
1263,0,5,-1,0,0,0,-2,-1,6.315
1264,2,2,1,-1,-1,-2,1,0,6.32
1265,-1,-3,-1,-1,0,-3,-1,-3,6.325
1266,1,-3,-3,-1,-1,-2,-2,0,6.33
1267,1,3,0,0,-2,2,0,0,6.335
1268,1,1,-2,0,-1,-1,-2,-1,6.34
1269,2,4,3,1,1,0,3,1,6.345
1270,-1,-1,1,-1,0,-1,4,-1,6.3500000000000005
1271,-4,-2,-1,1,1,-3,-1,0,6.355
1272,-2,1,-3,-2,-2,0,-1,-2,6.36
1273,-2,-5,2,2,1,-2,-2,0,6.365
1274,-2,-3,-1,-1,0,0,-3,-2,6.37
1275,-1,-1,0,1,0,-3,4,-2,6.375
1276,-3,-1,-1,-3,-3,-4,-3,-1,6.38
1277,1,1,-2,-2,-2,-2,-2,-1,6.385
1278,-2,-3,-1,2,-1,1,1,0,6.390000000000001
1279,-2,-1,-1,-1,1,1,-5,0,6.3950000000000005
1280,0,0,-2,-1,-1,-1,-1,1,6.4
1281,-3,-2,-3,-1,-2,-1,1,-1,6.405
1282,1,1,-1,0,1,-2,-3,-2,6.41
1283,2,4,-1,-1,-3,0,0,0,6.415
1284,0,0,1,3,3,-2,-2,0,6.42
1285,1,4,-3,-3,-2,-1,-2,0,6.425
1286,0,2,-1,-2,0,1,4,0,6.43
1287,-2,-4,1,0,-1,1,-1,-2,6.4350000000000005
1288,-1,-2,-3,-1,-1,-1,-1,-1,6.44
1289,-1,-4,-2,-1,-2,-4,-1,-1,6.445
1290,-1,0,1,-1,-1,-2,-2,0,6.45
1291,-4,-6,-1,-1,-2,1,-2,-1,6.455
1292,-3,-6,-3,-1,0,0,3,-2,6.46
1293,4,7,1,1,1,0,-2,-1,6.465
1294,-3,-3,-3,-1,-1,-2,-1,-1,6.47
1295,1,1,1,-1,0,-1,-2,0,6.4750000000000005
1296,1,-3,0,1,1,0,-2,-1,6.48
1297,-2,-5,2,1,-1,-2,-2,-1,6.485
1298,-1,2,-2,-3,-1,-1,0,-1,6.49
1299,-1,-3,-2,-1,-3,-1,0,-2,6.495
1300,1,4,1,-1,-2,1,5,1,6.5
1301,-4,-4,-1,-1,1,-1,-3,-3,6.505
1302,-1,-3,-2,-2,-1,-2,-3,1,6.51
1303,-2,-3,-2,-2,0,0,-1,-1,6.515000000000001
1304,-1,-3,-2,-3,-3,1,-7,-2,6.5200000000000005
1305,2,-1,-2,0,-3,-1,0,0,6.525
1306,0,1,1,-2,-3,-1,1,-1,6.53
1307,0,3,0,0,1,-2,3,-1,6.535
1308,-5,-12,-2,-1,1,1,-2,-2,6.54
1309,1,5,1,-2,-2,0,1,2,6.545
1310,-1,-4,-1,1,-1,-1,-7,0,6.55
1311,2,-1,-3,-1,-1,0,0,1,6.555
1312,-1,0,0,1,-1,-4,-2,-1,6.5600000000000005
1313,0,0,0,0,-1,0,-2,-1,6.565
1314,-4,-7,-2,-2,0,0,2,-2,6.57
1315,-1,2,0,-3,0,1,2,0,6.575
1316,-2,-1,-1,0,-1,-2,1,-1,6.58
1317,-4,-6,-3,-3,-1,-1,0,-2,6.585
1318,1,4,1,-1,0,-1,3,0,6.59
1319,0,-1,2,0,0,-1,-2,-1,6.595
1320,0,0,0,-2,-3,0,-3,0,6.6000000000000005
1321,-4,-6,3,1,-1,-2,-6,-1,6.605
1322,-1,-4,-6,-1,-1,-1,3,-1,6.61
1323,-2,-1,-5,-7,-1,-1,-2,0,6.615
1324,0,1,2,1,-1,-1,2,-1,6.62
1325,1,1,-1,-2,1,-2,-2,-1,6.625
1326,-1,-2,5,2,-1,-2,-2,-2,6.63
1327,-3,-1,-1,-1,-2,-1,-8,-3,6.635
1328,2,7,0,-2,-4,-1,-1,1,6.640000000000001
1329,-5,-7,-3,1,1,1,0,-1,6.6450000000000005
1330,3,4,-3,-1,-1,1,-1,-1,6.65
1331,-1,1,-2,0,-1,-2,1,-1,6.655
1332,3,10,2,-1,1,-1,-3,0,6.66
1333,3,7,0,0,-2,2,4,1,6.665
1334,-4,-7,-2,-3,-1,-2,-3,-3,6.67
1335,-2,-6,-2,0,-2,1,3,0,6.675
1336,-3,-5,-3,1,1,0,0,-2,6.68
1337,-2,-2,-2,-1,0,0,-1,0,6.6850000000000005
1338,0,-2,-1,-1,-3,-1,0,0,6.69
1339,1,4,1,0,0,-3,-2,1,6.695
1340,-3,-4,-1,-1,0,0,0,0,6.7
1341,1,-1,-1,1,-2,-1,-1,0,6.705
1342,1,5,-1,0,-1,1,3,0,6.71
1343,-3,-6,-1,1,-2,-4,-5,-2,6.715
1344,-2,-4,-2,-3,-4,0,1,0,6.72
1345,-2,2,0,-1,1,-3,-3,-1,6.7250000000000005
1346,1,6,6,0,-1,0,-1,1,6.73
1347,-3,-6,-5,1,-2,0,1,-2,6.735
1348,0,-1,-3,-6,-3,-2,-4,-1,6.74
1349,2,1,-1,-2,-2,2,3,1,6.745
1350,0,2,-3,-2,-1,0,-3,0,6.75
1351,1,3,-1,0,1,0,-3,0,6.755
1352,-3,-4,0,2,-1,-1,3,-2,6.76
1353,-1,-1,-1,-1,0,-3,-4,-2,6.765000000000001
1354,0,1,0,1,1,-1,-4,0,6.7700000000000005
1355,-1,-1,1,-1,0,4,2,-1,6.775
1356,1,4,0,0,-1,-1,2,1,6.78
1357,2,1,0,0,-2,1,3,1,6.785
1358,1,4,-1,0,-1,-1,-1,0,6.79
1359,-2,-2,0,0,0,-2,-2,-1,6.795
1360,-2,-2,-3,-2,-1,-4,-4,-1,6.8
1361,-2,-4,0,0,-2,0,1,0,6.805
1362,-3,-7,-2,-3,0,0,-3,-1,6.8100000000000005
1363,3,4,2,1,0,1,3,1,6.815
1364,-1,-5,-3,-3,0,0,0,-1,6.82
1365,-1,-2,0,1,0,0,-1,-1,6.825
1366,-1,1,-1,-1,-1,0,2,-1,6.83
1367,1,4,1,-1,-1,1,2,-1,6.835
1368,1,-1,3,3,1,-1,-3,-2,6.84
1369,-3,-2,-6,-2,-2,-2,-2,-3,6.845
1370,-2,-2,-2,-2,-1,0,1,0,6.8500000000000005
1371,-5,-8,-1,-4,0,-2,-2,-3,6.855
1372,0,4,2,-1,-1,-1,2,1,6.86
1373,-3,-4,-1,0,-2,1,-1,-2,6.865
1374,0,1,0,-1,-1,-3,-5,-2,6.87
1375,-1,-1,-1,-1,-2,-1,1,-1,6.875
1376,-2,-7,-3,-3,-2,1,-4,-1,6.88
1377,0,1,0,-2,-2,-2,5,0,6.885
1378,0,-4,-3,-4,-4,-3,-2,0,6.890000000000001
1379,-1,-1,-2,-3,-2,-1,-1,-1,6.8950000000000005
1380,-1,-3,-2,0,0,-1,-2,-2,6.9
1381,-1,1,0,-1,-1,-2,-2,-1,6.905
1382,0,2,0,2,1,0,1,-2,6.91
1383,-5,-7,-2,-1,1,-5,-4,-2,6.915
1384,0,1,0,1,2,2,6,1,6.92
1385,1,4,1,-1,0,-2,-1,0,6.925
1386,1,-1,-3,-2,-3,-1,2,1,6.93
1387,1,1,2,3,-1,1,-3,-1,6.9350000000000005
1388,0,-1,-2,-3,-1,2,-2,-3,6.94
1389,-1,-3,-1,-2,1,-1,0,0,6.945
1390,-1,-2,0,-2,0,-2,-3,-2,6.95
1391,5,12,2,1,-2,-1,0,2,6.955
1392,-2,-4,-1,0,-1,-3,-2,-2,6.96
1393,0,0,0,-1,1,-1,-1,-1,6.965
1394,1,1,0,1,0,-1,-5,0,6.97
1395,0,3,-2,-3,-1,1,1,0,6.9750000000000005
1396,-1,0,0,0,-1,1,1,-1,6.98
1397,-3,-3,-1,0,-3,0,-3,-2,6.985
1398,-4,-4,1,0,-1,-1,-4,-2,6.99
1399,-1,-4,-1,-1,-2,-1,4,0,6.995
1400,-1,-5,0,1,-2,0,-1,0,7.0
1401,2,-1,-1,0,-4,-1,3,-1,7.005
1402,-2,-3,-2,-1,-1,0,-2,-1,7.01
1403,-2,0,-1,2,2,2,-3,-2,7.015000000000001
1404,-3,-5,-3,-2,-2,-2,-3,-1,7.0200000000000005
1405,0,2,1,-1,1,2,-1,-1,7.025
1406,-1,-1,-2,0,-2,-3,0,-2,7.03
1407,-2,-6,-3,-2,1,-3,0,0,7.035
1408,2,5,2,0,-1,-4,-4,-1,7.04
1409,0,0,-2,-2,-2,-1,-2,0,7.045
1410,-1,1,-2,0,-1,2,4,-2,7.05
1411,-1,-4,0,0,1,-2,-2,-2,7.055
1412,1,2,-1,-3,-1,0,0,1,7.0600000000000005
1413,-1,-1,-2,-1,-1,-1,-3,0,7.065
1414,0,2,-1,-2,-3,0,4,0,7.07
1415,2,3,-1,-2,-2,-2,-9,-2,7.075
1416,-1,0,-2,0,-1,-2,6,0,7.08
1417,-4,-5,-4,-1,0,-2,-2,-1,7.085
1418,1,3,1,1,1,-3,-8,0,7.09
1419,0,0,0,1,-2,1,6,2,7.095
1420,-2,-1,-2,-2,0,-1,-3,-1,7.1000000000000005
1421,0,1,-1,-1,-1,3,2,-1,7.105
1422,-3,-4,-2,-2,0,1,-2,-2,7.11
1423,1,4,2,-1,-4,-2,-3,-1,7.115
1424,-1,-1,1,1,0,2,-1,-1,7.12
1425,-1,-1,0,-2,1,-2,-3,-2,7.125
1426,4,7,-1,-1,-1,-2,0,-1,7.13
1427,-3,-7,-2,-1,-1,-3,-3,-1,7.135
1428,-1,-1,-1,-2,-3,-1,0,-1,7.140000000000001
1429,1,-1,0,1,-1,0,-1,0,7.1450000000000005
1430,-1,-3,-3,-3,-1,1,6,-1,7.15
1431,-3,-5,-3,-1,-1,1,-5,-1,7.155
1432,-2,-1,0,-2,-2,0,-2,-1,7.16
1433,0,-1,0,-1,1,-1,2,1,7.165
1434,-1,-3,1,0,-2,0,0,0,7.17
1435,-1,-4,-3,-4,0,0,1,0,7.175
1436,3,0,-1,0,1,-1,-4,-1,7.18
1437,-2,-1,0,0,-1,-1,-3,-2,7.1850000000000005
1438,-1,0,0,2,0,-1,-1,-1,7.19
1439,-2,2,-1,1,-1,1,0,0,7.195
1440,0,1,-1,1,0,1,-3,-1,7.2
1441,3,8,1,-2,-2,-2,1,1,7.205
1442,-6,-18,-3,-1,-1,1,-1,-1,7.21
1443,6,10,2,-1,-2,-1,1,0,7.215
1444,-2,-1,-3,-2,-4,-3,-5,-1,7.22
1445,-2,-5,-2,-1,-2,1,4,0,7.2250000000000005
1446,0,2,-1,0,1,0,-4,-1,7.23
1447,-1,4,-1,-2,-1,-2,-2,-2,7.235
1448,0,4,3,1,1,2,1,1,7.24
1449,2,5,0,-1,-1,-2,-5,0,7.245
1450,-2,-8,-2,0,-1,0,-3,-3,7.25
1451,-5,1,3,3,-2,0,9,3,7.255
1452,0,-5,1,4,-3,-3,-1,0,7.26
1453,5,-2,-1,-6,-3,-2,-3,0,7.265000000000001
1454,3,8,-5,11,4,1,9,10,7.2700000000000005
1455,-6,-9,-14,-39,-5,1,-4,-21,7.275
1456,-13,-3,6,15,-2,-1,-3,5,7.28
1457,2,0,4,-9,-1,-7,-14,-3,7.285
1458,8,-5,-7,3,1,-5,-6,-10,7.29
1459,-14,-2,-27,-43,-6,-1,-3,19,7.295
1460,17,-4,-10,-11,-1,-1,8,-2,7.3
1461,-8,-16,-5,-4,0,2,6,-8,7.305
1462,2,6,20,16,2,-2,-3,-7,7.3100000000000005
1463,-6,3,10,20,1,-1,2,-13,7.315
1464,6,6,5,-3,-1,1,-4,24,7.32
1465,-14,-2,-1,11,-2,-3,-3,-10,7.325
1466,20,11,-1,-8,-2,2,1,-6,7.33
1467,0,-14,8,23,4,2,-2,5,7.335
1468,-16,11,5,2,-3,-3,-2,-24,7.34
1469,-1,-11,-22,-12,-2,-2,-3,-3,7.345
1470,-6,-8,-1,-7,0,-1,2,11,7.3500000000000005
1471,4,11,6,8,3,0,0,-16,7.355
1472,0,-2,12,9,3,-3,-5,1,7.36
1473,-8,11,1,16,3,2,4,14,7.365
1474,-5,-7,-13,-22,-14,-6,-2,13,7.37
1475,30,2,-12,-22,-4,-1,2,42,7.375
1476,-29,-4,-4,-2,2,1,5,-17,7.38
1477,8,-17,7,9,2,2,-5,-10,7.385
1478,3,1,6,3,1,-1,-3,-30,7.390000000000001
1479,28,20,11,21,0,-3,-5,-2,7.3950000000000005
1480,7,-9,-6,-3,1,0,10,26,7.4
1481,-7,5,-1,-9,-4,1,-4,-15,7.405
1482,-5,-10,-12,-8,0,-1,-3,20,7.41
1483,-13,-3,8,7,-1,-4,-10,-20,7.415
1484,-5,-2,-10,-14,-3,0,-4,-15,7.42
1485,1,4,12,14,3,0,4,8,7.425
1486,-8,-3,-10,-13,-1,1,5,-7,7.43
1487,-11,-1,7,10,0,-2,-6,4,7.4350000000000005
1488,1,-8,-16,-12,-4,-2,0,-11,7.44
1489,-3,-6,-12,-24,-7,1,1,9,7.445
1490,-29,-5,8,11,0,2,-3,-4,7.45
1491,12,1,-5,-9,-2,-2,2,6,7.455
1492,-6,2,5,7,0,0,1,22,7.46
1493,-1,2,1,5,1,0,-1,-22,7.465
1494,0,-1,2,0,0,-2,-7,-8,7.47
1495,-14,-1,8,6,1,-2,2,1,7.4750000000000005
1496,11,15,-11,-4,-1,1,-3,-4,7.48
1497,8,-4,-2,1,0,2,-1,12,7.485
1498,-7,6,4,-2,-2,-3,2,4,7.49
1499,-11,-6,-3,4,3,2,1,-18,7.495
1500,-2,5,5,-3,-1,-3,1,6,7.5
1501,16,3,3,0,0,-2,-1,9,7.505
1502,5,-5,-10,11,2,0,-1,8,7.51
1503,11,-4,-8,-12,-3,1,2,13,7.515000000000001
1504,3,-1,10,-7,-1,-4,-3,8,7.5200000000000005
1505,-24,1,-8,3,-1,-1,-11,-15,7.525
1506,7,-6,2,3,-2,-1,6,-16,7.53
1507,-10,-7,5,11,1,0,-2,1,7.535
1508,11,1,0,2,6,3,2,-19,7.54
1509,1,7,6,-5,-2,0,5,28,7.545
1510,4,4,3,-1,2,-1,-5,0,7.55
1511,4,-6,-4,-3,-4,-4,1,6,7.555
1512,0,-7,-7,0,-1,-1,-11,-8,7.5600000000000005
1513,-1,-3,8,9,3,-2,4,-2,7.565
1514,2,0,-12,-3,-2,0,0,16,7.57
1515,-13,-7,-5,-15,-5,1,-1,-2,7.575
1516,6,-2,12,5,2,1,4,-5,7.58
1517,-1,1,-7,-1,-3,-2,-2,-7,7.585
1518,-13,5,3,-9,-4,1,-11,-27,7.59
1519,7,-1,1,8,1,-3,10,32,7.595
1520,8,-4,-14,-7,-3,2,6,0,7.6000000000000005
1521,-6,-10,10,9,3,1,6,7,7.605
1522,11,10,2,0,-2,-2,3,2,7.61
1523,-13,0,-2,4,1,-1,-10,-10,7.615
1524,-7,-6,-2,-3,-7,-3,-7,-5,7.62
1525,9,4,-6,-4,-1,-2,0,-21,7.625
1526,-1,-8,5,8,1,3,4,27,7.63
1527,-6,2,9,-5,-1,1,2,-25,7.635
1528,0,4,-16,-6,0,-4,-3,11,7.640000000000001
1529,5,7,-2,0,-4,-2,-5,11,7.6450000000000005
1530,-11,-6,6,-2,0,-5,-7,-25,7.65
1531,2,-4,-21,7,1,5,6,-3,7.655
1532,-7,-3,8,3,-2,-1,-1,-9,7.66
1533,5,2,-2,-4,-2,-5,-8,3,7.665
1534,6,3,3,1,2,3,5,6,7.67
1535,8,3,-1,-9,-2,-4,0,8,7.675
1536,-3,1,3,4,1,1,2,3,7.68
1537,-5,-3,-11,-3,-1,0,0,0,7.6850000000000005
1538,3,-7,3,-3,-1,-2,-3,4,7.69
1539,-5,6,9,1,-3,-2,-3,-18,7.695
1540,1,-2,-11,-4,-2,-1,-2,3,7.7
1541,-7,2,8,3,1,1,1,1,7.705
1542,0,-2,-6,0,-4,-3,2,1,7.71
1543,-1,-2,8,16,1,3,1,-4,7.715
1544,-4,-1,-1,-13,-2,-2,-5,1,7.72
1545,22,0,-2,0,3,3,8,-5,7.7250000000000005
1546,-24,4,0,5,4,0,-5,-15,7.73
1547,16,-3,-14,-13,-6,-6,-7,6,7.735
1548,-18,-5,11,5,0,1,1,-19,7.74
1549,-20,-4,-3,-5,-2,-4,-4,10,7.745
1550,13,8,7,5,2,2,-1,1,7.75
1551,-11,-3,-3,3,-3,-3,-1,-8,7.755
1552,6,1,-1,4,-1,2,0,8,7.76
1553,13,0,3,0,0,1,7,-2,7.765000000000001
1554,2,-1,-7,0,-1,1,5,-3,7.7700000000000005
1555,-7,-5,4,-1,4,-1,-3,0,7.775
1556,2,8,5,1,1,-1,-5,12,7.78
1557,-5,-3,3,-1,-2,0,-3,10,7.785
1558,-3,-6,-27,-20,-8,-5,-6,-19,7.79
1559,9,3,8,-1,0,2,-1,-9,7.795
1560,-5,-5,-9,-1,0,-4,-4,-7,7.8
1561,6,1,7,5,0,0,1,7,7.805000000000001
1562,-1,-6,9,15,2,1,-1,10,7.8100000000000005
1563,-17,-2,-19,-23,-6,-3,-4,-12,7.815
1564,1,-8,7,0,-2,-2,0,-11,7.82
1565,-12,-10,-3,0,0,-1,-2,-5,7.825
1566,7,4,1,-7,-3,-3,1,13,7.83
1567,-2,-7,-6,0,1,1,-2,0,7.835
1568,0,-1,6,5,-1,0,3,8,7.84
1569,-6,1,-3,-1,-6,-6,1,-21,7.845
1570,-4,0,-7,-10,-3,1,-3,5,7.8500000000000005
1571,7,-7,6,5,0,0,0,6,7.855
1572,3,-3,-5,-1,0,0,-5,-5,7.86
1573,-4,7,0,-5,1,0,8,-5,7.865
1574,6,2,4,6,-1,-3,-2,17,7.87
1575,1,7,2,3,1,2,-1,1,7.875
1576,1,-3,-14,-18,-5,-2,3,5,7.88
1577,5,0,0,2,0,-1,-11,8,7.885
1578,-8,-4,12,5,3,-1,2,-24,7.890000000000001
1579,2,-4,-11,6,1,0,3,-3,7.8950000000000005
1580,7,0,2,-1,-3,1,1,1,7.9
1581,-8,5,0,-2,-2,-2,-3,-8,7.905
1582,-6,-2,-3,-7,-3,-4,-8,5,7.91
1583,-1,-1,3,4,-1,-1,3,1,7.915
1584,-5,0,4,14,2,-1,-1,-6,7.92
1585,1,-5,-5,-15,-3,-2,0,6,7.925
1586,2,-3,-12,-13,-2,0,7,-2,7.930000000000001
1587,-2,3,6,2,1,-3,-4,-2,7.9350000000000005
1588,6,3,-9,1,-2,0,-4,9,7.94
1589,6,2,8,4,0,-1,-6,-2,7.945
1590,-6,-6,-5,-2,-4,1,7,-7,7.95
1591,-3,3,6,1,2,0,0,4,7.955
1592,-3,-1,1,1,1,0,0,2,7.96
1593,-8,-8,-8,-2,-4,-1,-6,-8,7.965
1594,2,-3,2,-2,0,2,-1,-1,7.97
1595,2,1,-4,-5,-4,-4,-4,2,7.9750000000000005
1596,2,4,5,5,1,0,1,-1,7.98
1597,0,3,2,1,1,0,4,0,7.985
1598,-2,-3,-5,3,-1,-3,-1,2,7.99
1599,1,2,-1,-9,-2,-1,-2,2,7.995
1600,-8,-8,-3,-3,-2,-2,-1,-1,8.0
1601,1,-7,-6,-3,1,1,-12,9,8.005
1602,10,7,5,2,2,2,8,7,8.01
1603,5,4,-6,-5,-3,-2,3,-1,8.015
1604,-12,-13,9,14,3,1,0,-7,8.02
1605,-2,-1,-18,-13,-4,2,7,-6,8.025
1606,-2,1,13,17,2,-4,-11,-1,8.03
1607,-4,2,-5,-9,-1,-3,-5,-5,8.035
1608,0,7,10,1,0,-2,-1,1,8.040000000000001
1609,-12,-4,-5,0,-2,-4,-3,-13,8.045
1610,9,-9,-8,-9,-4,-1,3,4,8.05
1611,-1,-10,1,8,0,0,-1,4,8.055
1612,-13,-2,-2,0,-1,0,3,-14,8.06
1613,11,4,3,2,3,0,-3,-12,8.065
1614,3,5,-3,0,0,-2,-2,16,8.07
1615,-7,-4,0,2,-2,-2,-2,-4,8.075
1616,0,-1,-4,-6,-2,0,-3,-3,8.08
1617,4,2,3,0,0,2,-1,1,8.085
1618,-1,0,-2,-3,-1,-4,-5,8,8.09
1619,1,-1,5,3,1,3,7,8,8.095
1620,2,2,-2,0,0,-2,-2,-1,8.1
1621,1,3,-3,-2,-4,-4,0,-3,8.105
1622,-4,-2,0,-7,2,1,-5,-7,8.11
1623,-5,-2,4,5,1,0,0,5,8.115
1624,3,-2,-2,6,0,0,1,-3,8.120000000000001
1625,3,4,-6,-16,-6,-2,3,7,8.125
1626,-2,8,0,0,0,0,1,0,8.13
1627,-7,-13,0,14,-1,-1,-1,-6,8.135
1628,0,-3,-6,-6,0,1,-4,-3,8.14
1629,1,1,-7,-21,-7,-2,2,1,8.145
1630,2,3,1,-4,2,3,2,1,8.15
1631,-2,1,0,-1,-1,-1,-3,-3,8.155
1632,0,1,1,9,1,-2,-2,0,8.16
1633,-4,-4,4,9,2,0,-1,2,8.165000000000001
1634,-3,0,-1,-5,-5,-1,-2,-8,8.17
1635,0,-2,-2,1,2,0,0,-8,8.175
1636,-3,-7,0,0,-1,0,-1,4,8.18
1637,5,3,-2,-2,2,-1,2,8,8.185
1638,-6,-5,1,3,-2,-3,-5,-8,8.19
1639,-4,-2,-2,-2,-2,-1,-1,0,8.195
1640,4,6,0,-8,1,3,6,5,8.2
1641,-4,-3,5,10,0,0,-4,-4,8.205
1642,-1,-3,-1,5,1,-2,-1,-1,8.21
1643,1,0,-8,-6,-2,-3,-5,-4,8.215
1644,1,3,-4,-12,-4,-3,-3,-4,8.22
1645,-6,-7,3,9,2,1,5,4,8.225
1646,-4,-1,-3,-3,0,3,4,-4,8.23
1647,5,8,3,-2,-1,-4,-9,-2,8.235
1648,2,-1,-2,-2,-2,-1,0,2,8.24
1649,0,-5,-1,3,1,-1,-3,-1,8.245000000000001
1650,-3,0,0,-3,-5,-1,1,-3,8.25
1651,0,0,-3,-5,1,2,-1,-1,8.255
1652,3,2,0,0,2,0,0,1,8.26
1653,-3,-1,2,1,1,-3,-1,-2,8.265
1654,-2,0,-3,-1,-1,-1,-2,0,8.27
1655,0,-2,1,-4,-1,0,0,1,8.275
1656,-2,0,1,-2,0,-3,-3,-3,8.28
1657,-3,-3,-2,2,1,1,1,-5,8.285
1658,-1,-3,-2,0,-1,-3,0,10,8.290000000000001
1659,2,2,-1,0,-2,0,1,0,8.295
1660,0,-2,-2,-1,-2,-2,-4,-3,8.3
1661,3,3,3,2,0,2,5,1,8.305
1662,-3,-6,-5,-1,-4,-3,-3,-6,8.31
1663,-2,1,-2,-4,-4,0,-1,1,8.315
1664,-1,0,0,0,1,-2,2,-2,8.32
1665,-4,-6,-1,1,0,-1,-6,-3,8.325
1666,1,-1,-3,-1,-2,1,3,-3,8.33
1667,-3,-8,-5,-3,-2,-2,1,0,8.335
1668,0,-2,-4,-3,-1,0,-4,-1,8.34
1669,0,2,0,1,-2,-1,-4,-2,8.345
1670,0,3,-1,-2,2,-1,2,-7,8.35
1671,-1,0,3,3,1,1,0,3,8.355
1672,3,-3,-5,-2,-1,-2,-2,3,8.36
1673,-2,-3,-1,-2,-2,-2,-3,3,8.365
1674,3,3,0,-1,-1,2,5,4,8.370000000000001
1675,-2,-4,-2,-2,2,1,0,-1,8.375
1676,-2,-1,0,0,-3,0,-4,-6,8.38
1677,3,5,1,4,2,1,1,1,8.385
1678,-1,-1,0,2,1,-1,-6,-5,8.39
1679,-4,-9,-2,-1,0,-1,4,1,8.395
1680,-3,-4,-2,-1,-2,-2,0,-2,8.4
1681,-5,-6,-1,-3,-3,-3,-2,-5,8.405
1682,2,2,1,-4,0,0,-3,3,8.41
1683,4,3,-1,0,3,1,2,-2,8.415000000000001
1684,3,5,0,-1,-1,0,3,1,8.42
1685,2,-4,-2,-2,0,-1,-1,-1,8.425
1686,-2,-9,-5,-2,0,0,-1,-1,8.43
1687,-1,2,1,0,-3,-2,-3,-1,8.435
1688,-1,0,-2,-3,-2,0,-1,-2,8.44
1689,-2,0,1,1,1,0,-1,2,8.445
1690,-2,5,6,2,-2,-1,-1,-1,8.45
1691,-2,-9,-7,-4,0,0,-2,-5,8.455
1692,6,2,-1,1,0,0,1,2,8.46
1693,4,3,0,1,1,1,0,2,8.465
1694,0,1,0,1,1,3,0,-2,8.47
1695,-3,3,2,0,-2,0,0,-9,8.475
1696,-6,-3,-2,-2,-2,-3,-2,7,8.48
1697,-1,5,-1,-1,-2,0,3,-1,8.485
1698,-5,0,-4,-2,-2,-4,-5,3,8.49
1699,2,4,2,0,-1,0,2,9,8.495000000000001
1700,-4,-6,-2,-2,2,2,-2,-5,8.5
1701,-7,-1,2,-1,-1,-1,3,-1,8.505
1702,-3,-3,-2,0,-2,-3,-3,-5,8.51
1703,0,0,0,-1,-2,0,-2,-3,8.515
1704,-4,-5,-2,0,0,0,1,-2,8.52
1705,-1,1,-1,0,-2,-1,-2,-1,8.525
1706,4,-1,-1,1,1,2,2,-2,8.53
1707,0,-1,-1,-2,-2,-4,-3,-2,8.535
1708,0,2,3,1,-1,0,-1,0,8.540000000000001
1709,-4,-5,0,1,-3,-2,2,-1,8.545
1710,0,0,-3,0,-2,-1,-1,0,8.55
1711,1,1,-4,-4,-3,-2,-3,4,8.555
1712,-14,2,6,2,1,-2,-5,-2,8.56
1713,-18,-6,-5,-6,-4,-2,1,-3,8.565
1714,-8,-3,0,-3,0,-1,-2,4,8.57
1715,0,3,-1,2,0,1,3,-1,8.575000000000001
1716,7,-3,-3,-2,-2,-2,-1,-2,8.58
1717,12,4,-1,0,-1,0,-4,-3,8.585
1718,2,-5,0,0,0,-2,-1,-1,8.59
1719,3,-3,0,-1,-1,-2,-2,-2,8.595
1720,11,-1,-2,-3,-2,-1,4,0,8.6
1721,8,-6,-1,0,-1,-3,-2,0,8.605
1722,3,0,0,0,-1,-1,0,-3,8.61
1723,-3,0,0,-1,-4,-1,-1,-1,8.615
1724,-5,0,2,1,1,0,-2,0,8.620000000000001
1725,-5,-5,-2,2,2,0,1,-8,8.625
1726,-1,-3,-1,0,-1,0,-3,8,8.63
1727,-1,0,1,0,-1,-1,-1,-1,8.635
1728,-2,-8,-5,-3,-6,-3,-2,3,8.64
1729,2,-4,-4,-2,-2,1,0,-5,8.645
1730,3,3,1,0,2,0,1,-2,8.65
1731,-6,-10,-3,-1,0,-1,2,-1,8.655
1732,-4,2,3,0,2,0,-1,-11,8.66
1733,-5,-3,-5,-2,-1,-2,-3,6,8.665000000000001
1734,-6,-6,-2,-1,-1,4,4,0,8.67
1735,4,1,-2,-3,0,1,2,4,8.675
1736,0,2,1,0,-1,1,0,1,8.68
1737,0,1,4,-1,0,-2,-3,1,8.685
1738,-1,6,2,-1,1,-3,-6,-7,8.69
1739,-4,3,0,0,0,0,-1,-1,8.695
1740,-12,-3,0,3,-2,-1,0,-2,8.700000000000001
1741,3,-1,-3,-2,-1,-1,-2,0,8.705
1742,-4,-4,-1,-2,-3,0,1,0,8.71
1743,-4,-2,-1,-1,-2,0,0,-3,8.715
1744,1,0,1,0,1,-3,-6,1,8.72
1745,1,2,1,0,0,0,0,2,8.725
1746,7,1,0,-1,1,-2,-1,-2,8.73
1747,4,6,0,1,1,-1,-3,-1,8.735
1748,1,-2,-6,-3,-2,0,1,0,8.74
1749,2,0,1,-3,-3,0,-1,1,8.745000000000001
1750,2,-1,-3,-1,-2,0,0,-4,8.75
1751,1,-2,0,0,-3,0,-4,-13,8.755
1752,3,-2,-5,-2,-1,-2,2,-1,8.76
1753,3,-3,-2,-1,1,1,4,13,8.765
1754,-1,-4,0,0,-2,1,-2,-2,8.77
1755,-7,1,-1,-1,-2,-1,-1,2,8.775
1756,3,6,2,3,-1,0,0,-4,8.78
1757,-3,-1,1,2,-1,-1,-1,-9,8.785
1758,-4,-7,-3,-2,-1,-4,-4,0,8.790000000000001
1759,6,0,0,-1,1,-2,-1,1,8.795
1760,0,-1,-1,-2,1,-1,-1,-2,8.8
1761,0,6,0,-1,-2,-1,0,1,8.805
1762,-6,-1,-1,-2,-1,0,-2,-3,8.81
1763,-2,1,-4,-3,-1,-2,-2,-1,8.815
1764,2,-4,-3,-2,-3,2,-3,5,8.82
1765,-3,-2,-1,-1,-3,-4,2,-1,8.825000000000001
1766,2,5,2,0,1,2,-2,-2,8.83
1767,0,2,1,2,0,0,1,2,8.835
1768,-1,1,1,-1,0,-2,-2,-9,8.84
1769,-5,-3,-2,1,-2,-2,-3,2,8.845
1770,-1,-2,-2,-3,-2,-2,3,5,8.85
1771,0,-1,-1,-1,-1,1,2,2,8.855
1772,2,-3,-2,-1,-1,-1,0,3,8.86
1773,-4,-3,-2,1,0,-1,-3,-9,8.865
1774,4,2,0,2,-1,-3,-6,-13,8.870000000000001
1775,1,-2,0,-2,0,1,0,7,8.875
1776,-4,4,3,1,0,-1,0,2,8.88
1777,-8,-4,-3,-2,-2,-1,-2,-1,8.885
1778,-3,0,-2,-1,-2,0,1,3,8.89
1779,0,-3,0,-2,-1,-2,-2,-4,8.895
1780,-1,-2,1,-1,0,1,1,-3,8.9
1781,9,1,0,-2,-1,1,-3,1,8.905
1782,11,0,-3,-1,-1,-3,-2,0,8.91
1783,-4,-3,-2,-1,-2,0,2,-3,8.915000000000001
1784,-13,-2,-1,-1,0,-3,-4,2,8.92
1785,-9,1,-1,-2,0,0,0,-1,8.925
1786,-7,-3,-1,-3,-1,2,5,-2,8.93
1787,-2,-3,-1,-2,-2,-5,-8,-2,8.935
1788,0,-2,-2,0,-1,1,1,-9,8.94
1789,-3,-8,-1,-3,-2,1,2,4,8.945
1790,3,3,1,0,1,-2,-1,9,8.950000000000001
1791,-1,-1,-3,0,-2,0,0,-2,8.955
1792,0,-1,-3,-1,-3,-5,-4,-2,8.96
1793,-2,-2,-1,-1,-2,-1,-1,-5,8.965
1794,21,-1,0,-2,-1,-1,-1,-4,8.97
1795,16,1,0,-3,-2,-1,2,2,8.975
1796,8,1,-2,-1,0,0,2,1,8.98
1797,4,4,1,1,2,0,-2,-1,8.985
1798,-15,0,-1,-2,-1,-2,0,1,8.99
1799,-8,-1,-1,1,1,1,-4,-3,8.995000000000001
1800,-3,0,-3,-3,-3,-1,0,3,9.0
1801,-5,-1,0,0,0,0,0,-2,9.005
1802,-9,-2,-2,1,0,-1,-3,-3,9.01
1803,-4,0,-2,0,0,-1,-2,-2,9.015
1804,-3,-1,2,-1,0,1,2,2,9.02
1805,-4,-6,-3,0,1,0,-5,-2,9.025
1806,-2,2,2,1,0,-1,-1,-1,9.03
1807,-1,2,-2,0,-2,-1,0,-1,9.035
1808,-1,-1,-2,0,0,0,0,1,9.040000000000001
1809,4,1,0,-1,-1,-2,-1,-1,9.045
1810,-2,-4,-1,0,0,0,-1,0,9.05
1811,-3,-1,0,-1,-1,0,-1,0,9.055
1812,3,3,0,-1,-2,0,-3,0,9.06
1813,3,3,-1,-2,0,1,2,0,9.065
1814,-6,-1,-5,-3,-1,-2,-2,-2,9.07
1815,1,1,0,-2,-1,0,1,1,9.075000000000001
1816,-1,-8,-4,0,-1,0,-1,-1,9.08
1817,0,-1,0,0,0,-2,-2,-2,9.085
1818,-1,2,2,0,-3,-2,-2,0,9.09
1819,-3,-2,-2,1,-1,1,-3,-3,9.095
1820,1,1,-1,1,-2,0,3,-4,9.1
1821,-3,2,-2,-1,0,-1,0,0,9.105
1822,-1,-3,-3,-4,-2,0,-2,3,9.11
1823,4,5,1,0,0,-1,1,4,9.115
1824,-1,-4,-2,-3,-1,0,1,0,9.120000000000001
1825,1,1,-1,0,0,-1,1,2,9.125
1826,-2,3,2,-2,-1,0,-2,-4,9.13
1827,-3,-9,-4,-1,-2,-4,-4,-1,9.135
1828,4,3,-1,-2,0,0,-1,1,9.14
1829,-1,-1,-2,-1,-3,1,0,-7,9.145
1830,-3,-5,-1,1,0,0,1,-1,9.15
1831,-3,-3,0,-1,-1,1,2,-1,9.155
1832,-2,-1,-1,0,0,-4,-1,-1,9.16
1833,2,2,-1,-2,-1,-2,-2,1,9.165000000000001
1834,2,2,-2,1,-1,0,-2,0,9.17
1835,2,3,1,0,0,2,1,-1,9.175
1836,-3,-3,-4,-3,-1,-3,-1,0,9.18
1837,1,-2,-4,-2,-2,-2,-2,-7,9.185
1838,-5,-4,-4,-2,-2,-2,-2,3,9.19
1839,-2,-2,-1,1,-1,-1,-1,-6,9.195
1840,0,-2,0,0,0,0,-2,12,9.200000000000001
1841,3,7,3,-2,-2,2,-1,-2,9.205
1842,-1,-7,-4,0,-2,-1,1,-1,9.21
1843,-8,-12,-1,-1,-2,-2,-2,-6,9.215
1844,-3,2,0,-1,-2,1,1,-3,9.22
1845,3,5,1,0,1,-1,0,2,9.225
1846,3,3,2,0,2,-1,-5,-3,9.23
1847,0,0,-1,-1,-1,-1,0,1,9.235
1848,0,0,1,-1,-2,-1,-2,-4,9.24
1849,-2,-3,-1,1,-3,-1,-2,1,9.245000000000001
1850,2,2,0,0,-1,-2,2,0,9.25
1851,-3,-5,-4,-1,-2,1,0,0,9.255
1852,-2,-1,-1,-3,-2,0,-1,-3,9.26
1853,0,2,3,2,1,0,3,1,9.265
1854,-5,-6,-3,-3,0,-2,-4,-2,9.27
1855,0,1,-4,-3,-1,-4,2,1,9.275
1856,-4,-2,0,0,-1,0,-2,-7,9.28
1857,-5,-5,0,-1,0,-2,-3,1,9.285
1858,0,-4,-2,0,-1,2,4,7,9.290000000000001
1859,-2,-1,-1,-1,0,0,-3,-2,9.295
1860,0,-4,-2,0,-1,-1,-1,-3,9.3
1861,-4,-6,-3,-3,0,-1,0,-4,9.305
1862,0,1,1,1,0,1,1,-3,9.31
1863,4,-1,0,-1,1,0,-1,1,9.315
1864,-1,-4,-4,-2,-1,-2,0,-5,9.32
1865,3,-1,-3,-2,-2,-2,-4,1,9.325000000000001
1866,7,4,0,-1,-3,1,4,-5,9.33
1867,-2,2,1,1,0,1,0,5,9.335
1868,-4,-5,-4,-1,1,-1,-2,8,9.34
1869,0,3,0,0,-1,-1,0,-1,9.345
1870,0,-4,-4,0,0,-1,0,-1,9.35
1871,2,-3,0,0,-2,0,-1,-6,9.355
1872,1,5,2,0,0,-2,-2,-2,9.36
1873,2,2,0,-1,0,0,-1,5,9.365
1874,-3,-4,-3,0,-3,-1,-1,-3,9.370000000000001
1875,2,1,1,0,-1,-1,-1,2,9.375
1876,0,-1,1,1,0,-1,0,-7,9.38
1877,-2,-4,-3,-3,-2,-3,-3,5,9.385
1878,-1,1,1,-3,-2,0,1,0,9.39
1879,-2,0,0,1,1,-1,-5,-1,9.395
1880,6,5,1,0,-1,0,2,2,9.4
1881,2,4,0,-1,1,0,1,-5,9.405
1882,-3,-2,0,-1,0,-1,-2,-3,9.41
1883,-1,1,1,0,0,-1,-4,-1,9.415000000000001
1884,-1,3,-1,-1,1,0,0,-6,9.42
1885,2,3,2,1,-1,1,1,0,9.425
1886,4,-2,-4,-2,-2,1,1,8,9.43
1887,-3,-1,-1,-1,-3,1,2,-4,9.435
1888,0,3,-2,-2,-1,-1,-3,0,9.44
1889,-3,-3,-2,-1,-1,0,1,-2,9.445
1890,-4,2,1,1,1,-1,-2,-2,9.450000000000001
1891,8,16,2,0,0,0,-1,2,9.455
1892,-2,-6,-4,1,-3,0,-2,2,9.46
1893,-2,-3,-3,-3,-3,-3,-3,-2,9.465
1894,-1,-1,-1,-2,3,0,1,-14,9.47
1895,-1,-3,-4,0,0,-5,0,6,9.475
1896,-2,1,-1,-1,0,-1,0,4,9.48
1897,-1,-1,-2,-2,-1,0,-1,1,9.485
1898,0,5,0,0,-3,-1,-2,0,9.49
1899,-5,-5,-2,-2,-1,0,-1,-6,9.495000000000001
1900,1,0,1,-1,-3,1,0,0,9.5
1901,0,-1,0,1,-1,-1,-3,-2,9.505
1902,-2,1,1,-1,-2,0,-2,-1,9.51
1903,-3,-9,-4,-4,-2,1,2,-1,9.515
1904,-1,-4,0,1,2,0,3,0,9.52
1905,1,-1,-3,-4,-1,0,0,-1,9.525
1906,0,1,2,0,0,-2,-1,0,9.53
1907,-2,1,1,-2,1,0,-1,-10,9.535
1908,-1,3,-1,-1,-1,-1,-3,2,9.540000000000001
1909,2,0,-2,-1,-1,-2,0,3,9.545
1910,-1,-3,0,-1,0,-2,-1,1,9.55
1911,-2,-4,-4,-2,0,1,-3,1,9.555
1912,0,1,2,0,1,3,4,-8,9.56
1913,-2,1,-3,0,-1,-1,2,8,9.565
1914,-3,-5,-1,0,0,-2,-1,3,9.57
1915,6,4,1,0,-1,-2,1,4,9.575000000000001
1916,-4,-2,0,-2,-2,0,-3,-2,9.58
1917,-1,-2,-1,-2,-2,-2,-4,-4,9.585
1918,-3,-4,-1,0,0,-1,2,0,9.59
1919,-3,0,3,2,0,-2,-2,0,9.595
1920,0,0,-2,-3,-2,-2,-1,1,9.6
1921,-3,-3,-1,-3,-2,0,-1,-4,9.605
1922,0,1,-1,0,1,0,-2,-3,9.61
1923,-2,-2,-2,0,0,0,1,-1,9.615
1924,0,-4,-1,-1,-1,-1,-3,1,9.620000000000001
1925,-5,-2,-2,-2,0,-1,2,-5,9.625
1926,0,2,1,0,0,-2,-2,1,9.63
1927,0,0,0,1,1,1,0,2,9.635
1928,-1,-3,0,-1,-1,-2,-3,-1,9.64
1929,-1,0,2,1,0,-1,0,1,9.645
1930,-1,-3,-1,-1,0,1,-1,-2,9.65
1931,0,-2,-4,-3,-2,0,-1,-2,9.655
1932,1,1,1,-2,-3,-2,0,2,9.66
1933,-2,-3,0,-2,-1,-1,-2,-4,9.665000000000001
1934,-1,1,-1,0,-3,0,-1,0,9.67
1935,-3,-2,-3,-2,-1,-2,-2,0,9.675
1936,-2,-7,-2,-1,-2,0,0,0,9.68
1937,0,-1,0,0,0,0,1,-1,9.685
1938,0,1,1,-1,-1,0,-1,-1,9.69
1939,-1,-2,-2,0,-1,-1,-2,1,9.695
1940,-1,0,1,-1,0,-3,-2,0,9.700000000000001
1941,-1,0,-3,-1,0,-1,-2,-2,9.705
1942,-1,-2,-2,-1,-1,0,-1,0,9.71
1943,1,1,0,0,-4,0,0,-3,9.715
1944,-1,2,0,1,1,-1,1,0,9.72
1945,0,3,0,-2,-1,1,-3,-1,9.725
1946,-1,2,-1,0,-1,0,-3,0,9.73
1947,-1,-2,-2,1,1,0,-2,-4,9.735
1948,0,-1,1,0,1,0,1,1,9.74
1949,-1,0,1,0,-1,-3,-2,0,9.745000000000001
1950,0,0,-1,-1,-2,-1,0,-1,9.75
1951,0,2,-4,-4,-1,-1,0,1,9.755
1952,-2,-2,-2,0,-2,-4,-4,-4,9.76
1953,-1,-2,-1,1,2,2,1,-2,9.765
1954,-2,-2,0,-1,0,-2,-4,-1,9.77
1955,-2,-1,-1,-1,-1,-2,-2,-1,9.775
1956,3,6,-1,-2,-1,1,3,0,9.78
1957,1,-1,-1,2,-2,1,-1,1,9.785
1958,-3,-1,-1,-3,0,-3,-1,0,9.790000000000001
1959,-1,-1,4,-1,0,1,-1,-2,9.795
1960,4,2,1,0,-2,1,-1,6,9.8
1961,-1,-3,0,1,-1,0,-1,0,9.805
1962,4,3,1,-2,0,-2,0,-4,9.81
1963,-2,-1,-1,-2,1,-2,-2,1,9.815
1964,-3,-4,0,2,0,0,-1,-4,9.82
1965,-2,-6,-1,-4,-2,-1,-4,-2,9.825000000000001
1966,-5,-2,0,1,-1,0,4,-3,9.83
1967,3,-1,1,-1,-3,-4,-2,-2,9.835
1968,0,-1,-2,-1,-2,0,-1,0,9.84
1969,2,-2,1,1,1,-2,-1,0,9.845
1970,0,-1,0,-1,0,-2,-1,1,9.85
1971,-2,-2,-3,-1,0,-1,-1,-1,9.855
1972,3,2,-2,0,0,1,-3,-1,9.86
1973,-3,-2,-3,-3,0,-1,-1,-1,9.865
1974,1,0,0,-2,-1,0,-1,-1,9.870000000000001
1975,2,3,2,2,-1,-1,1,1,9.875
1976,-4,-2,-3,-2,-2,-5,-1,-1,9.88
1977,-1,-3,-3,-2,-3,-1,0,-4,9.885
1978,-1,-1,-1,0,-2,1,-4,1,9.89
1979,-2,-3,-3,-3,-1,-1,2,1,9.895
1980,-2,-2,-1,1,1,-1,-1,-1,9.9
1981,2,5,1,-1,-1,-1,2,-2,9.905
1982,-1,-1,-2,-2,0,0,0,-13,9.91
1983,-2,-4,0,1,-1,0,-2,6,9.915000000000001
1984,1,-1,-1,-1,0,-1,-1,5,9.92
1985,1,8,2,0,0,-3,-1,1,9.925
1986,-1,-3,-1,2,-1,-1,-3,4,9.93
1987,-2,-1,0,-2,1,-1,1,-5,9.935
1988,-1,-1,1,-1,-1,0,-1,-4,9.94
1989,-1,-1,0,1,0,0,0,1,9.945
1990,2,2,0,-2,-2,-1,0,-1,9.950000000000001
1991,0,-2,1,0,-5,-1,-3,-2,9.955
1992,-2,1,0,1,0,-1,-2,-1,9.96
1993,-2,-2,-2,-1,-2,-1,-2,-1,9.965
1994,0,-1,-1,0,-1,-1,-1,-1,9.97
1995,-1,-2,-2,-3,0,-1,0,-2,9.975
1996,-2,0,2,-2,-1,-1,-2,-3,9.98
1997,-1,-4,-2,1,0,2,0,0,9.985
1998,-2,-1,-1,0,0,-1,0,0,9.99
1999,1,3,0,0,-1,-1,-1,0,9.995000000000001
2000,-3,-7,-5,-4,-3,0,-1,-2,10.0
2001,-4,-5,-2,0,0,-4,-3,-1,10.005
2002,-1,0,2,0,0,-1,2,1,10.01
2003,0,3,-1,-1,0,1,0,-2,10.015
2004,2,2,-1,-1,-1,-2,-2,0,10.02
2005,0,-3,-3,-1,-3,-1,1,-1,10.025
2006,-1,-7,-2,-3,-3,-1,-2,1,10.03
2007,0,1,0,-1,-2,-2,-2,-2,10.035
2008,1,4,-1,-1,3,1,-2,-11,10.040000000000001
2009,-1,-5,-1,-1,0,-1,0,2,10.045
2010,-2,2,2,0,-1,-2,0,3,10.05
2011,-4,-5,-4,1,0,4,1,5,10.055
2012,-1,-1,-1,-1,-2,-1,2,-3,10.06
2013,5,8,0,-1,0,1,-2,-5,10.065
2014,-1,-4,-3,-2,-1,-2,-2,-5,10.07
2015,2,-2,-1,3,1,-1,0,4,10.075000000000001
2016,1,0,0,0,1,0,-1,3,10.08
2017,0,1,-1,1,0,-1,-1,-1,10.085
2018,0,-2,-1,0,-1,2,0,2,10.09
2019,-3,-2,0,-3,0,-3,-3,-9,10.095
2020,-1,0,-2,0,1,1,0,4,10.1
2021,-4,-2,1,-4,0,-2,0,-1,10.105
2022,1,-2,-3,-1,0,-1,0,6,10.11
2023,0,0,1,-2,-1,-1,-2,5,10.115
2024,0,-1,0,-1,-3,-1,2,-2,10.120000000000001
2025,-1,0,1,-1,-3,0,-1,-1,10.125
2026,0,1,-3,0,1,1,-1,-3,10.13
2027,-2,-3,-3,0,-1,-1,0,-3,10.135
2028,0,2,1,0,-1,-3,-1,3,10.14
2029,-3,-3,-3,0,0,-1,-1,-2,10.145
2030,2,1,-1,-1,-2,-2,-4,-3,10.15
2031,0,2,2,1,3,1,4,1,10.155
2032,-2,1,-1,-1,-2,-2,-4,-1,10.16
2033,-5,-7,-1,-3,-4,-3,-1,-2,10.165000000000001
2034,1,-2,1,1,-2,-3,0,-1,10.17
2035,0,2,0,-1,1,0,-1,-1,10.175
2036,-2,-1,-3,-2,0,2,2,0,10.18
2037,1,5,1,1,1,1,0,1,10.185
2038,-5,-4,-3,-5,-2,-5,-2,0,10.19
2039,5,7,-2,0,-3,-3,-2,1,10.195
2040,-2,-2,-1,-1,0,-1,-2,0,10.200000000000001
2041,-1,0,1,-1,2,0,-2,-2,10.205
2042,5,3,2,1,0,1,2,4,10.21
2043,-3,-2,-1,0,-2,0,-1,-4,10.215
2044,-1,-4,-1,-2,-2,-2,-1,-1,10.22
2045,0,0,-2,0,0,-2,0,-8,10.225
2046,-3,-3,-2,-1,1,0,0,7,10.23
2047,0,-1,0,-3,-2,-1,-1,1,10.235
2048,-4,-3,-2,0,-2,-1,-2,0,10.24
2049,-1,1,0,0,-2,0,1,-1,10.245000000000001
2050,-1,1,0,0,0,-2,-2,-5,10.25
2051,-3,-3,0,1,0,0,-1,-1,10.255
2052,-1,-7,-6,-3,-1,-1,-1,-1,10.26
2053,2,3,2,0,-1,-2,-1,2,10.265
2054,-1,1,1,-1,-1,-2,-2,-4,10.27
2055,-4,-10,-2,1,-3,-1,-2,-4,10.275
2056,2,0,0,-1,-1,-1,2,2,10.28
2057,0,-2,-2,-2,-1,0,2,0,10.285
2058,-2,0,-1,1,4,3,0,1,10.290000000000001
2059,-2,0,-1,-2,-1,-2,0,-2,10.295
2060,-3,-7,-1,-2,-1,1,6,7,10.3
2061,1,-1,-2,3,1,0,-9,-11,10.305
2062,-3,-4,-2,-3,-2,-3,-3,-7,10.31
2063,0,3,0,-2,1,0,-4,-5,10.315
2064,-1,-1,-2,-2,0,-2,-1,3,10.32
2065,1,0,0,0,1,0,3,-1,10.325000000000001
2066,-2,-6,-2,0,0,-1,-1,6,10.33
2067,3,-1,-2,-1,-3,2,1,2,10.335
2068,-2,0,2,-2,-2,-2,-3,-1,10.34
2069,-3,0,1,-1,-1,-2,-7,4,10.345
2070,2,4,-3,-2,-3,2,2,-8,10.35
2071,-2,-4,-1,0,-1,0,0,0,10.355
2072,1,-3,-1,0,0,2,1,-1,10.36
2073,0,-3,-2,-1,0,-1,0,-5,10.365
2074,-3,-2,-1,-3,-3,-2,-2,-1,10.370000000000001
2075,2,6,2,3,1,0,0,1,10.375
2076,-1,0,-1,-1,0,-1,-3,-6,10.38
2077,0,2,0,0,-1,0,1,3,10.385
2078,-1,-1,0,-1,-2,-1,-1,1,10.39
2079,1,1,-2,-3,-4,-3,1,2,10.395
2080,3,3,0,0,-2,-1,-3,-4,10.4
2081,0,2,0,-1,-3,-2,0,2,10.405
2082,-2,0,-1,1,2,-1,-2,-1,10.41
2083,-1,-4,-2,-2,0,-3,-3,-3,10.415000000000001
2084,0,2,1,0,2,-1,1,1,10.42
2085,-1,-7,-2,-1,-1,1,1,7,10.425
2086,-2,-3,-2,-3,-3,-2,-1,-2,10.43
2087,-2,-2,0,3,0,0,-3,12,10.435
2088,-1,0,0,2,-1,0,1,-6,10.44
2089,-2,-1,-2,-1,-2,-1,1,2,10.445
2090,-1,0,-2,1,0,-2,-2,-3,10.450000000000001
2091,-1,-4,-3,-4,-1,-2,-6,-5,10.455
2092,1,5,2,0,-2,0,2,0,10.46
2093,-5,-6,-6,-2,-2,-2,-1,-2,10.465
2094,3,3,-1,1,-1,0,0,-1,10.47
2095,-4,-3,-2,-3,-4,-3,0,-4,10.475
2096,-2,-2,-3,-1,-1,1,-3,0,10.48
2097,2,3,2,-6,-2,0,1,2,10.485
2098,-1,-4,1,2,-1,-1,-2,-2,10.49
2099,1,-2,-6,-2,0,0,1,-2,10.495000000000001
2100,2,3,2,0,-1,-2,-1,0,10.5
2101,-5,-1,-1,-2,0,-1,-3,-17,10.505
2102,-2,-2,1,1,1,-1,0,12,10.51
2103,-1,4,0,-1,1,-1,1,-1,10.515
2104,0,-3,-3,-2,-3,-1,-4,1,10.52
2105,1,2,-1,1,-1,0,3,0,10.525
2106,1,4,2,-4,-4,-1,1,-5,10.53
2107,-3,-7,-4,-1,1,-1,-4,-6,10.535
2108,-2,1,-1,-1,-1,-2,-2,0,10.540000000000001
2109,2,0,0,-1,2,-1,1,2,10.545
2110,0,-2,-2,-1,-2,-1,0,-4,10.55
2111,-4,0,1,-1,-2,2,1,0,10.555
2112,-3,-3,-1,-2,-1,0,-2,4,10.56
2113,2,-2,0,-1,1,-1,-2,0,10.565
2114,-1,1,0,-1,-2,-1,0,2,10.57
2115,1,1,1,-1,-2,-2,-1,-1,10.575000000000001
2116,-2,-1,-3,-1,-2,-1,-2,-4,10.58
2117,-3,-3,1,2,0,-2,-1,-3,10.585
2118,2,0,-1,0,-1,2,0,-5,10.59
2119,1,-2,1,-1,-3,-1,0,7,10.595
2120,0,2,2,0,0,-2,-1,-2,10.6
2121,-5,-6,-5,-2,-1,-1,1,5,10.605
2122,0,-1,0,-1,1,-1,-1,-4,10.61
2123,-3,-1,1,0,-1,1,-2,-3,10.615
2124,-1,-1,-2,0,1,-1,0,-2,10.620000000000001
2125,0,2,0,-1,-1,-1,-1,0,10.625
2126,-1,-1,-1,0,1,1,-2,-2,10.63
2127,1,3,2,1,0,0,1,0,10.635
2128,0,1,-2,-2,0,-2,-1,-3,10.64
2129,-2,-6,-2,-1,-1,-3,-1,-1,10.645
2130,-1,-2,-1,1,-2,0,0,2,10.65
2131,0,-2,-1,-1,-1,-2,1,-1,10.655
2132,0,-4,0,0,-1,0,-2,-3,10.66
2133,0,1,0,-2,-1,0,-3,-1,10.665000000000001
2134,0,-1,-3,-3,-2,-3,-1,-1,10.67
2135,-2,1,1,1,0,-1,0,-3,10.675
2136,-1,-1,-3,-4,-1,-2,-2,-3,10.68
2137,-3,-1,-1,0,-1,0,-1,1,10.685
2138,-1,-6,-2,0,-2,-1,0,-1,10.69
2139,1,0,1,1,0,0,-2,-16,10.695
2140,-1,2,1,-3,-3,-2,0,6,10.700000000000001
2141,0,-4,0,2,1,0,1,13,10.705
2142,-6,3,0,-3,0,-1,0,-4,10.71
2143,2,1,-2,0,-1,0,-2,4,10.715
2144,1,-3,1,1,-2,1,0,-6,10.72
2145,2,6,0,-1,-2,-1,0,-5,10.725
2146,-3,-5,-1,-1,0,0,0,2,10.73
2147,-1,1,0,1,0,-3,0,0,10.735
2148,-2,-5,-2,0,0,-1,0,-2,10.74
2149,0,-1,-1,-2,-2,0,-1,-6,10.745000000000001
2150,1,1,-1,-2,0,0,-1,0,10.75
2151,-4,-3,-3,-2,0,0,0,1,10.755
2152,0,1,-1,0,-3,0,-1,1,10.76
2153,1,2,0,-2,-2,-1,0,0,10.765
2154,-2,-4,-1,0,-1,-1,-2,-3,10.77
2155,1,-1,0,0,0,0,0,0,10.775
2156,-3,-5,-4,0,-1,-1,-1,-1,10.78
2157,1,2,-2,-2,-1,1,-2,-3,10.785
2158,-1,0,0,-1,-2,-1,-2,1,10.790000000000001
2159,-1,2,1,-1,-1,-1,-2,2,10.795
2160,-2,-6,-1,-2,-1,-1,-2,-11,10.8
2161,-4,-1,-1,0,-1,-2,-1,2,10.805
2162,1,3,2,0,-1,-1,1,6,10.81
2163,-2,-4,-3,-1,-2,-1,0,-5,10.815
2164,1,3,1,1,0,-1,0,4,10.82
2165,2,-4,-5,-1,0,-1,-1,-5,10.825000000000001
2166,0,0,-1,-1,-2,-3,-2,-1,10.83
2167,0,1,1,0,-1,-1,-4,-3,10.835
2168,-6,-4,-1,-3,-1,-2,0,-6,10.84
2169,-1,-4,-1,-1,-2,0,0,3,10.845
2170,1,-7,-2,-1,-2,-2,0,2,10.85
2171,-4,-4,-2,-3,-2,-1,1,-1,10.855
2172,-3,1,-1,1,-2,0,0,1,10.86
2173,-5,-3,0,-2,-1,-2,0,-3,10.865
2174,2,1,-1,-1,0,-1,-1,-2,10.870000000000001
2175,1,3,0,0,0,-1,0,3,10.875
2176,-2,-4,-1,-2,2,-1,0,2,10.88
2177,-1,-1,0,1,0,-3,-2,-2,10.885
2178,-2,-1,-1,0,-2,0,1,-15,10.89
2179,0,1,0,-4,-3,-2,0,11,10.895
2180,1,1,-4,0,1,0,0,3,10.9
2181,0,3,2,0,-1,0,0,-1,10.905
2182,-1,-2,-1,-1,0,-1,-1,0,10.91
2183,-1,-5,-1,0,0,0,-2,-5,10.915000000000001
2184,3,5,-2,0,1,0,-1,-1,10.92
2185,1,2,0,0,-1,2,1,-1,10.925
2186,-1,0,-2,0,-1,-3,-6,-1,10.93
2187,0,1,-2,0,1,0,1,4,10.935
2188,2,3,3,0,-3,-2,-3,8,10.94
2189,0,0,2,1,-1,1,-1,-1,10.945
2190,-5,-4,-2,-3,-2,1,1,0,10.950000000000001
2191,0,1,-2,-3,-4,0,-1,-5,10.955
2192,-2,-1,1,0,1,-3,-3,0,10.96
2193,1,3,-2,1,-1,-1,-4,1,10.965
2194,-1,-1,-1,1,1,2,3,1,10.97
2195,-2,-1,0,1,-3,-5,-4,-4,10.975
2196,-1,-3,-3,-2,-2,-1,1,-5,10.98
2197,0,-3,-4,-1,-2,-1,-1,0,10.985
2198,-2,0,1,-1,-2,-3,-3,1,10.99
2199,1,2,0,3,1,4,0,-1,10.995000000000001
2200,0,-2,-2,-4,-2,-2,0,-1,11.0
2201,-1,-1,0,-3,-1,-2,-1,-1,11.005
2202,1,1,-1,0,0,0,-1,1,11.01
2203,0,5,2,-2,1,0,-1,-1,11.015
2204,-1,-5,-2,-1,-1,1,-1,-2,11.02
2205,1,0,-1,-1,-1,-1,0,5,11.025
2206,-1,-1,-2,0,0,0,0,-1,11.03
2207,-1,-3,1,0,-1,-1,-2,-1,11.035
2208,-1,2,2,0,0,2,1,-2,11.040000000000001
2209,-1,-4,1,-1,-1,-2,-1,-1,11.045
2210,1,2,1,1,0,-1,0,-1,11.05
2211,-2,-7,-3,-3,-1,-2,0,1,11.055
2212,-1,1,0,-1,0,-2,-6,-6,11.06
2213,-3,-6,1,1,1,-1,1,-11,11.065
2214,-4,-3,-1,-2,-2,0,0,8,11.07
2215,1,-1,-2,1,0,-1,-2,8,11.075000000000001
2216,-1,0,-1,-1,-4,-1,-3,0,11.08
2217,1,5,0,-1,-1,-1,-2,1,11.085
2218,-3,-6,-4,0,-1,0,-2,-8,11.09
2219,-2,0,-1,-3,-4,-2,1,-2,11.095
2220,2,3,1,2,0,-1,1,2,11.1
2221,0,0,-1,0,-2,-2,-3,-4,11.105
2222,-2,-5,-2,-4,-2,-2,1,2,11.11
2223,-1,-3,-1,-1,1,1,3,1,11.115
2224,-3,-6,-1,-1,-1,-1,-1,-4,11.120000000000001
2225,-2,0,0,-2,-1,-2,0,-1,11.125
2226,0,2,1,2,1,-2,-3,-1,11.13
2227,1,-4,-3,-2,-2,-1,-2,-2,11.135
2228,1,2,1,-3,1,0,5,-1,11.14
2229,-3,-8,-4,-2,0,0,0,1,11.145
2230,1,1,1,0,-3,0,0,-1,11.15
2231,-3,-1,-1,-2,-3,0,-2,-2,11.155
2232,-2,-2,-2,1,-1,-3,-3,-4,11.16
2233,1,2,0,0,-2,1,-2,1,11.165000000000001
2234,0,-2,-3,-1,-2,0,2,-1,11.17
2235,0,1,-4,-3,-4,1,-1,-5,11.175
2236,-3,-5,-2,0,1,2,-1,0,11.18
2237,0,1,0,-2,-2,-3,1,-1,11.185
2238,0,-1,-2,-2,0,-4,-7,-3,11.19
2239,-2,-6,-2,0,-1,-1,1,-6,11.195
2240,-2,1,-2,-2,-1,-1,-3,-2,11.200000000000001
2241,0,3,0,-1,1,2,2,9,11.205
2242,-2,-2,2,2,1,1,2,-1,11.21
2243,3,5,2,1,2,-3,-1,1,11.215
2244,-2,-3,-2,-3,-1,-2,0,-5,11.22
2245,-1,-2,-2,0,-2,0,-4,-4,11.225
2246,2,2,1,-1,-2,-1,-5,0,11.23
2247,-2,0,-1,-2,0,-2,3,-1,11.235
2248,2,1,0,0,-3,-1,-1,1,11.24
2249,1,3,-2,-3,-2,0,-2,0,11.245000000000001
2250,-2,-2,-2,-1,1,-1,-1,0,11.25
2251,-1,-2,0,-2,0,-1,-1,-3,11.255
2252,-1,2,-4,-1,-2,-1,0,1,11.26
2253,1,1,0,-1,-2,-2,0,-1,11.265
2254,-2,-2,-1,0,-1,2,-1,-3,11.27
2255,0,-1,0,-1,-1,-3,-2,1,11.275
2256,0,4,3,-1,-2,-1,1,1,11.28
2257,0,0,-3,-4,-1,-1,-2,6,11.285
2258,0,1,0,-1,1,-1,1,-2,11.290000000000001
2259,-4,-7,-3,-2,-1,-1,-5,-2,11.295
2260,-1,2,-1,-2,-1,-3,-1,-1,11.3
2261,-3,-4,0,2,2,0,2,-12,11.305
2262,5,1,-2,-2,-3,-2,3,13,11.31
2263,-2,-1,0,0,-2,0,1,0,11.315
2264,2,5,1,0,-2,-2,-2,0,11.32
2265,-2,-1,-3,-3,-1,-1,-7,-5,11.325000000000001
2266,-1,-4,0,1,0,0,7,-6,11.33
2267,0,1,-1,0,-1,-2,-3,-1,11.335
2268,0,-2,-2,-2,-1,1,2,-2,11.34
2269,-2,0,0,-1,-3,0,0,-2,11.345
2270,0,2,1,1,1,1,0,-1,11.35
2271,-1,1,0,0,0,-1,-3,-8,11.355
2272,-2,-7,-3,1,1,-2,-2,1,11.36
2273,-1,-2,-4,-2,-1,-3,-2,3,11.365
2274,-2,0,1,0,-3,2,-2,-3,11.370000000000001
2275,-2,-3,-1,1,0,0,-1,-1,11.375
2276,0,-2,-1,-2,-3,0,0,-3,11.38
2277,0,0,0,1,-3,-1,2,0,11.385
2278,-6,-5,-4,-3,-2,-4,-3,-14,11.39
2279,0,-1,1,-1,0,-1,0,9,11.395
2280,2,1,0,1,3,1,0,6,11.4
2281,-2,-11,-4,-1,-1,1,1,7,11.405
2282,-4,2,0,0,-1,0,-2,-5,11.41
2283,3,5,0,-2,-1,0,-2,-2,11.415000000000001
2284,-2,-4,-4,-2,-2,1,3,-3,11.42
2285,-1,0,0,1,1,1,-2,-3,11.425
2286,3,0,-4,0,0,-1,-3,-1,11.43
2287,1,1,-1,-1,-1,-1,0,1,11.435
2288,0,-3,0,-1,-2,-4,-1,3,11.44
2289,1,1,1,-1,-2,0,-1,-3,11.445
2290,0,1,-3,-5,-1,-2,-1,2,11.450000000000001
2291,-2,-3,0,2,-2,-1,-1,-1,11.455
2292,0,3,3,4,0,1,-1,-17,11.46
2293,-4,-5,1,4,1,-1,1,21,11.465
2294,1,4,-11,-16,-5,-2,-4,-4,11.47
2295,1,-1,-3,-6,-1,-1,1,1,11.475
2296,0,-4,-5,-4,-1,-2,-2,0,11.48
2297,4,10,5,5,0,-1,-1,-8,11.485
2298,0,-4,1,5,2,0,1,2,11.49
2299,-5,-1,-2,-2,1,0,-1,-6,11.495000000000001
2300,-3,1,1,1,-2,-4,0,-3,11.5
2301,10,6,0,1,-1,3,1,3,11.505
2302,3,-3,-2,2,-1,0,-1,-7,11.51
2303,-1,-3,-3,-4,0,1,2,11,11.515
2304,-9,2,0,0,-1,-1,-1,-12,11.52
2305,-1,-3,-3,-2,0,-3,-2,12,11.525
2306,-1,3,1,0,-1,2,0,-8,11.53
2307,-2,0,-3,-1,-2,1,-2,-5,11.535
2308,1,-1,0,0,0,0,-3,6,11.540000000000001
2309,-10,-5,-3,-7,-3,-3,-1,-14,11.545
2310,-1,6,3,-2,-2,-2,0,6,11.55
2311,-8,-8,-3,-2,-2,-3,-1,-4,11.555
2312,6,-1,-3,-2,-2,-2,0,5,11.56
2313,2,-10,-7,-4,-3,-2,-3,-9,11.565
2314,4,-7,2,6,5,1,-1,-5,11.57
2315,0,0,0,0,0,-1,0,6,11.575000000000001
2316,12,9,2,1,2,2,2,28,11.58
2317,-19,-2,-1,-2,0,0,0,-26,11.585
2318,-14,-4,-2,0,-3,-4,-2,-6,11.59
2319,18,6,2,0,-1,0,-3,16,11.595
2320,9,-4,1,-1,0,0,-3,8,11.6
2321,8,1,2,1,-1,1,10,21,11.605
2322,35,3,1,0,-1,-4,-5,11,11.61
2323,20,-3,-4,-4,-5,-3,-2,-49,11.615
2324,32,-6,-1,3,-1,1,-2,10,11.620000000000001
2325,0,-5,-2,0,2,0,-2,-1,11.625
2326,-11,-5,-1,0,-1,-1,1,19,11.63
2327,-20,-6,0,0,-3,-2,1,6,11.635
2328,-35,-3,0,1,-2,-3,-6,-17,11.64
2329,-38,-13,-9,-8,-2,0,-3,-32,11.645
2330,-13,0,0,-2,1,1,1,-3,11.65
2331,-4,0,0,-1,-1,-1,1,1,11.655
2332,-15,-5,-2,-4,-1,0,2,4,11.66
2333,5,9,4,4,-3,-1,-2,9,11.665000000000001
2334,-10,-11,-3,0,-1,0,-1,4,11.67
2335,8,4,0,0,0,0,-1,5,11.675
2336,0,0,-5,-3,-1,-2,-5,8,11.68
2337,-4,-7,3,0,0,0,2,-14,11.685
2338,-4,6,-3,-1,-2,-2,2,5,11.69
2339,3,-4,3,4,1,-1,0,10,11.695
2340,-6,3,-4,-4,-2,1,-1,-12,11.700000000000001
2341,8,3,-2,-4,1,-2,-3,7,11.705
2342,-5,-2,6,9,4,2,-2,-9,11.71
2343,-7,-6,-1,-1,-3,0,1,6,11.715
2344,7,0,-6,-12,-3,-3,-1,5,11.72
2345,-2,7,6,3,2,-2,-4,-6,11.725
2346,-20,-2,-5,-5,-5,0,0,-40,11.73
2347,-3,10,2,-1,-3,-4,-7,35,11.735
2348,10,-6,4,6,2,3,2,-15,11.74
2349,14,4,-2,-2,0,1,3,16,11.745000000000001
2350,8,6,1,1,1,-2,-2,3,11.75
2351,-1,8,2,2,0,0,-5,-10,11.755
2352,-12,0,-1,-3,-2,-3,2,-1,11.76
2353,6,-4,-5,-2,-1,1,4,11,11.765
2354,6,1,4,0,-2,-2,1,9,11.77
2355,5,2,-2,0,2,2,2,-7,11.775
2356,-11,-5,2,-3,-2,-3,-6,-6,11.78
2357,1,-3,2,0,-2,-7,-5,12,11.785
2358,6,-6,-6,-4,-1,-1,-6,-8,11.790000000000001
2359,-1,0,0,1,3,2,7,5,11.795
2360,4,5,5,3,1,1,1,-26,11.8
2361,-6,2,-2,-2,-1,0,1,2,11.805
2362,16,2,2,-2,-1,-2,1,21,11.81
2363,1,-5,0,0,-2,-3,-5,-7,11.815
2364,-4,3,-1,0,1,-1,-3,0,11.82
2365,-3,-9,-5,-2,-4,-1,-4,-19,11.825000000000001
2366,-9,-1,-1,1,1,0,-2,-5,11.83
2367,-1,-7,-9,-7,-1,0,-1,-11,11.835
2368,-5,-4,-1,3,0,2,3,-1,11.84
2369,0,3,1,0,-3,-2,-2,7,11.845
2370,-7,-9,-6,-2,-4,-1,-1,3,11.85
2371,5,-5,-2,-1,-1,1,2,-1,11.855
2372,6,8,1,-1,-2,-3,0,4,11.86
2373,2,2,-2,-3,1,0,-3,-8,11.865
2374,-13,-4,2,1,2,1,-5,3,11.870000000000001
2375,-8,-1,1,1,1,0,3,-2,11.875
2376,12,4,3,0,-3,-1,9,25,11.88
2377,-2,7,3,5,3,2,1,-6,11.885
2378,10,5,-3,-5,-1,-3,-3,11,11.89
2379,2,-2,-2,-2,-2,-1,0,-21,11.895
2380,-16,-8,-6,-5,-6,-4,-8,-14,11.9
2381,10,-4,-2,-8,-2,1,6,27,11.905
2382,-3,-6,-10,-4,1,-2,1,-14,11.91
2383,-11,6,5,1,-1,-3,-3,-15,11.915000000000001
2384,3,4,-1,-4,-3,1,0,8,11.92
2385,1,1,3,3,1,-3,-6,-13,11.925
2386,-6,-6,-2,1,-1,1,0,0,11.93
2387,5,4,1,1,-1,-1,-1,6,11.935
2388,-2,0,0,-3,-1,0,0,13,11.94
2389,-12,-13,-5,0,-2,-2,-4,-31,11.945
2390,9,9,5,-1,-3,-1,2,19,11.950000000000001
2391,-8,-2,-8,1,-2,0,0,-3,11.955
2392,2,-12,-2,-2,0,-2,-1,-13,11.96
2393,5,0,-1,1,0,-2,-3,23,11.965
2394,-10,-5,0,-1,0,-1,0,-19,11.97
2395,1,-1,2,1,2,1,3,0,11.975
2396,2,7,-5,-1,-1,-1,-2,6,11.98
2397,3,4,-1,-1,-2,0,3,-8,11.985
2398,-3,3,4,3,-1,1,1,-2,11.99
2399,-12,-11,-1,2,0,0,-5,-3,11.995000000000001
2400,7,0,3,-1,2,-2,0,-8,12.0
2401,0,-8,-2,-1,-3,-2,2,13,12.005
2402,0,3,0,-2,-2,-2,-1,0,12.01
2403,4,1,-1,-7,-1,1,-1,4,12.015
2404,-3,-2,-3,1,1,1,0,12,12.02
2405,-6,-1,-1,1,-1,0,-1,-13,12.025
2406,-1,0,1,1,-2,-1,1,14,12.030000000000001
2407,0,-6,-3,-5,-2,-3,-3,-12,12.035
2408,-6,2,0,1,-1,-1,-3,-20,12.040000000000001
2409,10,6,-1,-3,-2,-1,0,2,12.045
2410,0,-3,-1,-1,0,0,-1,-4,12.05
2411,1,-1,-2,2,-1,-2,1,26,12.055
2412,-5,-2,2,5,1,0,1,-1,12.06
2413,-4,-1,-2,-1,-1,-1,1,-3,12.065
2414,-7,-1,3,2,1,0,-2,-28,12.07
2415,1,1,3,3,2,-1,1,17,12.075000000000001
2416,5,-16,-9,-7,-1,0,-2,10,12.08
2417,3,0,1,0,-2,-1,-4,-6,12.085
2418,4,0,-7,-7,-3,-3,0,5,12.09
2419,-8,1,3,1,1,-2,-1,-15,12.095
2420,-2,-2,-5,3,0,-2,-2,-11,12.1
2421,-7,-5,-4,-2,0,0,-2,3,12.105
2422,2,-1,1,-2,-2,-1,1,4,12.11
2423,6,3,0,-4,-4,-2,-2,1,12.115
2424,1,3,6,5,-1,-1,0,-2,12.120000000000001
2425,-10,-1,-1,-1,-1,-1,-2,-13,12.125
2426,-5,-8,-3,-2,0,0,-2,-11,12.13
2427,12,2,0,0,-2,-2,1,33,12.135
2428,-17,-5,0,1,-1,-1,-2,-26,12.14
2429,3,-1,0,-2,-2,2,0,0,12.145
2430,4,2,-2,-2,1,-2,-2,12,12.15
2431,-12,-1,-4,-8,-2,-1,0,-23,12.155000000000001
2432,25,4,8,6,3,2,5,26,12.16
2433,-1,-3,-14,-18,-5,-3,-3,1,12.165000000000001
2434,0,5,4,5,0,1,-2,1,12.17
2435,10,-3,-4,1,-1,1,-2,-8,12.175
2436,-7,6,2,2,0,0,-3,-7,12.18
2437,-2,-1,2,6,1,-2,1,8,12.185
2438,2,5,1,-2,-2,-2,0,10,12.19
2439,-10,0,1,0,0,1,-2,-23,12.195
2440,-3,-7,-6,-5,-4,-3,0,12,12.200000000000001
2441,0,-2,-2,0,-4,4,0,-11,12.205
2442,1,-4,-3,2,2,-1,-2,0,12.21
2443,-2,6,5,1,-2,-2,1,1,12.215
2444,-1,3,1,2,5,-1,-4,-4,12.22
2445,10,-4,-5,-4,-2,-4,-1,8,12.225
2446,-4,4,4,3,-2,-1,0,-6,12.23
2447,-7,-9,-4,-1,0,0,-1,-3,12.235
2448,-7,0,-6,-8,-3,-2,-3,-10,12.24
2449,10,4,5,2,1,0,-1,14,12.245000000000001
2450,0,-8,-1,1,-1,0,2,10,12.25
2451,-7,-2,0,2,2,-1,-2,-12,12.255
2452,-1,5,-1,-5,-4,-1,-2,-13,12.26
2453,-12,-5,0,4,0,-4,0,5,12.265
2454,-1,-1,-5,-4,-1,-1,0,-1,12.27
2455,6,-2,-2,1,-1,0,-1,15,12.275
2456,1,2,1,-2,1,1,2,-5,12.280000000000001
2457,0,-2,0,-1,2,-1,-2,-9,12.285
2458,-3,0,4,5,-1,-1,-2,-3,12.290000000000001
2459,-8,-3,-12,-16,-3,-2,-2,1,12.295
2460,7,-5,-1,-1,-1,0,0,0,12.3
2461,7,7,-2,2,0,0,0,6,12.305
2462,-14,2,3,2,0,-3,-2,-27,12.31
2463,-5,-1,3,2,-2,-3,-3,5,12.315
2464,2,-11,-3,2,-1,1,7,14,12.32
2465,5,0,0,1,1,3,-1,2,12.325000000000001
2466,9,-5,-5,-6,-2,-1,-1,11,12.33
2467,-8,-2,-1,4,2,-1,1,-1,12.335
2468,-8,1,1,-4,0,-3,-8,-17,12.34
2469,-1,-2,-2,1,-2,-1,2,8,12.345
2470,-6,-5,-5,-11,-2,1,1,-14,12.35
2471,9,0,0,0,-3,-2,-1,0,12.355
2472,-5,-1,1,4,2,1,-3,2,12.36
2473,-1,2,7,4,2,1,1,-5,12.365
2474,9,2,-12,-15,-4,-2,-3,2,12.370000000000001
2475,-7,1,5,2,-1,-1,0,-5,12.375
2476,-2,-6,-7,-2,-3,0,1,4,12.38
2477,3,0,4,0,1,0,0,-13,12.385
2478,-3,1,2,4,-1,-2,-3,10,12.39
2479,13,-10,-4,0,1,2,2,11,12.395
2480,-9,-1,-1,6,0,-2,-3,-12,12.4
2481,-6,0,-3,-4,-2,-1,-2,-7,12.405000000000001
2482,0,-3,1,0,-1,1,-1,-1,12.41
2483,-2,8,4,2,-1,0,-4,-3,12.415000000000001
2484,-3,-7,-3,-2,-3,-1,-2,4,12.42
2485,-5,-6,-7,-4,-2,-3,1,-4,12.425
2486,0,1,0,4,0,1,4,1,12.43
2487,4,2,-1,-5,-2,-1,1,-2,12.435
2488,1,3,0,-2,0,1,2,5,12.44
2489,-3,1,0,-1,2,-1,-6,1,12.445
2490,2,1,-2,1,-1,-1,-3,-5,12.450000000000001
2491,0,2,0,2,1,2,4,6,12.455
2492,4,-1,0,-5,-5,-3,0,5,12.46
2493,-3,2,-2,11,3,2,-2,-2,12.465
2494,-1,3,-9,-21,-4,0,0,-4,12.47
2495,7,4,-9,-13,-4,-2,0,1,12.475
2496,-11,-14,-13,-11,-6,-4,-4,-3,12.48
2497,0,-4,6,5,1,1,-1,3,12.485
2498,1,-2,3,10,0,0,-1,1,12.49
2499,-5,-5,1,3,1,1,-1,-4,12.495000000000001
2500,1,7,3,4,2,2,2,1,12.5
2501,-1,0,-5,-14,-5,-1,-3,-3,12.505
2502,-1,-4,1,5,-1,-1,-6,-4,12.51
2503,-3,0,-2,-3,-2,0,2,-5,12.515
2504,6,6,6,8,4,3,8,7,12.52
2505,-4,-5,-3,-4,-3,2,1,-2,12.525
2506,3,2,1,0,0,-2,-5,1,12.530000000000001
2507,-2,-1,1,4,0,-2,-3,-2,12.535
2508,0,3,3,1,1,0,-3,-6,12.540000000000001
2509,-7,-9,-8,-8,-4,-3,1,-5,12.545
2510,-1,-5,-1,2,0,-2,2,3,12.55
2511,-2,-1,0,4,0,0,0,-7,12.555
2512,-1,0,-3,-5,-1,-2,0,6,12.56
2513,1,6,5,2,-2,-3,-1,0,12.565
2514,0,-1,0,2,-2,0,-3,6,12.57
2515,-1,0,-2,-4,-3,-3,-1,-4,12.575000000000001
2516,-2,1,-2,-3,1,-1,-3,-7,12.58
2517,4,1,1,2,0,1,-1,13,12.585
2518,-8,-3,-2,-1,-1,-4,0,-12,12.59
2519,2,-2,0,0,1,0,-1,1,12.595
2520,-2,-5,-2,-2,-1,-2,-3,-4,12.6
2521,-1,4,-1,-1,-3,-2,-4,-14,12.605
2522,5,4,3,2,1,6,15,12,12.61
2523,3,0,-2,-1,-3,-2,-3,8,12.615
2524,-2,-5,-2,-2,-3,-4,-4,-1,12.620000000000001
2525,-1,-2,1,-2,2,1,-3,-5,12.625
2526,0,-1,-4,-3,-1,-1,-2,-1,12.63
2527,-6,-3,1,1,-1,-3,1,-16,12.635
2528,3,0,-2,0,-1,0,0,11,12.64
2529,2,-4,-1,-1,-1,-1,0,5,12.645
2530,0,1,0,-1,-1,-3,0,-2,12.65
2531,-8,-1,-2,-1,-1,1,-3,-10,12.655000000000001
2532,-1,0,0,-1,-2,0,-2,3,12.66
2533,-1,-9,-3,-4,0,0,3,-2,12.665000000000001
2534,5,2,-1,0,1,-3,-4,3,12.67
2535,0,-3,-1,0,0,0,-2,4,12.675
2536,-4,-2,-1,-3,-2,0,1,-8,12.68
2537,-5,3,4,0,-3,-3,-3,-1,12.685
2538,-1,0,-1,0,-1,1,4,-2,12.69
2539,2,-3,-4,-4,-3,-1,-3,8,12.695
2540,4,0,0,-1,1,2,4,-1,12.700000000000001
2541,1,-2,-2,2,0,-3,-1,1,12.705
2542,-3,-3,-1,2,0,-1,-4,-5,12.71
2543,-5,-7,-1,-2,-2,-2,-4,-5,12.715
2544,0,-3,0,0,-3,-3,-3,3,12.72
2545,-1,1,-2,-1,-1,0,0,1,12.725
2546,-8,-3,-1,0,0,-2,-2,-7,12.73
2547,0,-1,-1,0,-1,3,-1,-2,12.735
2548,1,-2,0,0,-1,1,-2,-1,12.74
2549,1,3,2,1,-1,1,1,-7,12.745000000000001
2550,1,-2,-5,-3,-4,-2,-3,10,12.75
2551,3,0,-2,-1,2,1,1,3,12.755
2552,1,5,1,-1,0,-2,1,6,12.76
2553,-1,4,-2,-1,0,-1,-2,-1,12.765
2554,-1,-3,2,1,-1,-1,1,-2,12.77
2555,-1,3,0,1,-2,-2,0,-2,12.775
2556,-5,0,-2,-1,0,-3,-4,-6,12.780000000000001
2557,-4,-6,-3,2,2,-2,-1,-2,12.785
2558,3,-2,-1,-4,-3,0,2,2,12.790000000000001
2559,3,7,3,1,1,0,0,3,12.795
2560,-3,2,0,1,-3,-1,0,-2,12.8
2561,-4,-5,2,4,0,1,-4,-1,12.805
2562,-2,-3,-4,-2,-1,0,2,-3,12.81
2563,-1,-1,2,-2,0,-1,0,1,12.815
2564,3,6,-1,1,0,0,-1,-4,12.82
2565,-2,3,1,-4,-3,-2,0,2,12.825000000000001
2566,-3,-4,4,4,-1,-3,-4,2,12.83
2567,-5,-3,-4,-2,-2,-2,-2,1,12.835
2568,-1,-9,-6,-3,-2,-1,0,4,12.84
2569,6,2,0,-3,0,1,1,-3,12.845
2570,0,-3,-2,0,-1,-2,-1,-2,12.85
2571,-3,-4,0,-2,-2,-1,0,-3,12.855
2572,-1,-3,1,-1,-2,-3,-1,-1,12.86
2573,-1,-10,-6,-4,-4,-2,2,6,12.865
2574,-8,1,-1,-3,2,1,0,-10,12.870000000000001
2575,0,0,-1,1,-3,-1,-1,1,12.875
2576,-4,-1,0,1,2,2,0,-4,12.88
2577,0,-3,0,1,-1,-3,-1,3,12.885
2578,-3,-5,-7,-6,-2,-3,-4,0,12.89
2579,-1,2,3,0,2,-4,0,-10,12.895
2580,2,-1,-3,-3,1,1,2,9,12.9
2581,1,4,1,2,1,-1,-1,0,12.905000000000001
2582,4,9,7,5,1,1,-2,5,12.91
2583,-4,-9,-4,-5,-4,-3,-1,-4,12.915000000000001
2584,-2,-6,0,1,1,-1,0,-11,12.92
2585,-3,2,0,0,-3,-1,0,1,12.925
2586,3,-1,-2,-1,-1,0,-1,-3,12.93
2587,4,7,-1,-1,-1,2,0,6,12.935
2588,-5,0,4,1,-3,-2,0,-5,12.94
2589,-1,-1,-3,-2,-1,1,-1,-2,12.945
2590,3,0,1,0,0,-1,0,-3,12.950000000000001
2591,7,6,1,1,0,-2,1,9,12.955
2592,-2,2,-1,-2,-2,0,2,-3,12.96
2593,-5,-1,0,0,0,-1,-4,-8,12.965
2594,0,1,0,1,-1,1,-1,3,12.97
2595,-1,-1,-1,2,0,-1,-2,0,12.975
2596,-1,-5,-5,-5,-2,-3,-3,-1,12.98
2597,1,-4,-2,-2,-2,-3,0,3,12.985
2598,2,-3,-3,1,0,0,1,6,12.99
2599,-3,-2,0,0,0,2,0,-8,12.995000000000001
2600,0,2,0,0,-1,-1,0,5,13.0
2601,-1,5,3,0,0,-3,-3,-6,13.005
2602,-4,-11,-5,-3,-1,-2,-3,-12,13.01
2603,-4,1,1,0,-2,-1,-6,1,13.015
2604,3,0,4,2,2,2,9,9,13.02
2605,3,-1,-2,-1,-1,0,1,-1,13.025
2606,2,3,1,-2,-2,-1,1,1,13.030000000000001
2607,0,-1,-3,-1,0,-1,-1,-4,13.035
2608,-3,0,-2,-2,-1,1,-4,-11,13.040000000000001
2609,-2,-1,-1,-2,0,-1,0,0,13.045
2610,1,1,0,0,0,1,1,6,13.05
2611,0,-3,0,-1,0,-2,0,7,13.055
2612,0,1,-2,-1,-2,-2,-2,-3,13.06
2613,-5,1,0,-1,-1,1,0,-4,13.065
2614,-3,-2,-2,0,-1,-2,-3,-3,13.07
2615,0,-2,-2,0,0,-2,1,-1,13.075000000000001
2616,1,1,0,-1,0,-1,0,3,13.08
2617,2,7,-2,-2,-2,0,1,0,13.085
2618,-5,0,3,2,1,-3,0,-5,13.09
2619,1,-3,-3,-1,-3,1,1,1,13.095
2620,-4,-6,-2,-2,-2,0,1,0,13.1
2621,-2,-1,-4,-2,1,-1,-3,2,13.105
2622,4,2,-1,-2,0,0,1,4,13.11
2623,0,-1,1,-1,-2,-2,-1,1,13.115
2624,0,1,0,-1,1,0,-2,-7,13.120000000000001
2625,-3,-2,-1,0,-2,-1,-1,-1,13.125
2626,1,9,-1,-1,-1,-2,0,3,13.13
2627,-8,-11,-2,-1,1,0,-5,-7,13.135
2628,-2,3,-1,-1,-2,-3,-3,-1,13.14
2629,-1,-1,0,0,2,0,3,7,13.145
2630,3,-5,-6,-5,-2,0,-2,-3,13.15
2631,1,3,-2,-1,-1,-1,5,0,13.155000000000001
2632,-3,-5,-2,-2,0,0,-2,-4,13.16
2633,0,1,2,-1,-2,-3,-2,-1,13.165000000000001
2634,-2,3,2,0,-4,-3,0,-1,13.17
2635,-1,5,0,0,0,1,-2,-2,13.175
2636,-6,-5,1,2,0,1,-2,-5,13.18
2637,0,-13,-6,-3,-1,-1,1,5,13.185
2638,-1,-3,1,-4,-2,0,-4,-4,13.19
2639,2,0,0,-1,0,-1,2,3,13.195
2640,4,5,1,2,1,-3,-1,3,13.200000000000001
2641,-2,5,2,-1,-1,-1,-2,-4,13.205
2642,-4,-5,-1,2,1,1,-1,-2,13.21
2643,-2,-6,1,1,2,1,0,-1,13.215
2644,0,3,0,0,-1,0,1,0,13.22
2645,-4,-5,0,0,-2,0,-5,3,13.225
2646,-2,-2,-3,-1,0,-3,-1,-1,13.23
2647,-1,0,-2,-4,-3,1,0,-7,13.235
2648,2,2,-3,0,1,1,2,8,13.24
2649,1,0,-1,-2,0,-1,-1,-4,13.245000000000001
2650,1,5,-1,0,0,-2,1,2,13.25
2651,-1,-3,2,3,1,-2,-3,-4,13.255
2652,-7,-14,-3,-2,-4,-3,-3,-5,13.26
2653,-7,-6,0,-3,-2,0,1,-6,13.265
2654,2,-3,0,-1,-2,-2,-2,-4,13.27
2655,2,3,-4,-3,-1,2,3,-2,13.275
2656,-1,0,-2,-2,-2,-1,0,0,13.280000000000001
2657,2,5,2,-2,0,-3,-2,1,13.285
2658,-5,-6,-3,-1,-2,1,-3,0,13.290000000000001
2659,-2,0,-2,-1,3,-1,2,1,13.295
2660,0,-1,-1,1,0,0,-2,0,13.3
2661,1,-4,-5,-3,-2,1,2,-1,13.305
2662,-4,-1,-1,-2,-1,0,-1,-13,13.31
2663,0,-2,-1,0,0,-2,-4,19,13.315
2664,3,1,-2,-3,-1,0,0,1,13.32
2665,0,1,1,1,2,1,0,-1,13.325000000000001
2666,-2,-6,-2,-1,1,-2,1,1,13.33
2667,-5,-1,0,-1,-1,-2,-1,-7,13.335
2668,-3,-1,-1,-1,-3,-2,-5,-5,13.34
2669,2,-3,-2,-1,-4,0,-2,-2,13.345
2670,1,3,1,-2,0,2,4,4,13.35
2671,2,5,2,1,-2,-1,-1,-3,13.355
2672,-1,-4,-1,1,0,0,0,0,13.36
2673,-1,4,4,1,1,-1,-1,-2,13.365
2674,1,5,-1,1,-1,-1,-4,1,13.370000000000001
2675,-2,-7,-7,-4,-2,-2,-5,-2,13.375
2676,0,-1,-2,-2,-2,-2,2,1,13.38
2677,-2,-2,-1,1,0,0,1,-2,13.385
2678,2,1,1,0,-1,-1,0,3,13.39
2679,-2,-2,-3,-3,-3,-2,1,-1,13.395
2680,-1,0,-1,-1,-1,-2,-2,-2,13.4
2681,-3,-1,-1,-2,-4,-1,1,0,13.405000000000001
2682,-5,-10,-3,-4,-1,-2,-3,-2,13.41
2683,-1,1,1,0,-2,0,1,-5,13.415000000000001
2684,1,0,-1,0,-2,-2,-6,18,13.42
2685,-4,-3,-3,-1,2,-3,2,-11,13.425
2686,1,3,-1,-3,1,-2,-2,4,13.43
2687,-4,-5,0,1,1,0,-2,-5,13.435
2688,-2,3,1,-1,0,-1,0,-7,13.44
2689,3,4,0,1,0,2,0,7,13.445
2690,-6,-9,-1,-1,-2,1,1,-3,13.450000000000001
2691,-5,-6,-4,-2,-3,-6,-8,-5,13.455
2692,-1,-4,1,-2,1,2,3,0,13.46
2693,5,-3,-3,-1,-1,-1,0,-1,13.465
2694,3,6,0,0,-2,1,0,-2,13.47
2695,2,3,2,-1,0,0,1,4,13.475
2696,-3,-2,0,1,-2,-1,-4,-2,13.48
2697,-3,4,0,-1,-1,-2,-3,-2,13.485
2698,-2,-5,-3,-2,-2,-2,0,-3,13.49
2699,1,-2,-3,-1,-3,-1,0,-5,13.495000000000001
2700,-1,0,-1,-1,0,0,-2,-5,13.5
2701,1,-2,-2,1,1,0,2,8,13.505
2702,-1,-1,0,1,0,0,-2,6,13.51
2703,-3,-1,-1,-1,-1,-2,1,0,13.515
2704,-2,-4,-1,-1,-1,0,0,-5,13.52
2705,0,2,0,2,1,0,-1,-5,13.525
2706,-2,3,2,1,-1,-2,-1,-1,13.530000000000001
2707,4,0,-2,-2,-1,1,-2,0,13.535
2708,3,-2,-3,-2,0,1,1,-1,13.540000000000001
2709,-3,-4,0,-1,-1,-1,-2,0,13.545
2710,-1,5,1,1,-1,-2,-1,1,13.55
2711,-2,-3,1,1,0,-1,-2,-10,13.555
2712,3,1,-1,-1,-2,-3,0,8,13.56
2713,3,1,-1,0,-3,0,-1,13,13.565
2714,-3,-6,-2,-3,-2,1,0,-3,13.57
2715,-11,2,1,-3,-3,-1,-3,-5,13.575000000000001
2716,0,3,-2,-1,3,-2,-1,-9,13.58
2717,-3,-8,-1,2,-1,-1,-3,-4,13.585
2718,-3,-4,1,1,-1,-1,1,3,13.59
2719,5,3,-1,1,-3,2,3,2,13.595
2720,-3,-2,-2,-2,-5,-1,0,1,13.6
2721,-5,-5,-1,-1,0,0,-2,-7,13.605
2722,6,0,-1,-1,-1,-1,-1,2,13.61
2723,3,3,1,-2,-1,-1,1,1,13.615
2724,-2,-2,0,0,-2,-1,-1,2,13.620000000000001
2725,-1,-1,-1,-3,-2,-1,-2,-5,13.625
2726,3,1,-1,0,0,-3,-1,2,13.63
2727,3,3,2,1,2,-1,2,10,13.635
2728,-3,-1,-2,-2,-2,-2,-1,-7,13.64
2729,-4,-3,-4,-2,-1,-1,-3,-9,13.645
2730,-5,-1,-2,-1,-2,0,-2,-5,13.65
2731,7,8,1,1,-2,-1,0,17,13.655000000000001
2732,6,4,1,-1,-1,-1,0,3,13.66
2733,-12,-4,1,-1,0,-1,-1,-7,13.665000000000001
2734,0,1,-4,-3,-1,0,1,-3,13.67
2735,-4,-2,-2,-2,2,0,-2,-5,13.675
2736,-5,-3,1,-2,0,-1,-1,0,13.68
2737,4,3,1,1,0,-1,0,-2,13.685
2738,1,-1,-2,-4,2,1,1,7,13.69
2739,-2,0,-3,0,-3,-3,0,-2,13.695
2740,-1,-4,-3,-2,-3,-1,-1,1,13.700000000000001
2741,1,0,-2,-1,-3,-1,1,-1,13.705
2742,-5,-3,0,0,-1,0,0,-4,13.71
2743,1,-1,1,2,-1,-1,-1,-4,13.715
2744,-1,-1,0,1,0,-1,-1,-5,13.72
2745,0,-3,-4,-3,-1,-1,0,0,13.725
2746,-2,0,0,-1,1,2,-3,1,13.73
2747,-3,-7,-2,-4,-2,-1,1,-3,13.735
2748,1,4,0,-2,-1,3,3,-2,13.74
2749,3,-2,-1,-1,-1,-3,-1,5,13.745000000000001
2750,-2,2,0,0,-2,0,-1,-4,13.75
2751,0,-3,-1,-1,0,0,-1,-3,13.755
2752,-4,-1,-1,1,-1,-1,-2,-11,13.76
2753,-1,1,-1,-2,-4,-2,1,9,13.765
2754,7,2,-1,-3,0,-4,-3,4,13.77
2755,6,0,0,-2,1,-1,-1,-1,13.775
2756,-1,-3,-2,0,0,-2,-2,1,13.780000000000001
2757,-2,-2,-2,1,1,1,1,-5,13.785
2758,-5,-3,0,-1,-2,-1,0,-6,13.790000000000001
2759,-7,-4,-1,0,-2,-2,0,-1,13.795
2760,-1,-1,1,-1,-2,-2,-2,-1,13.8
2761,1,2,0,0,-1,2,-1,-4,13.805
2762,-1,-2,-2,-3,0,-2,0,4,13.81
2763,-2,-6,-4,-3,-2,-3,-1,-1,13.815
2764,-2,1,-3,-3,-3,-1,0,-3,13.82
2765,1,0,1,-1,-1,-1,-2,-1,13.825000000000001
2766,2,0,0,1,-1,-1,-2,-1,13.83
2767,-1,5,1,1,-1,-2,-3,-2,13.835
2768,-1,-1,-1,-2,-1,-1,0,8,13.84
2769,7,0,1,1,1,1,0,4,13.845
2770,-5,-2,-3,0,-2,-2,0,-5,13.85
2771,-2,0,0,0,-1,1,-1,-2,13.855
2772,-1,0,0,0,1,0,0,-4,13.86
2773,-2,0,-2,-3,-1,0,-1,-1,13.865
2774,2,4,1,-2,-2,-1,-1,-3,13.870000000000001
2775,-3,-6,-1,0,2,0,0,-2,13.875
2776,0,-1,-1,-1,0,0,0,-1,13.88
2777,-6,-2,-2,-4,1,-2,-3,2,13.885
2778,4,-2,-1,0,0,2,2,0,13.89
2779,-1,0,-2,0,-1,-4,-2,-5,13.895
2780,3,0,0,0,-2,-2,-4,-8,13.9
2781,1,3,-2,2,-1,0,2,6,13.905000000000001
2782,-5,-5,-1,0,1,0,0,2,13.91
2783,-5,-5,-4,-2,-4,-1,0,-1,13.915000000000001
2784,3,0,0,1,1,0,-2,0,13.92
2785,3,4,2,2,0,-2,1,-5,13.925
2786,1,-1,-2,-1,0,0,0,0,13.93
2787,-2,-8,-1,0,1,-1,1,-1,13.935
2788,0,0,-2,1,-1,-1,-1,7,13.94
2789,-3,0,1,-3,-2,0,-1,-4,13.945
2790,-4,-2,-1,0,-2,-1,0,-5,13.950000000000001
2791,3,-1,-2,-2,-1,-1,-1,2,13.955
2792,-5,-3,2,-1,-1,-4,-1,-1,13.96
2793,-2,-8,-2,-1,0,0,1,2,13.965
2794,-1,1,1,2,3,1,0,-6,13.97
2795,1,-1,-1,1,-3,-2,-1,-1,13.975
2796,3,6,1,2,1,-1,1,-9,13.98
2797,-3,-7,-2,0,-2,-4,-2,9,13.985
2798,4,-4,-2,-1,1,-2,0,0,13.99
2799,-1,3,1,-1,0,0,-1,1,13.995000000000001
2800,-1,-4,-1,-4,0,0,-1,-1,14.0
2801,1,5,1,1,2,1,-1,-10,14.005
2802,-5,-5,-1,-1,-4,0,-4,-2,14.01
2803,-1,1,1,-1,-2,0,-1,-4,14.015
2804,2,-1,-1,-1,0,-1,-1,3,14.02
2805,-5,0,-2,0,-1,0,0,-5,14.025
2806,-1,-2,-1,0,0,0,-3,0,14.030000000000001
2807,0,3,0,-4,-2,-1,3,-1,14.035
2808,-5,-2,-1,0,-1,1,-1,-3,14.040000000000001
2809,4,1,0,-1,1,-1,-1,3,14.045
2810,-2,1,1,-1,-2,-1,1,-1,14.05
2811,1,7,3,-1,-1,-1,-1,-1,14.055
2812,-1,-6,-1,2,0,0,1,1,14.06
2813,-3,-8,-5,-2,-3,-3,-1,-2,14.065
2814,-1,-3,-2,-1,-1,-1,0,7,14.07
2815,3,0,-1,2,-2,1,-1,2,14.075000000000001
2816,0,-1,-1,-1,-2,1,3,6,14.08
2817,0,5,2,1,1,0,0,-5,14.085
2818,-1,3,1,0,-1,-5,0,-3,14.09
2819,2,3,-3,-2,0,-2,-2,3,14.095
2820,-2,3,2,0,-2,1,-2,-10,14.1
2821,-1,-4,0,-2,-2,-1,-3,-1,14.105
2822,1,-1,-2,-2,-2,-1,-2,3,14.11
2823,-2,-3,-3,1,3,1,-2,-3,14.115
2824,-3,-1,-3,-1,0,0,-2,-2,14.120000000000001
2825,0,3,-1,-2,-1,-1,-1,-8,14.125
2826,0,-3,0,-1,0,-1,0,4,14.13
2827,-2,-5,1,0,1,-1,-1,-9,14.135
2828,-1,0,0,0,0,-2,1,9,14.14
2829,-4,-4,-2,-1,1,-1,-2,1,14.145
2830,3,2,-1,-1,1,-2,-2,-1,14.15
2831,-5,-8,-3,-3,0,0,-2,0,14.155000000000001
2832,-4,-2,0,0,0,-1,0,-5,14.16
2833,2,-3,-3,-2,-1,-1,1,2,14.165000000000001
2834,1,2,-1,2,2,1,1,-4,14.17
2835,3,1,-1,-2,-4,0,-1,1,14.175
2836,-5,-6,-1,-1,0,1,-1,-5,14.18
2837,-2,2,0,-1,-2,-1,0,-1,14.185
2838,-3,-6,-5,-5,-4,-1,-2,-2,14.19
2839,-2,-4,0,2,-1,-1,1,1,14.195
2840,0,-2,-1,-1,-2,-2,-1,-5,14.200000000000001
2841,-2,-1,0,0,-2,-3,-2,0,14.205
2842,0,3,1,-1,-1,1,0,1,14.21
2843,1,3,0,1,-3,0,-1,3,14.215
2844,0,-1,-2,-1,-2,-2,-2,1,14.22
2845,-1,-3,-3,-2,-3,-1,0,-2,14.225
2846,0,-3,-2,-1,1,-1,-1,-2,14.23
2847,0,0,-1,-2,-2,-1,-1,8,14.235
2848,2,1,0,1,0,0,-1,0,14.24
2849,0,-1,-1,-1,0,0,1,1,14.245000000000001
2850,-3,0,-2,-1,-3,-3,-1,-6,14.25
2851,-2,2,2,1,0,0,0,-5,14.255
2852,0,-4,-4,-1,-1,-1,-1,2,14.26
2853,-1,2,2,2,-1,-3,-3,2,14.265
2854,-2,2,-1,0,-2,-2,0,-7,14.27
2855,1,0,0,0,1,0,0,0,14.275
2856,-2,-6,-2,-3,-1,0,-2,-1,14.280000000000001
2857,3,3,-1,0,0,0,0,2,14.285
2858,-1,-1,1,1,0,1,-2,1,14.290000000000001
2859,-4,-2,-6,-3,1,-2,-1,-2,14.295
2860,1,1,-1,-1,-1,-2,1,1,14.3
2861,-2,-1,-1,1,-2,1,1,-5,14.305
2862,-2,1,0,-2,-2,0,0,-2,14.31
2863,-2,-6,-2,-2,-3,-2,0,-4,14.315
2864,1,0,-1,0,-1,-1,-1,12,14.32
2865,-3,-5,-2,-4,-3,-1,1,3,14.325000000000001
2866,3,3,0,2,0,1,0,0,14.33
2867,-2,1,-2,0,-1,-1,-1,-5,14.335
2868,-4,0,-1,-2,-1,0,-3,-10,14.34
2869,-2,0,-1,1,-2,1,0,2,14.345
2870,-4,-4,-3,-4,-6,-1,-2,-4,14.35
2871,2,-1,2,0,1,0,0,1,14.355
2872,1,3,2,1,1,-2,1,2,14.36
2873,-1,-1,1,-1,0,-1,-2,0,14.365
2874,-5,-4,-2,-1,1,-2,-1,-4,14.370000000000001
2875,0,2,-1,-2,0,-3,-2,-2,14.375
2876,2,1,-2,1,-1,-2,-1,2,14.38
2877,5,11,2,-2,0,4,1,-2,14.385
2878,-3,-8,-2,2,0,0,0,1,14.39
2879,-3,-4,-1,-1,1,1,-1,-6,14.395
2880,4,-1,0,-1,-4,-1,1,5,14.4
2881,3,1,0,-1,-3,0,-4,0,14.405000000000001
2882,-2,0,0,0,1,0,0,3,14.41
2883,-2,4,2,0,1,-2,-1,0,14.415000000000001
2884,-9,-11,-5,-6,-3,1,-2,-10,14.42
2885,2,-2,-3,-2,-1,-2,-1,1,14.425
2886,-1,-3,1,-1,-1,-1,-2,4,14.43
2887,1,-1,-1,0,-1,-1,-1,-2,14.435
2888,0,2,-1,-2,0,-3,-3,1,14.44
2889,-1,3,-1,2,-1,-1,0,-3,14.445
2890,1,1,1,1,-2,-1,-1,-5,14.450000000000001
2891,-2,0,-2,-3,-1,1,0,3,14.455
2892,-1,-1,1,-2,1,0,3,3,14.46
2893,-1,-3,0,-1,2,-1,-2,-3,14.465
2894,3,8,0,0,-1,-1,-1,-1,14.47
2895,-2,-3,-1,-4,-5,0,-1,-1,14.475
2896,-2,6,0,0,0,0,-1,-9,14.48
2897,-2,-3,-2,-2,0,0,-1,0,14.485
2898,0,-2,-2,-4,-2,1,3,9,14.49
2899,-3,-7,-2,1,1,-2,-3,2,14.495000000000001
2900,3,2,1,0,-2,1,1,1,14.5
2901,-2,2,-3,-3,0,0,-1,-5,14.505
2902,-2,1,0,-1,-2,0,-1,-7,14.51
2903,-2,-2,-1,-1,-1,-1,0,0,14.515
2904,1,2,0,0,0,0,0,-2,14.52
2905,-3,-6,-2,-1,-1,-3,-6,1,14.525
2906,-1,0,-1,-3,-1,-3,-4,-3,14.530000000000001
2907,0,2,-1,1,1,-1,-1,0,14.535
2908,-2,-1,2,-1,-3,-2,-2,1,14.540000000000001
2909,0,0,0,-2,-5,-1,3,-1,14.545
2910,-4,-7,-3,-2,1,0,-2,0,14.55
2911,0,3,1,1,-2,-2,-1,-11,14.555
2912,-3,-1,-3,-2,-1,-2,-2,7,14.56
2913,0,-7,-4,-1,0,-1,2,3,14.565
2914,2,-2,1,0,-1,0,0,2,14.57
2915,0,3,-1,-2,-3,-2,-1,-2,14.575000000000001
2916,-3,-4,-1,2,2,0,-1,-7,14.58
2917,-3,-4,0,2,-1,-2,-3,-2,14.585
2918,1,4,1,1,1,0,-1,1,14.59
2919,-3,-4,-2,-2,0,0,1,-4,14.595
2920,0,-5,-6,-3,-2,-1,1,-2,14.6
2921,-2,-4,1,-1,-1,0,0,-2,14.605
2922,2,0,0,-1,0,0,0,-3,14.61
2923,1,-3,1,1,-3,-2,-2,4,14.615
2924,-2,2,0,-2,-1,1,-2,-1,14.620000000000001
2925,-3,-8,-2,0,2,0,0,-2,14.625
2926,4,8,2,3,1,1,0,-2,14.63
2927,-6,-6,-7,-5,-3,1,1,2,14.635
2928,2,-1,0,-3,-5,-4,-2,0,14.64
2929,4,2,0,0,2,1,-1,2,14.645
2930,2,1,1,-2,1,-1,-2,-2,14.65
2931,0,-1,1,3,0,1,0,1,14.655000000000001
2932,-5,-3,-1,0,-1,-2,1,-3,14.66
2933,-3,2,0,-1,-4,-1,-4,-1,14.665000000000001
2934,-3,0,-3,-2,-3,-2,0,-9,14.67
2935,0,5,0,-3,0,-1,-2,5,14.675
2936,-1,-6,-4,-1,0,-3,-5,13,14.68
2937,-1,-3,-1,0,0,-1,0,0,14.685
2938,-3,-6,-4,-1,-1,-1,1,1,14.69
2939,2,2,0,-2,-2,-2,0,-4,14.695
2940,-3,-3,3,3,4,-1,0,-4,14.700000000000001
2941,-2,-1,-2,0,-1,-1,-2,1,14.705
2942,-1,-2,-3,-1,-1,-1,-1,-2,14.71
2943,0,5,0,0,-1,0,0,1,14.715
2944,-2,-3,-5,0,-2,-2,-3,-4,14.72
2945,-3,0,-4,-3,-1,-3,-4,-7,14.725
2946,-3,-5,0,-1,0,-2,-2,1,14.73
2947,-3,-12,-1,-2,1,1,0,-4,14.735
2948,2,3,1,-1,-2,2,1,1,14.74
2949,-2,1,0,0,-2,0,1,-3,14.745000000000001
2950,2,2,-2,0,0,-1,-2,-1,14.75
2951,0,1,1,1,1,-1,0,-4,14.755
2952,-3,-3,-6,-5,-3,0,-2,1,14.76
2953,-2,-1,1,0,0,-1,1,3,14.765
2954,-3,-1,-1,-3,-1,-2,-2,0,14.77
2955,-1,0,0,0,-1,-1,-1,-3,14.775
2956,-2,3,3,1,-2,0,0,-4,14.780000000000001
2957,3,5,0,0,-3,-1,0,4,14.785
2958,-3,-7,-3,-2,-2,-2,-1,3,14.790000000000001
2959,-1,-3,0,0,0,0,-1,-1,14.795
2960,-1,0,-2,-1,2,1,0,-5,14.8
2961,0,-1,2,-1,0,-1,0,-1,14.805
2962,3,-1,3,3,0,0,1,-2,14.81
2963,-2,-3,-4,-3,-2,-2,-1,1,14.815
2964,1,4,2,1,-1,2,1,0,14.82
2965,3,4,-1,0,1,-1,-5,-5,14.825000000000001
2966,-3,1,-2,0,1,-4,-3,4,14.83
2967,0,1,-1,-1,-3,-1,-3,-3,14.835
2968,3,0,0,-2,0,-1,1,-6,14.84
2969,-5,-9,-1,-1,-4,1,0,1,14.845
2970,-3,-5,-5,-3,-4,-2,-2,2,14.85
2971,-1,1,1,1,-3,-1,-1,1,14.855
2972,-3,-1,-1,-1,-1,-3,-1,1,14.86
2973,-1,-2,-2,0,-1,-2,-1,-5,14.865
2974,1,4,-1,-1,-2,-1,-2,-2,14.870000000000001
2975,3,6,1,1,0,0,1,5,14.875
2976,-1,-2,1,-1,2,-1,-2,-5,14.88
2977,0,0,-1,-2,-3,-3,0,0,14.885
2978,0,3,0,0,-2,0,1,1,14.89
2979,-2,0,-1,0,1,-2,-1,-2,14.895
2980,2,-3,-3,-1,-3,-1,0,0,14.9
2981,-2,0,0,-2,2,-2,-3,-1,14.905000000000001
2982,1,4,0,-1,1,0,1,-2,14.91
2983,-1,-2,0,-1,1,0,-3,-4,14.915000000000001
2984,0,-5,-3,0,1,1,0,4,14.92
2985,-1,-1,-1,0,-1,-1,-1,6,14.925
2986,1,-1,-1,-1,-2,0,-1,-6,14.93
2987,0,-5,-1,-2,0,1,1,6,14.935
2988,-1,1,1,0,0,-3,-4,-4,14.94
2989,1,2,0,-2,0,-2,1,-2,14.945
2990,-2,-1,0,-1,0,-1,-1,-11,14.950000000000001
2991,-2,-2,-3,0,-1,0,-1,6,14.955
2992,-2,-1,1,-4,-2,2,3,1,14.96
2993,-6,-7,-3,-2,1,0,0,-2,14.965
2994,-4,-5,-2,1,0,2,-1,1,14.97
2995,-1,-3,-3,-1,2,-1,-1,-1,14.975
2996,0,0,-3,-2,-2,-5,-2,0,14.98
2997,0,-2,-2,-2,-3,0,-1,-5,14.985
2998,-1,-1,-1,-2,-2,-1,1,0,14.99
2999,0,2,1,0,-3,-4,-3,-1,14.995000000000001
3000,-3,-3,-2,1,0,0,0,2,15.0
3001,0,-1,-1,-1,-1,0,-1,0,15.005
3002,0,0,-2,-3,-1,-1,-2,5,15.01
3003,-4,2,2,-1,-2,0,-1,-4,15.015
3004,-1,-2,1,1,1,-2,-1,-2,15.02
3005,-1,1,-2,1,0,-1,0,-4,15.025
3006,-3,-3,-2,0,-2,2,-3,-4,15.030000000000001
3007,0,-3,-1,1,-1,2,5,8,15.035
3008,0,-2,1,0,-2,-1,-5,-11,15.040000000000001
3009,-1,-3,-2,-1,-2,-1,0,9,15.045
3010,-2,-3,0,0,0,-1,-1,2,15.05
3011,0,-3,-2,-1,-2,0,1,-3,15.055
3012,5,4,3,0,1,0,1,11,15.06
3013,-8,-9,-1,1,-2,-1,-4,-10,15.065
3014,-4,-4,-3,-3,-2,-1,-1,-3,15.07
3015,-2,-3,-3,-2,-3,-2,-1,-2,15.075000000000001
3016,1,2,1,0,1,0,0,0,15.08
3017,5,8,4,-1,0,-2,-1,2,15.085
3018,-1,-3,-2,-2,-1,-3,-1,1,15.09
3019,-4,-6,0,0,-2,1,-1,-3,15.095
3020,-6,-9,-3,1,-2,-2,0,-2,15.1
3021,2,3,1,0,-1,0,0,-4,15.105
3022,1,-4,-2,-1,2,-1,0,1,15.11
3023,5,1,1,0,-1,-2,-2,1,15.115
3024,-1,3,0,-1,-3,-2,-1,1,15.120000000000001
3025,-1,4,0,1,-1,0,-1,-9,15.125
3026,-1,0,0,-2,0,-3,-2,7,15.13
3027,1,0,-1,-1,1,-2,-2,2,15.135
3028,-1,3,-1,-1,-1,1,-2,-2,15.14
3029,-2,-2,-2,-2,0,-1,-1,10,15.145
3030,1,3,0,0,-1,1,1,-5,15.15
3031,0,-1,-5,-1,-2,0,-1,-3,15.155000000000001
3032,2,3,2,2,0,0,1,0,15.16
3033,-7,-16,-3,0,0,1,1,-7,15.165000000000001
3034,2,-1,0,1,-1,-1,0,3,15.17
3035,-1,0,-3,-1,0,-1,-1,0,15.175
3036,-4,-6,-2,-2,-1,0,-2,-2,15.18
3037,3,5,-1,-1,-2,2,0,1,15.185
3038,-1,-1,-1,1,0,-1,0,-2,15.19
3039,-5,-2,0,-3,-3,0,0,-6,15.195
3040,2,5,0,-5,-3,-1,-1,-3,15.200000000000001
3041,2,1,1,1,-1,-3,-2,2,15.205
3042,1,5,1,1,0,-1,-1,-3,15.21
3043,-2,-3,-2,-2,1,-3,-2,9,15.215
3044,-2,-2,-4,1,-1,0,0,1,15.22
3045,-4,0,1,-1,-1,0,0,-1,15.225
3046,2,3,0,-1,-1,1,0,-6,15.23
3047,-5,0,-1,-2,-1,-3,-1,-6,15.235
3048,-3,-2,-1,-1,0,0,0,1,15.24
3049,2,1,-2,-2,0,-1,-3,-2,15.245000000000001
3050,-1,-2,-1,-2,-1,-1,-2,-1,15.25
3051,1,-1,0,1,0,1,-2,-3,15.255
3052,0,0,0,-1,1,-3,-1,2,15.26
3053,2,7,-1,0,0,-1,2,-6,15.265
3054,-2,-2,1,2,-1,2,-1,-6,15.27
3055,1,2,-1,-2,-1,-2,-2,2,15.275
3056,-1,-2,-1,0,-2,2,0,-1,15.280000000000001
3057,4,5,-3,0,-2,-4,-2,-3,15.285
3058,-3,-3,-2,-2,-1,-2,0,7,15.290000000000001
3059,1,4,3,1,2,1,0,-1,15.295
3060,1,-1,-3,1,-1,0,1,3,15.3
3061,-2,-4,0,-1,1,0,-1,0,15.305
3062,2,2,2,-1,-2,0,1,-2,15.31
3063,-4,-7,-3,-1,0,-3,-3,-4,15.315
3064,-2,0,0,-1,-1,0,0,-1,15.32
3065,-1,-4,-4,-2,-2,-1,1,0,15.325000000000001
3066,-5,-2,-1,-4,-1,-1,-3,-3,15.33
3067,-2,0,-2,-1,-2,-1,1,0,15.335
3068,-2,-1,-1,-2,-2,-2,-1,-2,15.34
3069,-3,-5,-1,-1,-3,-1,1,-5,15.345
3070,1,-3,0,0,-1,-1,-3,1,15.35
3071,-1,-3,-3,-2,-3,-3,-2,0,15.355
3072,2,4,0,2,0,0,0,-3,15.36
3073,0,-2,-3,-2,1,-1,-1,2,15.365
3074,1,2,0,1,2,2,-1,3,15.370000000000001
3075,1,-4,-2,-1,1,-1,-1,-3,15.375
3076,-1,-1,-2,0,-1,-1,-2,0,15.38
3077,-3,0,0,0,0,0,-1,4,15.385
3078,0,0,-1,0,-2,-1,1,-4,15.39
3079,4,5,-1,0,-1,2,1,0,15.395
3080,-3,-2,-1,-1,1,0,-1,-2,15.4
3081,0,4,2,0,-1,-2,-1,1,15.405000000000001
3082,-3,-6,-4,-2,-2,-1,-1,-1,15.41
3083,-1,1,1,-1,0,-2,-1,-10,15.415000000000001
3084,-1,-1,1,-1,0,-1,-2,7,15.42
3085,-2,-3,-1,-3,-2,-2,0,4,15.425
3086,1,3,2,1,1,0,2,-1,15.43
3087,-2,-7,-4,0,1,-2,-6,-4,15.435
3088,0,-1,-3,-3,-1,-2,0,-4,15.44
3089,1,3,2,3,1,2,1,4,15.445
3090,-2,-4,-4,-3,-5,-3,-2,0,15.450000000000001
3091,0,2,2,0,0,1,2,-6,15.455
3092,-4,-9,-3,1,-1,0,-3,-2,15.46
3093,-3,-6,-2,0,-3,-1,0,8,15.465
3094,-4,3,0,0,2,1,0,-7,15.47
3095,3,0,1,0,0,-1,-1,5,15.475
3096,-1,2,0,-2,-2,0,-2,-3,15.48
3097,-1,1,0,0,2,-1,1,-3,15.485000000000001
3098,2,-1,-1,0,1,-1,-2,1,15.49
3099,-3,0,0,-2,-1,-4,-1,0,15.495000000000001
3100,3,3,-2,0,-2,2,-1,1,15.5
3101,-4,-3,1,-1,-1,0,-3,-3,15.505
3102,-2,-1,0,-1,-1,-2,-1,-2,15.51
3103,-4,-5,0,0,1,1,1,3,15.515
3104,2,2,1,-1,-2,-2,0,4,15.52
3105,1,-5,-1,-1,-1,0,-2,-5,15.525
3106,-4,-10,-3,-2,-1,-1,0,-2,15.530000000000001
3107,-2,1,0,1,-3,0,-1,-1,15.535
3108,1,-3,0,-1,1,-3,1,-3,15.540000000000001
3109,3,-3,0,-1,-2,-5,-6,5,15.545
3110,-2,-1,0,1,0,1,0,0,15.55
3111,-2,0,-2,-4,-5,0,-3,10,15.555
3112,-4,-4,-3,-1,2,1,-2,-9,15.56
3113,-2,-3,-2,-2,-1,-1,-2,-3,15.565
3114,1,2,-3,-3,-1,-3,-1,-1,15.57
3115,0,1,0,2,0,1,0,-5,15.575000000000001
3116,-4,-2,-1,-1,-3,-2,-3,-6,15.58
3117,-1,-1,0,-2,-1,-1,0,2,15.585
3118,5,0,2,1,-1,-1,0,7,15.59
3119,0,0,-1,0,1,0,1,0,15.595
3120,-2,-1,1,-1,-1,0,1,0,15.6
3121,-3,2,0,1,-1,0,1,-7,15.605
3122,-2,-2,-1,-3,-4,-2,-2,1,15.610000000000001
3123,2,-3,-1,-1,4,1,0,-1,15.615
3124,2,-2,-2,-3,0,-2,-1,2,15.620000000000001
3125,-5,-2,0,2,-1,1,2,-3,15.625
3126,2,4,0,-1,-3,-4,-2,-1,15.63
3127,0,-2,-3,0,-1,-1,1,4,15.635
3128,1,3,0,-2,-2,0,-1,-6,15.64
3129,3,3,2,0,2,1,-2,-1,15.645
3130,-3,0,-2,-3,0,-1,0,-2,15.65
3131,-2,-3,1,0,-1,-1,-3,-5,15.655000000000001
3132,-3,-5,1,1,-2,0,0,2,15.66
3133,2,-1,-3,-3,-3,-2,-1,-2,15.665000000000001
3134,-2,-1,-2,0,-1,0,-1,-4,15.67
3135,1,3,-1,-2,-1,-3,-2,-1,15.675
3136,3,2,1,-1,1,-1,0,9,15.68
3137,2,-2,-1,-1,-1,-1,0,2,15.685
3138,-2,-6,1,2,2,0,0,1,15.69
3139,2,5,-1,-2,-3,0,2,0,15.695
3140,-6,-6,-2,0,-2,-2,-2,-5,15.700000000000001
3141,-3,-1,-2,-2,-1,-1,-1,-3,15.705
3142,-2,1,0,0,0,0,-1,1,15.71
3143,-4,-1,1,-3,-2,1,-1,-2,15.715
3144,1,4,3,1,0,-2,-1,-4,15.72
3145,-2,-3,-1,0,0,-2,-1,0,15.725
3146,0,-6,-4,-2,-3,0,0,-2,15.73
3147,2,3,1,-1,-1,0,-2,0,15.735000000000001
3148,-2,-4,-2,-1,0,0,0,-2,15.74
3149,-2,0,-1,1,2,0,1,-1,15.745000000000001
3150,0,3,1,-2,-1,-1,0,0,15.75
3151,0,1,0,0,-2,-2,-1,-1,15.755
3152,1,-3,-2,0,-1,-1,-2,1,15.76
3153,-1,0,-2,-1,-2,0,2,-1,15.765
3154,-1,-2,-2,1,0,0,-2,-1,15.77
3155,-1,-1,-1,1,-1,-1,-2,-1,15.775
3156,-2,-1,-1,0,-1,-1,-1,1,15.780000000000001
3157,1,4,-2,-2,-1,-1,0,-2,15.785
3158,2,5,0,2,3,0,-1,1,15.790000000000001
3159,-4,-11,0,0,0,-3,-4,-4,15.795
3160,-1,-2,-3,-1,-1,0,8,2,15.8
3161,2,5,1,-1,-3,1,-8,-9,15.805
3162,-1,2,0,1,-1,1,11,11,15.81
3163,-2,-4,-3,-2,-1,-2,-2,0,15.815
3164,3,2,-1,-2,1,1,-4,1,15.82
3165,-4,-9,-1,0,0,-1,-1,-1,15.825000000000001
3166,0,0,0,0,-2,-4,-6,-7,15.83
3167,-2,-2,-1,-1,-2,-1,1,-2,15.835
3168,-1,0,-2,-2,0,-1,-2,-3,15.84
3169,0,-4,-1,2,-1,-2,-1,10,15.845
3170,0,1,2,-2,0,1,-3,-4,15.85
3171,1,4,-1,2,-2,-1,3,2,15.855
3172,-1,0,-1,-2,-3,-1,-5,-4,15.860000000000001
3173,-1,-5,-1,-2,-1,0,1,-6,15.865
3174,0,1,-1,0,-1,1,5,3,15.870000000000001
3175,-2,-5,0,-1,-1,0,-3,0,15.875
3176,-1,-1,0,3,3,0,-3,-1,15.88
3177,-4,-4,-2,-2,-1,-4,-2,-12,15.885
3178,-1,-3,-2,-1,0,-2,-4,4,15.89
3179,3,5,-1,1,1,1,4,-2,15.895
3180,-2,0,0,-3,-2,-2,-2,5,15.9
3181,2,5,3,0,0,-1,1,3,15.905000000000001
3182,-4,-7,0,-2,-3,-2,-4,-4,15.91
3183,0,0,-4,-3,-2,0,3,-1,15.915000000000001
3184,-4,-2,2,-2,-2,-4,-1,-2,15.92
3185,-1,-3,-4,1,1,-1,-1,0,15.925
3186,4,2,-4,-5,-1,0,-1,-3,15.93
3187,-1,3,1,-1,1,0,1,-4,15.935
3188,-2,1,0,0,0,0,3,2,15.94
3189,-1,-1,1,-3,-1,0,-4,0,15.945
3190,-2,-4,0,1,0,-2,-3,1,15.950000000000001
3191,0,0,-1,3,0,0,-4,1,15.955
3192,-1,-2,-2,-1,-3,-2,4,-10,15.96
3193,0,2,-1,-1,-1,0,3,8,15.965
3194,0,0,-1,0,-2,-2,-2,-1,15.97
3195,0,-4,0,-2,-2,-1,0,-1,15.975
3196,0,-1,1,2,1,0,-3,2,15.98
3197,3,0,-1,0,0,-1,0,-4,15.985000000000001
3198,-5,-3,1,5,1,0,-1,-3,15.99
3199,-6,-9,-2,-4,-3,0,3,1,15.995000000000001
3200,3,4,-6,-5,-1,-2,-3,-10,16.0
3201,0,-2,-4,-7,-1,0,3,6,16.005
3202,-3,-10,-2,5,3,3,2,-7,16.01
3203,-12,4,15,7,3,0,12,27,16.015
3204,-4,-10,-20,-16,-11,-2,-14,-43,16.02
3205,12,-5,-14,-24,-6,-4,-5,4,16.025
3206,-1,2,8,5,0,-1,-8,-3,16.03
3207,3,-3,1,6,2,0,1,5,16.035
3208,-16,-3,-6,-16,-1,-1,14,5,16.04
3209,8,8,13,15,0,-1,-4,-8,16.045
3210,-7,-6,-10,1,-4,-3,-1,-2,16.05
3211,6,-2,-9,-16,-3,-3,-7,-1,16.055
3212,-2,0,14,18,2,0,-3,-3,16.06
3213,3,5,3,0,0,3,6,8,16.065
3214,-7,3,8,-1,1,1,16,21,16.07
3215,-9,3,16,19,-1,2,-7,-58,16.075
3216,23,1,-26,-18,-4,-5,-18,22,16.080000000000002
3217,-6,-6,0,-1,0,-7,-13,8,16.085
3218,-9,11,9,6,0,-1,-10,-32,16.09
3219,-11,-1,7,16,3,4,8,-7,16.095
3220,-5,-5,-12,-1,-2,3,9,-13,16.1
3221,12,5,-12,-33,-8,-2,2,27,16.105
3222,-3,-10,-14,-19,-4,-5,-4,-19,16.11
3223,12,0,-1,-1,1,-1,-2,14,16.115000000000002
3224,-6,-5,20,24,6,0,-1,-10,16.12
3225,-14,-9,-1,11,-1,1,0,1,16.125
3226,6,0,-5,-9,-4,-3,-1,-3,16.13
3227,-1,2,-2,-4,-1,-2,-6,-3,16.135
3228,6,5,12,7,1,-2,0,22,16.14
3229,-2,-4,-3,-1,1,-1,3,-16,16.145
3230,-7,-1,-10,-15,-1,0,0,5,16.15
3231,5,-1,15,14,3,-1,-5,1,16.155
3232,-9,-4,-19,1,-2,0,2,-4,16.16
3233,-8,1,-4,-5,-1,1,-1,-6,16.165
3234,17,7,8,6,2,2,3,11,16.17
3235,10,-2,-18,-20,-5,-4,0,32,16.175
3236,-8,9,19,8,-1,-1,0,-5,16.18
3237,2,-8,3,13,2,1,-1,-12,16.185
3238,-4,-11,-13,-2,-1,-4,-4,-6,16.19
3239,-2,4,-4,-9,-3,0,-4,0,16.195
3240,7,-4,7,1,3,3,6,4,16.2
3241,-24,-2,1,5,1,2,1,2,16.205000000000002
3242,17,-3,3,-3,0,-1,-4,-12,16.21
3243,1,0,1,2,0,-4,-3,-6,16.215
3244,2,5,5,-1,0,2,3,9,16.22
3245,-4,2,-3,2,0,0,1,-1,16.225
3246,-4,3,2,5,0,0,0,-5,16.23
3247,-2,4,2,-1,-2,-1,-8,5,16.235
3248,-5,-9,-13,-5,-3,-1,4,6,16.240000000000002
3249,-4,-9,-10,-13,-3,-3,2,-3,16.245
3250,8,8,7,4,-1,2,-3,8,16.25
3251,0,-10,-12,-4,-2,-3,0,-7,16.255
3252,-12,-4,10,0,-1,-1,-3,-10,16.26
3253,-2,-8,3,8,0,-1,-3,-8,16.265
3254,-6,1,-5,-3,-1,-1,1,0,16.27
3255,2,-6,-5,-6,-2,1,5,3,16.275
3256,-2,-1,-3,-5,0,-2,-2,-2,16.28
3257,2,11,12,12,1,0,-1,-7,16.285
3258,0,-2,-16,-25,-5,-1,-4,10,16.29
3259,-6,-13,-1,3,1,0,-1,-5,16.295
3260,3,8,0,-4,-3,0,-1,-6,16.3
3261,-1,2,6,6,1,-2,-2,16,16.305
3262,-5,-9,5,9,0,-3,-1,-6,16.31
3263,0,1,-17,-24,-4,2,2,-10,16.315
3264,12,0,0,-6,-2,1,-2,16,16.32
3265,3,-3,-2,0,-2,-2,-5,-7,16.325
3266,-4,2,10,12,2,-1,7,9,16.330000000000002
3267,-1,1,-1,6,2,0,-3,-2,16.335
3268,-6,-8,-10,-16,-3,-1,-1,-8,16.34
3269,1,3,11,7,2,3,6,1,16.345
3270,-6,0,-3,3,2,-3,-6,-2,16.35
3271,1,-5,-3,-5,-3,-4,-3,1,16.355
3272,0,5,3,15,2,-2,-3,4,16.36
3273,10,2,-2,-10,-4,-1,-2,4,16.365000000000002
3274,7,-8,-6,0,-4,3,4,23,16.37
3275,-23,-2,-9,-21,-5,-1,-4,-34,16.375
3276,2,4,16,11,4,1,-14,-5,16.38
3277,-3,-2,3,4,0,1,0,-10,16.385
3278,3,1,-7,-11,-4,-1,13,15,16.39
3279,-10,0,8,16,2,2,8,-13,16.395
3280,-3,-1,-9,-8,-1,-1,4,22,16.4
3281,2,2,0,-1,-4,-4,-5,7,16.405
3282,3,3,7,2,2,0,2,1,16.41
3283,22,5,-7,2,-4,-1,-8,19,16.415
3284,1,2,2,0,-1,-4,0,0,16.42
3285,-4,3,-4,-3,0,2,-1,-8,16.425
3286,-11,1,-1,2,-3,0,-6,-14,16.43
3287,5,-2,-5,-9,-6,-1,5,1,16.435
3288,-1,-7,2,7,0,-1,-7,-13,16.44
3289,0,-1,5,12,5,2,5,-3,16.445
3290,-1,4,-30,-46,-7,0,-3,-7,16.45
3291,4,9,11,11,4,-2,3,2,16.455000000000002
3292,10,6,2,1,-4,-2,-1,29,16.46
3293,-12,-3,0,-7,-1,-4,-9,-33,16.465
3294,-5,-4,8,16,1,3,-1,-3,16.47
3295,-3,2,2,3,5,4,1,6,16.475
3296,7,9,-12,-6,-4,-1,0,-9,16.48
3297,-4,-13,-5,0,0,-2,3,15,16.485
3298,6,4,-2,0,-4,-4,-4,7,16.490000000000002
3299,-7,-4,0,-4,-1,0,-6,-7,16.495
3300,1,-2,6,13,2,0,9,0,16.5
3301,7,-2,-19,-32,-5,-5,-6,-3,16.505
3302,-6,2,6,5,0,0,-3,-1,16.51
3303,14,-10,-8,2,0,-3,1,7,16.515
3304,-7,8,15,4,2,2,1,-18,16.52
3305,-11,-3,-8,3,-4,-4,-5,-5,16.525
3306,10,-6,15,17,5,0,-6,17,16.53
3307,-21,-1,-16,-14,-5,-3,3,-1,16.535
3308,5,-5,3,-5,1,-1,11,-12,16.54
3309,-1,0,-1,0,-2,2,1,2,16.545
3310,-2,4,4,1,0,-1,-5,-12,16.55
3311,-7,4,13,16,0,-3,-15,3,16.555
3312,-6,-9,-10,-12,-6,-2,1,-1,16.56
3313,1,-3,1,2,2,1,3,0,16.565
3314,-5,-4,3,21,1,0,-1,-22,16.57
3315,3,-1,-2,-17,-3,2,5,13,16.575
3316,-7,0,-2,-9,0,-3,-9,-4,16.580000000000002
3317,9,17,-2,-6,-3,-1,-1,7,16.585
3318,-5,0,4,0,0,2,2,-5,16.59
3319,6,-9,0,3,-1,-3,1,0,16.595
3320,-7,-12,-1,9,2,-1,0,-1,16.6
3321,-7,0,-11,-13,-3,0,-5,-12,16.605
3322,-12,-2,4,-3,-2,0,4,-6,16.61
3323,2,3,-16,-18,-5,0,-1,9,16.615000000000002
3324,5,5,8,7,-3,-4,-10,-16,16.62
3325,7,-5,6,18,9,2,2,13,16.625
3326,2,-2,-12,-20,-3,-3,4,5,16.63
3327,-4,-7,8,9,2,-2,-2,-1,16.635
3328,-2,-5,-2,2,-2,3,1,10,16.64
3329,2,-2,-1,-5,-3,0,0,-2,16.645
3330,-3,2,4,6,0,-2,-4,-3,16.65
3331,3,-1,4,9,3,0,1,-20,16.655
3332,5,0,-9,-7,-3,-1,-3,23,16.66
3333,-12,2,-3,-11,-3,-4,-2,-15,16.665
3334,5,-2,6,8,2,0,-1,-4,16.67
3335,0,7,0,-7,-2,-3,-9,2,16.675
3336,-15,1,0,1,0,0,2,-15,16.68
3337,6,2,-4,-2,-3,0,0,-3,16.685
3338,13,3,2,-3,-4,-2,-2,5,16.69
3339,-2,-1,1,6,0,-1,-2,-12,16.695
3340,-4,-8,-6,-6,0,-2,-1,25,16.7
3341,-2,0,-1,4,1,1,1,-5,16.705000000000002
3342,-2,-4,5,-1,2,0,-2,0,16.71
3343,2,2,-10,-14,-3,-1,1,6,16.715
3344,4,0,-6,3,0,0,-6,-3,16.72
3345,-9,1,2,-4,-2,-1,7,-8,16.725
3346,2,-3,-4,-2,-3,-3,-9,0,16.73
3347,2,7,9,8,1,3,8,2,16.735
3348,-3,-1,6,0,2,3,6,-8,16.740000000000002
3349,5,1,-7,-3,1,-3,-2,7,16.745
3350,-5,-5,-8,0,-1,0,0,4,16.75
3351,-8,3,7,0,-1,-3,-4,-10,16.755
3352,2,0,-8,-7,-4,-5,-9,-9,16.76
3353,-1,-2,8,12,-1,0,-2,2,16.765
3354,-3,-4,-2,-1,-3,-2,5,1,16.77
3355,-3,-10,-3,2,2,0,-1,-12,16.775
3356,3,-2,-7,-12,-3,-3,1,12,16.78
3357,-3,-10,4,6,0,0,-1,-2,16.785
3358,0,0,-4,-5,-4,-2,-2,5,16.79
3359,-1,0,5,5,-1,-1,-3,-8,16.795
3360,-5,-3,4,16,4,1,6,4,16.8
3361,3,2,-12,-28,-9,-4,-4,-9,16.805
3362,2,-2,2,6,1,1,3,8,16.81
3363,-3,-4,-5,-2,-4,-3,-5,-4,16.815
3364,-2,2,1,2,1,2,1,-7,16.82
3365,1,1,3,11,2,2,-4,1,16.825
3366,-3,-1,-5,-4,-1,0,0,-6,16.830000000000002
3367,3,3,1,0,-2,2,8,8,16.835
3368,-2,-3,1,1,1,0,1,-4,16.84
3369,0,0,2,4,4,1,-2,9,16.845
3370,-1,-2,-8,-13,-3,-4,-6,-7,16.85
3371,2,1,2,7,-1,-4,-3,3,16.855
3372,0,0,-2,-10,-2,-3,2,1,16.86
3373,-1,-3,4,6,-1,-3,-2,1,16.865000000000002
3374,0,2,2,8,2,1,4,-1,16.87
3375,1,-1,-5,-8,-3,3,-2,0,16.875
3376,4,0,1,-8,-1,-1,-2,3,16.88
3377,6,7,1,1,3,2,2,-13,16.885
3378,-5,-6,-2,0,-2,-3,-1,5,16.89
3379,-3,-3,-1,5,2,0,-1,1,16.895
3380,-1,0,-6,-6,-3,0,-1,-6,16.9
3381,3,1,4,5,1,1,3,9,16.905
3382,1,13,11,9,6,3,2,-16,16.91
3383,-1,-8,-19,-17,-7,-5,0,4,16.915
3384,7,6,3,-4,-3,-3,-4,14,16.92
3385,-17,-6,-3,3,-1,-1,-5,-28,16.925
3386,7,4,-1,-3,-2,0,-2,-2,16.93
3387,-1,3,4,6,2,3,5,4,16.935
3388,-1,-3,-2,-2,-1,0,1,-6,16.94
3389,-2,-1,2,2,-3,-3,0,11,16.945
3390,-5,-6,-5,-9,-3,-2,0,0,16.95
3391,6,2,1,-2,0,0,-11,-7,16.955000000000002
3392,-8,-4,-4,-5,-3,0,11,-3,16.96
3393,-1,-3,0,1,-2,-1,-3,15,16.965
3394,-6,-5,-6,-3,0,1,0,-6,16.97
3395,2,0,8,2,-1,-4,0,6,16.975
3396,0,-1,-8,-1,0,-4,-6,-8,16.98
3397,-3,-5,-1,-7,-2,2,2,-8,16.985
3398,-1,1,0,-6,-1,0,1,6,16.990000000000002
3399,-2,-2,0,0,1,3,5,4,16.995
3400,2,2,3,5,-2,-3,-5,-1,17.0
3401,-1,-7,-2,-1,-1,-1,1,3,17.005
3402,-2,-5,-5,-4,-2,-1,-2,-3,17.01
3403,-1,6,10,7,3,3,2,-2,17.015
3404,-2,-3,-3,3,0,-1,-2,-8,17.02
3405,4,3,-12,-17,-3,0,0,4,17.025
3406,-4,-10,-1,-3,-2,-1,-3,-1,17.03
3407,-2,-3,-1,-3,-3,-1,2,-2,17.035
3408,-1,3,3,3,0,0,-1,-2,17.04
3409,2,2,0,3,-1,0,-2,2,17.045
3410,-2,1,0,2,1,-2,-2,-5,17.05
3411,-2,2,1,-1,0,-3,-3,-8,17.055
3412,1,-3,-5,-10,-3,1,-6,-1,17.06
3413,0,-2,1,2,-1,-3,2,-1,17.065
3414,1,0,1,2,-1,1,7,3,17.07
3415,2,-1,-2,-1,-3,1,3,4,17.075
3416,-3,5,2,1,4,0,-1,-15,17.080000000000002
3417,-6,-9,-3,1,2,-3,-3,8,17.085
3418,0,-4,-3,-3,-1,-4,-6,-2,17.09
3419,-4,-2,-5,-2,-1,-2,-1,0,17.095
3420,4,0,0,1,1,2,2,0,17.1
3421,1,-1,2,1,0,-1,0,-1,17.105
3422,-3,-1,-2,0,0,-1,1,2,17.11
3423,-3,-1,-1,-5,-5,-4,-3,1,17.115000000000002
3424,-2,0,-1,-4,-5,0,-1,0,17.12
3425,3,-2,-4,0,-2,2,-3,-2,17.125
3426,3,2,1,1,-3,0,0,0,17.13
3427,0,-2,-1,-2,-2,-2,-1,-3,17.135
3428,0,3,0,-1,-1,-3,1,2,17.14
3429,-3,-3,0,1,1,-3,-2,-5,17.145
3430,-4,-4,-1,-1,0,0,-3,-4,17.150000000000002
3431,-2,-2,-1,-2,-1,2,-2,-1,17.155
3432,-8,-18,-7,-1,-1,0,1,-7,17.16
3433,1,1,2,1,-3,-1,5,10,17.165
3434,-1,-3,-3,-2,-1,0,0,-4,17.17
3435,-2,-3,-2,1,-1,-3,-2,-1,17.175
3436,-2,1,0,0,0,0,-4,-4,17.18
3437,5,2,-2,0,-3,0,-1,-3,17.185
3438,-3,2,-3,-2,-1,-2,-4,1,17.19
3439,-1,-2,0,0,2,0,1,1,17.195
3440,0,-2,-1,1,-1,-1,0,0,17.2
3441,-3,1,1,1,-2,1,2,-1,17.205000000000002
3442,0,2,-1,-1,-4,-5,-9,-1,17.21
3443,2,-3,-5,-2,3,5,3,8,17.215
3444,-2,-2,-2,-1,0,-2,0,1,17.22
3445,0,-1,3,1,0,0,-2,0,17.225
3446,2,7,0,-2,-4,-1,-1,-16,17.23
3447,-8,-8,-2,0,1,-3,-5,7,17.235
3448,4,0,-1,0,-1,1,2,1,17.240000000000002
3449,-1,-3,-3,-2,-2,-1,0,-2,17.245
3450,2,3,3,-1,-1,-1,0,-2,17.25
3451,2,5,-2,-3,-3,-4,-5,-4,17.255
3452,-2,0,1,-5,-4,-2,-5,-1,17.26
3453,-2,2,-2,1,1,0,1,0,17.265
3454,2,0,0,1,3,8,6,2,17.27
3455,-1,-1,-1,-1,0,-2,3,-3,17.275000000000002
3456,-3,-4,-1,-3,-1,-4,-5,1,17.28
3457,0,4,0,-4,0,1,-1,-5,17.285
3458,0,-6,-3,-1,0,-1,-7,4,17.29
3459,-1,1,0,3,-1,0,2,-5,17.295
3460,-2,-7,-1,-1,0,0,-1,3,17.3
3461,-8,-12,0,-1,1,-5,-9,-16,17.305
3462,4,5,1,-2,-3,0,2,11,17.31
3463,2,0,1,0,-1,1,1,6,17.315
3464,1,6,1,1,2,-2,1,2,17.32
3465,-3,-1,-3,0,-2,1,-3,-2,17.325
3466,-4,-5,0,4,2,-1,1,-3,17.330000000000002
3467,0,2,0,-1,-2,-4,-2,-6,17.335
3468,1,1,-2,-1,-3,0,1,0,17.34
3469,0,5,1,-2,-1,-3,-8,-4,17.345
3470,-1,0,-1,0,-2,-1,8,1,17.35
3471,2,-1,-2,-3,-1,-1,-2,7,17.355
3472,-1,-3,-2,-3,-3,-3,1,-1,17.36
3473,0,-6,-2,-1,-1,4,0,2,17.365000000000002
3474,-5,-11,-3,-2,-1,-3,-4,-4,17.37
3475,-1,1,2,0,0,1,1,-2,17.375
3476,-1,5,1,1,-3,-1,-8,-14,17.38
3477,0,-1,0,0,-1,-5,-3,6,17.385
3478,1,1,-3,-3,-2,0,1,3,17.39
3479,-2,-3,-3,1,-2,-1,-2,1,17.395
3480,2,2,0,1,2,0,3,-1,17.400000000000002
3481,0,4,-1,-2,0,-1,4,1,17.405
3482,-2,1,1,2,-1,-1,-3,-1,17.41
3483,-3,-2,0,-3,0,-1,-4,6,17.415
3484,2,2,-1,-2,-2,-3,-6,-2,17.42
3485,6,3,-1,-1,1,0,4,1,17.425
3486,0,3,-1,-2,0,-2,-2,1,17.43
3487,-5,-5,1,1,0,3,-2,-9,17.435
3488,-2,0,0,0,-2,5,7,7,17.44
3489,-2,-2,0,0,-1,0,0,3,17.445
3490,6,2,0,0,-1,-2,-1,-5,17.45
3491,5,8,-2,-4,-3,-3,-2,-1,17.455000000000002
3492,-3,-4,-3,1,1,1,-2,0,17.46
3493,-1,1,-1,1,0,-1,2,-13,17.465
3494,-1,2,1,-4,-3,-1,-2,7,17.47
3495,-2,-4,-1,-2,-3,-1,-1,0,17.475
3496,-1,-4,-2,0,2,4,7,5,17.48
3497,-3,-3,-3,-3,-2,-1,-3,2,17.485
3498,-4,-8,-6,-2,0,0,-2,-6,17.490000000000002
3499,1,0,-3,-1,-1,-4,0,-6,17.495
3500,-2,-1,1,-3,-1,-4,-4,-2,17.5
3501,-2,-3,-1,-1,-1,1,2,1,17.505
3502,-3,-7,-6,-1,1,0,4,-2,17.51
3503,1,3,0,-1,-3,0,-2,0,17.515
3504,1,-1,-3,-3,0,-1,-3,-3,17.52
3505,2,5,3,5,-1,-2,-2,2,17.525000000000002
3506,-1,4,0,-1,-2,-1,-9,-3,17.53
3507,-5,-5,-3,-2,-1,1,6,-7,17.535
3508,3,4,-2,-1,-1,0,5,5,17.54
3509,0,1,2,-1,0,1,0,2,17.545
3510,-3,-7,-4,-5,-4,-3,-1,-1,17.55
3511,-2,1,1,4,1,-4,-10,-9,17.555
3512,-6,-2,-6,-9,-4,-2,-3,5,17.56
3513,-3,1,3,0,2,0,2,0,17.565
3514,5,-3,-1,-1,-1,1,-3,6,17.57
3515,0,3,2,0,1,-1,0,-2,17.575
3516,-1,-2,2,3,-2,-3,1,-5,17.580000000000002
3517,0,2,0,-2,-3,-2,-6,0,17.585
3518,-7,0,1,1,1,2,1,-2,17.59
3519,2,-2,-1,0,1,0,0,3,17.595
3520,-1,0,-3,-1,-2,-3,-4,-3,17.6
3521,-1,1,-3,-2,-1,-1,2,-9,17.605
3522,1,8,2,1,0,0,1,4,17.61
3523,-7,-14,-5,-1,-1,-1,-1,3,17.615000000000002
3524,2,-1,-2,-2,-2,-3,-7,-4,17.62
3525,1,1,-1,-1,-2,-2,2,-1,17.625
3526,0,-1,-1,-3,-1,1,2,-5,17.63
3527,1,2,-3,1,0,1,1,1,17.635
3528,-1,0,1,1,-2,0,1,1,17.64
3529,0,1,1,-1,-4,-3,-3,0,17.645
3530,0,-4,-2,0,-1,-2,0,4,17.650000000000002
