slno,emg1,emg2,emg3,emg4,emg5,emg6,emg7,emg8,Time
0,3,13,3,1,7,1,2,1,0.0
1,-1,3,3,4,1,-3,0,1,0.005
2,-4,-7,-2,2,-2,0,-2,-2,0.01
3,-2,0,-1,-3,-3,0,-1,-1,0.015
4,0,3,0,-6,-1,0,0,-2,0.02
5,1,3,0,-4,-3,-1,0,-1,0.025
6,0,-6,0,0,-1,-2,-1,-2,0.03
7,-4,-13,-2,0,-1,-3,-4,-4,0.035
8,-2,4,0,-2,-3,-2,-1,-1,0.04
9,1,19,2,2,1,-2,0,1,0.045
10,-1,5,-1,-2,-4,0,-2,-1,0.05
11,-1,-22,-2,-5,-2,-1,-1,-1,0.055
12,-1,-12,-2,1,-5,-2,-1,1,0.06
13,3,9,2,6,10,2,-2,-1,0.065
14,-2,4,-1,-1,0,0,-1,-1,0.07
15,-1,0,-3,-1,-1,1,-1,0,0.075
16,0,3,2,1,-2,-5,-1,0,0.08
17,-1,1,-1,-5,-2,0,0,-1,0.085
18,-1,7,-1,1,3,0,0,0,0.09
19,-1,15,-4,-2,-4,-1,-2,0,0.095
20,0,6,-5,-8,-2,-2,-1,0,0.1
21,-1,3,5,6,3,0,1,-1,0.105
22,-2,3,-3,-5,-1,-1,0,-1,0.11
23,1,9,-2,-9,-2,-1,1,1,0.115
24,0,-1,3,0,-1,-2,-2,-1,0.12
25,-3,-6,-1,-1,-2,-1,-1,-3,0.125
26,-1,0,-1,-1,0,-2,-1,1,0.13
27,1,8,-1,-7,1,1,1,2,0.135
28,0,2,7,9,0,-1,1,-2,0.14
29,-4,-5,-3,1,-3,0,-3,-2,0.145
30,-4,0,-3,1,-4,-4,-2,-2,0.15
31,0,7,-1,-2,-1,-2,-1,-1,0.155
32,0,0,-1,-5,1,1,-1,0,0.16
33,-1,-6,-2,-6,0,1,-2,-1,0.165
34,-1,-1,0,8,-3,0,0,-1,0.17
35,0,4,3,2,1,-3,0,-1,0.17500000000000002
36,0,-2,-2,-7,-1,1,0,-1,0.18
37,-3,-10,1,12,-4,-1,-3,-4,0.185
38,-1,4,-1,-7,-1,1,-1,0,0.19
39,-1,0,-1,0,0,0,-1,0,0.195
40,1,-1,1,3,3,0,-1,1,0.2
41,-1,-2,-2,-6,-2,-1,-1,0,0.20500000000000002
42,0,2,-3,-3,-2,-1,0,0,0.21
43,-1,-5,-2,-2,-1,0,0,-2,0.215
44,-3,0,3,5,-1,-1,-1,-3,0.22
45,-2,-6,-6,-2,-1,-2,-3,1,0.225
46,0,-1,-2,1,1,0,-1,0,0.23
47,1,1,2,-6,-6,-3,-1,-1,0.23500000000000001
48,0,-3,-5,-3,0,-1,-1,0,0.24
49,1,-1,0,-6,-1,-2,-1,-1,0.245
50,-1,-4,-4,5,-5,-4,-2,-3,0.25
51,-1,0,0,10,13,5,2,0,0.255
52,-1,0,-4,-6,-4,-1,-2,0,0.26
53,-1,-2,-7,7,-2,-1,-1,-3,0.265
54,0,3,21,-6,1,0,0,0,0.27
55,-1,1,-1,1,-4,-2,-1,1,0.275
56,-1,-3,0,-2,-1,-1,0,0,0.28
57,1,1,-5,-7,1,-2,0,0,0.28500000000000003
58,0,-8,-15,-8,-2,-2,-2,-3,0.29
59,0,4,-3,-3,-4,-4,-1,-3,0.295
60,-1,-7,12,9,3,2,2,1,0.3
61,-3,-3,-2,-1,-2,-1,-1,0,0.305
62,1,2,0,-1,-2,0,0,-2,0.31
63,-1,-2,-6,-2,0,-1,1,-1,0.315
64,0,-1,-9,-7,-4,-1,-2,-2,0.32
65,1,0,6,5,-2,-1,-3,-2,0.325
66,-2,-1,-4,0,1,0,0,1,0.33
67,-1,-3,-7,-24,-3,-4,-2,-1,0.335
68,0,-1,5,16,-1,0,-1,-1,0.34
69,-1,-2,0,1,1,0,-1,-1,0.34500000000000003
70,1,2,-1,-2,-2,-1,-1,-1,0.35000000000000003
71,0,2,2,3,-1,2,0,-2,0.355
72,-1,0,0,-8,-2,-2,0,-2,0.36
73,-2,-1,-3,-2,-2,1,-1,0,0.365
74,-1,-2,-3,-3,-1,0,-1,-1,0.37
75,-1,0,6,12,1,0,0,1,0.375
76,-1,-3,-6,-7,-4,-2,-2,-1,0.38
77,1,1,2,4,2,1,-1,0,0.385
78,-2,0,-5,-13,0,-2,0,-2,0.39
79,0,-3,3,13,0,0,1,0,0.395
80,0,2,-3,-3,-3,0,-1,0,0.4
81,-2,-1,0,-5,-2,-1,2,-1,0.405
82,1,2,0,0,-1,-1,0,0,0.41000000000000003
83,-1,-8,5,-8,0,0,0,-1,0.41500000000000004
84,-3,-4,1,6,-2,-1,0,-1,0.42
85,2,3,-2,-19,-3,-3,-1,-2,0.425
86,0,3,-1,21,1,0,-1,-1,0.43
87,-2,-2,-4,-2,-1,-1,-2,-1,0.435
88,-2,-1,-3,2,0,-1,-1,-2,0.44
89,-1,1,5,-1,0,0,-1,0,0.445
90,-1,-1,0,-3,-1,0,-1,-1,0.45
91,0,2,-1,-2,-1,-2,-2,0,0.455
92,-1,-4,-2,-3,-2,0,0,0,0.46
93,-1,0,-4,2,1,0,-1,-1,0.465
94,0,-5,-5,-1,-2,0,-1,-1,0.47000000000000003
95,-1,2,9,0,-1,-3,0,0,0.47500000000000003
96,-1,-1,-4,-6,1,-1,0,-3,0.48
97,-1,0,-2,3,1,-1,2,-1,0.485
98,-2,-4,-2,-24,-1,-1,-2,-1,0.49
99,0,-1,15,26,0,0,-1,0,0.495
100,-1,1,-1,-3,0,0,-1,0,0.5
101,0,0,-1,7,-1,-2,-1,0,0.505
102,0,1,-3,-7,0,-2,0,0,0.51
103,0,-6,-9,-4,2,2,0,0,0.515
104,-2,0,-2,2,-2,-1,-2,-1,0.52
105,1,3,-3,0,-2,-2,0,0,0.525
106,-5,-5,11,0,-4,-2,-1,-4,0.53
107,1,1,-2,-8,-2,-3,-2,-1,0.535
108,2,1,5,0,0,2,2,2,0.54
109,0,-1,-9,-6,0,-1,-2,-1,0.545
110,1,0,4,7,-4,-1,0,0,0.55
111,-1,-2,-5,-1,-3,1,-1,-1,0.555
112,-1,-3,-4,-7,-2,-2,-2,-1,0.56
113,0,-2,6,11,2,-1,0,-2,0.5650000000000001
114,-1,-2,-6,2,-1,-3,-3,-1,0.5700000000000001
115,-1,2,2,-7,-2,-1,-1,-1,0.5750000000000001
116,-1,0,-9,-16,-3,-1,1,1,0.58
117,-2,-3,3,12,-2,-2,1,-1,0.585
118,0,5,12,4,2,-1,1,-1,0.59
119,0,-1,-11,-5,-1,-1,-1,0,0.595
120,-1,4,3,4,0,-3,0,0,0.6
121,-1,-27,-6,-10,-4,0,-1,-1,0.605
122,-2,-21,0,1,0,3,0,1,0.61
123,-1,39,-8,-1,1,0,-2,-2,0.615
124,0,36,-4,0,1,-1,-1,-2,0.62
125,-1,-30,-14,-14,-4,-1,-1,-2,0.625
126,0,-33,15,10,1,-1,1,-1,0.63
127,0,20,15,20,1,0,1,-1,0.635
128,0,34,-3,4,1,-3,-3,0,0.64
129,-2,-24,-8,-14,-6,-2,-1,0,0.645
130,0,-37,-6,-4,5,1,-1,0,0.65
131,-4,16,1,-9,-1,-1,0,-2,0.655
132,0,36,0,-7,-3,-1,-1,0,0.66
133,-1,-25,-1,2,-2,0,-1,-1,0.665
134,-2,-37,-6,3,-5,-2,-2,-1,0.67
135,0,19,4,6,1,-1,-2,-1,0.675
136,1,26,-1,-1,0,-1,-2,-1,0.68
137,-1,-20,3,-8,-2,-1,-1,-1,0.685
138,0,-23,-8,-4,-2,-1,0,-1,0.6900000000000001
139,1,22,-9,-17,-1,-2,-2,0,0.6950000000000001
140,-2,23,2,10,1,-1,1,-1,0.7000000000000001
141,1,-31,5,6,1,0,-1,0,0.705
142,0,-16,-1,2,2,0,0,-3,0.71
143,-3,27,3,-6,-4,0,-1,-1,0.715
144,1,19,-4,-8,-3,-1,1,-2,0.72
145,-2,-32,-9,-1,-1,-1,0,0,0.725
146,-1,-13,10,5,1,2,-1,0,0.73
147,0,29,-1,-13,-2,-1,0,0,0.735
148,-1,17,16,14,-2,-2,-2,-2,0.74
149,-2,-28,5,4,3,-3,-1,-1,0.745
150,1,-16,-8,-4,-2,0,-1,0,0.75
151,1,28,-9,-7,1,-1,-1,-1,0.755
152,-2,17,-4,-6,-1,-2,-2,-1,0.76
153,1,-29,-2,-5,-2,-1,-1,0,0.765
154,-1,-13,6,10,2,0,-2,-2,0.77
155,-1,24,0,7,0,0,-1,0,0.775
156,0,13,-4,-2,-5,-1,-2,-1,0.78
157,1,-28,-2,0,-2,0,-2,0,0.785
158,0,-8,-3,-9,-4,-2,0,0,0.79
159,0,23,-3,2,-2,-1,-2,-2,0.795
160,-2,3,-10,-17,0,-1,0,-1,0.8
161,0,-20,2,18,0,-1,-1,-2,0.805
162,0,-2,-7,4,0,0,-1,-2,0.81
163,0,17,-6,7,2,0,0,0,0.8150000000000001
164,1,4,2,-15,-2,0,-1,-1,0.8200000000000001
165,-1,-16,13,9,0,-2,-1,0,0.8250000000000001
166,-1,-3,-19,-13,-1,-2,-1,-1,0.8300000000000001
167,-2,9,-2,11,1,0,-1,-1,0.835
168,-2,-5,-16,0,1,-2,-2,-1,0.84
169,1,-3,17,-4,0,0,1,-1,0.845
170,1,5,23,6,0,0,0,1,0.85
171,-2,7,-5,-13,-3,-2,-1,-2,0.855
172,-1,-3,-6,2,-1,-1,-1,-1,0.86
173,-2,-10,-1,2,2,0,-1,-2,0.865
174,-1,0,-4,1,0,-1,-1,0,0.87
175,-1,7,3,-5,-5,-2,-1,-1,0.875
176,0,-1,-1,3,10,1,1,-1,0.88
177,-2,-8,-5,-7,-1,-2,-1,0,0.885
178,-1,1,-2,3,-3,-1,-2,-1,0.89
179,1,7,-12,-3,-5,-1,1,1,0.895
180,1,-12,-7,3,-4,-1,-1,-2,0.9
181,0,-7,-4,-18,-2,-2,-3,-1,0.905
182,0,3,-1,2,-2,-1,-1,-1,0.91
183,0,9,4,-9,1,2,1,-2,0.915
184,2,-1,5,17,-1,-1,-2,1,0.92
185,-3,-8,5,9,1,-1,-1,-4,0.925
186,-2,-2,-28,-8,-3,0,0,-2,0.93
187,2,12,27,5,-1,-2,-1,-2,0.935
188,-1,-1,12,-7,-2,-1,1,1,0.9400000000000001
189,-1,-7,-11,-5,-1,-1,0,0,0.9450000000000001
190,0,6,0,3,0,-1,-1,0,0.9500000000000001
191,-2,7,-3,0,0,-1,-1,0,0.9550000000000001
192,1,0,-5,-15,-2,0,-1,0,0.96
193,-1,-4,7,15,-3,0,-1,1,0.965
194,-1,6,-1,-5,-1,0,-1,0,0.97
195,-2,8,-8,1,0,-2,-1,1,0.975
196,-2,-3,9,-13,0,0,-1,-1,0.98
197,-2,-6,-2,19,0,-1,-1,0,0.985
198,-1,7,3,-4,-6,-1,-2,0,0.99
199,1,8,-6,3,4,0,-2,-1,0.995
200,-3,-16,-8,2,-5,-1,-2,-2,1.0
201,-2,-6,-6,-18,1,1,-1,-1,1.0050000000000001
202,-1,7,6,7,-2,-1,2,1,1.01
203,-2,7,-1,-1,-1,-2,-2,-2,1.0150000000000001
204,1,-11,-18,-4,-3,-1,-1,0,1.02
205,0,-4,12,0,0,1,0,2,1.025
206,-1,6,-6,-4,1,-1,-1,0,1.03
207,0,5,-1,-1,-1,0,0,0,1.035
208,-3,-10,-6,-1,0,-3,0,-2,1.04
209,0,-3,-2,12,-1,-3,-1,-1,1.045
210,0,10,5,-1,3,0,0,-1,1.05
211,-3,2,-6,3,-1,-3,-2,-1,1.055
212,-1,-4,1,-7,-4,-1,-3,-1,1.06
213,0,-2,-1,-10,-1,-1,1,0,1.065
214,-2,6,-2,-8,2,-1,0,0,1.07
215,1,3,4,9,0,0,-1,0,1.075
216,-1,-7,4,8,-1,-2,0,-2,1.08
217,1,-1,2,-5,2,4,-1,0,1.085
218,-1,6,-4,7,0,-2,-2,-1,1.09
219,-4,2,10,-13,-5,-1,-1,0,1.095
220,0,-6,2,-7,0,-3,-2,1,1.1
221,-2,-3,-2,19,0,0,-2,-3,1.105
222,0,8,0,-5,-1,-1,-1,-2,1.11
223,-2,2,3,4,0,-1,-2,-2,1.115
224,0,-6,2,3,-7,0,-1,-2,1.12
225,-1,-2,-12,-15,-4,-1,-1,-1,1.125
226,1,7,-3,-9,0,0,1,0,1.1300000000000001
227,0,4,-4,6,0,0,1,0,1.135
228,-1,-4,2,7,2,-2,0,0,1.1400000000000001
229,-1,-2,-7,-12,-1,-2,0,0,1.145
230,-3,7,0,-6,-2,-1,0,-1,1.1500000000000001
231,-1,2,-6,9,-1,0,0,-1,1.155
232,-3,-9,-2,-4,-2,0,0,-1,1.16
233,0,-1,1,8,1,0,-1,-1,1.165
234,1,3,1,-4,-2,0,1,0,1.17
235,0,2,0,-9,0,-3,0,-1,1.175
236,3,-9,3,14,3,3,1,0,1.18
237,-4,0,1,-7,-4,-2,-3,-2,1.185
238,1,8,-3,-2,-1,1,0,-1,1.19
239,-1,1,-5,-7,0,0,0,-1,1.195
240,-2,-7,6,0,1,-2,-2,0,1.2
241,0,-3,-5,10,-2,0,-3,0,1.205
242,-4,-4,-2,1,-3,1,-1,1,1.21
243,1,2,-2,-2,2,0,0,0,1.215
244,-2,-10,-9,-9,-1,-1,-1,-1,1.22
245,0,-1,-2,-17,-2,-2,0,-1,1.225
246,0,8,20,10,-2,-1,0,-1,1.23
247,0,3,-19,-3,-2,-2,1,-1,1.235
248,-1,-9,2,3,2,-1,-3,-2,1.24
249,-2,-5,-9,-12,-2,-1,1,1,1.245
250,0,10,-2,5,0,-1,-1,-1,1.25
251,-2,1,8,0,-1,-1,0,-1,1.2550000000000001
252,-2,-8,-6,7,-2,-2,-2,-2,1.26
253,-1,1,2,4,1,0,0,1,1.2650000000000001
254,-1,9,-4,-13,-2,-2,-2,-2,1.27
255,0,2,4,12,-1,-2,-1,0,1.2750000000000001
256,1,-9,-5,-6,-2,-1,0,1,1.28
257,0,-2,7,-3,1,-1,-1,-2,1.285
258,-1,7,-2,2,-4,-1,0,0,1.29
259,-2,0,-15,-27,-2,1,-1,1,1.295
260,-1,-5,14,12,3,0,-1,-1,1.3
261,-1,-3,3,25,4,-1,-2,-1,1.305
262,0,6,-4,3,1,-1,-2,-1,1.31
263,2,3,-4,-5,-3,-2,-2,1,1.315
264,-2,-9,3,-12,-4,1,0,0,1.32
265,-2,-1,7,-6,-2,0,2,0,1.325
266,0,7,-1,1,-1,0,1,-2,1.33
267,1,2,-4,-5,-3,-1,1,-1,1.335
268,-1,-9,-2,0,-1,-2,2,-1,1.34
269,0,-2,-1,2,0,0,-1,-1,1.345
270,0,9,4,-5,-2,-2,-2,0,1.35
271,-2,0,-4,0,1,0,-2,-2,1.355
272,-1,-6,-5,5,-2,-1,-1,-2,1.36
273,-1,-1,1,-19,-3,-3,-1,-1,1.365
274,0,8,2,23,4,-1,1,-1,1.37
275,-2,3,7,9,-2,-1,1,-1,1.375
276,-3,-11,-9,-7,-4,-1,-1,0,1.3800000000000001
277,-1,-2,-3,-4,-1,-1,-2,0,1.385
278,-1,8,-2,-12,0,1,0,2,1.3900000000000001
279,1,2,-3,5,0,0,0,-1,1.395
280,-2,-10,17,0,3,1,-3,-1,1.4000000000000001
281,-1,-3,-14,-9,-1,-1,1,0,1.405
282,-3,9,1,-1,0,-1,1,-1,1.41
283,-2,1,2,2,-2,-2,-3,-2,1.415
284,0,-11,-8,-4,4,0,0,0,1.42
285,0,1,-5,-3,-3,-2,0,-1,1.425
286,0,8,11,0,0,-2,-3,-1,1.43
287,-2,1,6,6,1,-1,0,-1,1.435
288,-2,-11,-12,1,-3,-1,-1,-2,1.44
289,-1,-1,-3,-8,-5,-1,-1,0,1.445
290,1,7,-8,2,6,-1,-1,0,1.45
291,1,2,4,-5,0,0,-1,-2,1.455
292,-2,-11,-1,3,-1,-1,-2,-2,1.46
293,0,-2,1,0,0,1,0,0,1.465
294,-1,9,-16,-16,-3,-4,-1,-1,1.47
295,-1,4,12,12,0,-1,-1,0,1.475
296,0,-17,-1,1,0,-2,0,-1,1.48
297,-1,-2,5,0,-1,-1,-1,-1,1.485
298,0,19,3,1,-2,-1,-1,0,1.49
299,-1,1,-8,-7,0,0,-1,-2,1.495
300,0,-14,8,3,-3,-3,-1,-1,1.5
301,-1,-1,-13,4,0,0,0,-2,1.5050000000000001
302,-1,11,8,-5,0,1,0,-1,1.51
303,0,4,-5,-1,-2,-1,0,0,1.5150000000000001
304,0,-10,4,2,1,0,-1,0,1.52
305,-1,-1,-3,-4,-2,-1,-1,0,1.5250000000000001
306,-2,1,-17,-3,-3,-1,-2,-2,1.53
307,-1,2,13,6,0,-2,-2,-1,1.5350000000000001
308,-2,-15,-9,-24,-6,-3,-3,-1,1.54
309,-2,-2,-2,24,10,1,-1,-1,1.545
310,-1,10,0,-1,1,1,-1,0,1.55
311,0,2,-9,-11,-1,-3,-1,0,1.555
312,-1,-13,10,17,1,0,0,-1,1.56
313,0,1,-3,-5,-1,0,0,0,1.565
314,0,7,-3,-1,-3,-1,0,1,1.57
315,-2,3,6,-6,-1,-1,1,0,1.575
316,2,-4,1,-2,-1,-3,-1,0,1.58
317,0,-3,-2,0,-2,-1,-2,-2,1.585
318,-1,4,-2,1,1,1,-1,-2,1.59
319,0,1,-5,4,1,1,-1,-1,1.595
320,-3,-6,-10,-6,-2,2,0,0,1.6
321,-2,3,8,9,2,-1,-1,-1,1.605
322,1,11,17,2,-1,-3,-1,0,1.61
323,-2,1,-7,-9,-2,0,-3,0,1.615
324,-1,-6,-2,-8,-2,0,-1,0,1.62
325,0,0,1,2,-1,0,-1,-2,1.625
326,-2,8,0,2,1,-1,1,1,1.6300000000000001
327,-2,2,2,-5,-1,-2,-2,-3,1.635
328,-1,-8,-2,2,1,2,0,1,1.6400000000000001
329,1,-1,4,-11,-3,0,0,-1,1.645
330,1,9,-6,3,-1,-1,-1,1,1.6500000000000001
331,-3,1,-2,1,-4,-1,-3,0,1.655
332,-2,-9,4,7,-2,-1,-1,-1,1.6600000000000001
333,-1,-3,-12,-14,-8,-2,0,0,1.665
334,0,9,6,8,11,2,0,1,1.67
335,0,0,-6,-3,-3,-2,2,1,1.675
336,-1,-15,7,-9,-3,-1,-1,-1,1.68
337,0,-1,3,5,1,-1,0,0,1.685
338,-1,12,1,4,-3,-1,-2,-2,1.69
339,0,3,-4,0,-2,-1,-1,0,1.695
340,0,-10,-8,-1,0,-1,0,1,1.7
341,0,-2,-1,-13,-1,-1,1,2,1.705
342,-1,9,6,8,-2,-3,-3,-1,1.71
343,0,1,-5,3,1,1,0,-2,1.715
344,-1,-11,-2,0,-1,-2,-2,-3,1.72
345,-1,0,-2,-4,0,-1,-1,-1,1.725
346,-1,9,-3,1,-2,-1,-2,-4,1.73
347,-1,2,3,-3,-2,-1,-1,-1,1.735
348,-1,-12,-14,-2,-6,-3,-1,-4,1.74
349,-1,-1,17,12,12,1,0,1,1.745
350,0,8,-15,-8,-2,-2,-1,-2,1.75
351,-1,0,-3,3,0,0,-1,-1,1.7550000000000001
352,0,-12,-12,-22,-2,-3,-1,-2,1.76
353,-1,6,5,4,-4,-2,-2,0,1.7650000000000001
354,-1,7,12,27,0,1,0,-1,1.77
355,0,1,-6,-1,-1,0,-2,0,1.7750000000000001
356,0,-7,10,2,-2,-1,-1,0,1.78
357,-2,-1,-11,-8,-3,0,-1,-1,1.7850000000000001
358,-1,4,-1,-10,0,-1,0,0,1.79
359,1,0,4,-2,0,-1,1,0,1.795
360,-1,1,0,2,1,1,-1,0,1.8
361,-3,-2,-8,-1,-4,-1,-2,-3,1.805
362,-2,-4,7,-6,-2,0,2,-1,1.81
363,0,-7,-6,-7,-2,0,-1,0,1.815
364,-5,2,13,12,1,0,-1,-1,1.82
365,2,2,-1,1,0,-2,0,1,1.825
366,0,-7,-10,-8,-2,-1,0,1,1.83
367,-1,-2,1,5,-2,-1,-1,0,1.835
368,1,1,-4,3,-1,0,0,0,1.84
369,-2,2,-1,-17,-4,-2,-1,0,1.845
370,1,2,7,7,-2,0,-1,-1,1.85
371,-1,-10,-5,-3,2,0,-1,0,1.855
372,2,3,-5,-1,0,1,-1,-1,1.86
373,1,2,2,5,1,-1,0,-1,1.865
374,0,-3,-10,-17,-4,0,-1,1,1.87
375,-2,-3,1,4,-2,-2,-2,-1,1.875
376,-1,1,-3,-6,0,0,-2,1,1.8800000000000001
377,-2,3,-10,6,-2,0,-3,-1,1.885
378,1,5,6,-20,-1,-2,-1,0,1.8900000000000001
379,-1,-5,0,15,1,-2,-2,0,1.895
380,-2,-1,-3,2,1,-1,-2,0,1.9000000000000001
381,-1,0,-8,-2,0,-1,0,2,1.905
382,-1,7,10,0,0,-2,-1,-1,1.9100000000000001
383,0,3,2,-4,0,0,-1,-2,1.915
384,0,-4,-7,-2,1,-1,-1,-3,1.92
385,-1,4,6,0,-3,-2,-1,-1,1.925
386,0,7,-13,1,3,0,-1,-2,1.93
387,-2,1,9,2,0,-1,-1,0,1.935
388,0,-6,5,10,0,-1,1,1,1.94
389,-1,3,-6,-9,-1,-1,-1,-1,1.945
390,0,5,4,10,-2,0,-2,0,1.95
391,-1,2,-3,-7,-2,-1,-2,0,1.955
392,-2,-11,2,-14,0,0,-2,-1,1.96
393,2,4,7,17,1,-1,-1,-1,1.965
394,-2,1,-25,-10,-2,-1,-1,0,1.97
395,0,3,17,-3,-1,0,1,-3,1.975
396,0,-7,-2,10,0,1,0,-1,1.98
397,0,-1,2,-10,-1,-1,-2,-1,1.985
398,-1,13,-11,-4,-1,-3,1,-1,1.99
399,0,4,10,0,1,-1,-1,-3,1.995
400,-2,-21,-19,-12,0,-1,-1,-1,2.0
401,-2,2,15,14,-1,0,-1,-1,2.005
402,-3,12,8,3,1,0,0,0,2.0100000000000002
403,1,6,-10,-1,-1,-1,-1,0,2.015
404,-1,-13,5,0,-1,-1,-1,-1,2.02
405,-1,-3,-18,-22,-4,1,0,0,2.025
406,2,15,17,18,-2,-1,-1,-1,2.0300000000000002
407,0,2,-9,-5,-1,-2,0,0,2.035
408,1,-8,10,6,-3,-3,-1,-2,2.04
409,-2,1,-5,0,-1,-1,0,-2,2.045
410,2,16,-3,-18,-2,-1,0,-1,2.05
411,-4,-1,-5,-2,-4,-2,0,-3,2.055
412,-2,-12,-4,-4,1,-1,-1,0,2.06
413,0,0,8,21,3,-1,-1,0,2.065
414,-3,5,8,-5,-4,-2,0,-2,2.07
415,1,-1,-3,0,-3,0,-1,-1,2.075
416,-1,-12,-18,-15,-2,-1,1,0,2.08
417,0,8,10,8,0,0,0,-1,2.085
418,-3,1,-17,3,0,0,-1,-1,2.09
419,-3,-1,8,-7,-1,-2,-1,-2,2.095
420,-3,-9,18,11,-2,1,-2,-2,2.1
421,0,-1,-3,-9,1,1,-1,-1,2.105
422,1,10,8,4,1,0,-1,0,2.11
423,0,1,-16,-8,-5,-3,-2,-1,2.115
424,1,-7,-2,-7,-1,-1,-2,0,2.12
425,-2,-2,-1,-3,-5,0,0,-1,2.125
426,-1,11,12,13,6,-1,1,0,2.13
427,-3,-1,2,6,1,-1,0,-2,2.1350000000000002
428,1,-6,-5,-19,-2,-1,-1,-2,2.14
429,1,1,0,10,-1,-2,-1,-2,2.145
430,-2,5,-14,-14,-5,-4,-2,0,2.15
431,1,0,11,-3,0,1,-2,0,2.1550000000000002
432,0,-5,-1,13,2,-2,-2,1,2.16
433,-1,2,1,-11,-2,0,-2,-1,2.165
434,0,-2,0,-3,-1,0,-1,-1,2.17
435,-2,-16,-13,4,0,-1,0,-2,2.1750000000000003
436,-2,-4,-4,2,-2,0,-3,0,2.18
437,-1,5,9,-2,2,0,0,1,2.185
438,3,5,-5,-13,-2,0,-1,1,2.19
439,-3,-13,-3,8,0,0,-1,0,2.195
440,-1,-1,2,3,0,-1,-1,-1,2.2
441,-1,5,-5,-18,-2,-3,0,-1,2.205
442,1,-3,-1,21,2,0,-1,-2,2.21
443,0,-3,-12,-12,0,-1,0,0,2.215
444,0,0,5,2,0,1,0,-1,2.22
445,-2,6,-9,2,2,-1,-2,0,2.225
446,-2,2,5,-15,-2,-3,-1,0,2.23
447,0,-6,-10,-9,-9,-2,-2,-1,2.235
448,-1,-5,1,12,8,1,2,0,2.24
449,0,7,6,-5,-2,-1,1,0,2.245
450,2,7,-3,-2,1,-1,-1,0,2.25
451,-3,-11,-7,6,-1,-1,-1,0,2.255
452,1,-1,-1,-13,-5,-1,0,-1,2.2600000000000002
453,0,1,-1,-2,1,-3,0,-1,2.265
454,-1,1,0,15,0,0,0,-2,2.27
455,1,-1,2,1,0,0,-3,-2,2.275
456,0,-3,-2,-4,-1,-1,0,0,2.2800000000000002
457,-1,6,5,-2,0,0,0,-2,2.285
458,-2,2,-20,-6,-4,-2,0,-2,2.29
459,-1,-1,11,-5,-1,1,0,0,2.295
460,-2,-4,-17,5,-2,-2,-3,-3,2.3000000000000003
461,-1,7,21,-1,-2,-1,-2,-1,2.305
462,-2,4,-5,-3,0,-2,-1,-2,2.31
463,-4,0,5,-4,1,0,-1,-2,2.315
464,1,-6,1,-6,0,0,1,0,2.32
465,-2,3,-1,24,2,1,-1,0,2.325
466,0,6,-3,-5,-1,-1,0,0,2.33
467,1,-1,12,3,0,0,0,-1,2.335
468,-4,-5,-7,-2,-2,-2,-2,-1,2.34
469,3,7,-5,-3,-1,0,-1,-2,2.345
470,-2,5,-5,-7,-1,0,0,-1,2.35
471,2,1,1,6,0,-2,-2,-2,2.355
472,0,-3,2,5,-1,-2,0,0,2.36
473,0,3,-2,-2,1,1,0,0,2.365
474,-2,9,5,-3,-2,0,-2,-2,2.37
475,-2,-4,-16,0,-1,-3,-1,-1,2.375
476,-3,-6,-11,1,-4,-1,-3,-2,2.38
477,0,12,6,-7,-3,0,-1,0,2.3850000000000002
478,0,8,10,13,4,1,1,-1,2.39
479,0,-6,-5,-8,-2,0,-1,-2,2.395
480,-2,-4,6,6,0,-1,1,-2,2.4
481,-2,0,-19,0,1,-1,0,0,2.4050000000000002
482,1,9,-1,-10,0,-1,-1,0,2.41
483,0,-7,-1,-1,-2,-3,-1,0,2.415
484,-2,-4,-3,0,-2,0,0,-1,2.42
485,-1,1,-14,-8,-3,-1,-2,-1,2.4250000000000003
486,1,3,6,1,-1,-1,0,-2,2.43
487,0,-9,-14,-9,-2,-2,0,1,2.435
488,2,0,22,10,1,2,0,1,2.44
489,0,3,-6,5,-3,-1,-1,-2,2.445
490,-2,1,1,9,-3,-2,-2,-1,2.45
491,0,-10,-20,2,5,2,2,0,2.455
492,1,-2,16,-6,-1,-2,-2,0,2.46
493,-3,4,4,3,0,-2,0,0,2.465
494,-2,1,-6,-8,-6,0,1,0,2.47
495,0,-4,8,1,0,1,-1,-3,2.475
496,-4,-6,-12,-2,-4,-1,-1,-2,2.48
497,2,3,-5,-4,-1,-2,-1,1,2.485
498,1,4,-5,-16,-2,-2,-1,0,2.49
499,-1,-7,1,14,2,-2,0,-2,2.495
500,-1,-4,-5,-4,-2,1,-2,-2,2.5
501,0,3,-9,-8,0,-1,2,-2,2.505
502,0,6,25,19,1,-1,0,1,2.5100000000000002
503,2,-5,2,-8,-3,0,-2,0,2.515
504,1,-3,-2,-2,-2,-1,0,-1,2.52
505,0,7,-2,4,-1,-1,-2,-1,2.525
506,1,3,-16,-14,-1,-1,-1,-1,2.5300000000000002
507,-2,-7,7,3,-8,0,1,-1,2.535
508,1,-1,5,12,11,1,1,-1,2.54
509,-1,2,-8,-9,-7,-1,0,-1,2.545
510,-2,4,-2,-3,-1,-1,-2,-2,2.5500000000000003
511,0,-4,11,-4,-1,0,-3,0,2.555
512,-5,-7,-11,8,0,0,-1,-2,2.56
513,-1,6,3,1,-2,0,-1,0,2.565
514,0,3,-7,2,0,-2,-1,-2,2.57
515,-1,-6,-3,-12,-3,-1,1,-2,2.575
516,1,-2,-1,-11,-2,-1,-1,-1,2.58
517,-2,5,4,2,2,0,0,-1,2.585
518,-3,4,0,-2,-4,0,-1,-1,2.59
519,1,-3,-3,-7,1,-1,-3,-1,2.595
520,2,-2,-4,8,-1,-3,1,0,2.6
521,-2,8,6,6,0,-2,-1,-2,2.605
522,1,5,2,-2,-1,-2,-2,-2,2.61
523,0,-5,-1,-3,-1,0,-2,-1,2.615
524,0,-3,-7,-6,-4,-1,-3,-2,2.62
525,1,1,-2,3,-1,0,1,0,2.625
526,1,2,-2,-5,-2,0,1,1,2.63
527,-3,-4,10,16,5,0,0,-1,2.6350000000000002
528,-3,-5,-29,-14,-5,-4,-1,-1,2.64
529,1,12,23,-3,-1,-1,-1,0,2.645
530,-2,0,6,4,-2,0,-1,-2,2.65
531,-4,-8,-5,-7,-6,-2,-3,1,2.6550000000000002
532,-2,-3,11,1,-1,-1,-1,-2,2.66
533,0,4,-12,-6,-2,-1,-2,-2,2.665
534,2,5,0,0,0,-1,0,0,2.67
535,1,-4,14,8,1,-2,0,-1,2.6750000000000003
536,-4,-4,-9,-9,-1,-1,0,0,2.68
537,-2,2,-4,13,2,-1,-1,0,2.685
538,0,4,-7,-6,-1,0,-2,0,2.69
539,1,-6,-8,-5,1,-1,-2,1,2.695
540,-1,-2,-3,-6,-3,-1,-1,-1,2.7
541,1,12,8,0,2,1,-1,0,2.705
542,-2,4,-15,-4,0,0,-1,-2,2.71
543,0,-7,-6,-3,-4,-1,0,0,2.715
544,2,-3,-8,-3,0,-1,2,-1,2.72
545,-2,8,18,-5,-2,-2,-1,0,2.725
546,-1,3,1,9,-1,-2,-1,-2,2.73
547,-3,-6,-3,-2,1,-2,-1,-1,2.735
548,0,-3,9,18,1,2,-1,-1,2.74
549,1,3,-5,-5,0,-1,-1,-1,2.745
550,0,3,0,-1,-1,-3,0,0,2.75
551,-1,-11,-12,-7,-4,-1,-1,-2,2.755
552,1,-1,20,-7,-5,0,0,2,2.7600000000000002
553,-2,1,-1,3,3,2,0,-1,2.765
554,-2,4,-9,2,1,-1,1,-1,2.77
555,0,-10,-8,-2,-3,1,-1,-2,2.775
556,0,-2,5,-2,1,-2,0,1,2.7800000000000002
557,-1,5,-6,8,-1,-2,1,0,2.785
558,0,2,5,2,1,1,-1,0,2.79
559,-1,-5,-5,-17,-2,-2,0,0,2.795
560,-1,-3,9,27,2,-2,-1,-2,2.8000000000000003
561,-1,5,-5,-14,-2,-2,-1,-1,2.805
562,-2,4,-7,-2,1,-1,-2,0,2.81
563,0,-6,-8,0,-2,-2,-1,0,2.815
564,0,-2,9,-10,-2,1,-1,-2,2.82
565,1,6,5,3,3,1,0,-1,2.825
566,-1,4,-4,-13,-3,-1,-1,0,2.83
567,-3,-9,0,20,-5,-3,-2,-3,2.835
568,1,-3,-11,7,8,3,0,-1,2.84
569,0,0,-11,4,0,0,-1,0,2.845
570,-2,3,9,-1,-1,1,0,-1,2.85
571,0,-6,2,-3,0,0,-1,-1,2.855
572,-3,-4,-8,-6,-4,-3,-1,-1,2.86
573,1,8,-3,-9,-4,-1,-1,1,2.865
574,1,2,-2,-6,-1,1,-1,-1,2.87
575,0,-4,8,3,2,-2,-1,-1,2.875
576,0,0,-4,-2,-2,-1,-1,0,2.88
577,-1,11,-8,-6,-1,-2,-2,-1,2.8850000000000002
578,1,2,21,5,0,-2,-1,-1,2.89
579,-1,-7,4,9,-1,1,-1,-2,2.895
580,-1,-2,4,5,3,-1,-2,-1,2.9
581,1,6,-13,-3,-3,-1,-1,0,2.9050000000000002
582,-1,2,3,-8,0,0,-1,0,2.91
583,1,-8,2,0,1,0,0,0,2.915
584,-1,-1,6,8,-2,0,-2,-1,2.92
585,-2,2,-8,-3,-1,-2,-2,0,2.9250000000000003
586,0,3,-6,1,-3,-2,-1,-1,2.93
587,-1,-4,-1,-3,3,-1,-3,0,2.935
588,-1,-3,-4,-10,-5,1,0,1,2.94
589,0,9,3,5,0,-1,-2,-2,2.945
590,-2,2,-3,-1,-5,-2,-1,-2,2.95
591,-1,-5,-7,-11,0,0,-2,-3,2.955
592,-2,-1,2,7,-2,-2,-1,-1,2.96
593,0,9,22,1,0,0,-1,-1,2.965
594,-1,2,-10,-8,-2,-2,-1,0,2.97
595,-1,-8,4,15,-2,-1,1,1,2.975
596,0,-1,2,-12,1,-2,-2,1,2.98
597,0,2,-20,0,-1,0,2,0,2.985
598,-1,2,28,-1,-2,-2,-2,-2,2.99
599,0,-8,1,-2,1,0,0,-1,2.995
600,-3,-3,-8,-6,0,-1,-1,-2,3.0
601,1,10,3,-3,0,-2,-1,-1,3.005
602,-1,2,-20,-9,-1,-2,-3,-2,3.0100000000000002
603,-1,-8,8,16,0,-1,0,-1,3.015
604,1,0,1,-16,-6,-2,0,0,3.02
605,0,6,-1,13,-1,-2,-1,-1,3.025
606,-2,2,-1,11,3,1,2,1,3.0300000000000002
607,-2,-6,-2,-13,-4,-1,-2,-2,3.035
608,1,-1,-2,0,-2,-1,-1,-1,3.04
609,-1,2,-3,-9,-6,-1,1,0,3.045
610,1,2,15,8,-2,-1,0,1,3.0500000000000003
611,-2,-7,-2,-4,-1,-3,-2,-2,3.055
612,0,-2,-8,-4,0,1,0,0,3.06
613,0,11,-5,-9,1,0,0,-1,3.065
614,-2,2,2,13,2,1,-2,-2,3.0700000000000003
615,-2,-9,-2,-10,-9,-1,-1,-1,3.075
616,0,-1,1,0,0,-2,0,-2,3.08
617,-2,5,-7,-1,1,-1,-1,-2,3.085
618,-1,2,-4,1,-2,-3,0,-1,3.09
619,-1,-9,2,7,0,-1,-2,0,3.095
620,0,-2,-5,-10,-4,0,-1,0,3.1
621,-1,8,7,-1,-1,-1,0,-1,3.105
622,0,2,-8,-8,1,-2,1,-1,3.11
623,-1,-13,-15,0,-3,-1,-2,-3,3.115
624,-2,-1,3,-4,4,-1,-3,-1,3.12
625,-1,4,4,14,0,0,0,-1,3.125
626,2,1,5,2,0,-3,0,0,3.13
627,-2,-13,-4,-9,-3,2,1,2,3.1350000000000002
628,-1,-4,-2,2,-3,0,-1,-1,3.14
629,-1,13,4,-3,-1,0,-2,-2,3.145
630,0,4,-13,23,-5,-3,-1,0,3.15
631,-1,-13,-5,27,9,2,1,-1,3.1550000000000002
632,1,-1,9,2,-4,0,-1,-1,3.16
633,-1,7,11,0,-1,-2,-3,0,3.165
634,-2,0,0,-20,1,-1,-2,-1,3.17
635,0,-9,4,-29,-7,-3,-1,-2,3.1750000000000003
636,-3,-3,-13,13,2,0,0,-1,3.18
637,1,12,5,-17,-1,0,1,1,3.185
638,-1,3,-6,-8,-3,-1,-2,-2,3.19
639,0,-14,-2,-15,-1,-1,-2,1,3.1950000000000003
640,-1,-2,6,-7,3,1,0,-1,3.2
641,-3,6,-1,21,0,0,0,-1,3.205
642,-1,2,-4,-1,-1,-1,-1,-1,3.21
643,0,-9,-9,-2,-1,0,-1,1,3.215
644,0,-4,12,-7,-4,-1,-1,-2,3.22
645,-1,-5,-14,-6,-1,-1,-2,0,3.225
646,1,2,-1,4,1,0,0,-3,3.23
647,-2,-8,-1,-1,-2,-1,1,-1,3.235
648,0,-1,-3,-4,-2,-1,-1,2,3.24
649,-3,4,2,5,3,0,0,-2,3.245
650,0,1,-3,-1,-1,0,-2,-1,3.25
651,-1,-8,-4,1,1,-2,-3,-1,3.255
652,2,-3,6,0,-1,1,0,-1,3.2600000000000002
653,0,2,-10,6,0,0,0,0,3.265
654,-1,0,10,-4,-2,-1,1,0,3.27
655,-3,-12,-2,1,-5,-1,-1,-2,3.275
656,-2,-1,-13,-1,-2,-1,-1,-2,3.2800000000000002
657,2,14,9,-16,-1,-2,-1,0,3.285
658,-2,1,-4,4,2,1,0,-1,3.29
659,0,-5,-7,1,-3,-2,0,2,3.295
660,0,-3,12,-12,-2,0,0,2,3.3000000000000003
661,-3,5,0,17,-1,-1,-1,-2,3.305
662,-1,1,-10,-4,-2,-1,-1,-1,3.31
663,2,0,19,6,3,1,0,-2,3.315
664,-4,-2,-16,-1,0,-2,-2,-1,3.3200000000000003
665,-1,12,-3,-11,-4,-2,-1,-1,3.325
666,-1,2,-1,16,2,0,0,0,3.33
667,1,-5,14,-3,0,0,1,-1,3.335
668,-2,-2,-4,4,-1,-2,-1,-1,3.34
669,0,10,1,-6,-2,-1,0,-1,3.345
670,-4,1,-9,-9,-2,0,-2,-2,3.35
671,-1,-9,-9,-3,-1,-1,-2,-2,3.355
672,-1,0,-5,3,-1,-2,0,-1,3.36
673,2,9,9,1,0,0,-1,0,3.365
674,-1,2,-6,-13,-2,-1,-1,-1,3.37
675,-2,-10,7,14,1,-1,-1,0,3.375
676,-1,-2,-3,-7,1,-1,0,0,3.38
677,0,11,-3,7,-1,-2,-2,-2,3.3850000000000002
678,1,2,5,-2,0,0,-2,-2,3.39
679,-1,-14,-3,-1,1,0,-2,-1,3.395
680,2,-1,15,2,-9,-4,-1,-1,3.4
681,-4,-1,-7,0,11,3,1,0,3.4050000000000002
682,1,2,-12,-3,-3,-3,1,-1,3.41
683,-2,-12,11,0,-1,-1,0,-1,3.415
684,-1,0,-7,2,-2,-1,-1,-1,3.42
685,0,16,0,-6,-4,-2,-1,-2,3.4250000000000003
686,0,1,-2,-2,-1,1,-2,1,3.43
687,-3,-17,-5,2,0,-1,0,-2,3.435
688,0,-3,-13,-8,-2,0,0,-2,3.44
689,0,14,13,7,-1,-2,-2,1,3.4450000000000003
690,-1,4,5,11,0,0,-1,0,3.45
691,1,-13,-5,-7,-3,-1,-1,-1,3.455
692,-1,-3,6,14,5,0,0,-1,3.46
693,0,12,-11,-7,-3,-2,-1,0,3.465
694,-1,3,8,-12,-2,-2,1,0,3.47
695,-1,-14,5,5,-4,-2,-2,0,3.475
696,-3,-2,-7,5,-2,-1,-1,0,3.48
697,-2,10,-10,-10,-2,-2,0,-1,3.485
698,1,3,3,1,-1,0,-2,-1,3.49
699,1,-15,-5,-5,-1,0,-1,-2,3.495
700,1,-3,-3,0,1,-1,0,0,3.5
701,-1,15,-6,-7,-3,0,-1,0,3.505
702,-1,3,11,7,-1,-3,0,-1,3.5100000000000002
703,0,-10,-2,3,2,0,0,-2,3.515
704,-1,2,-2,-1,0,0,1,-1,3.52
705,-2,11,-5,-9,-7,0,-1,0,3.525
706,-1,2,-4,1,6,0,-1,-1,3.5300000000000002
707,1,-11,-5,-8,-1,-1,1,-1,3.535
708,-4,-2,9,8,-2,-1,-1,-2,3.54
709,-1,11,1,0,1,0,0,-1,3.545
710,0,3,-6,-20,-6,-1,0,0,3.5500000000000003
711,-2,-15,4,28,4,-2,-1,-2,3.555
712,-1,-1,-8,-22,-2,-3,-3,-2,3.56
713,2,7,5,22,0,-2,-1,-1,3.565
714,-3,3,-3,-4,-4,-3,-1,-2,3.5700000000000003
715,0,-10,-14,-10,1,0,0,0,3.575
716,0,-1,-1,0,-1,1,-1,0,3.58
717,1,11,9,-14,0,0,0,1,3.585
718,-1,2,-3,14,3,-2,0,-2,3.59
719,0,-11,0,-2,-1,-1,-1,-1,3.595
720,-1,-1,3,7,-1,-2,0,-2,3.6
721,0,11,-11,-9,0,0,0,0,3.605
722,-1,2,7,-1,-1,0,-2,-1,3.61
723,-1,-8,-3,-12,-4,-1,-2,0,3.615
724,1,-1,3,13,2,2,0,1,3.62
725,0,7,4,10,3,0,-1,-2,3.625
726,0,1,-6,-4,-3,-1,0,-2,3.63
727,-1,-9,2,1,-1,-2,-1,0,3.6350000000000002
728,0,0,-9,-21,-5,-2,-2,-2,3.64
729,0,7,7,20,3,-1,-1,-1,3.645
730,-2,2,1,-3,-2,-2,-2,-1,3.65
731,-3,-16,-3,-2,0,1,0,-1,3.6550000000000002
732,-1,0,-2,-1,-6,1,-1,1,3.66
733,1,8,-10,-28,1,0,-1,1,3.665
734,-1,1,5,26,-1,-3,0,-1,3.67
735,-1,-8,-5,0,0,-2,-2,-2,3.6750000000000003
736,0,1,16,-3,0,-1,1,0,3.68
737,-2,3,-21,1,-2,-2,0,-2,3.685
738,1,0,-2,-14,-1,-1,-1,1,3.69
739,-2,-9,-9,-3,-1,0,0,0,3.6950000000000003
740,0,-1,9,7,1,-2,0,-2,3.7
741,1,12,4,0,0,0,-1,0,3.705
742,0,1,0,-6,1,-3,-1,-1,3.71
743,1,-8,-7,-15,-6,-2,0,-2,3.715
744,-1,-1,1,22,3,1,-1,0,3.72
745,0,12,7,4,-1,-3,-1,-1,3.725
746,-2,1,-13,-5,-3,0,0,-2,3.73
747,0,-6,0,-5,-3,-1,0,0,3.735
748,-1,-1,4,7,3,1,-1,0,3.74
749,-1,8,-3,-5,-3,-2,2,-1,3.745
750,-1,2,0,5,1,-1,-2,-1,3.75
751,0,-8,2,-7,-2,-1,-1,0,3.755
752,-1,-1,-7,-6,-1,0,-2,0,3.7600000000000002
753,-2,8,0,-8,0,-1,-1,0,3.765
754,0,0,3,8,-1,1,-2,-1,3.77
755,-2,-11,-7,15,1,0,0,-1,3.775
756,0,0,10,1,0,-2,0,0,3.7800000000000002
757,-1,7,1,-7,-12,-2,-2,0,3.785
758,0,0,-10,-6,7,1,1,-1,3.79
759,0,-8,-4,-14,-2,-1,-1,0,3.795
760,-2,0,0,14,2,-1,-3,-2,3.8000000000000003
761,0,5,-1,-3,-1,0,0,0,3.805
762,-1,1,4,-7,-3,0,-2,0,3.81
763,-2,-8,3,5,0,-1,-1,-1,3.815
764,-3,-1,-9,-15,1,-2,-1,-1,3.8200000000000003
765,-1,10,-1,-12,2,-1,-1,1,3.825
766,-1,1,0,13,-2,-1,-2,-1,3.83
767,-3,-9,5,10,2,1,0,1,3.835
768,2,-1,-1,-6,-2,0,-1,3,3.84
769,-2,9,4,4,-1,-1,-1,-1,3.845
770,0,1,7,-7,-2,-1,0,0,3.85
771,-2,-10,-1,-10,-1,0,-1,-3,3.855
772,-2,0,-1,-1,-2,-2,0,-3,3.86
773,1,11,-8,2,1,-2,-1,1,3.865
774,-3,0,-8,-6,-3,-1,0,-2,3.87
775,-2,-7,-12,-12,-1,0,-4,-2,3.875
776,1,-1,11,13,-1,0,1,0,3.88
777,-1,7,14,16,4,0,-1,-1,3.8850000000000002
778,0,0,-5,-5,-5,-2,0,0,3.89
779,0,-9,-7,-2,-3,-2,0,0,3.895
780,-2,0,0,-4,-1,0,0,-1,3.9
781,-2,5,-3,-1,-2,0,-1,-2,3.9050000000000002
782,0,0,1,3,1,0,-1,-1,3.91
783,0,-9,3,-6,-2,0,-1,-2,3.915
784,1,2,-9,-10,-2,-1,0,-1,3.92
785,0,5,-7,4,2,1,0,-1,3.9250000000000003
786,-2,0,8,-2,0,-3,-1,-2,3.93
787,0,-10,-2,1,-3,0,0,-1,3.935
788,0,0,-14,-18,-1,0,0,-2,3.94
789,-2,5,14,19,1,0,0,-1,3.9450000000000003
790,1,1,-4,-3,-1,1,0,0,3.95
791,-2,-8,2,3,2,1,-2,1,3.955
792,1,2,-2,-4,0,-1,-2,0,3.96
793,-1,2,-19,-17,0,-1,-2,-1,3.9650000000000003
794,-1,0,6,9,-2,-1,-2,-1,3.97
795,-1,-6,16,10,2,-2,0,-1,3.975
796,-1,1,-7,-6,1,0,0,0,3.98
797,0,10,5,-11,-3,-1,0,0,3.985
798,-3,-5,-17,-23,-2,0,-2,-1,3.99
799,-1,-5,6,24,0,-1,-1,-2,3.995
800,-1,2,-13,-9,-2,1,1,-2,4.0
801,-2,7,-4,14,-3,-2,0,-2,4.005
802,0,2,14,-1,0,2,1,1,4.01
803,0,-5,2,-8,-2,-1,-1,-1,4.015
804,0,6,5,5,1,-2,-1,0,4.0200000000000005
805,-1,7,-3,-11,-6,-4,-1,0,4.025
806,0,0,-18,-1,-1,-2,0,-1,4.03
807,0,-4,11,-10,1,0,-1,-1,4.035
808,1,4,9,17,1,-1,0,1,4.04
809,0,8,4,-5,0,0,0,0,4.045
810,-4,-8,-14,0,-2,-2,-2,-1,4.05
811,-1,-4,-7,-5,0,1,-1,-1,4.055
812,-1,2,1,4,0,-1,-1,0,4.0600000000000005
813,0,3,-4,-11,0,1,-2,0,4.065
814,-1,0,8,14,-2,-2,-1,-1,4.07
815,-2,-1,5,4,0,-3,-1,-1,4.075
816,-1,4,-1,-5,-1,-1,-1,-2,4.08
817,1,7,-7,3,5,1,1,-1,4.085
818,1,-5,0,-9,-2,0,-2,0,4.09
819,-1,-4,-3,-3,-1,-1,-2,0,4.095
820,-2,0,-3,1,0,-1,-2,0,4.1
821,1,4,4,4,2,0,-1,-1,4.105
822,0,-1,-2,-1,-2,0,-1,0,4.11
823,0,-3,-3,7,-1,0,0,0,4.115
824,-1,0,-3,-1,0,-1,-2,-1,4.12
825,2,7,-3,5,-1,0,-2,1,4.125
826,-1,-3,3,-9,-3,-2,-1,0,4.13
827,-2,-7,-5,8,0,0,-1,-2,4.135
828,-2,3,-3,-10,-3,-1,-2,-3,4.14
829,1,8,3,2,0,-2,-2,-2,4.1450000000000005
830,1,3,2,-5,-2,-1,0,-1,4.15
831,-1,-4,-11,-5,-1,0,1,1,4.155
832,1,1,1,-6,-5,-1,0,0,4.16
833,-2,2,-2,-2,7,-1,0,-1,4.165
834,0,1,1,-7,2,-2,-1,-1,4.17
835,2,-2,16,12,1,1,-1,1,4.175
836,-1,9,1,9,0,2,-1,-1,4.18
837,-1,7,-6,-18,-8,-2,0,0,4.1850000000000005
838,-4,-6,-3,21,1,-2,-1,-2,4.19
839,-1,-3,2,-5,1,0,-1,-1,4.195
840,0,3,-2,-4,0,-1,-1,0,4.2
841,-1,3,0,1,-5,-1,-1,-2,4.205
842,0,-3,-3,-7,-1,0,1,-1,4.21
843,-2,-4,-8,-7,-3,-2,-2,-1,4.215
844,-2,3,-1,5,0,-1,0,-3,4.22
845,0,5,2,-4,-1,-1,-1,-1,4.225
846,-1,-5,-15,0,-1,0,0,-3,4.23
847,1,-1,9,-2,-2,-1,0,-1,4.235
848,-2,-2,-5,-7,-1,-1,-1,0,4.24
849,-2,5,2,20,-1,-1,-1,0,4.245
850,0,-3,5,0,-2,0,0,-1,4.25
851,-2,-6,-45,-12,-3,0,-2,-2,4.255
852,2,5,21,-12,-1,1,0,-2,4.26
853,0,4,0,-11,-1,0,-2,0,4.265
854,-2,-2,11,12,2,-2,-2,-1,4.2700000000000005
855,-2,-5,-12,-8,-2,-1,0,-1,4.275
856,-1,8,-7,3,-2,-1,0,1,4.28
857,0,5,2,3,1,-2,0,-1,4.285
858,-1,-4,-7,-14,-1,-2,-1,-2,4.29
859,1,-2,10,7,1,-1,-1,-1,4.295
860,-1,5,-4,16,0,-1,-2,-2,4.3
861,0,5,7,-2,0,1,1,-2,4.305
862,-3,-9,-13,-5,0,1,-2,-1,4.3100000000000005
863,0,-4,8,-3,-1,0,-1,-1,4.315
864,-2,6,4,5,2,-1,0,0,4.32
865,-1,4,-11,-11,-7,-2,0,0,4.325
866,2,-1,2,5,-2,0,0,-1,4.33
867,-3,-5,2,4,2,1,-1,-2,4.335
868,0,4,-15,-3,-1,-1,0,-1,4.34
869,1,3,17,4,1,-1,1,0,4.345
870,-2,-3,0,-3,-4,-3,-1,-1,4.3500000000000005
871,0,-4,29,2,-1,-1,-1,0,4.355
872,0,4,-24,-21,-1,-2,-1,-1,4.36
873,-3,4,1,33,2,-1,-1,-4,4.365
874,-1,-3,4,-1,0,-1,0,0,4.37
875,-3,-3,-9,-3,-1,-1,0,2,4.375
876,-1,5,2,-2,1,-2,0,1,4.38
877,-2,4,-5,-17,-1,-1,0,-1,4.385
878,-1,-2,2,6,-2,-1,-2,-1,4.39
879,-1,-3,-5,1,-2,-1,-1,-2,4.3950000000000005
880,2,6,8,0,-1,1,-1,0,4.4
881,0,3,-4,-1,1,-2,-2,-1,4.405
882,-2,-10,-4,0,-1,1,0,0,4.41
883,0,-2,-4,-12,-1,-1,0,0,4.415
884,-1,5,-5,-7,-5,-1,-1,-1,4.42
885,-1,3,6,29,4,0,1,0,4.425
886,0,-2,-5,-6,0,-1,-2,-1,4.43
887,0,0,21,7,1,1,1,1,4.4350000000000005
888,0,9,-4,-7,-1,-2,0,1,4.44
889,-1,3,-8,-25,-3,-2,0,0,4.445
890,0,-4,-7,12,0,-1,-2,-2,4.45
891,-1,-2,-8,-1,-1,-2,-1,-1,4.455
892,1,8,5,3,0,0,0,-1,4.46
893,-3,2,-10,-19,-5,-3,-2,-1,4.465
894,-1,-4,18,18,3,-2,-2,-1,4.47
895,-2,-2,-10,-7,-1,-1,-1,-2,4.4750000000000005
896,-2,6,8,13,0,0,-1,1,4.48
897,-1,4,-10,-13,-3,0,-2,1,4.485
898,-1,-10,-7,-12,-1,0,1,0,4.49
899,0,-1,1,5,1,-2,-1,0,4.495
900,0,6,-1,-1,-1,-2,-3,-3,4.5
901,0,4,-2,4,0,1,-1,-1,4.505
902,1,-3,5,-6,0,1,-1,-1,4.51
903,-1,-2,-10,-10,-2,-2,-1,-1,4.515
904,-1,6,5,18,3,0,1,1,4.5200000000000005
905,-2,1,-21,-6,-1,-2,1,-1,4.525
906,1,3,46,20,2,2,2,-1,4.53
907,-1,-1,-12,-3,-2,-1,-2,0,4.535
908,-3,1,-12,-11,-2,-2,-1,-2,4.54
909,0,3,1,-2,-1,-2,-2,-2,4.545
910,-6,-8,-21,-9,-2,0,-1,0,4.55
911,0,-1,2,-1,0,-2,-1,-2,4.555
912,1,11,15,-2,1,-2,1,-1,4.5600000000000005
913,1,4,3,6,0,0,-1,-2,4.565
914,0,-7,-7,-9,-3,-1,1,0,4.57
915,-1,-1,-1,1,0,1,0,1,4.575
916,1,5,-1,5,-1,-1,-1,-1,4.58
917,0,2,-9,-19,-6,-2,0,0,4.585
918,-1,-10,-10,29,1,-1,-2,-2,4.59
919,1,-2,12,8,4,1,0,1,4.595
920,-2,6,-4,0,-1,-1,0,0,4.6000000000000005
921,-1,4,9,-6,-1,-2,-1,0,4.605
922,-2,-10,-15,-25,-7,-3,-2,0,4.61
923,-3,-1,-6,5,-3,-2,-2,-2,4.615
924,-1,8,23,0,1,3,-1,0,4.62
925,-2,3,-3,7,1,2,-2,0,4.625
926,-2,-9,-11,-12,-2,-1,1,0,4.63
927,2,-5,4,-1,-3,-1,1,-2,4.635
928,1,11,-1,6,2,0,-1,-1,4.64
929,1,4,9,1,2,-1,0,-2,4.6450000000000005
930,-2,-5,4,9,0,-1,-1,-1,4.65
931,0,-1,-5,-10,-2,-1,-1,-1,4.655
932,-1,6,-11,-8,-1,-1,-1,-2,4.66
933,-1,3,4,15,1,0,0,1,4.665
934,-2,-9,-12,-11,-2,-1,-2,-1,4.67
935,0,0,13,3,-1,-2,-1,0,4.675
936,-2,4,2,-10,-2,0,0,1,4.68
937,-1,1,-3,2,0,-2,0,-1,4.6850000000000005
938,-1,-8,4,-6,-1,-1,-1,-2,4.69
939,-3,-3,-8,0,-1,-2,-1,0,4.695
940,-2,3,-19,-2,0,-1,-2,1,4.7
941,-1,2,15,-1,-2,-1,-1,-1,4.705
942,-1,-7,4,0,1,-1,0,-2,4.71
943,0,0,-4,-11,-1,0,2,0,4.715
944,0,8,1,17,-1,-1,-1,-1,4.72
945,0,3,-7,-9,-2,0,0,-1,4.7250000000000005
946,1,-8,7,9,0,1,0,1,4.73
947,-3,-3,-9,-5,0,0,0,-1,4.735
948,2,12,3,3,0,-1,0,-1,4.74
949,-2,1,-8,-3,-4,-1,-4,1,4.745
950,0,-10,-8,-8,-1,-3,-2,0,4.75
951,0,-4,19,0,-1,0,-1,0,4.755
952,0,4,-9,-5,-1,-1,1,-1,4.76
953,-1,3,6,6,0,-1,0,1,4.765
954,-4,-12,-5,-13,-2,0,-1,-2,4.7700000000000005
955,0,0,0,17,0,0,1,-1,4.775
956,-2,3,-6,-15,-3,-2,-2,-2,4.78
957,2,1,9,12,1,0,-2,-1,4.785
958,0,-10,0,-5,-1,-1,0,0,4.79
959,-3,-3,-21,-13,-4,-1,-3,0,4.795
960,-2,9,7,5,2,1,0,-1,4.8
961,-2,1,12,-2,1,-1,0,-1,4.805
962,0,-9,3,0,0,0,0,-1,4.8100000000000005
963,-1,-1,4,1,-1,-2,-1,-3,4.815
964,-1,6,-20,-13,-3,0,-1,-2,4.82
965,1,3,1,9,1,-1,0,-1,4.825
966,0,-6,3,5,-2,-2,-2,0,4.83
967,-4,-2,-19,-22,-5,-2,-2,-2,4.835
968,0,11,18,17,12,1,0,1,4.84
969,-3,2,4,5,-1,0,-1,-2,4.845
970,1,-7,11,-5,-1,0,-1,-1,4.8500000000000005
971,1,-3,-1,13,0,1,1,0,4.855
972,-3,2,-7,-9,-4,-2,0,-3,4.86
973,-2,1,-10,-11,-1,-1,1,-1,4.865
974,-2,-8,3,-2,-1,-1,1,0,4.87
975,1,1,12,13,1,-1,0,0,4.875
976,0,7,-21,-1,-3,0,-1,-2,4.88
977,-1,2,19,-2,-1,1,0,-1,4.885
978,0,-14,-7,-4,-2,-1,-1,-2,4.89
979,-1,-4,-5,-4,1,-1,1,-2,4.8950000000000005
980,1,9,8,-1,-4,0,-1,1,4.9
981,0,2,-19,-3,-1,0,0,1,4.905
982,-2,-10,-8,6,1,-1,-1,-2,4.91
983,1,-2,11,-2,1,-1,-1,-2,4.915
984,-2,10,2,7,-1,-1,1,1,4.92
985,1,4,-7,-14,-2,0,-3,-1,4.925
986,-2,-16,-1,0,-1,1,-1,-3,4.93
987,1,-3,-8,1,0,0,-2,0,4.9350000000000005
988,-2,9,9,4,0,0,0,-3,4.94
989,0,1,-9,-3,-1,-1,0,-1,4.945
990,-2,-8,-5,4,-2,-2,1,0,4.95
991,-2,-2,3,-4,-6,-3,-4,-1,4.955
992,-1,5,-4,-13,4,1,0,1,4.96
993,1,1,-7,16,2,0,1,-1,4.965
994,0,-8,21,-4,-5,0,0,0,4.97
995,-2,-2,-2,1,-3,-1,0,-1,4.9750000000000005
996,0,10,-2,-7,-4,0,-1,0,4.98
997,-1,1,2,6,1,-1,0,-2,4.985
998,0,-10,-11,0,0,0,-2,0,4.99
999,-4,-2,-2,1,2,2,0,2,4.995
1000,0,7,-5,0,-4,-1,-1,-1,5.0
1001,-1,3,3,-11,-1,-1,-2,-1,5.005
1002,-1,-11,3,-5,-2,0,-3,-3,5.01
1003,-2,-3,-1,3,-1,-1,1,-1,5.015
1004,-1,10,-3,-10,2,1,1,0,5.0200000000000005
1005,-1,1,0,14,-1,-2,-1,-1,5.025
1006,0,-8,-4,5,1,-3,-2,-1,5.03
1007,-2,-3,-6,-7,-1,1,1,0,5.035
1008,-2,11,5,-3,-2,-3,-1,0,5.04
1009,1,3,0,-4,0,-1,1,-1,5.045
1010,-1,-14,-4,-2,-3,-2,-1,-3,5.05
1011,-3,-3,-4,-6,-2,0,-1,-3,5.055
1012,1,12,11,9,0,-1,-1,0,5.0600000000000005
1013,0,2,-13,1,-1,-1,-3,0,5.065
1014,0,-10,8,0,1,0,0,1,5.07
1015,0,-3,-12,-9,-5,-1,-2,-1,5.075
1016,0,15,25,-2,2,1,0,-2,5.08
1017,-2,3,9,6,2,-2,0,0,5.085
1018,0,-13,-18,8,-1,-1,-2,-1,5.09
1019,-1,-2,0,0,0,-1,2,-3,5.095
1020,-1,6,-8,0,-3,-2,-1,-1,5.1000000000000005
1021,0,3,-4,-14,-3,-2,2,0,5.105
1022,-1,-9,4,2,2,0,-1,1,5.11
1023,1,-2,2,-2,-2,-3,0,1,5.115
1024,-1,2,-8,-1,-2,-2,-1,-2,5.12
1025,-1,2,-2,-10,-2,-2,-1,-1,5.125
1026,-1,-10,-10,-2,-1,-1,-1,-3,5.13
1027,3,-3,11,5,2,2,-2,-1,5.135
1028,2,10,3,1,-2,0,0,1,5.14
1029,0,1,-8,1,0,0,-3,-2,5.1450000000000005
1030,-3,-5,4,-9,-1,-1,-1,-2,5.15
1031,0,1,-1,11,1,-2,-1,-2,5.155
1032,-1,5,-1,6,-2,-1,0,0,5.16
1033,-1,0,4,-11,1,-1,-1,0,5.165
1034,0,-11,-4,17,1,-1,0,-1,5.17
1035,0,-2,2,-3,1,1,0,0,5.175
1036,0,7,-8,-4,-1,-1,0,-2,5.18
1037,-1,2,-16,-3,-2,-1,-1,-1,5.1850000000000005
1038,-2,-10,0,-19,-7,-2,-1,-1,5.19
1039,-1,-4,2,8,10,1,-1,1,5.195
1040,0,6,0,5,1,-2,0,-2,5.2
1041,-2,3,4,-1,-2,-1,-2,-1,5.205
1042,0,-11,-6,-3,-3,-1,0,-1,5.21
1043,1,-3,3,-20,-5,-1,-1,-2,5.215
1044,0,8,3,24,2,0,0,1,5.22
1045,1,2,1,-8,-1,-1,-1,-1,5.2250000000000005
1046,-1,-12,-1,6,2,-2,-1,0,5.23
1047,-2,-2,-1,-1,-2,-1,0,0,5.235
1048,2,12,3,-9,-3,-1,-1,0,5.24
1049,-3,1,-22,-2,-4,-1,0,-2,5.245
1050,-2,0,19,-1,-1,1,-2,0,5.25
1051,1,-1,11,0,1,0,0,0,5.255
1052,-3,3,-14,-7,0,-2,-1,-3,5.26
1053,-2,2,5,6,-1,-1,0,-4,5.265
1054,0,-12,-15,-22,-2,2,-2,-1,5.2700000000000005
1055,-2,-1,0,24,-1,0,-1,-1,5.275
1056,1,11,0,-1,0,0,-2,1,5.28
1057,-1,2,2,2,0,-1,-2,0,5.285
1058,0,-10,2,-1,5,1,1,0,5.29
1059,-4,-4,-6,-5,-3,-3,-1,-1,5.295
1060,0,14,4,-6,-2,0,-1,-2,5.3
1061,-1,3,1,-2,-2,-1,-2,-1,5.305
1062,-1,-12,2,3,0,-2,-1,-1,5.3100000000000005
1063,0,-3,-7,-4,-6,-2,-2,-2,5.315
1064,-1,9,1,9,8,1,1,-1,5.32
1065,-2,4,-3,-8,-3,0,-2,-3,5.325
1066,-1,-13,8,6,-1,-1,1,-1,5.33
1067,0,-2,-34,-13,-2,0,-1,1,5.335
1068,-1,20,40,12,-1,-2,-1,-1,5.34
1069,-1,4,-1,2,-2,-1,2,-2,5.345
1070,-2,-16,-21,4,1,0,0,0,5.3500000000000005
1071,-1,-2,7,-11,-3,-1,-2,-2,5.355
1072,0,6,-6,-12,-2,-1,-1,-1,5.36
1073,1,2,-3,3,-1,-1,-2,1,5.365
1074,-3,-12,-6,-2,-2,-1,-3,-1,5.37
1075,0,-2,7,4,0,-1,0,-2,5.375
1076,1,6,-8,-13,-1,0,-1,0,5.38
1077,-2,2,10,8,-1,-1,0,-1,5.385
1078,0,-11,-6,-2,0,-2,-1,-1,5.39
1079,-2,-1,-12,-23,0,1,-1,-2,5.3950000000000005
1080,-1,10,13,41,3,0,0,0,5.4
1081,0,3,2,-9,-2,1,-1,0,5.405
1082,-1,-8,-2,2,-2,-1,-2,0,5.41
1083,0,1,-10,5,1,0,-2,0,5.415
1084,-2,9,2,-22,-8,-2,-1,-2,5.42
1085,0,3,-5,-1,1,0,0,0,5.425
1086,-1,-14,-5,1,0,0,0,-2,5.43
1087,-1,-2,18,9,0,-1,-2,-1,5.4350000000000005
1088,-1,13,-11,-11,-1,-3,-2,-1,5.44
1089,-1,4,2,10,1,-2,0,-1,5.445
1090,2,-4,8,-5,-1,1,1,-1,5.45
1091,-1,-2,-18,-13,-7,-1,-1,-2,5.455
1092,1,8,2,26,5,1,-1,0,5.46
1093,0,1,10,-2,0,0,0,-1,5.465
1094,1,-9,-5,-7,-5,0,-2,0,5.47
1095,-2,0,7,8,-1,-1,-2,-2,5.4750000000000005
1096,0,7,-5,-14,-5,0,-2,-1,5.48
1097,-1,3,-7,-1,1,-1,0,-1,5.485
1098,-2,-9,-1,7,0,-2,-2,-2,5.49
1099,0,1,8,1,0,-1,-1,0,5.495
1100,-3,2,-12,-11,-2,-2,-3,-3,5.5
1101,-1,2,1,-2,-2,-1,-2,0,5.505
1102,-2,-9,0,-4,1,-1,0,-1,5.51
1103,-1,-1,5,-6,2,0,-1,-2,5.515
1104,-1,7,-2,2,-1,-2,1,-2,5.5200000000000005
1105,1,2,-5,3,-1,1,-3,-1,5.525
1106,-1,-10,2,5,-2,-1,-1,-1,5.53
1107,0,-1,22,21,5,2,-1,1,5.535
1108,-2,6,-36,-13,-2,0,0,1,5.54
1109,0,3,-4,-14,-1,0,1,2,5.545
1110,-3,-12,4,5,0,-1,-1,0,5.55
1111,0,0,-3,1,0,0,1,0,5.555
1112,0,10,-1,-6,0,-2,-1,-2,5.5600000000000005
1113,-1,1,-7,-1,-1,-2,0,0,5.565
1114,-2,-13,7,-5,-7,-4,-3,-2,5.57
1115,2,-1,-8,8,8,3,-1,1,5.575
1116,-2,8,-1,-21,-3,0,-1,0,5.58
1117,2,3,6,24,1,0,-1,-1,5.585
1118,-1,-10,-2,-6,-2,1,-3,-2,5.59
1119,-2,0,2,4,-3,-1,-2,0,5.595
1120,0,7,-5,1,-1,0,1,1,5.6000000000000005
1121,1,1,-1,-16,-1,-3,-1,-1,5.605
1122,0,-10,-3,5,1,-1,1,0,5.61
1123,-3,-1,4,3,-1,-2,1,0,5.615
1124,1,12,6,0,1,0,-1,-1,5.62
1125,-2,0,-12,-6,-3,-1,-1,-2,5.625
1126,0,-5,18,2,2,-1,-1,-1,5.63
1127,0,0,-9,-28,-2,-1,-1,0,5.635
1128,0,4,9,36,3,-1,-2,0,5.64
1129,-3,-1,1,-5,-1,-2,-1,-1,5.6450000000000005
1130,-2,-7,9,1,-3,-3,-2,-1,5.65
1131,-1,-2,-4,-5,-5,-1,-1,-2,5.655
1132,-1,13,-2,-9,0,-2,1,1,5.66
1133,-2,1,7,0,-2,-2,-2,-1,5.665
1134,-2,-11,-12,0,1,0,-1,-1,5.67
1135,-1,-1,-5,-6,-1,-2,0,-1,5.675
1136,0,10,5,10,0,0,-1,-1,5.68
1137,-1,2,1,1,0,-3,-2,0,5.6850000000000005
1138,-1,-9,-5,-7,-4,-1,0,-1,5.69
1139,1,-1,-2,4,1,0,0,1,5.695
1140,0,6,-13,-25,0,0,0,0,5.7
1141,-1,0,15,28,1,-1,0,-2,5.705
1142,0,-7,-3,-4,0,0,0,-1,5.71
1143,-3,1,7,2,-7,-2,-1,-2,5.715
1144,0,10,1,-2,7,1,-1,0,5.72
1145,-1,0,-11,-13,-2,-2,1,-1,5.7250000000000005
1146,0,-6,-10,-3,2,0,0,1,5.73
1147,-3,-2,4,4,-3,0,0,-1,5.735
1148,-1,11,15,-3,-2,-3,-2,0,5.74
1149,0,-2,-9,-7,-1,-1,-3,-2,5.745
1150,-1,-12,-4,4,2,0,-1,0,5.75
1151,-1,0,-2,0,0,-2,-1,-1,5.755
1152,0,4,-3,-5,-3,0,-1,0,5.76
1153,-1,2,4,1,1,0,-2,-1,5.765
1154,-1,-10,1,9,-2,0,-1,-1,5.7700000000000005
1155,-1,-1,2,3,0,-2,-2,-1,5.775
1156,0,7,-2,1,0,-1,-2,0,5.78
1157,0,1,-4,-21,-4,-1,-1,0,5.785
1158,-2,-12,-7,16,2,0,-1,-1,5.79
1159,-1,0,-12,4,0,-1,-2,0,5.795
1160,1,11,9,2,-3,0,1,0,5.8
1161,-2,1,5,-7,-3,1,0,0,5.805
1162,0,-9,-3,-5,-1,0,0,-2,5.8100000000000005
1163,0,-1,-7,-1,-1,0,1,2,5.815
1164,-3,5,-15,-18,-4,-2,0,-2,5.82
1165,0,1,21,23,4,0,-1,0,5.825
1166,0,-9,-11,-13,-1,0,0,-1,5.83
1167,-1,4,15,13,-1,0,0,-2,5.835
1168,-1,8,2,-15,-2,0,0,0,5.84
1169,-4,1,-5,14,-2,-1,-2,-2,5.845
1170,1,-9,4,-7,1,0,0,-1,5.8500000000000005
1171,1,-5,2,-4,-2,-1,-2,-2,5.855
1172,-1,6,-6,-2,-1,0,-2,-1,5.86
1173,-1,-1,-2,-2,1,-2,-1,-1,5.865
1174,-1,-8,3,2,0,0,-2,1,5.87
1175,-1,5,-2,-7,0,0,1,0,5.875
1176,-1,6,0,10,-2,-3,-1,-1,5.88
1177,0,0,-9,-6,-2,1,0,2,5.885
1178,-2,-5,8,-2,0,-1,0,-1,5.89
1179,0,5,1,-1,-5,-4,0,-2,5.8950000000000005
1180,-1,7,-2,-2,8,0,-1,-1,5.9
1181,0,1,-14,-1,-2,-1,-1,0,5.905
1182,-1,-5,8,3,-2,-2,-1,-2,5.91
1183,-1,1,8,-2,1,1,-2,1,5.915
1184,1,5,-10,3,-4,-1,0,0,5.92
1185,-1,-1,-12,-13,0,-1,1,-1,5.925
1186,-1,-7,2,-7,-5,-1,-1,-1,5.93
1187,-1,-2,-2,5,1,-2,1,-2,5.9350000000000005
1188,-1,5,-12,-9,-5,-2,0,-2,5.94
1189,1,0,20,19,3,0,1,0,5.945
1190,-2,-5,-5,-6,-2,-2,-1,1,5.95
1191,-1,2,-7,1,1,1,0,0,5.955
1192,0,6,-3,-6,-2,-1,0,0,5.96
1193,1,0,-10,-5,-1,-1,-1,-2,5.965
1194,-1,-3,10,7,-1,0,-2,-1,5.97
1195,1,3,-9,-9,0,0,-1,0,5.9750000000000005
1196,-3,5,0,10,0,0,-2,0,5.98
1197,-2,0,-8,-12,-4,-1,-2,-1,5.985
1198,-1,-5,10,-3,1,-1,0,-2,5.99
1199,1,7,-15,-5,0,-2,-1,0,5.995
1200,-1,7,16,-6,0,-2,0,0,6.0
1201,-1,1,2,19,0,-2,-2,0,6.005
1202,0,-8,-16,-6,-2,-1,-2,-1,6.01
1203,-2,3,4,-1,-1,-1,1,-1,6.015000000000001
1204,0,8,3,1,0,0,-1,-1,6.0200000000000005
1205,0,-3,-3,-25,-3,0,-1,-2,6.025
1206,-1,-5,4,24,1,0,0,-1,6.03
1207,-1,1,5,4,-1,0,0,0,6.035
1208,1,6,-8,3,-2,-1,-1,-3,6.04
1209,-1,-2,15,0,-2,-2,-2,-1,6.045
1210,0,-4,-12,-12,-1,1,-1,-1,6.05
1211,0,2,-17,-1,0,-3,-1,1,6.055
1212,0,8,20,1,0,-2,0,-1,6.0600000000000005
1213,-1,0,3,5,-4,-2,1,0,6.065
1214,-4,-4,-6,-7,0,0,0,-1,6.07
1215,-1,8,12,8,0,-1,0,-1,6.075
1216,0,7,-1,7,-2,0,-1,-1,6.08
1217,-2,-4,-12,-18,0,1,1,1,6.085
1218,0,-4,6,16,-1,-1,-2,-1,6.09
1219,0,7,-4,-3,-2,1,-1,0,6.095
1220,-3,3,-13,-5,-3,-1,-1,-1,6.1000000000000005
1221,-3,-5,3,0,-3,-1,-1,-1,6.105
1222,1,-3,-8,-9,-1,0,0,1,6.11
1223,-2,0,4,-2,1,0,-1,-1,6.115
1224,0,8,-2,-1,-1,0,-1,-1,6.12
1225,0,-6,10,12,2,1,-1,-3,6.125
1226,-1,-5,-7,-1,0,-1,0,-1,6.13
1227,0,3,-1,-13,-1,-1,-1,-2,6.135
1228,0,5,4,18,0,-1,0,0,6.140000000000001
1229,0,-2,-7,-8,-2,0,-2,-2,6.1450000000000005
1230,-1,-2,3,4,0,-2,-1,-2,6.15
1231,-3,-6,-10,-1,-2,-2,-1,-2,6.155
1232,-1,4,-8,-19,-1,-1,0,0,6.16
1233,1,-2,3,19,1,0,-2,0,6.165
1234,-1,-4,7,0,-2,-1,-1,1,6.17
1235,0,7,0,-2,-1,-1,0,-2,6.175
1236,0,4,-13,-2,-2,0,0,-2,6.18
1237,-1,-7,-9,-14,1,-2,0,0,6.1850000000000005
1238,-2,-3,2,10,-1,-1,-2,-1,6.19
1239,-1,6,4,4,-1,1,-2,1,6.195
1240,-2,3,-2,9,3,0,-2,0,6.2
1241,1,-2,2,-10,-3,-1,-1,-1,6.205
1242,-2,-4,-10,-12,-1,0,-1,-3,6.21
1243,0,5,-2,-6,-5,-3,-1,-1,6.215
1244,-1,3,2,10,1,-1,-3,0,6.22
1245,-2,-5,2,1,0,-1,-1,0,6.2250000000000005
1246,0,-4,-2,-8,-2,0,0,0,6.23
1247,1,12,0,3,0,-1,0,-1,6.235
1248,-2,-1,0,-10,-4,-2,-1,0,6.24
1249,-3,-4,0,0,0,-2,-2,-2,6.245
1250,-1,-3,0,-2,0,0,-1,0,6.25
1251,-2,8,-3,-3,-3,-1,-2,-1,6.255
1252,1,4,-2,8,2,-2,0,-3,6.26
1253,-1,-6,1,-1,0,0,1,1,6.265000000000001
1254,1,-3,0,-3,-2,0,1,-1,6.2700000000000005
1255,-1,0,-4,-2,2,-1,-2,-2,6.275
1256,0,5,-1,0,0,-1,1,0,6.28
1257,1,-4,7,-6,-4,-1,-1,0,6.285
1258,-1,-1,-13,-2,2,-2,1,1,6.29
1259,-1,3,6,15,1,0,-1,0,6.295
1260,-2,5,6,-2,-1,-1,0,0,6.3
1261,-2,-3,-9,-1,-2,-2,-1,-2,6.305
1262,1,-1,-1,-15,-4,-1,-2,-1,6.3100000000000005
1263,0,5,9,12,3,0,0,0,6.315
1264,-2,2,-4,-1,-2,-2,-1,-1,6.32
1265,0,-7,-2,-1,0,-1,0,-2,6.325
1266,-1,-2,0,-5,-2,0,0,0,6.33
1267,1,8,0,0,-2,-1,-1,-2,6.335
1268,2,4,-12,-17,-3,-1,-1,0,6.34
1269,-3,-8,8,15,0,-1,-1,-2,6.345
1270,-1,-2,1,9,-2,0,1,0,6.3500000000000005
1271,-2,10,-5,-17,-6,-1,-1,0,6.355
1272,-2,4,4,12,2,0,0,-2,6.36
1273,-2,-2,-13,-7,-1,-2,0,0,6.365
1274,0,-2,8,-4,-1,0,-1,1,6.37
1275,-1,6,4,10,0,-1,0,1,6.375
1276,2,5,3,-8,-3,-1,-1,-1,6.38
1277,-1,-12,4,2,1,3,0,-1,6.385
1278,-1,-2,-7,1,-2,0,-2,-1,6.390000000000001
1279,0,5,-2,-10,0,-1,1,-1,6.3950000000000005
1280,-1,3,6,2,0,-2,-2,-2,6.4
1281,-1,-8,-11,-9,-4,-2,1,-1,6.405
1282,-3,0,2,9,3,-1,-2,-1,6.41
1283,-2,0,-2,5,1,-2,-3,-1,6.415
1284,-2,3,3,1,-1,0,1,-1,6.42
1285,-2,-5,3,10,2,1,-1,0,6.425
1286,0,-1,3,-13,0,-3,0,-1,6.43
1287,-2,7,-12,-11,-1,0,0,-2,6.4350000000000005
1288,0,2,5,12,-1,0,-1,-3,6.44
1289,0,-5,-6,-14,-4,0,-2,-2,6.445
1290,0,-1,0,2,-1,-1,0,-2,6.45
1291,1,7,-2,-1,1,1,0,2,6.455
1292,-1,3,9,-6,1,0,1,0,6.46
1293,-2,-12,-13,-1,-1,-4,-2,-1,6.465
1294,-2,-2,-6,-3,-1,0,0,0,6.47
1295,0,4,0,5,-1,-2,1,-3,6.4750000000000005
1296,-3,2,-8,-17,-3,-1,-2,1,6.48
1297,0,-6,1,7,-5,-3,0,-1,6.485
1298,-2,-1,3,2,9,0,-3,1,6.49
1299,0,9,0,-12,-1,-2,-1,0,6.495
1300,-3,2,-6,14,0,-1,0,-2,6.5
1301,-1,-5,-7,-5,-1,0,-1,-2,6.505
1302,-2,-2,1,0,-5,-2,0,-3,6.51
1303,2,9,11,-10,-2,0,0,0,6.515000000000001
1304,1,2,-3,6,2,-2,-1,0,6.5200000000000005
1305,1,-6,16,5,-2,-3,-2,-1,6.525
1306,-1,-3,-7,-5,-3,1,0,0,6.53
1307,-5,3,-10,2,1,-1,-1,-1,6.535
1308,-1,2,-3,-3,-1,-1,-1,1,6.54
1309,-1,-5,4,-5,0,0,0,0,6.545
1310,0,-1,5,0,-1,-1,0,-1,6.55
1311,0,8,-12,-9,-4,-1,-2,-1,6.555
1312,1,2,10,10,0,-1,-2,-2,6.5600000000000005
1313,-2,-12,-5,-5,-1,-1,-2,0,6.565
1314,-1,-2,-1,8,-1,-2,-1,0,6.57
1315,0,9,-2,0,0,-1,0,0,6.575
1316,0,1,-2,-10,-3,-1,-1,0,6.58
1317,-1,-9,-3,-4,0,-1,-1,-1,6.585
1318,-4,-1,-8,1,-2,-1,-1,-2,6.59
1319,-1,15,15,-3,0,0,0,1,6.595
1320,1,2,20,15,0,0,0,-1,6.6000000000000005
1321,-1,-9,-3,-15,-1,-3,-3,-1,6.605
1322,-1,-2,2,14,-1,-1,-1,0,6.61
1323,0,2,-8,5,1,-1,-1,-1,6.615
1324,1,1,-8,-18,-4,-2,-1,1,6.62
1325,-1,-13,7,8,1,1,1,0,6.625
1326,-1,-3,-11,-14,-4,-1,0,-2,6.63
1327,-1,8,3,12,4,-1,-1,-2,6.635
1328,-1,2,-2,-9,0,-1,-1,-2,6.640000000000001
1329,0,-17,-7,13,-1,1,-2,-1,6.6450000000000005
1330,-1,-2,11,-3,0,-2,-1,1,6.65
1331,-2,7,-11,-14,-5,-2,0,-1,6.655
1332,-1,2,-10,7,2,-2,-1,1,6.66
1333,-3,-8,10,-1,-3,-2,0,-2,6.665
1334,1,-2,-10,-4,-1,-2,1,0,6.67
1335,1,5,5,8,-1,0,-2,0,6.675
1336,-2,1,-3,-1,0,1,-1,-1,6.68
1337,-1,-11,-16,-4,-2,-1,1,-2,6.6850000000000005
1338,0,-1,24,3,-1,0,-2,0,6.69
1339,-1,6,-2,-18,-1,-3,0,-1,6.695
1340,0,0,2,11,1,-1,0,-3,6.7
1341,-1,-6,4,12,2,1,-1,0,6.705
1342,-2,-1,-6,-10,-1,-1,0,-2,6.71
1343,2,6,-5,3,-1,-1,0,-1,6.715
1344,-2,1,-5,-11,-3,-2,-1,-1,6.72
1345,0,-5,4,-6,0,2,0,-1,6.7250000000000005
1346,0,-2,-6,6,-2,0,-4,0,6.73
1347,-2,5,11,9,1,2,1,1,6.735
1348,-1,1,-6,0,-1,-2,-1,0,6.74
1349,0,-8,-7,-9,-1,-2,1,1,6.745
1350,-2,0,-15,-4,-2,0,-1,0,6.75
1351,0,10,8,-2,-2,-2,-1,0,6.755
1352,-2,1,-11,-12,-3,-2,-1,0,6.76
1353,0,-8,9,16,0,-1,-1,0,6.765000000000001
1354,-1,-1,-3,-7,-8,-1,-2,-1,6.7700000000000005
1355,0,12,2,0,12,2,0,1,6.775
1356,-4,2,15,9,0,-1,-2,-2,6.78
1357,0,-9,-9,-13,-2,-2,0,-1,6.785
1358,-2,-2,5,14,0,-1,0,-3,6.79
1359,-1,8,-5,-8,-6,-2,-1,-1,6.795
1360,0,4,-2,-4,0,-1,0,0,6.8
1361,-1,-13,-3,-10,-1,-1,0,0,6.805
1362,-1,-3,4,3,3,1,0,-1,6.8100000000000005
1363,0,9,-4,7,0,0,-2,-1,6.815
1364,-1,2,0,-5,-3,1,-1,-1,6.82
1365,1,-9,1,3,-1,-2,-2,-3,6.825
1366,-1,-2,-6,-13,1,-1,1,-1,6.83
1367,-3,9,1,7,-1,-2,-1,-1,6.835
1368,-1,3,-3,-6,-5,-2,-2,0,6.84
1369,-3,-15,3,12,2,-1,-1,-1,6.845
1370,1,-2,-1,-6,1,-1,0,0,6.8500000000000005
1371,0,13,9,5,-3,-1,0,-1,6.855
1372,-1,1,-21,5,-2,-1,-1,-2,6.86
1373,-1,-7,-8,-8,0,1,-1,-2,6.865
1374,-1,-2,1,6,3,1,0,0,6.87
1375,1,9,13,-4,-3,0,0,-1,6.875
1376,0,2,7,-4,-1,-1,-1,-1,6.88
1377,-3,-10,-5,1,0,-1,0,-1,6.885
1378,-1,-1,-10,-5,-2,-1,-2,-1,6.890000000000001
1379,-2,8,-3,-7,-6,-2,0,-1,6.8950000000000005
1380,2,3,4,4,10,3,2,0,6.9
1381,-1,-12,0,-1,-2,1,-1,1,6.905
1382,-1,-4,-1,-4,-2,0,-3,-2,6.91
1383,0,7,-13,-13,-3,-2,-2,-1,6.915
1384,-1,1,7,17,-1,-3,-1,-2,6.92
1385,0,-11,-6,-6,1,-2,-1,-1,6.925
1386,-3,-3,2,5,0,-2,-1,-1,6.93
1387,-1,7,-5,-6,0,-2,-4,1,6.9350000000000005
1388,1,2,17,3,1,0,-2,-1,6.94
1389,-3,-11,-8,-12,-3,-1,0,-1,6.945
1390,1,-1,0,2,-2,-3,1,1,6.95
1391,1,21,4,3,1,1,1,0,6.955
1392,-1,3,5,-8,-1,-1,0,0,6.96
1393,-1,-9,3,5,-2,0,-1,-1,6.965
1394,1,-5,-5,-6,1,-1,0,0,6.97
1395,0,7,1,12,2,1,0,-1,6.9750000000000005
1396,0,2,-7,-5,-2,0,-1,-1,6.98
1397,-1,-11,0,-1,-2,-2,-2,-2,6.985
1398,-1,0,2,3,-1,0,-1,-1,6.99
1399,-1,5,-4,-3,0,-1,1,0,6.995
1400,-2,3,-5,-6,-3,-2,0,-3,7.0
1401,0,-12,-1,-2,-1,-1,-1,2,7.005
1402,1,-2,-8,-6,-2,0,0,-1,7.01
1403,-2,6,8,23,0,-2,-2,-2,7.015000000000001
1404,-2,0,-3,-2,-1,-2,0,0,7.0200000000000005
1405,0,-8,0,4,3,-1,-1,-2,7.025
1406,-1,-2,1,-14,-1,0,0,1,7.03
1407,-2,6,-6,-9,-6,-3,-2,-1,7.035
1408,1,3,3,2,8,0,1,0,7.04
1409,-1,-8,4,-1,-2,-2,-2,-2,7.045
1410,-1,-1,0,2,0,-2,-1,0,7.05
1411,-1,9,-2,-5,-4,0,0,-1,7.055
1412,2,2,3,-3,-2,-2,-2,-2,7.0600000000000005
1413,-2,-15,-15,-21,-4,-1,-2,-2,7.065
1414,-1,-3,26,46,7,0,0,-2,7.07
1415,0,8,-11,-1,-1,-1,-1,0,7.075
1416,-1,2,-6,-7,-1,-2,-2,1,7.08
1417,-1,-11,-7,-14,1,-2,-1,3,7.085
1418,-1,-2,-1,1,-3,0,-1,0,7.09
1419,-1,8,-3,-5,2,-1,1,-1,7.095
1420,-2,3,-3,0,-3,-1,-2,-1,7.1000000000000005
1421,-1,-13,1,3,-1,-1,0,0,7.105
1422,-1,-3,-5,-8,-3,-1,0,-1,7.11
1423,0,15,14,3,2,1,0,0,7.115
1424,0,2,-5,-5,-3,-3,-2,-2,7.12
1425,-1,-11,0,6,1,0,0,-2,7.125
1426,1,-2,3,-11,-1,-1,-1,-1,7.13
1427,1,2,0,9,2,0,0,-3,7.135
1428,0,3,-4,-11,-3,-1,0,-1,7.140000000000001
1429,-4,-13,5,15,-1,1,-1,-2,7.1450000000000005
1430,0,-3,-10,-7,-1,-1,0,-1,7.15
1431,-1,7,-10,-14,-2,-2,0,0,7.155
1432,0,2,-5,4,-1,1,-1,1,7.16
1433,-1,-17,7,0,-2,-1,-1,-1,7.165
1434,-1,-2,-11,-12,-5,-1,-1,0,7.17
1435,1,12,13,7,4,-1,-2,1,7.175
1436,-4,2,-23,-4,-2,-2,0,-2,7.18
1437,0,-7,-3,1,-1,-1,0,0,7.1850000000000005
1438,-2,-3,2,2,-1,-2,-2,-1,7.19
1439,0,11,-2,1,-5,-2,-1,1,7.195
1440,-1,3,4,-2,0,0,-1,-1,7.2
1441,0,-8,5,13,2,0,-1,0,7.205
1442,0,-2,-8,-4,-2,-1,0,-1,7.21
1443,3,13,4,-6,-1,-1,-1,0,7.215
1444,0,2,-5,4,0,0,1,-1,7.22
1445,0,-10,1,-3,-5,-1,-2,0,7.2250000000000005
1446,-3,-1,-2,1,0,1,-1,0,7.23
1447,-1,9,-6,-8,1,1,0,0,7.235
1448,-1,2,-3,3,-1,-2,-2,-1,7.24
1449,-1,-7,12,-2,-1,-1,1,-1,7.245
1450,1,-1,-14,0,1,1,-1,0,7.25
1451,-2,13,12,5,0,-2,-2,-1,7.255
1452,-2,2,-1,-8,-2,-3,-1,-1,7.26
1453,0,-11,1,4,2,0,-1,-1,7.265000000000001
1454,-2,-2,2,-5,0,-1,1,0,7.2700000000000005
1455,-1,7,-5,-2,-1,0,1,0,7.275
1456,1,3,2,2,0,0,1,0,7.28
1457,-1,-13,-7,-5,-3,-5,0,-1,7.285
1458,0,-2,4,1,0,-1,0,-2,7.29
1459,-2,6,-3,-7,-5,-2,0,-3,7.295
1460,-2,3,-21,-2,0,0,-3,-2,7.3
1461,-1,-9,5,-3,-2,-1,1,-1,7.305
1462,-2,-2,-4,5,0,-1,0,-1,7.3100000000000005
1463,-1,8,-2,-8,0,0,0,2,7.315
1464,0,2,-2,1,-3,0,0,-2,7.32
1465,-2,-11,4,9,-3,2,-2,-2,7.325
1466,1,-1,7,9,7,1,0,1,7.33
1467,-1,6,-9,0,0,-2,-1,-1,7.335
1468,-1,1,3,-12,-3,-2,-2,0,7.34
1469,1,-9,-13,-11,-2,0,0,0,7.345
1470,0,3,10,6,-4,-1,-1,-1,7.3500000000000005
1471,-1,10,-3,-3,1,-1,-1,-1,7.355
1472,0,2,-2,1,-1,-3,-2,-1,7.36
1473,-3,-14,-2,-10,-2,-1,-2,-2,7.365
1474,-1,-3,3,3,0,0,-3,0,7.37
1475,1,9,-5,4,0,-1,0,-1,7.375
1476,-2,2,-1,-3,-2,-1,2,-2,7.38
1477,1,-15,-10,-16,0,-2,-2,-1,7.385
1478,-1,-3,16,18,-1,-2,-2,1,7.390000000000001
1479,0,11,-5,-4,-4,1,-2,-1,7.3950000000000005
1480,-1,3,11,12,2,1,0,-2,7.4
1481,1,-8,12,0,2,2,-1,1,7.405
1482,-2,-3,-5,-15,-4,-2,-1,-1,7.41
1483,0,8,-4,5,1,1,0,0,7.415
1484,0,1,6,2,-1,1,0,1,7.42
1485,-3,-13,-8,5,1,-1,0,-2,7.425
1486,1,0,-7,-11,-1,-1,1,0,7.43
1487,-1,11,11,0,2,0,0,-2,7.4350000000000005
1488,-1,1,7,-4,0,-2,-1,0,7.44
1489,-1,-6,-5,6,-1,-1,0,0,7.445
1490,-2,0,-7,-9,-4,-2,-1,-2,7.45
1491,1,8,-16,-15,-1,0,0,-1,7.455
1492,-3,2,16,19,-1,-2,-1,-1,7.46
1493,1,-7,0,0,0,-1,-2,1,7.465
1494,-2,-1,-4,-3,-2,-2,-1,-1,7.47
1495,-3,8,0,-3,1,-1,-3,-1,7.4750000000000005
1496,1,2,-1,-5,-2,0,-1,0,7.48
1497,0,-9,-2,1,0,-1,1,-1,7.485
1498,-1,0,-3,-4,0,-1,-2,-1,7.49
1499,-2,12,1,0,-5,-2,-1,-1,7.495
1500,-2,0,3,13,5,1,0,-1,7.5
1501,0,-8,-9,-7,-4,0,-2,0,7.505
1502,2,-1,17,3,0,0,-1,0,7.51
1503,-2,5,-19,7,-3,-5,0,-2,7.515000000000001
1504,-3,2,0,2,-3,-2,0,-2,7.5200000000000005
1505,1,-6,-1,-2,0,1,1,-2,7.525
1506,-2,-1,-5,-6,-6,-3,-1,-1,7.53
1507,0,8,6,1,1,-1,-1,0,7.535
1508,0,1,-6,-9,-3,0,-1,-2,7.54
1509,-2,-10,-2,8,0,0,-2,0,7.545
1510,-1,2,-3,-7,-3,1,0,0,7.55
1511,-2,8,-2,2,1,-1,0,0,7.555
1512,-1,2,6,-9,-1,-3,-1,-1,7.5600000000000005
1513,-3,-8,-5,0,-3,-1,0,-1,7.565
1514,-2,0,9,1,-1,1,-1,0,7.57
1515,-1,9,6,4,0,-1,-1,-2,7.575
1516,-3,2,-11,-10,-4,-2,-2,-2,7.58
1517,0,-6,8,-3,2,-1,1,-1,7.585
1518,-3,-1,-1,12,1,0,-1,-3,7.59
1519,-2,7,-6,-1,0,-1,-2,-1,7.595
1520,2,2,5,-8,-1,1,-2,0,7.6000000000000005
1521,-2,-8,11,-2,-1,-2,-2,-1,7.605
1522,1,1,-6,-4,2,0,1,0,7.61
1523,1,10,1,-2,-1,0,1,-1,7.615
1524,-2,1,-2,1,-1,1,0,0,7.62
1525,0,-5,-2,-1,-2,-1,-1,-2,7.625
1526,-3,0,-11,0,0,0,0,0,7.63
1527,1,6,5,2,-3,-1,0,1,7.635
1528,-2,1,-4,1,-1,-1,0,0,7.640000000000001
1529,-2,-9,0,7,0,-1,0,1,7.6450000000000005
1530,0,2,-9,-16,-3,-3,0,-1,7.65
1531,-1,9,19,20,1,1,0,-2,7.655
1532,-1,1,-1,-2,-4,-1,-1,-3,7.66
1533,-3,-8,-8,-23,-1,-2,-1,-1,7.665
1534,-2,0,-1,31,3,-1,-2,-3,7.67
1535,-2,8,-7,-17,-2,-1,0,-1,7.675
1536,0,1,0,-1,1,-2,0,1,7.68
1537,-3,-10,-7,3,-4,-1,-1,-1,7.6850000000000005
1538,1,8,9,-13,0,1,-1,0,7.69
1539,-2,3,-7,-6,-1,-3,-2,-1,7.695
1540,-2,1,3,2,-3,-3,-1,0,7.7
1541,0,-6,4,-3,-2,-1,0,-1,7.705
1542,1,2,-7,2,2,0,1,0,7.71
1543,-2,0,-4,7,-1,0,0,-2,7.715
1544,-1,-1,5,-11,-2,-1,0,-1,7.72
1545,-2,-9,-10,7,-1,-2,0,-1,7.7250000000000005
1546,1,2,2,-6,-2,-1,0,0,7.73
1547,-2,9,1,7,-1,0,0,1,7.735
1548,0,0,-7,0,1,-2,-2,-1,7.74
1549,0,-7,-5,3,0,-1,1,0,7.745
1550,-1,-1,9,-7,-2,1,0,2,7.75
1551,0,8,-3,-6,-2,0,-1,-1,7.755
1552,-1,1,0,-1,-2,-1,-2,-1,7.76
1553,1,-5,1,-1,-1,-1,0,0,7.765000000000001
1554,-1,1,-3,3,3,0,-2,-3,7.7700000000000005
1555,1,9,1,-3,1,-1,0,0,7.775
1556,-1,1,6,4,0,1,-3,-1,7.78
1557,-1,-7,-4,-9,-1,-1,-1,-1,7.785
1558,-5,1,-5,12,-3,-2,-1,-3,7.79
1559,1,11,1,1,1,-1,0,-1,7.795
1560,-1,1,-18,-5,-3,-1,-2,-1,7.8
1561,-2,-5,7,5,0,-1,-1,-2,7.805000000000001
1562,1,1,3,-2,0,1,1,0,7.8100000000000005
1563,-2,8,5,-6,0,0,0,-3,7.815
1564,-1,0,-1,8,1,0,-1,-3,7.82
1565,0,-6,-2,-6,-3,1,-3,0,7.825
1566,-1,2,10,7,0,0,-1,0,7.83
1567,-1,7,-6,-1,-2,-2,-2,0,7.835
1568,1,0,-7,-14,-3,-1,-1,-2,7.84
1569,-1,-5,8,19,7,0,0,0,7.845
1570,0,1,-4,-5,0,-2,0,0,7.8500000000000005
1571,0,6,3,-11,-2,-1,-1,0,7.855
1572,-3,-1,-3,4,0,0,-1,-2,7.86
1573,1,-1,-6,6,-3,-1,0,0,7.865
1574,1,-1,-4,-5,-2,-1,0,1,7.87
1575,1,10,-16,-1,0,0,0,0,7.875
1576,-2,-1,11,-6,1,1,0,2,7.88
1577,-3,-6,0,1,-2,0,-1,-1,7.885
1578,1,5,-9,-11,-2,-2,0,-2,7.890000000000001
1579,-2,5,3,2,-1,1,-1,-1,7.8950000000000005
1580,-1,0,-1,2,-1,0,-1,-2,7.9
1581,-2,-4,-1,-4,-2,1,-2,1,7.905
1582,-1,1,-9,-4,1,-1,-1,0,7.91
1583,1,7,-1,-12,-2,0,-1,-1,7.915
1584,-1,3,-3,11,1,-1,0,0,7.92
1585,-2,-6,-13,-14,-3,-1,0,-1,7.925
1586,-1,4,4,4,-2,-2,-2,0,7.930000000000001
1587,-2,6,1,11,-1,-3,-2,-1,7.9350000000000005
1588,-1,-3,-2,2,-1,0,-2,-2,7.94
1589,0,-4,-4,-6,-1,0,-2,-1,7.945
1590,-1,6,-5,4,-1,0,-1,0,7.95
1591,0,8,7,0,0,1,1,1,7.955
1592,-4,-1,-7,-9,-3,-2,-3,0,7.96
1593,-1,1,5,5,-1,-1,-1,-2,7.965
1594,-1,6,-2,-6,0,-1,-1,-1,7.97
1595,2,7,9,3,-1,0,0,1,7.9750000000000005
1596,-4,-9,-10,-4,-2,-2,0,-2,7.98
1597,0,-3,6,4,-1,0,0,0,7.985
1598,-3,0,-5,-4,-3,-2,0,-3,7.99
1599,1,4,-4,-15,-3,-3,-1,-2,7.995
1600,-2,-2,12,18,2,-2,-2,-1,8.0
1601,0,-2,11,2,0,1,1,-1,8.005
1602,-1,5,2,6,0,-1,0,0,8.01
1603,-1,3,-7,-8,-2,0,-1,0,8.015
1604,2,-7,-7,-8,-2,-1,0,0,8.02
1605,-1,-3,-6,-5,0,-2,0,-1,8.025
1606,-1,5,-3,6,0,0,0,0,8.03
1607,0,6,14,6,1,0,0,-1,8.035
1608,-1,-1,1,-2,-1,1,0,-1,8.040000000000001
1609,-2,-4,-1,2,-1,-1,-2,-1,8.045
1610,1,5,-9,-13,-3,-1,-2,1,8.05
1611,-3,0,-17,-3,-2,-1,-1,-1,8.055
1612,0,-2,-5,-16,0,-2,-1,1,8.06
1613,-2,-3,6,26,2,0,0,-1,8.065
1614,0,7,-6,-3,0,0,-2,-1,8.07
1615,-1,7,14,4,1,0,-1,-1,8.075
1616,-3,-5,-15,-9,-1,-1,-2,-2,8.08
1617,1,-1,9,-5,-1,-1,1,-1,8.085
1618,0,1,-2,-2,-2,1,0,0,8.09
1619,0,2,-1,3,-2,-2,-1,0,8.095
1620,0,-4,-5,-10,-4,0,0,-1,8.1
1621,-2,-5,3,4,-3,-2,0,-1,8.105
1622,-1,3,9,7,1,0,2,-2,8.11
1623,0,3,-10,-1,1,-1,-1,0,8.115
1624,-3,-7,5,-2,-2,-1,0,-1,8.120000000000001
1625,1,-2,-16,-10,-3,-2,-3,-1,8.125
1626,-2,6,11,6,-1,0,0,1,8.13
1627,0,2,-13,-17,-1,-1,0,-1,8.135
1628,0,-8,5,21,0,1,1,-3,8.14
1629,-3,-4,2,-4,-1,-2,-1,-4,8.145
1630,0,5,-12,-9,-6,1,-2,-1,8.15
1631,-1,4,-6,1,-2,-1,0,-3,8.155
1632,0,5,1,-2,-2,-2,-3,-1,8.16
1633,1,-1,16,-6,0,-1,0,0,8.165000000000001
1634,-3,3,-3,-1,1,-1,-2,-1,8.17
1635,-1,4,2,-5,-3,-1,-3,-2,8.175
1636,-1,-6,-7,4,0,-1,0,-1,8.18
1637,-1,-3,-10,-4,-1,1,-2,-1,8.185
1638,-1,4,4,5,0,-1,-1,-1,8.19
1639,-2,2,-3,-9,0,-3,-2,0,8.195
1640,1,-6,3,8,0,-1,-1,0,8.2
1641,-2,-3,4,8,1,0,-1,-2,8.205
1642,-1,5,2,-7,-2,0,0,0,8.21
1643,-2,3,-1,1,-1,0,0,-2,8.215
1644,1,-2,4,-5,-1,-1,-2,-2,8.22
1645,0,-2,2,-5,-2,-2,-1,-1,8.225
1646,-1,8,-3,-6,-2,-3,-2,-2,8.23
1647,0,4,7,13,3,1,-1,-2,8.235
1648,-2,-11,-4,-9,-2,1,1,-1,8.24
1649,1,-3,-8,-2,-3,0,-1,-1,8.245000000000001
1650,-1,6,5,4,8,2,0,0,8.25
1651,-1,3,2,9,-1,-1,2,-1,8.255
1652,-3,-13,-5,0,-2,-1,-3,-3,8.26
1653,-2,-2,-16,-23,-6,0,-1,0,8.265
1654,0,6,2,17,-2,0,-2,-1,8.27
1655,0,5,10,6,-1,0,-1,-1,8.275
1656,-1,-3,-4,8,1,-1,2,-1,8.28
1657,-2,-2,-14,-7,-1,-1,-1,0,8.285
1658,-1,5,0,-12,-3,-2,-1,-2,8.290000000000001
1659,1,3,1,3,1,0,-1,-1,8.295
1660,-1,-4,2,-11,-4,-1,-2,1,8.3
1661,-1,-2,-1,8,1,1,0,1,8.305
1662,-3,5,0,-1,-2,-2,-1,-2,8.31
1663,1,2,-4,0,-3,-2,-1,-1,8.315
1664,-1,-5,1,-12,0,-1,1,-1,8.32
1665,0,-1,8,10,-1,0,-2,0,8.325
1666,-1,-1,-16,-21,-3,0,0,-1,8.33
1667,1,2,18,21,2,-1,-2,-1,8.335
1668,0,-12,-5,0,0,0,-1,-1,8.34
1669,-1,-3,0,3,1,0,0,0,8.345
1670,-1,8,6,-3,-2,-3,1,-1,8.35
1671,-5,0,-17,-13,-2,-2,0,0,8.355
1672,1,-2,-6,-2,-2,-2,-2,0,8.36
1673,0,-1,-3,-7,-1,-1,0,-2,8.365
1674,2,10,14,14,2,2,0,0,8.370000000000001
1675,-1,2,-5,-1,-1,-1,0,0,8.375
1676,0,-4,4,5,0,-1,0,0,8.38
1677,-3,-2,-12,-24,-4,-1,-2,-1,8.385
1678,-3,-1,2,18,-3,0,-1,-1,8.39
1679,-1,2,-4,-3,4,1,0,0,8.395
1680,0,-3,10,4,-3,2,-2,-1,8.4
1681,-2,-1,-8,3,1,1,0,-1,8.405
1682,2,8,-1,-7,-3,-2,0,-1,8.41
1683,-2,2,2,-6,-5,-2,0,0,8.415000000000001
1684,-1,-8,-2,-4,-2,-2,-2,-1,8.42
1685,-1,-1,18,4,3,1,0,1,8.425
1686,-1,6,4,-5,0,-1,0,-2,8.43
1687,-4,1,-6,-5,-4,-1,-1,-2,8.435
1688,0,-6,6,1,1,1,2,0,8.44
1689,-1,-2,5,9,-1,-3,1,-3,8.445
1690,2,6,-11,-19,-3,-1,-2,0,8.45
1691,0,2,7,16,2,0,-2,-1,8.455
1692,-2,-12,0,4,-3,-1,-3,-1,8.46
1693,-1,-2,-9,1,0,1,-1,-1,8.465
1694,-3,10,5,-3,0,1,0,-1,8.47
1695,1,2,-6,-16,-1,-1,0,-1,8.475
1696,-2,-11,0,-3,-2,-3,-1,-1,8.48
1697,1,-2,-8,6,-1,0,0,-2,8.485
1698,-2,1,-10,-6,-1,0,-2,-2,8.49
1699,-1,0,-12,-16,-4,-2,-1,-1,8.495000000000001
1700,-1,-8,11,25,4,-1,-2,-1,8.5
1701,-3,-3,-3,-1,-1,-1,0,0,8.505
1702,-3,3,-11,-3,-2,-2,-1,0,8.51
1703,2,1,21,-1,-1,-1,-1,-1,8.515
1704,-2,-13,-6,5,0,-1,-1,-3,8.52
1705,-2,-1,-9,-4,-2,-2,-1,-1,8.525
1706,1,12,11,11,3,1,0,0,8.53
1707,-2,1,-14,-8,-1,-1,-1,0,8.535
1708,-1,-4,1,-8,-2,-1,-1,-2,8.540000000000001
1709,1,-3,2,6,1,-1,-1,1,8.545
1710,-3,-4,4,-8,-8,-3,-1,-2,8.55
1711,0,1,-10,0,10,2,-1,0,8.555
1712,1,-8,6,6,-1,-1,0,0,8.56
1713,-2,-2,-3,-3,-2,-1,1,-2,8.565
1714,1,11,0,0,0,0,-1,0,8.57
1715,-1,1,-3,-4,-7,-3,-1,-2,8.575000000000001
1716,-3,-8,-1,-9,-2,-1,2,0,8.58
1717,-1,-2,-19,-4,1,-2,-2,0,8.585
1718,-1,9,6,14,3,-1,0,0,8.59
1719,0,0,-3,11,-2,0,-1,0,8.595
1720,0,-9,-16,-8,1,-1,1,1,8.6
1721,-1,-2,10,-7,-4,0,0,-2,8.605
1722,0,10,-9,-7,3,-1,-2,0,8.61
1723,-3,2,-9,-2,-3,-3,-2,-3,8.615
1724,0,-8,-1,-2,1,3,1,1,8.620000000000001
1725,0,-2,6,3,0,-1,-2,0,8.625
1726,0,7,-5,-2,1,2,1,0,8.63
1727,-1,2,2,2,-3,-3,-1,0,8.635
1728,-1,-17,-11,-10,-3,-1,-3,-2,8.64
1729,0,-2,1,-3,0,-1,0,0,8.645
1730,-1,9,3,19,0,-1,0,0,8.65
1731,-1,1,1,1,-2,-1,1,1,8.655
1732,-1,-6,-6,-4,-1,-2,-1,-3,8.66
1733,-2,-2,-12,4,1,0,-1,0,8.665000000000001
1734,1,12,13,-12,-2,-1,-2,-2,8.67
1735,0,3,11,0,0,2,0,-2,8.675
1736,-3,-9,-9,1,-2,1,-2,-1,8.68
1737,0,-2,10,1,-1,-2,-1,0,8.685
1738,0,9,-4,0,-1,-3,0,-1,8.69
1739,-1,2,-2,1,-1,-3,-2,-2,8.695
1740,-2,-7,-5,-6,-2,-1,-2,-3,8.700000000000001
1741,-2,-1,1,-4,1,-1,-3,1,8.705
1742,0,8,-11,-22,-10,-3,-2,0,8.71
1743,-1,2,11,25,3,0,-1,0,8.715
1744,-2,-10,-1,-1,1,-1,-2,-2,8.72
1745,-1,-1,0,-1,-4,-1,1,0,8.725
1746,-2,5,-2,1,2,-2,-2,-1,8.73
1747,-1,2,-7,-16,-4,-1,-1,-1,8.735
1748,-2,-10,4,-5,-2,-2,-1,-2,8.74
1749,0,-2,24,8,0,-2,-1,-2,8.745000000000001
1750,-1,6,-24,-19,-2,1,0,-1,8.75
1751,0,2,14,17,-1,-1,0,-2,8.755
1752,1,-9,10,15,3,2,0,-1,8.76
1753,-2,-2,-9,-1,-1,0,-1,-1,8.765
1754,0,14,2,-4,-2,-2,1,0,8.77
1755,1,2,-1,-8,-1,-1,-1,0,8.775
1756,0,-9,-4,-17,-2,-2,-1,0,8.78
1757,1,-1,8,22,-2,0,-1,0,8.785
1758,-1,8,-10,3,1,1,-1,-1,8.790000000000001
1759,-1,3,7,0,1,1,-1,0,8.795
1760,-3,-11,-3,-7,-4,-2,-3,-1,8.8
1761,-1,-2,-10,-13,-1,1,1,-1,8.805
1762,-1,8,3,8,-1,-2,0,0,8.81
1763,-2,2,10,-6,-2,-1,-1,-2,8.815
1764,0,-11,0,0,-1,0,0,0,8.82
1765,-2,-2,-3,-4,1,-1,-1,-2,8.825000000000001
1766,0,8,3,0,1,0,2,-1,8.83
1767,-1,2,-15,-1,-3,-2,0,0,8.835
1768,-3,-11,13,10,-1,-1,-1,-1,8.84
1769,-1,-1,-13,1,1,-1,-2,0,8.845
1770,0,7,-6,-2,-2,1,-1,0,8.85
1771,1,2,-15,-12,-2,0,-1,-1,8.855
1772,0,-9,-4,-16,-2,0,-2,-2,8.86
1773,0,-3,18,19,1,0,-1,0,8.865
1774,-3,8,0,-3,0,-1,-1,-1,8.870000000000001
1775,-2,2,-5,-2,-1,-2,-2,-1,8.875
1776,-1,-10,-5,3,-2,-1,-2,-1,8.88
1777,0,-2,-2,-10,-1,-2,-1,-3,8.885
1778,-1,8,-1,2,1,-2,-3,-1,8.89
1779,0,2,1,2,1,-2,-1,0,8.895
1780,-1,-12,-5,-11,-4,-2,-1,-2,8.9
1781,0,-3,-11,-1,1,-1,0,-2,8.905
1782,1,12,22,19,0,0,1,0,8.91
1783,-3,2,-7,4,1,0,0,0,8.915000000000001
1784,-1,-10,-3,-4,-3,-1,-2,-1,8.92
1785,-3,-2,-8,-10,-1,0,0,1,8.925
1786,1,15,13,-9,-5,-3,0,-1,8.93
1787,-2,3,-10,-5,4,0,0,-2,8.935
1788,1,-5,9,13,2,-1,-1,1,8.94
1789,-1,-3,-7,-5,-2,-1,0,1,8.945
1790,-2,6,-7,-1,2,-1,-1,-1,8.950000000000001
1791,0,2,-10,-5,-4,-1,-2,-1,8.955
1792,0,-10,26,10,-1,-1,0,-1,8.96
1793,-2,-2,-6,-8,-3,1,-2,-2,8.965
1794,-2,8,-3,2,-1,-1,-2,0,8.97
1795,-1,2,1,-10,-2,-2,-2,-1,8.975
1796,-1,-13,-19,2,0,-1,-1,-1,8.98
1797,1,-1,13,17,2,-1,-1,0,8.985
1798,-1,8,1,-3,-1,-1,-1,-1,8.99
1799,0,1,-4,-3,1,0,0,0,8.995000000000001
1800,-2,-17,-14,-8,-1,-2,0,-1,9.0
1801,-1,-2,5,-9,-3,0,0,-1,9.005
1802,-1,4,-10,3,-2,2,-1,0,9.01
1803,-1,2,9,5,0,-1,-1,-1,9.015
1804,0,-13,-7,-1,-2,-1,-1,-2,9.02
1805,-1,-3,0,-12,-3,-1,0,-1,9.025
1806,-1,5,-1,16,2,0,-1,-1,9.03
1807,-1,2,3,-5,-3,-1,0,-2,9.035
1808,-1,-12,-10,-12,0,-1,-2,-1,9.040000000000001
1809,0,-2,9,16,1,0,0,0,9.045
1810,-1,6,-12,-16,-2,-1,-1,0,9.05
1811,0,1,8,6,-2,-1,-1,0,9.055
1812,-2,-13,-6,7,0,0,-2,-2,9.06
1813,2,-4,-4,-5,-2,-2,0,-2,9.065
1814,0,9,3,-11,-1,-1,-1,-1,9.07
1815,0,2,9,16,1,-1,0,-2,9.075000000000001
1816,-2,-12,-4,-2,0,0,2,-2,9.08
1817,-4,-2,-9,-8,-2,-3,-4,-1,9.085
1818,1,13,-17,1,0,-1,0,0,9.09
1819,-1,2,18,-9,-2,-1,-1,2,9.095
1820,0,-9,9,-1,-1,1,-1,2,9.1
1821,-1,-5,2,12,2,-1,-2,0,9.105
1822,-1,8,2,1,-1,-1,-2,-3,9.11
1823,-1,3,-15,-10,-8,-3,-2,-2,9.115
1824,-1,-7,7,1,10,2,-1,0,9.120000000000001
1825,0,-1,3,1,-1,0,-1,0,9.125
1826,-3,3,-14,0,-2,-1,-1,-1,9.13
1827,0,2,10,0,1,-2,-1,0,9.135
1828,-1,-11,-6,-8,-5,0,0,-3,9.14
1829,0,-2,0,-6,-1,0,-1,-1,9.145
1830,0,10,2,5,3,-1,1,0,9.15
1831,-5,0,-26,-12,-5,-3,-2,-2,9.155
1832,-1,-11,7,7,-2,-4,-1,-2,9.16
1833,2,-1,-8,-17,-1,1,0,-2,9.165000000000001
1834,-1,10,23,25,0,-2,-2,-1,9.17
1835,-1,2,-2,3,1,0,-1,0,9.175
1836,-1,-11,-3,1,-2,-2,-2,-1,9.18
1837,-2,-2,3,2,-1,0,1,-1,9.185
1838,-1,10,-1,-9,-1,-1,0,0,9.19
1839,-1,3,-10,-9,-1,0,-1,-2,9.195
1840,0,-10,8,12,0,-2,-2,0,9.200000000000001
1841,-1,-4,-2,0,-2,-1,-1,-2,9.205
1842,1,8,-2,-10,-2,-1,0,0,9.21
1843,-2,2,3,11,3,0,-1,-1,9.215
1844,-2,-9,-8,-6,-3,1,0,-1,9.22
1845,0,-1,-5,-10,-3,-1,-1,-1,9.225
1846,-1,12,14,19,3,-1,0,0,9.23
1847,1,2,-6,-20,-1,0,0,0,9.235
1848,0,-10,2,13,-1,-1,0,-1,9.24
1849,1,0,0,3,-1,-2,-1,0,9.245000000000001
1850,0,7,8,-5,0,0,0,-1,9.25
1851,-1,0,-23,0,0,0,-1,-1,9.255
1852,0,-8,7,-6,-2,1,-1,0,9.26
1853,-3,-3,2,-8,-4,-2,0,0,9.265
1854,-2,6,-5,-1,2,-1,-1,-1,9.27
1855,-1,4,15,8,0,1,1,-1,9.275
1856,-2,-12,-2,-6,-1,-2,-1,-2,9.28
1857,-2,-2,-3,-2,0,-2,-1,0,9.285
1858,0,9,-7,1,-5,-1,-2,-2,9.290000000000001
1859,-1,3,5,-2,0,0,-1,-1,9.295
1860,-1,-9,-1,3,0,0,0,-2,9.3
1861,-1,-2,0,1,-1,-1,-1,-2,9.305
1862,0,13,0,-13,0,-1,1,-1,9.31
1863,-1,1,-6,6,-1,-1,-2,-2,9.315
1864,-3,-12,-11,-11,-5,3,1,0,9.32
1865,1,-1,2,4,0,1,-3,0,9.325000000000001
1866,0,7,-4,2,1,-1,-2,-1,9.33
1867,0,3,-2,-2,-1,-1,-1,-1,9.335
1868,-4,-12,3,-6,-2,-1,-2,-2,9.34
1869,-1,-1,-1,10,1,0,0,-2,9.345
1870,-2,11,-4,-15,-2,-1,0,1,9.35
1871,-2,0,-13,10,0,-2,0,-2,9.355
1872,0,-8,5,-12,-3,-2,-1,1,9.36
1873,-1,-2,6,19,3,0,0,-1,9.365
1874,1,11,2,-3,-2,-1,0,0,9.370000000000001
1875,-2,3,-2,-6,-2,-1,1,-2,9.375
1876,0,-9,8,4,-2,-1,-1,-1,9.38
1877,0,0,-6,-7,0,0,-1,-1,9.385
1878,0,10,-3,-7,-2,0,-1,-2,9.39
1879,-1,2,11,-1,-2,0,0,-3,9.395
1880,-2,-12,-5,2,-1,-3,-1,-2,9.4
1881,-2,-2,-5,-5,-1,-3,0,0,9.405
1882,-2,3,-5,1,-3,-1,-2,0,9.41
1883,-2,2,-4,-18,-3,0,-2,1,9.415000000000001
1884,-1,-12,-1,29,1,-1,-1,-1,9.42
1885,-1,1,5,-6,0,1,0,0,9.425
1886,0,10,-8,4,0,-1,-2,-1,9.43
1887,-2,-3,21,8,-2,-3,-2,-2,9.435
1888,0,-8,-8,-9,0,0,-1,-1,9.44
1889,-2,-1,-13,-3,-3,-1,0,-1,9.445
1890,0,7,5,-9,0,-1,-1,0,9.450000000000001
1891,2,2,0,1,-3,-1,-3,0,9.455
1892,-1,-11,-2,-5,-1,-2,-2,-1,9.46
1893,0,-1,-8,0,-1,0,1,-1,9.465
1894,-1,9,2,4,2,0,1,0,9.47
1895,-1,0,-5,-1,1,-2,-2,0,9.475
1896,0,-7,-7,-13,-2,-2,-2,-1,9.48
1897,-1,0,1,2,0,1,-2,0,9.485
1898,0,8,6,5,0,-1,-1,0,9.49
1899,-2,2,-5,2,-1,-1,0,-1,9.495000000000001
1900,-2,-7,4,6,0,1,-1,0,9.5
1901,-1,-1,2,-5,-1,0,1,0,9.505
1902,0,8,-4,-9,-2,0,0,-2,9.51
1903,0,0,-8,7,0,0,-2,-2,9.515
1904,0,-5,5,0,3,0,0,1,9.52
1905,-1,-1,6,-2,0,-2,-1,-1,9.525
1906,-2,6,-1,0,-5,0,-1,-3,9.53
1907,2,0,1,-8,-1,-2,1,0,9.535
1908,-1,-14,-12,-1,-1,-2,-2,-2,9.540000000000001
1909,-4,-3,1,3,-4,-3,-2,0,9.545
1910,0,9,0,-5,-1,1,-1,-2,9.55
1911,-1,1,-5,-15,0,2,-1,0,9.555
1912,0,-8,2,14,0,1,-1,0,9.56
1913,2,-1,12,17,1,-1,-2,0,9.565
1914,1,21,-13,-8,-6,-4,-1,0,9.57
1915,-5,-1,-7,-1,-1,-2,-1,-1,9.575000000000001
1916,-3,-6,-8,-29,-2,-2,-2,-2,9.58
1917,-3,0,-2,12,-2,-2,-2,-1,9.585
1918,0,7,7,3,1,0,1,0,9.59
1919,3,3,2,6,-1,0,0,-1,9.595
1920,1,-10,-1,-9,-2,-1,-1,-1,9.6
1921,2,5,-3,-10,1,0,0,0,9.605
1922,0,6,0,4,0,0,-1,0,9.61
1923,-2,0,0,0,-1,-1,-1,0,9.615
1924,-1,-11,-2,-3,-4,-2,-2,-1,9.620000000000001
1925,-2,0,-1,3,-1,-1,1,-2,9.625
1926,0,5,3,5,-2,0,-2,0,9.63
1927,3,1,-10,-44,-5,-2,0,0,9.635
1928,-12,-6,9,60,2,-2,-4,-6,9.64
1929,-6,1,3,-23,-1,-3,-3,-7,9.645
1930,-22,-2,-9,21,-1,-3,-3,-5,9.65
1931,30,-19,9,47,6,4,5,9,9.655
1932,-17,-13,-16,-65,-17,-10,-16,-56,9.66
1933,-8,11,7,-48,-14,2,13,45,9.665000000000001
1934,-37,-79,0,-48,20,-3,0,-13,9.67
1935,5,10,-19,87,26,19,18,35,9.675
1936,100,89,21,36,34,17,-7,-5,9.68
1937,-50,-11,-19,-38,-21,-15,-17,-48,9.685
1938,-5,41,2,-71,-48,-15,-10,23,9.69
1939,36,-15,-12,-32,-6,-2,8,87,9.695
1940,19,20,14,53,14,11,8,-72,9.700000000000001
1941,44,69,13,-39,-53,-22,3,38,9.705
1942,-43,-128,-16,88,84,37,36,56,9.71
1943,-63,7,-5,-7,-2,-12,-36,-25,9.715
1944,40,92,-13,2,-10,-12,3,57,9.72
1945,-5,-7,6,39,37,12,-30,-128,9.725
1946,-28,62,21,-48,-23,-21,-7,-85,9.73
1947,-29,-1,24,15,-38,-18,61,30,9.735
1948,-43,-85,-9,-4,40,40,-17,127,9.74
1949,85,127,-27,-16,-7,-7,-7,114,9.745000000000001
1950,92,63,49,70,12,1,-12,11,9.75
1951,-71,-7,-16,15,79,-1,-60,-109,9.755
1952,-12,-11,57,-128,-128,-49,29,-74,9.76
1953,-77,-57,-62,127,113,63,50,127,9.765
1954,-17,-3,-16,-61,0,9,3,-92,9.77
1955,-8,18,-10,-20,-26,-20,-78,-92,9.775
1956,-7,-73,6,103,7,-7,-48,-24,9.78
1957,-33,-21,-30,-128,-76,-39,-24,-92,9.785
1958,46,-84,-34,-53,12,24,69,127,9.790000000000001
1959,12,-128,92,79,24,6,-1,-1,9.795
1960,-60,9,-22,-77,0,-6,5,-31,9.8
1961,6,110,53,74,-65,-34,7,-128,9.805
1962,34,57,23,110,34,10,5,-14,9.81
1963,46,5,-61,-66,-60,-2,54,23,9.815
1964,47,11,-9,-67,-9,-6,-38,112,9.82
1965,7,-87,-19,89,61,10,1,-35,9.825000000000001
1966,62,80,8,8,22,0,-47,62,9.83
1967,9,10,-36,-14,16,25,-3,36,9.835
1968,-105,33,-85,-101,-72,-48,40,-92,9.84
1969,3,127,11,47,102,48,20,-21,9.845
1970,12,31,7,3,-60,-28,-32,53,9.85
1971,-16,-12,-64,-41,-25,-11,-2,-27,9.855
1972,-31,-40,69,115,-11,10,-2,-91,9.86
1973,36,-17,43,-82,-10,-4,5,107,9.865
1974,-73,-6,-105,-55,-62,-32,-29,-128,9.870000000000001
1975,-42,10,43,57,-13,-13,30,90,9.875
1976,47,-38,23,-8,29,15,15,62,9.88
1977,19,-2,33,-9,-42,-19,-10,-6,9.885
1978,-42,4,51,14,52,32,-10,4,9.89
1979,-44,-30,-16,-115,-57,-23,-4,-124,9.895
1980,8,-48,-52,-27,-41,-30,2,105,9.9
1981,-28,-33,51,43,98,49,-13,72,9.905
1982,108,49,1,-38,-104,-51,-21,-49,9.91
1983,-17,-7,6,90,84,26,-21,64,9.915000000000001
1984,-26,16,29,-32,41,5,24,-54,9.92
1985,38,-9,24,31,50,16,17,17,9.925
1986,-67,-46,-28,34,-21,-16,13,-128,9.93
1987,103,18,72,65,14,37,54,49,9.935
1988,-72,29,-48,-2,31,-12,-47,-25,9.94
1989,-11,26,-14,-29,-25,-2,-9,-21,9.945
1990,-64,-26,1,-55,-68,-37,-41,-92,9.950000000000001
1991,92,-44,14,44,103,66,49,79,9.955
1992,29,26,-12,2,-29,16,-3,-26,9.96
1993,-74,-29,-42,-62,-84,-46,1,-72,9.965
1994,44,-8,-8,-33,-14,19,35,125,9.97
1995,22,46,9,-17,-16,-22,-58,-128,9.975
1996,8,-30,31,1,-27,4,-35,-42,9.98
1997,-20,-30,-37,-102,-16,-27,-14,55,9.985
1998,38,-10,11,51,24,20,52,86,9.99
1999,-53,-19,-49,-79,34,1,-4,2,9.995000000000001
2000,21,-43,19,90,45,25,9,-1,10.0
2001,-41,-24,-22,-110,-91,-48,-33,-128,10.005
2002,-49,39,2,62,10,-4,-11,-48,10.01
2003,71,41,23,-20,-23,-1,10,103,10.015
2004,-37,-1,-6,24,46,15,-18,-128,10.02
2005,47,-67,-40,-63,-67,3,63,127,10.025
2006,2,26,11,54,-9,-10,-31,-18,10.03
2007,-97,-19,-67,-71,-79,-30,0,-128,10.035
2008,118,26,37,76,21,-1,-21,127,10.040000000000001
2009,-46,71,-6,-51,3,-4,33,-128,10.045
2010,62,29,4,15,25,20,1,124,10.05
2011,15,-26,44,75,48,13,-65,-116,10.055
2012,-122,-8,-72,-128,-77,-58,20,-68,10.06
2013,101,69,85,127,127,96,27,74,10.065
2014,72,13,13,-106,7,-13,-22,95,10.07
2015,-73,-85,-51,-122,-39,-25,8,-21,10.075000000000001
2016,-63,-10,-4,-112,-55,-23,39,-50,10.08
2017,37,-8,-2,122,48,16,-15,27,10.085
2018,-60,-8,53,-52,-17,11,28,-128,10.09
2019,111,41,-61,30,84,15,-15,127,10.095
2020,-18,-28,36,-2,-50,-10,-6,-47,10.1
2021,-42,-3,-57,-11,-21,-11,-41,9,10.105
2022,-26,41,24,-39,5,11,38,38,10.11
2023,-57,22,20,-7,-96,-34,-34,-118,10.115
2024,101,48,-42,3,48,34,76,124,10.120000000000001
2025,50,20,22,-6,-41,-30,-30,72,10.125
2026,2,-18,6,20,49,10,-22,-33,10.13
2027,-85,21,30,-69,-11,-3,14,-127,10.135
2028,29,4,-4,107,-8,21,-10,83,10.14
2029,58,-26,4,15,35,4,-26,-48,10.145
2030,-48,-39,-40,-50,-82,-36,16,-24,10.15
2031,0,11,23,103,-39,16,21,-31,10.155
2032,68,95,55,15,13,-4,4,75,10.16
2033,-40,-53,-63,-71,-33,-11,-24,-106,10.165000000000001
2034,-30,13,11,-17,-45,-3,16,53,10.17
2035,-18,-22,4,35,-11,-18,-1,46,10.175
2036,-10,-47,-33,17,25,19,-5,7,10.18
2037,-16,-5,-8,-70,-53,-33,-22,-103,10.185
2038,-19,-18,50,-22,48,26,68,-1,10.19
2039,100,22,30,22,-9,6,-15,127,10.195
2040,38,4,55,-11,39,11,-7,40,10.200000000000001
2041,-71,-28,-36,-26,24,-14,-36,-93,10.205
2042,-1,-52,-68,-119,-9,-18,-15,55,10.21
2043,69,23,40,115,43,58,34,83,10.215
2044,-29,-40,-33,-102,-59,-28,-35,-102,10.22
2045,-20,-56,53,83,52,32,52,-49,10.225
2046,50,23,-5,-5,-24,-19,-14,46,10.23
2047,-10,-90,-4,-59,35,-10,0,-35,10.235
2048,6,-27,17,82,97,31,11,-71,10.24
2049,-126,-12,20,-38,-21,-10,28,-105,10.245000000000001
2050,14,49,-47,87,60,12,-41,11,10.25
2051,-5,-20,11,-71,-92,-26,-16,-45,10.255
2052,4,-30,-28,16,54,12,-18,62,10.26
2053,67,73,38,17,-16,-6,27,-3,10.265
2054,-4,-2,-15,75,2,3,25,-74,10.27
2055,13,48,14,-36,-3,-9,-8,13,10.275
2056,-81,-14,-39,-19,8,-3,-37,-128,10.28
2057,10,10,-11,-15,6,6,7,113,10.285
2058,-31,8,0,-17,-30,0,-7,-123,10.290000000000001
2059,-8,17,-20,-10,43,-1,-18,34,10.295
2060,-49,-3,18,5,-59,-8,54,-18,10.3
2061,100,127,2,-55,-29,-9,-23,127,10.305
2062,-4,-30,10,27,18,-1,-31,-124,10.31
2063,-22,39,11,15,18,4,43,62,10.315
2064,57,26,-40,-36,-24,-11,9,127,10.32
2065,-34,-51,-5,-29,-41,-10,10,11,10.325000000000001
2066,-30,9,-29,-2,24,2,-31,-76,10.33
2067,-82,-4,-24,-34,-93,-51,29,-113,10.335
2068,79,2,32,-21,35,27,-32,59,10.34
2069,43,6,-22,28,15,10,-21,-42,10.345
2070,-40,-111,4,50,44,5,7,-40,10.35
2071,-8,-71,-83,-74,-15,-8,-5,-12,10.355
2072,-9,-2,-10,80,28,11,20,67,10.36
2073,62,2,19,31,20,25,1,74,10.365
2074,-9,19,-5,28,-22,-2,-11,-34,10.370000000000001
2075,-17,-16,15,-94,-86,-42,-26,-38,10.375
2076,-8,-26,54,105,98,49,26,-101,10.38
2077,-74,-3,-15,-64,-35,-15,-27,-55,10.385
2078,-15,9,19,72,32,4,21,20,10.39
2079,-21,-128,-99,31,49,16,16,74,10.395
2080,54,11,86,-59,-66,-30,-38,91,10.4
2081,-17,-7,-41,65,-58,-15,30,-55,10.405
2082,-14,38,15,-46,6,-4,-26,-50,10.41
2083,9,5,0,-29,0,4,-20,63,10.415000000000001
2084,36,-12,1,24,26,10,4,-14,10.42
2085,-25,-70,-33,-51,-30,-13,10,-75,10.425
2086,-7,20,20,-1,-5,4,-6,-58,10.43
2087,73,72,36,8,38,10,-13,52,10.435
2088,-76,-23,-28,-107,-109,-28,19,-112,10.44
2089,80,125,42,19,84,47,9,122,10.445
2090,39,41,15,19,-14,-1,6,95,10.450000000000001
2091,-47,-26,-14,20,10,-1,-8,-106,10.455
2092,-23,-20,-20,66,-25,-24,-2,-43,10.46
2093,-9,-9,4,-93,-5,-11,2,-52,10.465
2094,25,12,14,41,11,18,13,65,10.47
2095,4,14,40,16,11,6,6,-62,10.475
2096,-1,0,-30,-48,-16,-8,0,68,10.48
2097,-38,-19,-42,36,9,-4,-31,-42,10.485
2098,30,13,-9,8,13,9,-6,40,10.49
2099,3,-7,28,-3,-24,-6,9,2,10.495000000000001
2100,-15,3,8,14,5,-7,-9,-65,10.5
2101,8,-24,5,33,-2,-21,-33,8,10.505
2102,-21,12,-14,-128,-18,-2,-14,63,10.51
2103,61,40,0,68,18,20,31,-54,10.515
2104,-98,-6,-8,-29,-7,14,16,25,10.52
2105,113,38,49,11,26,28,66,64,10.525
2106,-47,15,34,17,-44,-24,-22,-85,10.53
2107,-83,16,-41,-54,2,-1,11,-34,10.535
2108,107,-5,-51,-111,-5,22,-9,14,10.540000000000001
2109,-75,-44,28,52,-15,-13,36,-7,10.545
2110,-5,6,6,9,14,2,0,16,10.55
2111,-106,-11,3,-22,-22,-14,-43,-11,10.555
2112,34,15,58,-74,-1,-13,-16,21,10.56
2113,-38,-8,-15,67,16,2,-25,25,10.565
2114,6,-19,-39,-70,42,9,-1,12,10.57
2115,-8,-8,-18,-26,-44,-20,-2,-38,10.575000000000001
2116,47,11,-36,52,20,-2,-21,19,10.58
2117,12,29,-22,-43,-9,5,-3,-37,10.585
2118,41,6,95,100,18,1,-2,5,10.59
2119,-7,-16,-64,-70,-10,-2,7,25,10.595
2120,-17,-10,3,92,11,1,4,-17,10.6
2121,-16,-25,-58,-107,-41,-11,-13,-5,10.605
2122,-4,-15,-69,88,37,7,9,25,10.61
2123,41,-11,120,-19,-4,1,-2,10,10.615
2124,-18,-10,5,-81,-46,-16,-6,-37,10.620000000000001
2125,-5,-7,23,-8,6,-1,-7,6,10.625
2126,-7,1,18,-94,-24,-4,13,6,10.63
2127,46,-25,-15,-1,33,14,3,13,10.635
2128,-24,-13,32,127,49,5,5,-20,10.64
2129,-32,-24,-45,-90,-49,-25,-10,-9,10.645
2130,26,13,-17,-22,40,20,13,15,10.65
2131,17,-13,9,6,11,2,-10,-1,10.655
2132,-23,-10,-2,0,0,-2,5,-13,10.66
2133,-5,1,-3,3,-10,-7,-4,2,10.665000000000001
2134,4,4,-6,-19,-26,-12,-11,-2,10.67
2135,14,-13,-5,15,8,4,-1,4,10.675
2136,-18,-11,-20,-7,5,-2,7,-14,10.68
2137,8,11,45,59,6,4,-2,2,10.685
2138,2,6,-43,11,-12,-4,-3,2,10.69
2139,1,-9,29,-10,-1,1,-2,1,10.695
2140,-1,-11,-34,-18,-7,-2,3,-9,10.700000000000001
2141,1,4,-13,17,4,2,-6,-3,10.705
2142,-4,9,32,30,-4,-2,-1,3,10.71
2143,8,2,16,36,6,2,-1,1,10.715
2144,-8,-12,-16,-12,-8,-3,-2,-9,10.72
2145,0,9,13,12,12,3,-1,1,10.725
2146,-3,6,-31,-85,-20,-7,2,0,10.73
2147,11,-1,4,53,11,6,1,2,10.735
2148,-10,-7,-3,11,2,0,-1,-7,10.74
2149,0,1,18,7,3,2,1,2,10.745000000000001
2150,5,-1,-16,-39,-18,-6,0,1,10.75
2151,1,1,23,76,17,3,-6,-2,10.755
2152,-4,0,-15,-19,4,1,2,-2,10.76
2153,-1,5,6,25,-2,-3,-2,-4,10.765
2154,1,-6,-19,-34,-12,-3,-3,-2,10.77
2155,1,-1,-2,-14,-1,-1,-4,-2,10.775
2156,-5,0,12,-1,-9,-3,-1,-6,10.78
2157,3,4,12,10,9,0,0,0,10.785
2158,1,0,8,10,-5,-2,-1,1,10.790000000000001
2159,0,-6,-8,-27,-6,-2,1,-1,10.795
2160,-4,-1,6,2,-1,1,-1,-3,10.8
2161,0,7,-8,-52,-4,0,-1,1,10.805
2162,-1,4,25,71,8,2,0,0,10.81
2163,-1,-2,-8,-3,-4,-1,0,2,10.815
2164,-1,-4,0,-11,0,-3,0,-3,10.82
2165,0,17,-8,-18,-2,0,0,1,10.825000000000001
2166,0,6,22,27,5,-2,-3,-1,10.83
2167,-1,-9,-15,-13,-1,-1,-1,0,10.835
2168,-2,-3,-5,4,-3,0,0,1,10.84
2169,-1,10,3,-13,4,5,2,2,10.845
2170,-2,-3,-5,4,-3,0,0,1,10.85
2171,-1,10,3,-13,4,5,2,2,10.855
2172,0,6,-16,-18,-7,-2,0,-1,10.86
2173,1,-6,1,10,-3,-3,-3,-2,10.865
2174,4,4,-6,-19,-26,-12,-11,-2,10.870000000000001
2175,14,-13,-5,15,8,4,-1,4,10.875
2176,-18,-11,-20,-7,5,-2,7,-14,10.88
2177,8,11,45,59,6,4,-2,2,10.885
2178,-1,-6,-7,-15,1,0,-1,-1,10.89
2179,1,8,14,24,-2,-1,0,1,10.895
2180,0,6,-13,-23,-2,-2,-1,0,10.9
2181,-2,-9,-4,-15,-12,-5,-4,-2,10.905
2182,0,-1,2,15,15,3,3,0,10.91
2183,-1,7,4,6,2,0,-1,-3,10.915000000000001
2184,-2,4,-9,-6,-3,-1,-2,0,10.92
2185,-1,-8,0,-15,-2,-2,-2,0,10.925
2186,2,-1,1,-11,-5,-3,-2,-2,10.93
2187,-1,4,8,22,3,-1,0,0,10.935
2188,0,2,0,-13,0,0,-1,-1,10.94
2189,-1,-9,-8,-9,-7,1,-1,2,10.945
2190,-1,-1,9,22,0,-2,-2,-1,10.950000000000001
2191,-2,6,2,5,-2,-1,-1,1,10.955
2192,-1,3,-17,-23,-6,-2,0,1,10.96
2193,-1,-7,0,2,-6,-4,-1,-2,10.965
2194,-1,-3,-7,-28,-3,-1,-1,0,10.97
2195,-1,-1,8,21,-1,-1,-3,-1,10.975
2196,-1,2,-4,-30,-2,-1,-2,0,10.98
2197,-2,-9,9,32,14,-1,-2,0,10.985
2198,2,0,4,9,0,6,3,3,10.99
2199,0,-1,-5,-6,2,0,1,-2,10.995000000000001
2200,2,2,-1,-5,-4,-2,-1,1,11.0
2201,0,-9,-1,-10,8,-1,-1,-1,11.005
2202,-5,-2,-7,-20,-5,-4,-3,-3,11.01
2203,1,6,6,14,0,-3,-1,-1,11.015
2204,1,0,2,9,4,3,-1,-1,11.02
2205,-1,-6,-2,-4,-2,-1,-1,-2,11.025
2206,-1,-2,0,0,-4,-2,-1,-1,11.03
2207,-2,6,-4,-10,-6,-3,-2,0,11.035
2208,-4,1,7,14,1,-1,-1,-3,11.040000000000001
2209,0,-4,1,1,1,3,1,0,11.045
2210,-2,-2,-2,-7,-3,-4,-1,-2,11.05
2211,-2,5,-8,-16,4,1,-1,-1,11.055
2212,0,1,5,5,-8,-2,-1,-1,11.06
2213,1,-6,-7,2,9,3,-1,0,11.065
2214,0,-1,-14,-42,-4,0,0,-1,11.07
2215,-2,3,14,47,-2,-3,-1,0,11.075000000000001
2216,-2,0,-5,-6,-1,-2,-2,0,11.08
2217,-3,-9,-3,-10,-13,-2,-2,-2,11.085
2218,0,-1,3,16,11,2,0,-1,11.09
2219,-1,3,-4,-13,-4,-3,-2,-2,11.095
2220,0,-1,-7,-6,3,1,2,0,11.1
2221,-1,-6,2,3,0,-1,0,1,11.105
2222,-2,-1,-1,-15,-10,-4,-3,-1,11.11
2223,-2,7,10,28,10,1,0,-1,11.115
2224,-2,1,-1,2,0,-1,0,0,11.120000000000001
2225,1,-4,0,-1,2,0,1,-2,11.125
2226,0,0,-5,-1,-4,-1,-3,-1,11.13
2227,2,9,-2,-11,0,-1,1,0,11.135
2228,0,-1,-2,5,-2,-2,-3,-3,11.14
2229,-1,-8,2,6,2,1,0,-1,11.145
2230,-1,0,4,14,0,-1,0,-1,11.15
2231,1,6,-12,-25,-2,0,-2,0,11.155
2232,-1,1,1,4,-4,0,0,1,11.16
2233,-1,-7,-6,0,-1,-1,0,-1,11.165000000000001
2234,-2,-1,8,28,1,-2,-2,-1,11.17
2235,-2,6,-15,-30,-6,-1,-1,-1,11.175
2236,2,1,6,11,-2,-2,-2,0,11.18
2237,-1,-12,2,17,-1,-1,-1,-1,11.185
2238,-1,-3,-1,-5,-2,-2,0,-1,11.19
2239,1,7,4,9,2,-1,0,0,11.195
2240,0,0,-13,-38,-9,-3,0,-1,11.200000000000001
2241,0,-6,13,29,5,1,-2,-2,11.205
2242,-3,-1,-6,-4,0,-1,-2,-1,11.21
2243,-2,3,1,-1,-1,0,-1,-3,11.215
2244,0,1,-3,1,-3,0,-1,-1,11.22
2245,1,-5,-6,-23,-3,1,-2,2,11.225
2246,-2,0,7,13,-2,-2,-1,-2,11.23
2247,-1,9,6,6,3,-1,-2,1,11.235
2248,-1,0,-5,-8,-4,-3,-2,0,11.24
2249,-2,-7,-5,-10,0,1,1,0,11.245000000000001
2250,0,-2,6,8,-1,-1,0,-1,11.25
2251,-1,6,-5,-9,-3,-3,-1,0,11.255
2252,-2,-1,-2,0,-3,-1,-2,-3,11.26
2253,-1,-7,-3,-2,9,3,2,1,11.265
2254,-1,-1,-8,-18,-2,-1,0,-2,11.27
2255,-3,5,9,17,1,1,-1,-1,11.275
2256,2,2,-5,-11,6,1,0,0,11.28
2257,0,-9,4,15,2,0,-1,-1,11.285
2258,0,-2,2,14,0,0,0,0,11.290000000000001
2259,-1,4,3,-13,-6,-4,-3,-1,11.295
2260,0,0,1,23,9,2,0,0,11.3
2261,0,-9,-15,-32,-9,-3,-2,-2,11.305
2262,0,3,5,7,5,1,-1,0,11.31
2263,0,6,-9,-5,-1,0,0,-1,11.315
2264,-1,1,3,-4,-1,-2,-1,0,11.32
2265,-2,-9,-1,-2,-4,-2,-3,-1,11.325000000000001
2266,-2,1,-8,-17,-2,3,1,2,11.33
2267,-2,7,2,6,-1,-1,0,-3,11.335
2268,-2,0,2,3,1,-1,0,0,11.34
2269,0,-7,-2,-2,-2,-2,-1,0,11.345
2270,-1,-2,-5,-5,-3,-2,-1,-1,11.35
2271,0,5,-5,-4,-1,1,0,1,11.355
2272,-2,-1,3,1,-1,0,0,-2,11.36
2273,-2,-9,-4,-1,-5,-3,-2,-1,11.365
2274,0,0,-1,-18,0,0,0,0,11.370000000000001
2275,1,7,4,31,0,-1,-1,0,11.375
2276,-4,-2,1,15,0,0,-2,-2,11.38
2277,-2,-9,-3,-9,-5,-1,0,0,11.385
2278,1,0,-5,-10,-1,0,-1,-1,11.39
2279,3,9,-5,-20,7,0,-1,2,11.395
2280,-2,1,9,8,-9,-1,-1,-2,11.4
2281,-3,-11,-5,1,-7,1,-1,-3,11.405
2282,-2,0,-3,3,1,-1,-1,0,11.41
2283,1,6,-2,-5,5,0,0,0,11.415000000000001
2284,1,-1,-9,-9,-1,-1,-3,-1,11.42
2285,1,-7,2,-2,-1,-4,1,0,11.425
2286,1,1,3,6,1,0,-1,-2,11.43
2287,-1,5,-3,-10,-4,0,0,-1,11.435
2288,-2,-2,-6,-4,-3,-2,-1,-2,11.44
2289,0,-8,4,5,1,0,0,0,11.445
2290,-1,0,-2,-1,-6,-4,-2,0,11.450000000000001
2291,-2,6,1,13,11,0,-1,-1,11.455
2292,0,0,-7,-24,-2,-2,0,-1,11.46
2293,-1,-6,4,5,2,0,-1,0,11.465
2294,-2,2,12,18,0,0,-2,-2,11.47
2295,-1,8,-2,-7,-6,-2,-3,0,11.475
2296,-3,-3,-1,2,-3,0,-1,0,11.48
2297,-1,-8,6,16,6,0,0,-1,11.485
2298,-1,-1,-17,-18,-3,-3,1,1,11.49
2299,1,5,3,0,-3,0,2,0,11.495000000000001
2300,0,0,-3,-4,2,0,-2,0,11.5
2301,2,-7,0,-5,-5,-1,1,1,11.505
2302,-4,-1,2,4,1,-3,-2,-3,11.51
2303,1,7,0,-3,0,0,0,-1,11.515
2304,-1,-4,-2,1,-2,-2,0,-1,11.52
2305,-1,-10,-5,-11,3,-1,0,0,11.525
2306,2,3,5,13,1,-1,-1,0,11.53
2307,-4,5,-5,-13,-5,-1,-1,-2,11.535
2308,0,0,1,0,0,-1,0,0,11.540000000000001
2309,-2,-7,4,-3,-1,-1,-1,-2,11.545
2310,0,0,-3,9,-3,-1,1,-1,11.55
2311,1,6,0,7,9,-1,2,-1,11.555
2312,-2,-2,4,5,3,0,-1,-1,11.56
2313,-2,-8,-9,-20,-3,-3,0,-2,11.565
2314,-2,0,-7,-13,-3,-1,0,0,11.57
2315,-1,4,9,23,-6,-3,-1,-3,11.575000000000001
2316,1,-1,0,0,2,-2,-1,-1,11.58
2317,-1,-9,-8,-15,-2,-1,-1,-2,11.585
2318,-2,2,12,17,2,-1,-1,0,11.59
2319,-3,5,-13,-17,-4,-2,-3,0,11.595
2320,2,-3,-2,1,1,-1,-1,1,11.6
2321,-2,-7,4,8,-2,-1,-1,-1,11.605
2322,2,3,-7,-14,-1,-2,1,0,11.61
2323,0,8,0,5,5,2,0,-1,11.615
2324,-2,-1,-1,-7,-8,-2,-1,-1,11.620000000000001
2325,-2,-7,2,8,0,-1,-1,-1,11.625
2326,1,2,0,1,2,2,-1,1,11.63
2327,-2,8,3,-3,-3,-1,-2,0,11.635
2328,-1,-2,-5,-9,0,-2,-1,-1,11.64
2329,0,-6,2,8,-3,-1,-3,-1,11.645
2330,0,2,-3,-6,8,2,0,0,11.65
2331,0,5,10,27,-2,-1,0,-2,11.655
2332,-2,-3,-1,3,2,1,-1,-1,11.66
2333,-2,-9,-6,-8,-4,-3,-1,-3,11.665000000000001
2334,-1,2,-4,-7,-5,-3,-2,-2,11.67
2335,3,6,-12,-34,-5,-2,-1,0,11.675
2336,-3,-5,4,20,-1,-2,-3,-5,11.68
2337,-1,-7,3,11,1,1,-1,0,11.685
2338,0,2,7,-1,0,0,-1,-2,11.69
2339,0,5,-13,-20,-2,1,-1,0,11.695
2340,-2,-2,-2,-3,-2,0,1,-1,11.700000000000001
2341,-1,-8,-4,-4,0,0,-1,1,11.705
2342,-3,0,-5,-3,-2,-3,-1,-2,11.71
2343,-2,6,6,4,-3,-1,-1,1,11.715
2344,0,-4,2,3,1,0,-1,-2,11.72
2345,-2,-8,-2,-5,-1,0,-1,-2,11.725
2346,-1,3,5,7,2,1,0,-1,11.73
2347,-2,5,-3,-6,0,0,1,-2,11.735
2348,1,-3,9,17,3,0,0,0,11.74
2349,0,-12,-13,-19,-4,-1,-2,-1,11.745000000000001
2350,-1,3,3,2,-1,-1,-2,-1,11.75
2351,-2,6,8,22,2,-1,-2,-1,11.755
2352,-1,-4,-12,-32,-8,-1,-2,0,11.76
2353,0,-4,9,30,15,2,1,-1,11.765
2354,-2,2,4,7,-3,-3,-3,0,11.77
2355,-1,6,-6,-13,-5,-2,0,-1,11.775
2356,-1,-4,-4,7,-5,-3,-1,-1,11.78
2357,-1,-9,-3,-2,-3,1,-2,-1,11.785
2358,-1,2,-2,-3,-1,-3,-1,-1,11.790000000000001
2359,0,6,1,9,2,0,1,-1,11.795
2360,0,-4,0,-8,1,-1,-1,-1,11.8
2361,-2,-7,-5,-7,-2,-1,-2,-1,11.805
2362,1,4,6,5,0,0,0,0,11.81
2363,-1,1,-3,-7,-3,-3,0,-1,11.815
2364,-1,-5,-4,-3,-2,0,-1,-1,11.82
2365,-1,-6,2,4,-1,-3,1,2,11.825000000000001
2366,0,2,-8,-8,-2,0,0,-1,11.83
2367,-1,5,0,-3,-2,-4,-2,-2,11.835
2368,-3,-5,-2,1,1,-2,-2,0,11.84
2369,0,-6,5,8,-1,-1,0,0,11.845
2370,0,3,-9,-23,-2,-1,0,-1,11.85
2371,-2,4,4,12,-1,-1,-1,0,11.855
2372,-1,-4,0,5,1,-1,-1,0,11.86
2373,0,-3,-2,-18,-4,1,0,-1,11.865
2374,-1,3,-3,10,2,0,0,0,11.870000000000001
2375,0,4,-2,-9,-9,-1,-3,0,11.875
2376,0,-3,-1,1,11,2,0,0,11.88
2377,-1,-8,-7,-14,-3,-2,-3,0,11.885
2378,0,4,-2,-2,1,2,-4,-1,11.89
2379,-1,5,9,22,-7,-2,-4,-2,11.895
2380,0,-5,-1,-1,-4,0,1,-1,11.9
2381,-1,-6,1,6,1,-2,1,0,11.905
2382,0,2,-2,-5,-1,-2,2,0,11.91
2383,0,4,-8,-14,4,2,3,1,11.915000000000001
2384,-2,-4,-3,-4,-2,-2,0,-1,11.92
2385,-1,-5,2,4,-1,1,-1,-1,11.925
2386,-2,1,-5,1,-2,-2,0,-1,11.93
2387,1,8,1,-6,2,-1,0,1,11.935
2388,0,-3,2,5,-1,-1,-1,0,11.94
2389,-2,-8,-5,-2,-1,0,0,0,11.945
2390,1,5,2,5,2,0,1,0,11.950000000000001
2391,-1,4,-3,-2,1,0,0,-2,11.955
2392,0,-5,-9,-27,-2,0,1,-2,11.96
2393,-1,-8,6,24,-1,-1,-1,-3,11.965
2394,-1,0,2,12,-1,0,2,-2,11.97
2395,-1,6,-1,0,-3,-2,0,-1,11.975
2396,-1,-7,-5,-6,6,2,-1,-3,11.98
2397,-1,-7,-8,-22,-4,0,-1,-1,11.985
2398,0,5,6,2,0,-1,-2,1,11.99
2399,-3,-1,-3,-5,-1,-1,-2,0,11.995000000000001
2400,0,-6,4,20,-1,-1,-3,-1,12.0
2401,-1,-4,-1,-2,-1,-1,-1,-2,12.005
2402,-1,7,-5,-4,-2,-1,-3,-1,12.01
2403,1,8,-1,-13,0,-3,-3,0,12.015
2404,-2,-5,2,0,-2,-1,-3,-1,12.02
2405,-1,-9,-3,3,0,-1,0,-1,12.025
2406,0,5,4,-1,-1,-2,0,-1,12.030000000000001
2407,0,5,-2,1,2,-1,1,-2,12.035
2408,-1,-5,0,3,-1,-3,1,0,12.040000000000001
2409,0,-5,2,2,-1,-2,0,-1,12.045
2410,0,2,-9,-12,-4,-1,1,0,12.05
2411,0,5,5,13,1,1,1,0,12.055
2412,-1,-8,-2,1,-1,0,-1,-1,12.06
2413,-2,-4,-2,-12,-3,-1,-2,-2,12.065
2414,-1,4,5,18,1,1,0,-2,12.07
2415,-1,5,-10,-22,-2,-2,-2,-1,12.075000000000001
2416,1,-6,8,19,-7,-1,-1,-2,12.08
2417,1,-5,0,7,7,2,1,-1,12.085
2418,0,5,-2,-13,-1,0,-1,-1,12.09
2419,-2,2,-4,0,-2,-1,-3,-1,12.095
2420,-2,-7,-4,-7,-4,-3,-1,1,12.1
2421,-2,-5,4,0,-2,-2,-1,-2,12.105
2422,0,7,-5,-23,-2,-1,1,0,12.11
2423,-1,3,9,35,4,-1,2,-2,12.115
2424,-1,-6,-5,-9,0,0,0,0,12.120000000000001
2425,-1,-7,-2,4,-2,-2,-1,-1,12.125
2426,1,7,-1,-4,-1,-1,-1,-2,12.13
2427,-1,4,-7,-15,-3,-2,0,-2,12.135
2428,-3,-5,5,6,0,-1,-3,-2,12.14
2429,1,-3,0,-2,-2,-1,-1,0,12.145
2430,-1,6,3,9,1,-1,-1,1,12.15
2431,-1,4,-4,-3,-2,0,-2,-1,12.155000000000001
2432,0,-7,-10,-18,-4,-1,0,-1,12.16
2433,-1,-5,8,20,2,-2,-1,0,12.165000000000001
2434,-2,4,1,6,-1,0,-2,0,12.17
2435,-1,5,1,-3,-1,-1,0,3,12.175
2436,-1,-7,-10,-27,-6,-1,-2,0,12.18
2437,0,-6,3,19,13,2,0,0,12.185
2438,-3,4,-2,8,-2,-3,-2,-2,12.19
2439,1,6,2,3,2,-2,-1,-2,12.195
2440,-3,-8,-9,-10,-5,-1,-2,-3,12.200000000000001
2441,-1,-5,-9,-19,-6,-1,-2,-2,12.205
2442,0,6,4,7,1,0,-1,-1,12.21
2443,-2,3,-7,-21,-3,2,-1,1,12.215
2444,0,-6,5,20,3,-2,0,-2,12.22
2445,1,-6,0,-8,-2,-2,-1,1,12.225
2446,-1,5,5,12,2,-1,-2,-2,12.23
2447,0,4,-2,-4,-4,-2,-2,-1,12.235
2448,0,-4,-1,2,1,1,-3,0,12.24
2449,-2,-6,-7,-16,-4,-2,-2,-1,12.245000000000001
2450,1,2,7,14,-1,-2,0,-1,12.25
2451,0,3,-3,-4,-1,-1,2,0,12.255
2452,-2,-6,2,10,3,0,1,-1,12.26
2453,-2,-4,-5,-8,-3,2,-1,-2,12.265
2454,-1,5,-10,-18,-2,-2,-1,0,12.27
2455,0,5,4,9,3,0,0,-1,12.275
2456,-2,-8,-11,-37,-5,-2,-3,-3,12.280000000000001
2457,0,-5,9,43,0,-1,-2,0,12.285
2458,1,1,-1,-1,-5,-2,-1,-1,12.290000000000001
2459,-1,3,2,12,4,1,-1,-2,12.295
2460,-1,-6,2,0,-1,0,0,1,12.3
2461,-1,-5,-6,-18,-4,-1,2,-2,12.305
2462,-1,6,-4,-9,-4,0,-1,-1,12.31
2463,0,5,-4,-2,-2,0,-1,0,12.315
2464,-2,-6,4,5,1,-1,-1,-2,12.32
2465,-1,-6,-1,-4,-3,-1,0,0,12.325000000000001
2466,0,2,-3,-1,2,0,1,1,12.33
2467,-2,3,0,-8,-3,0,-1,0,12.335
2468,1,-5,3,9,2,0,0,3,12.34
2469,-2,-4,-1,-4,-6,-2,-1,-1,12.345
2470,-1,6,3,6,3,0,0,-1,12.35
2471,-1,3,-2,-2,-4,-1,-1,-1,12.355
2472,0,-6,-3,-2,-4,1,-1,0,12.36
2473,-1,-5,0,-1,-3,0,0,-1,12.365
2474,1,5,4,-2,-4,-4,0,0,12.370000000000001
2475,-2,2,-8,-4,5,3,0,-1,12.375
2476,-1,-8,4,17,-3,-2,-1,-2,12.38
2477,0,-3,-2,-10,2,1,0,-1,12.385
2478,-1,5,-8,-18,-2,2,0,-1,12.39
2479,-4,1,7,11,0,-2,-3,-1,12.395
2480,-1,-8,-5,-3,-4,-2,0,-3,12.4
2481,0,-5,-5,-1,1,-2,-2,-1,12.405000000000001
2482,-1,4,-5,-13,-1,0,-1,-1,12.41
2483,2,4,7,20,0,0,0,0,12.415000000000001
2484,0,-5,0,-1,3,1,-2,0,12.42
2485,0,-4,1,1,-3,0,-1,-1,12.425
2486,-1,1,-10,0,0,-1,-2,-1,12.43
2487,-1,4,-8,-20,-4,-2,-2,1,12.435
2488,0,-8,1,8,1,-1,-1,1,12.44
2489,0,-3,3,-5,-1,0,-1,0,12.445
2490,-1,6,2,1,-1,1,-1,-1,12.450000000000001
2491,0,3,-1,-1,0,-1,-1,1,12.455
2492,-1,-7,0,2,0,0,-1,1,12.46
2493,-3,-5,-9,-13,-4,-2,-2,-1,12.465
2494,0,7,9,16,1,2,-2,0,12.47
2495,-1,3,-8,-14,-4,-2,-3,-3,12.475
2496,-1,-7,8,23,4,0,-2,-2,12.48
2497,-1,-3,-4,-4,-1,0,2,-2,12.485
2498,-1,7,9,14,-4,-3,0,-2,12.49
2499,-1,3,-9,-12,0,1,2,0,12.495000000000001
2500,-1,-6,-4,-9,-6,-1,-3,-2,12.5
2501,0,-5,-8,-5,0,0,-2,0,12.505
2502,-1,5,4,7,-1,-3,-2,-1,12.51
2503,0,5,5,4,-1,-2,-2,2,12.515
2504,0,-8,-1,-1,2,0,1,-1,12.52
2505,-2,-4,0,1,-2,-2,-3,-1,12.525
2506,0,4,-4,-5,2,-1,-1,2,12.530000000000001
2507,-1,1,-2,-13,-3,-2,-3,-1,12.535
2508,-1,-8,2,11,2,-1,-1,-1,12.540000000000001
2509,-3,-3,3,2,-3,1,-2,-3,12.545
2510,-1,5,-2,-6,1,-2,1,-2,12.55
2511,0,5,1,-3,-1,-1,0,-3,12.555
2512,-1,-7,-9,-14,-4,0,2,0,12.56
2513,-1,-2,3,10,1,-2,-1,-1,12.565
2514,0,7,-11,-28,0,0,-3,-1,12.57
2515,0,5,11,27,-1,-2,-2,-2,12.575000000000001
2516,0,-6,-6,-19,-5,0,-1,-2,12.58
2517,1,-3,7,14,3,0,0,1,12.585
2518,-2,5,3,4,-7,1,2,-1,12.59
2519,-2,2,1,2,7,1,1,-1,12.595
2520,0,-7,0,0,0,-2,2,-1,12.6
2521,1,-2,-9,-11,-1,0,1,2,12.605
2522,0,6,-1,-5,-5,-4,1,-1,12.61
2523,-1,2,-2,-2,-3,0,-1,1,12.615
2524,-2,-10,-2,-5,-1,-3,-2,-2,12.620000000000001
2525,0,-2,2,1,-3,-1,0,-1,12.625
2526,-1,5,-1,3,2,-1,-1,-1,12.63
2527,-1,3,2,2,-1,-1,-1,0,12.635
2528,-1,-7,0,-2,-2,-2,-2,-2,12.64
2529,1,-2,-6,-24,-1,1,1,-1,12.645
2530,-2,2,7,31,3,-1,-3,-2,12.65
2531,-2,3,-2,-3,-2,-2,-1,-1,12.655000000000001
2532,-1,-9,-4,-8,-1,1,-2,-2,12.66
2533,-2,-2,3,1,0,-1,-1,-1,12.665000000000001
2534,0,7,-1,-2,2,1,1,2,12.67
2535,0,2,-2,-7,-3,0,-2,-2,12.675
2536,-1,-7,1,2,1,-1,1,1,12.68
2537,-2,-3,-9,-8,-2,-1,-2,-2,12.685
2538,0,4,1,0,1,1,1,0,12.69
2539,1,1,-2,-4,-3,-1,0,-2,12.695
2540,0,-6,8,26,1,0,-3,-2,12.700000000000001
2541,-1,-3,-2,-2,-3,-2,1,-2,12.705
2542,1,7,0,-5,1,0,0,0,12.71
2543,0,0,-4,-4,-1,0,-2,-1,12.715
2544,-2,-10,-10,-20,-4,-2,0,-1,12.72
2545,0,-2,9,11,0,-1,-1,0,12.725
2546,0,4,-4,-7,-1,-1,-2,-1,12.73
2547,1,3,2,2,0,-1,0,-1,12.735
2548,-2,-9,-4,0,-3,0,-1,-4,12.74
2549,-1,-3,4,12,1,-1,-2,1,12.745000000000001
2550,-1,6,1,-4,0,-2,-1,-1,12.75
2551,-1,2,-7,-12,-3,-1,-1,0,12.755
2552,0,-7,-3,-3,0,0,-1,-1,12.76
2553,-1,-2,11,21,3,2,0,-3,12.765
2554,-3,4,-9,-6,-3,0,-2,-3,12.77
2555,-1,0,6,7,0,-1,0,-3,12.775
2556,-1,-6,0,-14,-1,-1,-2,1,12.780000000000001
2557,-1,-3,0,9,-1,0,0,-1,12.785
2558,-1,4,-4,1,-1,-2,-2,0,12.790000000000001
2559,-1,1,1,5,1,-1,-2,1,12.795
2560,-1,-6,2,1,3,1,-2,3,12.8
2561,-2,-3,-3,-7,-2,-2,-2,1,12.805
2562,-1,4,-6,-4,-4,-2,-3,-1,12.81
2563,0,1,-2,0,-2,-2,1,-1,12.815
2564,-2,-10,-2,0,0,-1,0,-2,12.82
2565,0,-1,-1,-19,-7,-1,-3,-1,12.825000000000001
2566,-1,5,3,20,12,1,2,0,12.83
2567,-1,0,-4,-5,-2,0,0,-1,12.835
2568,1,-7,-1,-2,-1,0,-1,-1,12.84
2569,-2,-2,2,4,-2,-1,-2,-2,12.845
2570,-1,8,0,-1,-4,-1,-1,-2,12.85
2571,-2,1,2,4,1,-3,-2,-3,12.855
2572,0,-7,-1,0,-1,-1,1,-4,12.86
2573,-2,-3,-8,-12,0,0,0,-2,12.865
2574,0,7,7,0,-2,1,0,0,12.870000000000001
2575,-3,-1,-7,0,-5,-1,0,1,12.875
2576,1,-8,5,20,0,-1,0,0,12.88
2577,0,-2,-4,-4,-1,1,-1,1,12.885
2578,0,4,-3,-12,-4,-2,0,1,12.89
2579,-1,1,-4,-10,-1,0,0,2,12.895
2580,-2,-10,1,7,0,-2,-2,0,12.9
2581,0,-1,1,13,2,-3,-2,4,12.905000000000001
2582,1,3,-8,-7,-1,-1,0,0,12.91
2583,-1,1,-4,-18,-8,-3,-1,-1,12.915000000000001
2584,-1,-7,2,1,9,1,-2,-2,12.92
2585,-1,0,-2,-3,1,0,-1,-4,12.925
2586,-1,4,-4,-5,-2,-1,-2,-1,12.93
2587,-1,1,0,6,2,-1,-2,-3,12.935
2588,-2,-7,-7,-19,-7,-2,-1,-3,12.94
2589,-2,-3,8,24,0,-1,-2,-2,12.945
2590,-1,8,3,-6,1,0,1,0,12.950000000000001
2591,1,-2,-2,1,-1,0,-2,-2,12.955
2592,-2,-10,4,11,-2,-1,-1,0,12.96
2593,0,-1,-3,-14,-1,1,-1,-1,12.965
2594,0,6,-5,-3,-4,-1,-1,-2,12.97
2595,-1,2,2,-1,2,-1,-2,-2,12.975
2596,1,-9,-9,-8,-4,-2,-1,1,12.98
2597,0,-2,7,9,4,-1,0,-1,12.985
2598,-1,5,-1,4,-6,-1,-2,-1,12.99
2599,1,3,-1,-5,1,-1,2,1,12.995000000000001
2600,0,-8,1,5,-2,-1,2,-2,13.0
2601,0,1,-2,-1,-2,-2,2,0,13.005
2602,0,6,-3,-8,0,1,1,0,13.01
2603,-1,-1,3,11,2,0,-2,-1,13.015
2604,-3,-8,4,5,-6,-3,0,0,13.02
2605,1,-2,-8,1,9,0,0,-1,13.025
2606,0,6,-1,-6,-3,-1,-1,0,13.030000000000001
2607,-1,0,-6,-3,-4,-1,0,-1,13.035
2608,-1,-7,0,0,-1,-2,-1,-1,13.040000000000001
2609,-1,0,-6,-7,-3,-1,-1,-2,13.045
2610,-1,6,-1,-4,2,-2,-2,1,13.05
2611,-2,-1,3,5,1,-1,-3,-1,13.055
2612,-2,-7,-2,1,-3,-2,-3,-1,13.06
2613,0,-1,-2,-6,-3,-1,0,0,13.065
2614,0,7,-1,-4,2,-1,-1,0,13.07
2615,-2,0,4,9,0,0,-2,-1,13.075000000000001
2616,1,-6,3,12,0,1,-2,-1,13.08
2617,1,-1,-1,-6,-1,-2,-3,0,13.085
2618,0,5,1,-2,-1,0,1,-1,13.09
2619,0,-3,1,11,2,1,0,0,13.095
2620,-2,-10,-6,-11,-3,-1,-1,-1,13.1
2621,-3,0,-5,-5,-3,-1,0,-2,13.105
2622,1,7,0,4,0,-1,-1,0,13.11
2623,-1,-2,-6,-9,-3,-3,0,-1,13.115
2624,-1,-9,-1,-6,-3,0,-1,1,13.120000000000001
2625,1,1,-1,-1,-3,-2,-1,1,13.125
2626,-1,6,-5,-14,3,0,-2,-2,13.13
2627,1,0,3,12,-1,-1,-2,-1,13.135
2628,-2,-9,4,10,2,0,-1,-2,13.14
2629,-1,1,0,-9,-1,-1,1,-2,13.145
2630,-2,4,-1,5,-3,0,-1,-1,13.15
2631,0,0,-4,-9,-1,-2,0,0,13.155000000000001
2632,-2,-10,-10,-14,-2,-3,-1,0,13.16
2633,-2,1,3,10,-1,-2,-1,-1,13.165000000000001
2634,2,4,8,4,0,-1,-1,-2,13.17
2635,-2,-4,-6,9,-1,0,-1,0,13.175
2636,1,-5,-2,-16,0,1,-2,-1,13.18
2637,-1,-3,-4,1,-1,-2,0,-1,13.185
2638,0,6,-2,1,-2,-1,-2,0,13.19
2639,0,-2,2,-8,-2,-1,-1,1,13.195
2640,0,-6,2,5,2,1,2,-1,13.200000000000001
2641,0,2,-5,-6,-3,1,0,0,13.205
2642,-1,5,-1,-3,-1,-1,1,1,13.21
2643,-2,-3,7,10,-2,-2,-3,-2,13.215
2644,-1,-8,1,7,13,2,0,0,13.22
2645,0,0,0,-16,-1,-1,-2,0,13.225
2646,0,6,0,9,-2,1,-1,0,13.23
2647,0,-3,-7,-12,-3,-1,1,1,13.235
2648,-3,-8,-2,-10,-7,-2,-3,-1,13.24
2649,-1,2,-3,2,-2,0,-1,0,13.245000000000001
2650,-1,5,6,3,0,-1,-2,0,13.25
2651,1,1,-1,-8,0,-2,0,-1,13.255
2652,-2,-7,5,13,-1,0,-1,-1,13.26
2653,0,3,-1,-7,-3,-3,1,0,13.265
2654,-1,2,-5,-4,1,-1,1,-3,13.27
2655,-2,-2,-3,-2,-1,-1,-1,-1,13.275
2656,-2,-9,-5,-9,-4,-4,-1,-2,13.280000000000001
2657,-1,3,7,14,1,1,1,0,13.285
2658,-3,2,3,20,-1,-2,0,-1,13.290000000000001
2659,-4,-3,-8,-9,-2,0,-1,-3,13.295
2660,1,-6,-2,-2,2,0,1,-2,13.3
2661,-1,0,-13,-17,-4,-3,-1,-1,13.305
2662,-1,4,6,8,0,-2,0,-1,13.31
2663,-1,-4,4,6,0,-2,-1,1,13.315
2664,-2,-9,-4,-3,-4,-2,-1,0,13.32
2665,-1,1,4,-1,-3,-1,1,-2,13.325000000000001
2666,1,7,-6,-8,11,0,0,1,13.33
2667,-1,-3,-13,-28,-3,-1,0,-1,13.335
2668,-3,-8,17,43,2,0,-3,-5,13.34
2669,-1,0,0,1,-2,1,-1,-2,13.345
2670,0,6,-6,-10,-5,-1,-1,-2,13.35
2671,0,-2,-1,7,0,0,-2,1,13.355
2672,0,-7,-5,-19,-1,-1,0,0,13.36
2673,2,2,-2,-2,-1,0,-4,-2,13.365
2674,-2,6,-1,-4,-4,0,-1,-2,13.370000000000001
2675,1,-1,10,16,3,1,-1,-1,13.375
2676,-3,-11,-12,-10,-5,-1,-1,0,13.38
2677,-3,1,1,0,0,0,1,-1,13.385
2678,0,7,11,11,0,0,0,0,13.39
2679,-1,-1,-1,0,-2,-3,-1,-1,13.395
2680,0,-8,-9,-21,-2,1,0,-1,13.4
2681,0,1,3,9,-1,-3,0,-2,13.405000000000001
2682,0,5,5,15,0,-3,0,-1,13.41
2683,-1,-4,-4,-6,-2,-1,0,-1,13.415000000000001
2684,2,-7,3,5,2,0,-2,-1,13.42
2685,0,1,-9,-16,0,-2,-1,1,13.425
2686,0,6,-6,-13,-3,1,0,0,13.43
2687,1,-2,5,-9,-1,-1,-2,0,13.435
2688,-2,-10,-1,18,0,-1,-3,-2,13.44
2689,-1,0,2,2,-2,0,0,0,13.445
2690,-1,7,-5,-15,2,-1,0,0,13.450000000000001
2691,-2,-3,3,17,0,-1,0,-2,13.455
2692,1,-7,0,-9,-3,-1,0,1,13.46
2693,0,1,2,1,-1,0,-1,0,13.465
2694,-1,6,0,-2,-4,-2,-1,0,13.47
2695,-1,-2,-7,-9,-1,0,1,0,13.475
2696,-2,-8,-1,-9,0,0,1,-1,13.48
2697,-2,3,9,24,1,0,-2,0,13.485
2698,-1,6,-12,-30,-2,-1,-2,-2,13.49
2699,-1,-2,9,21,2,-1,-1,-3,13.495000000000001
2700,-1,-9,4,9,1,-1,-2,-2,13.5
2701,1,1,-11,-14,0,-2,-1,1,13.505
2702,-1,6,1,7,-2,-1,-1,-1,13.51
2703,-4,-4,-7,-4,-3,-1,-2,-2,13.515
2704,-1,-6,3,-3,-2,0,0,1,13.52
2705,0,2,-6,-18,1,0,0,0,13.525
2706,-1,5,8,23,0,0,0,-2,13.530000000000001
2707,1,-3,0,-1,-1,0,-1,-1,13.535
2708,0,-6,-3,-7,-1,-3,-2,0,13.540000000000001
2709,-1,3,0,0,0,-1,0,-1,13.545
2710,0,5,-4,-7,-2,-1,-1,0,13.55
2711,0,-4,-4,-10,-2,0,0,-1,13.555
2712,-1,-7,9,24,3,0,-2,-2,13.56
2713,0,1,-1,5,0,-2,-1,0,13.565
2714,-1,6,-3,-6,0,-1,0,0,13.57
2715,-2,-6,-1,1,0,0,0,-1,13.575000000000001
2716,-1,-7,-7,-16,-4,-2,1,-1,13.58
2717,-1,2,6,10,-3,0,-1,-1,13.585
2718,0,6,0,4,6,1,-2,-1,13.59
2719,1,-3,-3,-6,-2,-2,0,1,13.595
2720,-1,-8,-6,-8,-3,-3,-1,0,13.6
2721,-3,2,4,8,-1,-1,-2,-2,13.605
2722,-1,5,-3,-4,-4,-3,-1,-2,13.61
2723,0,-2,-1,0,-1,0,-2,-1,13.615
2724,0,-7,-3,-2,0,0,0,0,13.620000000000001
2725,0,5,-2,-4,3,1,-1,-1,13.625
2726,-1,3,-2,2,-2,-1,-1,-1,13.63
2727,-2,-2,-1,10,-1,0,-1,-2,13.635
2728,-1,-7,-7,-7,-3,-1,-1,-1,13.64
2729,-1,1,-8,-18,-1,0,0,0,13.645
2730,0,4,6,14,2,0,-3,0,13.65
2731,-1,-5,-3,-8,-1,-1,-2,0,13.655000000000001
2732,0,-5,2,-2,-4,-1,-1,0,13.66
2733,1,2,0,4,3,1,0,-1,13.665000000000001
2734,-1,4,-1,-9,-8,-3,2,-1,13.67
2735,1,-3,0,3,13,1,-1,-3,13.675
2736,-3,-9,2,4,2,0,-3,-2,13.68
2737,2,1,3,-4,-6,-3,-1,-1,13.685
2738,0,12,4,11,13,6,1,0,13.69
2739,-11,-36,-10,-19,-5,-3,-2,-3,13.695
2740,8,20,5,5,-5,-2,-1,-1,13.700000000000001
2741,-17,-22,4,20,19,4,1,-2,13.705
2742,-8,-15,-10,-5,-5,-2,-2,-1,13.71
2743,-8,-7,-5,-8,1,1,-3,-4,13.715
2744,6,12,-5,-43,-22,-4,-2,0,13.72
2745,5,11,-7,18,16,1,2,-5,13.725
2746,11,7,-7,-17,-3,1,4,12,13.73
2747,13,20,10,16,-1,-1,-4,4,13.735
2748,13,-27,11,31,4,-1,0,1,13.74
2749,-18,38,23,-5,-12,-4,-6,-28,13.745000000000001
2750,-44,-50,-26,-15,-8,-4,-6,-2,13.75
2751,-21,-43,-7,-29,-7,-1,4,-43,13.755
2752,-11,24,6,87,10,-5,-9,32,13.76
2753,-17,1,-21,-40,7,4,-17,-60,13.765
2754,29,45,16,17,-1,6,-8,-45,13.77
2755,48,16,11,-20,-13,-5,20,85,13.775
2756,-43,-40,3,-7,-1,1,1,-53,13.780000000000001
2757,-12,19,-14,19,2,-3,-7,29,13.785
2758,55,40,6,-51,-56,-23,2,17,13.790000000000001
2759,25,-18,20,26,30,19,-4,5,13.795
2760,-16,-22,-14,-112,-8,-8,-15,4,13.8
2761,-37,-62,3,113,-7,29,37,92,13.805
2762,60,35,-29,-67,-81,-26,2,26,13.81
2763,6,11,43,41,23,-8,-8,-28,13.815
2764,5,-53,20,40,45,30,19,-9,13.82
2765,-7,55,29,51,-5,5,15,69,13.825000000000001
2766,-18,13,-8,-91,-27,-13,-23,-23,13.83
2767,-4,-72,-25,82,1,8,9,22,13.835
2768,4,25,-27,-16,-31,-15,6,51,13.84
2769,-49,23,1,-93,-22,2,-34,-128,13.845
2770,-7,-79,-12,89,75,25,21,75,13.85
2771,62,55,9,-68,-35,-21,0,68,13.855
2772,-22,-71,-19,-26,-42,-13,-20,-36,13.86
2773,8,9,-11,12,36,7,16,-24,13.865
2774,-22,25,36,-58,-23,-7,-2,25,13.870000000000001
2775,-5,-54,-20,12,42,31,-7,16,13.875
2776,28,84,-8,-65,5,-4,19,107,13.88
2777,74,85,19,10,2,-7,15,-7,13.885
2778,-98,27,-22,115,107,36,-14,-30,13.89
2779,-33,-31,10,21,-5,-22,-1,-76,13.895
2780,4,1,35,17,30,-6,-23,-16,13.9
2781,30,-65,-19,10,-2,-9,-17,36,13.905000000000001
2782,-94,-36,-51,-96,-87,-39,42,-104,13.91
2783,94,41,2,71,74,67,6,127,13.915000000000001
2784,-57,2,-18,-5,42,-2,-56,-128,13.92
2785,26,30,17,36,-19,-21,-17,-1,13.925
2786,38,-37,16,63,-29,-4,-14,53,13.93
2787,-94,-70,-23,-67,-60,-26,18,-95,13.935
2788,29,42,-36,-40,-64,-5,13,5,13.94
2789,-36,-9,-1,-11,39,14,-17,-101,13.945
2790,-38,28,-9,-73,-11,-20,-18,-96,13.950000000000001
2791,5,17,-5,67,-9,0,17,46,13.955
2792,111,3,33,86,70,32,32,122,13.96
2793,-1,14,-14,-79,-58,-26,26,127,13.965
2794,1,8,42,119,-10,10,-29,-87,13.97
2795,-122,-109,-34,-60,2,-26,-67,-128,13.975
2796,12,4,18,-13,-23,-3,-4,-65,13.98
2797,48,22,-20,-4,36,9,8,52,13.985
2798,-48,-19,7,-104,-52,-25,-12,3,13.99
2799,35,86,19,14,76,29,26,52,13.995000000000001
2800,9,-51,-18,18,13,15,59,15,14.0
2801,-110,-84,-2,-107,-6,-33,-33,-128,14.005
2802,127,78,26,102,126,67,33,127,14.01
2803,-32,-19,-32,-54,-28,-25,8,-126,14.015
2804,34,107,31,47,-44,-9,-23,101,14.02
2805,70,66,-6,-61,14,10,-11,-67,14.025
2806,-45,-74,30,54,38,8,3,-74,14.030000000000001
2807,-68,39,-53,-48,-26,-17,-7,-101,14.035
2808,3,4,5,-25,9,-4,-10,37,14.040000000000001
2809,15,101,-25,-92,-119,-47,-13,-35,14.045
2810,41,-17,17,107,115,52,60,127,14.05
2811,96,77,54,103,38,21,9,111,14.055
2812,-32,-78,-11,-62,-2,-20,-23,-50,14.06
2813,-36,6,45,47,16,20,20,24,14.065
2814,-7,40,-15,-82,-93,-33,-26,-128,14.07
2815,-78,-64,-59,1,55,0,-37,52,14.075000000000001
2816,38,-30,26,77,21,6,31,76,14.08
2817,17,46,28,57,42,18,-5,-28,14.085
2818,-75,1,-13,-95,-30,-39,-38,-111,14.09
2819,59,-15,1,-70,-128,-8,15,86,14.095
2820,-50,-10,6,105,55,21,24,-56,14.1
2821,68,-8,1,10,19,12,32,90,14.105
2822,-11,38,-40,-50,-79,-37,-48,-74,14.11
2823,-19,-25,29,50,56,18,2,-10,14.115
2824,-25,-18,-33,-110,-63,-34,-16,-123,14.120000000000001
2825,5,-16,20,107,40,33,33,86,14.125
2826,16,-15,-13,36,36,27,35,115,14.13
2827,60,15,27,-95,-117,-40,-17,-19,14.135
2828,-96,-41,-33,75,57,29,-11,-105,14.14
2829,-2,27,11,-55,13,0,2,-60,14.145
2830,0,-44,-11,9,-50,-5,45,-87,14.15
2831,-18,31,-6,-18,-78,-55,-27,28,14.155000000000001
2832,81,-25,33,24,43,21,11,82,14.16
2833,-45,-33,-43,-101,-36,-22,-58,-81,14.165000000000001
2834,70,20,13,78,2,16,30,127,14.17
2835,-47,-41,5,-16,-10,-6,33,-128,14.175
2836,-26,10,-26,-78,-56,-24,-40,77,14.18
2837,-17,-9,-4,-49,-92,-43,-51,-104,14.185
2838,68,34,17,5,85,14,21,81,14.19
2839,-64,27,18,21,53,17,30,-83,14.195
2840,1,62,10,-77,17,-3,-25,83,14.200000000000001
2841,-79,-71,-55,-79,39,17,-15,-102,14.205
2842,-11,-27,32,71,89,24,-38,-65,14.21
2843,35,43,-10,-51,-25,-4,0,82,14.215
2844,-51,-22,9,-18,-42,-10,20,-119,14.22
2845,16,-19,29,9,-27,-33,-16,126,14.225
2846,7,-4,-50,27,43,-1,13,-17,14.23
2847,15,-123,-31,-37,13,22,-13,86,14.235
2848,5,-36,-9,-13,23,-3,-6,-76,14.24
2849,61,-46,28,127,-18,19,8,-1,14.245000000000001
2850,-107,-84,-42,-8,-39,-25,-24,-21,14.25
2851,63,13,17,-50,4,6,15,90,14.255
2852,-9,-4,-14,34,-98,-27,-8,-7,14.26
2853,8,69,-4,22,10,4,5,-76,14.265
2854,22,64,34,-128,-31,-18,-5,-7,14.27
2855,4,31,11,109,101,38,18,-24,14.275
2856,32,60,24,64,33,24,6,60,14.280000000000001
2857,-80,-27,-18,28,-69,-36,-23,-69,14.285
2858,30,8,-6,-49,28,28,60,86,14.290000000000001
2859,49,-28,-13,-5,44,10,5,45,14.295
2860,33,102,81,-54,-49,-28,-16,-89,14.3
2861,-30,-10,-56,68,92,37,43,58,14.305
2862,-10,38,-10,8,-13,-5,-15,-72,14.31
2863,-73,-94,6,-48,-105,-56,-48,-115,14.315
2864,-27,-25,-22,18,27,25,20,-15,14.32
2865,71,30,26,-81,-10,-3,-8,96,14.325000000000001
2866,23,-36,-40,10,-34,-12,-42,84,14.33
2867,-58,91,7,-40,-28,-12,-12,-114,14.335
2868,-16,-71,-10,55,48,30,40,30,14.34
2869,-3,54,-20,-102,16,-32,-14,-58,14.345
2870,12,58,7,31,-20,1,6,104,14.35
2871,51,-35,11,-5,14,9,-16,39,14.355
2872,-5,-18,11,10,38,12,1,-128,14.36
2873,-22,-22,-4,-33,-30,-7,17,-34,14.365
2874,11,37,66,43,42,10,37,-79,14.370000000000001
2875,-66,-25,-66,12,-16,-15,-35,-44,14.375
2876,-33,-20,-32,-77,-42,-22,-18,-48,14.38
2877,52,-14,1,82,111,58,25,71,14.385
2878,51,-20,-8,-116,-50,-35,-38,-11,14.39
2879,-10,-44,9,125,-22,1,36,-79,14.395
2880,71,-2,16,0,49,19,-10,127,14.4
2881,-30,-31,13,-1,-35,-13,5,-86,14.405000000000001
2882,-54,-13,-54,-60,-30,-8,-45,-111,14.41
2883,-3,-12,13,-31,12,-6,1,66,14.415000000000001
2884,18,-41,24,70,-24,-10,26,-20,14.42
2885,13,24,34,-14,22,-4,-25,-69,14.425
2886,-72,-104,-20,-64,-47,-13,-6,-33,14.43
2887,80,60,66,77,124,97,45,81,14.435
2888,-23,-8,-73,-128,-61,-11,0,7,14.44
2889,3,17,-19,0,-33,-9,16,11,14.445
2890,32,36,34,9,-52,-19,-13,53,14.450000000000001
2891,-9,47,35,-32,1,-9,-18,-38,14.455
2892,-121,-30,-77,-54,-73,-30,10,-73,14.46
2893,107,82,15,91,56,34,-19,127,14.465
2894,-20,31,12,-31,23,0,-13,-93,14.47
2895,56,56,7,-23,-67,-21,30,127,14.475
2896,23,-27,18,-29,-32,-14,-19,-92,14.48
2897,-31,-34,-19,-72,10,0,4,42,14.485
2898,-2,40,9,55,3,-25,-14,0,14.49
2899,37,-38,-28,-19,-104,-34,11,-19,14.495000000000001
2900,-124,-5,9,69,14,-8,10,-119,14.5
2901,85,62,29,21,-10,31,10,97,14.505
2902,54,9,63,127,92,53,13,77,14.51
2903,-100,-89,-60,-76,-12,-27,-33,-128,14.515
2904,-5,-13,-14,-21,-36,-22,2,-74,14.52
2905,-35,-27,-8,53,-21,5,32,51,14.525
2906,19,-33,42,-19,40,6,-6,-95,14.530000000000001
2907,-33,95,-9,-79,12,9,30,97,14.535
2908,47,-8,-16,30,32,12,0,46,14.540000000000001
2909,-37,-12,-12,-25,4,-5,1,-48,14.545
2910,22,-21,-1,5,-15,-1,-6,-10,14.55
2911,24,-41,23,33,9,3,7,26,14.555
2912,16,-8,7,-48,41,9,-26,-40,14.56
2913,-30,-36,-17,-64,4,-8,18,61,14.565
2914,10,0,-10,67,32,44,35,-1,14.57
2915,13,26,23,34,-47,8,-9,-25,14.575000000000001
2916,20,20,-19,87,48,16,11,111,14.58
2917,-11,-45,-5,-25,16,-7,-22,-128,14.585
2918,-50,48,24,19,4,-4,9,67,14.59
2919,-25,-57,-16,-50,-28,-3,-17,-67,14.595
2920,84,101,29,11,3,13,10,81,14.6
2921,-26,5,-3,-31,-61,-23,2,-45,14.605
2922,-72,-4,-36,-13,-29,-15,25,-109,14.61
2923,60,34,29,48,68,8,-55,94,14.615
2924,45,7,11,2,9,8,5,60,14.620000000000001
2925,-25,-7,-38,-18,-31,-16,-7,-40,14.625
2926,2,13,10,-23,-25,-7,12,-30,14.63
2927,-44,-12,-22,53,25,6,-5,-127,14.635
2928,-25,-26,0,-112,-58,-25,-27,-85,14.64
2929,51,6,13,115,49,35,24,124,14.645
2930,-20,-4,-43,16,5,3,1,15,14.65
2931,-2,-19,36,-20,-6,-9,-1,-33,14.655000000000001
2932,8,-27,-7,4,3,2,-5,37,14.66
2933,-3,-13,13,46,-18,-19,-25,-38,14.665000000000001
2934,4,16,16,-11,-11,-7,-27,1,14.67
2935,-79,-12,-105,-57,5,-7,0,-8,14.675
2936,-34,-22,40,91,7,0,8,5,14.68
2937,4,22,7,-43,-25,8,-1,-3,14.685
2938,106,29,-20,-79,-6,-3,21,49,14.69
2939,88,18,-23,53,-4,-2,32,65,14.695
2940,-108,-18,61,78,23,12,-57,8,14.700000000000001
2941,4,10,-78,-71,-30,-21,-2,-80,14.705
2942,-47,16,60,86,18,15,11,-30,14.71
2943,47,4,-60,-37,-1,1,6,-45,14.715
2944,-10,16,-5,-47,-6,-2,6,20,14.72
2945,-36,51,65,70,5,-4,-1,107,14.725
2946,45,18,-74,-83,-31,-12,-26,-48,14.73
2947,10,25,49,43,17,-7,-19,-66,14.735
2948,47,-11,-24,0,3,-5,1,4,14.74
2949,7,-4,98,-9,8,1,3,19,14.745000000000001
2950,-25,-7,46,-2,-12,-5,8,25,14.75
2951,-22,-53,-37,10,-2,1,-8,-10,14.755
2952,31,-6,-50,-57,-9,-6,-1,-7,14.76
2953,-20,-28,25,37,-6,-3,6,-23,14.765
2954,-18,-8,-34,7,12,-3,-11,10,14.77
2955,-10,-21,26,-66,-26,-5,-12,-1,14.775
2956,-8,-18,9,70,3,3,11,5,14.780000000000001
2957,3,0,-64,-26,-1,0,9,-16,14.785
2958,-2,-12,0,-14,4,1,-11,9,14.790000000000001
2959,-17,-27,17,-14,7,-1,0,8,14.795
2960,13,-11,-14,3,10,2,18,-9,14.8
2961,0,-8,-8,2,-17,-6,-4,-8,14.805
2962,3,-9,8,-23,-8,-1,-5,11,14.81
2963,-15,-26,-1,25,9,1,5,-3,14.815
2964,5,-13,4,3,-3,-2,3,-2,14.82
2965,2,-3,16,-10,7,-4,-9,-8,14.825000000000001
2966,-20,-16,-24,-3,-16,-6,-5,5,14.83
2967,-8,-18,3,0,-2,-1,2,-4,14.835
2968,9,-13,7,-7,4,1,0,-2,14.84
2969,-5,7,-20,-42,-11,-4,-2,-2,14.845
2970,4,6,-6,-4,8,4,7,5,14.85
2971,-6,-11,9,28,8,-2,-1,0,14.855
2972,7,-6,-3,-27,4,3,-1,-2,14.86
2973,-2,-13,-17,-7,2,3,2,-4,14.865
2974,-4,-11,-11,19,3,-2,-5,0,14.870000000000001
2975,-3,-9,9,11,3,-1,-6,-2,14.875
2976,-1,5,-11,-7,-9,-2,-1,-1,14.88
2977,1,4,-11,0,2,1,1,-5,14.885
2978,0,-2,5,16,7,2,-1,1,14.89
2979,-3,-3,8,-19,-6,0,0,0,14.895
2980,2,11,-5,-31,-6,-1,3,-3,14.9
2981,3,12,16,24,8,2,1,-1,14.905000000000001
2982,-1,-5,21,29,-5,-3,-4,-2,14.91
2983,-1,5,14,-19,-3,2,2,1,14.915000000000001
2984,-1,10,1,1,0,0,1,0,14.92
2985,-1,11,2,-4,0,-2,-4,-3,14.925
2986,-1,0,-5,-27,-8,-1,-1,1,14.93
2987,-1,-2,9,15,-1,-1,0,-2,14.935
2988,2,6,-4,3,-1,-1,-3,-1,14.94
2989,-1,6,1,-2,0,-1,0,0,14.945
2990,-1,0,-4,-22,-3,0,0,1,14.950000000000001
2991,-2,-4,2,3,3,1,-1,1,14.955
2992,1,4,0,5,-8,-2,-2,-1,14.96
2993,1,8,7,21,13,3,4,1,14.965
2994,-2,-2,-11,-9,-6,-2,-2,-2,14.97
2995,-3,-3,-2,-16,-3,-2,-3,0,14.975
2996,-1,3,-4,-21,-5,0,1,-1,14.98
2997,0,9,0,18,-2,0,0,-1,14.985
2998,0,3,-1,-5,0,-2,-2,-1,14.99
2999,-1,-6,3,3,-1,-2,0,-1,14.995000000000001
3000,1,2,3,4,-2,-4,-2,-1,15.0
3001,-2,4,-10,-22,-12,-5,-4,-2,15.005
3002,2,3,13,37,28,9,3,1,15.01
3003,-2,-8,-2,5,-3,-1,-1,-3,15.015
3004,-2,3,0,-2,-3,-2,-2,0,15.02
3005,0,5,-12,-29,-5,-2,-2,-2,15.025
3006,0,-1,8,15,-6,-5,0,1,15.030000000000001
3007,-2,-8,-8,-3,0,0,2,1,15.035
3008,-2,2,-6,-7,3,0,-2,-1,15.040000000000001
3009,-2,5,13,29,5,-1,0,-1,15.045
3010,0,-2,-10,-12,-4,-2,-2,0,15.05
3011,0,-7,-2,-1,3,0,1,0,15.055
3012,0,-2,-4,-10,-3,-2,0,-2,15.06
3013,0,2,-6,-6,-1,-1,-1,0,15.065
3014,0,1,-8,-36,-14,-3,0,0,15.07
3015,-6,-13,-2,24,5,-3,-3,-4,15.075000000000001
3016,1,1,0,-1,-1,-1,1,-1,15.08
3017,-1,3,-2,1,-2,-1,0,-2,15.085
3018,-2,-5,-4,-7,-5,-1,-3,1,15.09
3019,-1,-6,0,-6,-5,0,-2,-1,15.095
3020,0,2,6,10,2,1,1,-1,15.1
3021,-2,5,-12,-22,1,-1,1,0,15.105
3022,1,-2,7,20,3,1,2,-1,15.11
3023,-2,-6,14,21,1,2,-2,-1,15.115
3024,1,1,-5,-12,0,0,0,0,15.120000000000001
3025,-1,5,0,10,1,0,-1,-1,15.125
3026,-3,-5,-14,-21,-5,-3,-3,-1,15.13
3027,0,-6,-4,3,-2,-2,-1,0,15.135
3028,1,0,-1,-10,3,-1,-1,0,15.14
3029,-3,4,-3,-13,-33,-8,-4,-3,15.145
3030,1,2,10,44,39,7,0,1,15.15
3031,0,-7,-3,-10,-4,0,0,0,15.155000000000001
3032,-1,2,3,9,2,0,-1,-1,15.16
3033,-2,1,-5,-12,-3,-1,1,-1,15.165000000000001
3034,-2,0,-1,-11,-13,-3,-1,-2,15.17
3035,-1,-4,0,-5,0,-1,-1,-2,15.175
3036,-1,-1,1,1,-2,0,0,0,15.18
3037,-1,5,-1,-1,7,3,1,0,15.185
3038,1,0,4,6,-5,-1,1,-1,15.19
3039,-2,-10,-7,-11,-1,-1,-1,-3,15.195
3040,-2,3,1,4,-3,-1,-2,0,15.200000000000001
3041,0,5,3,17,6,-2,-2,-1,15.205
3042,-1,0,-4,-15,-3,-3,2,-1,15.21
3043,1,-5,2,0,-4,-1,0,1,15.215
3044,0,0,-6,-4,-1,0,-1,-2,15.22
3045,1,8,-3,-5,5,1,-3,-1,15.225
3046,-2,-3,-2,7,-5,-2,-1,-1,15.23
3047,-2,-7,-4,-7,0,1,-1,0,15.235
3048,-2,-3,6,23,-1,-4,-2,-1,15.24
3049,0,4,2,8,8,1,-1,-1,15.245000000000001
3050,-1,-3,-9,-17,-9,-4,-1,-2,15.25
3051,0,-6,-5,-17,-4,-3,-1,0,15.255
3052,1,1,-7,-11,-5,1,2,2,15.26
3053,1,5,8,19,3,-1,-1,0,15.265
3054,-3,-1,-1,-8,0,-1,-2,0,15.27
3055,-1,-7,6,11,1,2,-2,0,15.275
3056,-2,-3,-4,-8,-4,-2,-1,-1,15.280000000000001
3057,0,6,-2,-7,-2,-1,1,-3,15.285
3058,0,-4,-2,-9,-3,0,0,-1,15.290000000000001
3059,0,-5,1,-1,0,-1,1,-1,15.295
3060,1,2,-1,-2,0,0,-2,-1,15.3
3061,0,6,-2,-10,-2,-1,0,0,15.305
3062,0,-1,10,21,1,0,0,0,15.31
3063,-2,-11,-7,-1,-4,-3,-1,-1,15.315
3064,-2,2,-3,-5,1,0,1,0,15.32
3065,-1,4,2,11,1,0,1,1,15.325000000000001
3066,-1,0,-5,-17,-4,-3,-2,-2,15.33
3067,0,-8,-1,0,-1,0,-2,0,15.335
3068,1,2,2,-1,-1,-2,1,0,15.34
3069,-2,0,-3,-10,-5,-4,-1,-1,15.345
3070,-1,-2,-1,5,3,0,0,0,15.35
3071,-1,-6,-2,-10,2,-1,-1,-1,15.355
3072,0,2,16,31,5,1,-1,0,15.36
3073,1,4,0,5,1,-1,-2,-2,15.365
3074,-2,-5,-6,-6,-7,-3,-3,-2,15.370000000000001
3075,-1,-7,-3,-7,2,-1,-1,0,15.375
3076,-1,3,-6,-19,-3,-1,-1,2,15.38
3077,2,4,-3,1,1,1,0,0,15.385
3078,-2,-3,5,6,0,0,-3,-2,15.39
3079,-1,-7,2,9,2,-1,1,-1,15.395
3080,-3,1,-1,0,0,-2,0,-1,15.4
3081,0,6,-2,-4,0,0,-1,1,15.405000000000001
3082,0,-5,-7,-11,-1,-1,-1,0,15.41
3083,-2,-7,5,10,0,1,0,-3,15.415000000000001
3084,2,1,-5,-9,-4,-3,-4,-2,15.42
3085,-1,5,1,2,-1,-1,-2,-2,15.425
3086,1,-3,-2,-8,-5,-2,-3,-3,15.43
3087,-3,-7,1,1,-3,-3,-2,0,15.435
3088,-3,-1,-5,-2,0,-1,-1,-2,15.44
3089,-2,2,-4,0,-1,-2,-1,0,15.445
3090,-1,-4,-1,-7,-3,0,0,-1,15.450000000000001
3091,-3,-8,-2,7,-1,-1,-1,-1,15.455
3092,-1,1,0,2,-2,-1,0,-1,15.46
3093,-2,4,1,0,0,-1,-1,-2,15.465
3094,-2,-4,-2,-3,-3,-2,0,-1,15.47
3095,-1,-7,-4,0,-4,-3,-1,-3,15.475
3096,-3,1,-2,-4,4,1,1,0,15.48
3097,-2,3,7,18,-2,0,0,-1,15.485000000000001
3098,-2,-4,-7,-11,-3,0,-1,-1,15.49
3099,0,-7,-6,-17,-5,-1,-2,0,15.495000000000001
3100,-1,0,-2,5,-2,-3,-1,-2,15.5
3101,0,3,3,-2,-4,-2,-1,-1,15.505
3102,-1,-4,9,25,1,0,-2,-2,15.51
3103,-1,-7,-6,-8,-4,-1,0,0,15.515
3104,0,3,4,1,1,0,-2,-2,15.52
3105,-1,6,-9,-16,-1,-1,-1,0,15.525
3106,-2,-6,-4,-1,-4,-2,-1,-2,15.530000000000001
3107,0,-5,3,8,2,-2,0,-1,15.535
3108,-1,2,-6,-12,-2,-2,-1,0,15.540000000000001
3109,-1,2,2,11,-3,-1,0,-2,15.545
3110,-1,-2,-1,-1,1,-2,-1,-1,15.55
3111,1,-5,2,1,1,1,-1,-1,15.555
3112,-2,-3,-15,-24,-6,-3,0,-4,15.56
3113,-1,7,14,21,2,0,-1,-1,15.565
3114,-2,-6,0,14,-2,-1,0,-2,15.57
3115,-1,-6,-7,-17,-4,-1,0,-1,15.575000000000001
3116,-2,4,12,25,-3,0,-2,0,15.58
3117,-2,4,-9,-16,10,1,-1,0,15.585
3118,1,-4,-7,-14,-2,0,0,0,15.59
3119,-3,-9,6,18,0,0,-1,-2,15.595
3120,1,3,-9,-18,-5,-1,0,1,15.6
3121,-2,6,3,-4,-2,-2,0,-1,15.605
3122,-1,-2,2,-7,-4,-2,-1,1,15.610000000000001
3123,0,-7,3,13,6,1,0,0,15.615
3124,1,3,2,5,3,-2,0,0,15.620000000000001
3125,-2,4,-8,-10,-1,1,0,-2,15.625
3126,-1,-3,0,3,-1,-3,0,0,15.63
3127,-1,-7,-3,-11,-3,0,-1,-2,15.635
3128,0,1,0,-3,-3,-1,-2,-3,15.64
3129,2,5,8,18,0,-1,-1,0,15.645
3130,-1,-4,-5,-6,-3,-1,-3,-3,15.65
3131,-1,-5,1,5,2,-1,1,1,15.655000000000001
3132,0,4,5,9,1,0,1,0,15.66
3133,-1,3,-10,-18,-5,-2,-2,1,15.665000000000001
3134,0,-3,-1,-3,-1,-2,-1,0,15.67
3135,0,-5,-9,-20,-3,-1,0,1,15.675
3136,-2,-1,14,33,1,1,0,-1,15.68
3137,0,5,-2,-2,-1,-2,-2,-1,15.685
3138,-2,-6,-1,4,-1,0,-1,-1,15.69
3139,-3,-6,-7,-15,-4,-3,-3,-1,15.695
3140,0,6,-3,-6,0,1,2,1,15.700000000000001
3141,0,6,0,-7,-2,0,1,-1,15.705
3142,-1,-5,1,2,0,1,-3,-1,15.71
3143,-2,-4,-1,-2,-1,0,-1,0,15.715
3144,1,3,-4,-9,-2,-1,0,0,15.72
3145,-1,4,6,18,2,1,0,0,15.725
3146,0,-5,3,-3,2,0,0,-2,15.73
3147,1,-6,-2,3,-3,-1,-1,-1,15.735000000000001
3148,0,3,-1,0,6,2,2,-1,15.74
3149,1,6,-7,-14,-3,-2,0,0,15.745000000000001
3150,0,-4,0,-16,-1,-1,0,0,15.75
3151,0,-7,4,15,-5,-3,-1,1,15.755
3152,-4,3,-7,-8,-4,-2,-2,-3,15.76
3153,1,4,-4,-8,-1,-2,0,-1,15.765
3154,-1,-8,1,11,-1,1,0,-2,15.77
3155,0,-7,0,-2,1,1,0,-1,15.775
3156,-1,3,-2,-6,-1,-2,-1,-2,15.780000000000001
3157,-1,4,5,7,0,1,-3,0,15.785
3158,-2,-4,-7,-7,-3,0,0,-2,15.790000000000001
3159,-1,-6,1,7,1,2,-1,-1,15.795
3160,-2,0,-7,-23,-9,-3,-2,-1,15.8
3161,0,7,9,25,10,2,0,-2,15.805
3162,-2,-3,-1,6,1,-2,-1,2,15.81
3163,-1,-7,-1,0,0,0,-1,0,15.815
3164,-1,5,-4,-9,-1,0,1,0,15.82
3165,0,5,-14,-37,-9,-2,-1,-1,15.825000000000001
3166,-2,-4,23,43,5,-1,-1,-1,15.83
3167,-2,-6,-2,0,1,-2,-1,-3,15.835
3168,1,2,1,8,3,0,-1,2,15.84
3169,-2,3,-10,-21,-4,-1,-1,-1,15.845
3170,1,-3,-7,-14,0,0,-3,-1,15.85
3171,-1,-6,0,0,-1,-1,0,0,15.855
3172,0,3,0,-1,1,-1,-2,-1,15.860000000000001
3173,-2,2,-3,-1,-3,0,0,-2,15.865
3174,-1,-4,2,5,-2,-1,-1,-1,15.870000000000001
3175,-1,-6,0,-2,2,1,0,-2,15.875
3176,0,5,4,6,0,0,-1,-1,15.88
3177,-2,1,3,7,-3,-1,-2,-2,15.885
3178,0,-5,-5,-9,-1,-1,-1,-2,15.89
3179,-2,-4,-5,-8,-2,0,0,-1,15.895
3180,1,4,1,4,-1,0,-1,1,15.9
3181,-1,2,3,2,-4,-2,0,0,15.905000000000001
3182,-1,-6,-18,-28,-2,-2,0,-1,15.91
3183,-2,-7,3,6,1,-3,-3,-3,15.915000000000001
3184,-2,3,18,39,2,1,-1,-1,15.92
3185,-1,4,-2,13,2,-2,-1,-2,15.925
3186,-1,-6,-3,-12,-6,0,1,-1,15.93
3187,1,-4,-6,-9,-3,-1,-1,0,15.935
3188,-1,4,-5,-7,-2,0,0,0,15.94
3189,0,5,0,-7,-7,-1,-1,-1,15.945
3190,-2,-8,-2,0,0,-2,0,0,15.950000000000001
3191,2,-3,3,4,1,2,1,1,15.955
3192,-1,1,-10,-19,-4,-1,0,-2,15.96
3193,-1,2,5,19,4,1,-1,0,15.965
3194,-3,-5,4,4,-1,-1,-1,-2,15.97
3195,1,-6,0,3,-3,-1,-2,0,15.975
3196,0,3,-5,-9,0,-2,-1,-1,15.98
3197,0,3,-3,-5,0,-3,0,0,15.985000000000001
3198,1,-5,1,0,0,-1,0,0,15.99
3199,-3,-7,-1,1,-2,-1,-2,-1,15.995000000000001
3200,1,2,-3,-4,-2,0,-1,-1,16.0
3201,0,5,-3,-4,0,0,-1,1,16.005
3202,2,-4,-7,-15,-1,0,-1,0,16.01
3203,-2,-5,9,8,0,-2,-4,-1,16.015
3204,-1,2,6,16,0,-2,0,-1,16.02
3205,-1,3,3,21,2,-1,-2,-2,16.025
3206,0,-7,-8,-10,-4,-2,0,0,16.03
3207,0,-6,-8,-14,0,-1,0,0,16.035
3208,0,4,-2,-8,-2,-1,-3,0,16.04
3209,0,5,1,-14,-8,-1,-1,-2,16.045
3210,0,-6,-4,7,13,1,0,0,16.05
3211,0,-6,1,-4,-4,-1,0,-2,16.055
3212,0,5,4,7,2,0,1,-1,16.06
3213,-2,2,-7,-8,-1,-1,0,0,16.065
3214,0,-4,-1,-8,-5,-1,-2,-2,16.07
3215,1,-5,4,10,-1,-1,-1,-1,16.075
3216,-1,5,3,8,1,0,-1,-1,16.080000000000002
3217,-2,5,-2,-5,-2,-2,0,-2,16.085
3218,-2,-6,1,1,-3,-3,-3,-1,16.09
3219,-1,-5,-3,-2,2,0,-2,-2,16.095
3220,0,3,-5,-9,-5,-1,-1,-2,16.1
3221,0,3,-2,-3,1,1,0,0,16.105
3222,-1,-4,4,9,-2,-1,-1,-1,16.11
3223,-3,-4,-9,-16,-3,-2,-1,1,16.115000000000002
3224,-3,3,0,0,1,-2,-2,-2,16.12
3225,0,3,9,18,1,0,0,0,16.125
3226,-1,-7,4,11,-1,-1,-1,-2,16.13
3227,-1,-4,-2,9,-4,0,1,0,16.135
3228,1,4,-9,-19,-1,0,1,1,16.14
3229,0,3,-5,-12,0,-2,-1,-2,16.145
3230,0,-5,0,-4,-3,-4,-1,-2,16.15
3231,-1,-4,-3,-10,-5,-1,0,-1,16.155
3232,0,5,-1,-6,6,-1,1,0,16.16
3233,1,3,-2,-3,1,0,0,0,16.165
3234,1,-4,11,24,1,0,0,1,16.17
3235,-3,-5,0,11,0,0,-2,-2,16.175
3236,-1,5,0,-1,-2,-1,-2,0,16.18
3237,-1,4,0,-5,0,-2,-1,-1,16.185
3238,-1,-6,-10,-20,-1,1,-1,-2,16.19
3239,0,-4,0,-1,-2,-1,1,0,16.195
3240,0,5,4,8,0,-1,-2,0,16.2
3241,-3,2,-5,-10,0,-1,-2,-1,16.205000000000002
3242,-2,-6,0,2,-3,-1,-1,-1,16.21
3243,-1,-3,2,2,0,0,0,0,16.215
3244,-2,3,-5,-6,-2,-1,-1,-1,16.22
3245,-1,1,4,-1,-1,-1,-2,0,16.225
3246,-1,-7,-1,10,0,-1,0,-2,16.23
3247,0,-3,1,6,2,-1,0,0,16.235
3248,-1,5,-6,-7,0,-1,1,-2,16.240000000000002
3249,1,2,-1,5,-1,-1,-1,-2,16.245
3250,-1,-6,-4,-10,0,0,-2,0,16.25
3251,1,-4,-3,-7,-2,-1,1,-2,16.255
3252,-1,4,1,8,-1,-2,0,1,16.26
3253,0,2,-22,-51,-10,-1,0,-1,16.265
3254,-2,-8,35,62,16,2,1,-1,16.27
3255,-3,-4,-2,12,0,2,-1,-3,16.275
3256,-1,4,-2,-1,-5,-2,0,-1,16.28
3257,-1,3,0,5,0,0,-2,0,16.285
3258,2,-6,-17,-35,-9,-1,-2,0,16.29
3259,0,-2,0,-9,-1,-3,-2,0,16.295
3260,1,6,3,7,2,1,-1,-2,16.3
3261,-3,1,-5,-3,-1,0,-1,-1,16.305
3262,-2,-10,-10,-12,-5,-1,-3,-2,16.31
3263,-1,-2,9,12,1,-2,-1,-2,16.315
3264,-1,4,0,-5,-2,-1,-2,0,16.32
3265,-1,2,2,5,-1,-1,-2,-1,16.325
3266,-4,-8,-3,5,-2,-2,-2,-3,16.330000000000002
3267,-1,-2,-4,-5,-1,-1,-2,-1,16.335
3268,0,5,0,-2,-1,-2,0,-1,16.34
3269,1,3,3,3,2,-1,0,0,16.345
3270,-2,-7,-5,-4,-4,0,0,1,16.35
3271,2,-1,-3,-11,-2,1,0,-1,16.355
3272,-1,3,-5,-6,-3,0,0,1,16.36
3273,-1,2,6,14,0,-1,-2,-1,16.365000000000002
3274,-3,-8,2,2,-3,-2,-3,-2,16.37
3275,0,-5,-3,11,2,1,0,-1,16.375
3276,1,5,-1,-7,-3,1,-1,1,16.38
3277,0,0,-6,-4,0,-2,0,-1,16.385
3278,0,-4,-4,-12,0,-2,2,0,16.39
3279,0,-4,-1,-12,-5,-2,-1,-1,16.395
3280,-2,3,2,9,10,1,-1,-1,16.4
3281,1,3,4,5,-3,-2,0,-1,16.405
3282,0,-8,-2,-2,0,0,-2,1,16.41
3283,-1,-3,-3,-6,2,-1,-1,1,16.415
3284,-1,4,-4,-8,-6,-2,0,-1,16.42
3285,-2,2,16,30,4,-1,-1,-2,16.425
3286,0,-9,-12,-25,-1,-1,-1,-1,16.43
3287,1,-4,7,22,0,-1,-1,-2,16.435
3288,1,7,-1,-1,-2,-2,-1,0,16.44
3289,0,2,-5,-6,0,0,-1,0,16.445
3290,-2,-7,-3,-5,-5,-1,-3,-1,16.45
3291,-1,-1,0,-10,1,0,-1,1,16.455000000000002
3292,0,4,-5,-6,-2,0,0,-1,16.46
3293,-1,2,7,19,3,1,0,0,16.465
3294,-3,-9,-3,5,-1,-1,-1,-1,16.47
3295,0,0,-3,-6,-1,0,0,-2,16.475
3296,-1,6,5,8,1,-1,0,-1,16.48
3297,-2,1,-10,-17,-3,-1,-1,-2,16.485
3298,-2,-7,-2,-1,0,1,-2,0,16.490000000000002
3299,-1,-3,-2,-12,-2,0,-1,-1,16.495
3300,1,4,-3,1,-4,1,0,-1,16.5
3301,-3,-1,9,21,-1,-2,1,0,16.505
3302,1,-4,-1,0,-1,-2,0,0,16.51
3303,-2,-3,-4,0,-2,-1,-1,-1,16.515
3304,-1,5,-9,-18,-1,-4,-1,-1,16.52
3305,0,0,-7,-16,-7,-3,-2,-2,16.525
3306,1,-6,8,14,8,2,0,0,16.53
3307,-1,-2,-7,-18,-3,-3,0,-2,16.535
3308,0,4,6,14,3,0,-2,-1,16.54
3309,-2,1,1,-2,-4,-1,-3,-1,16.545
3310,2,-6,0,-5,-3,-2,0,0,16.55
3311,-1,-4,-3,-1,0,2,-1,-2,16.555
3312,-3,6,2,-4,-2,-1,0,-2,16.56
3313,0,1,4,13,4,1,1,0,16.565
3314,-1,-6,-8,-11,-4,-1,0,-2,16.57
3315,0,-2,4,15,2,-2,-1,0,16.575
3316,-1,6,7,6,-3,-3,-1,0,16.580000000000002
3317,0,0,-11,-13,1,-1,-1,-1,16.585
3318,1,-8,2,-3,-3,-2,-1,-1,16.59
3319,0,0,-8,-10,-2,-1,1,0,16.595
3320,-1,1,-1,7,-3,-1,-2,-2,16.6
3321,2,2,0,-6,-2,0,-2,1,16.605
3322,-1,-7,2,2,-2,0,-1,-1,16.61
3323,1,1,5,2,1,-2,-1,0,16.615000000000002
3324,1,7,-3,-5,0,1,-1,0,16.62
3325,-2,-1,-6,-10,-2,-1,-2,0,16.625
3326,-3,-10,-1,-1,-1,-1,-2,0,16.63
3327,0,0,4,15,0,0,-1,0,16.635
3328,-1,5,-2,-3,0,0,-1,0,16.64
3329,0,1,-3,-3,-2,-2,-2,-1,16.645
3330,-2,-8,-6,-10,-3,-1,0,0,16.65
3331,-1,-2,-2,-11,-2,-2,0,0,16.655
3332,-1,5,12,24,3,-1,0,-2,16.66
3333,0,1,-1,1,-6,-1,-1,-2,16.665
3334,1,-8,-1,0,2,1,-1,1,16.67
3335,-2,0,-1,-3,-3,-1,-1,-1,16.675
3336,1,6,-3,-5,0,-1,-3,0,16.68
3337,-1,0,-3,-5,-1,0,0,-2,16.685
3338,0,-8,0,-1,-1,-2,1,0,16.69
3339,0,-5,-3,5,-1,1,-1,-2,16.695
3340,-2,5,-1,-7,-1,-1,-2,-2,16.7
3341,-1,1,5,17,1,0,-1,0,16.705000000000002
3342,-1,-6,-4,-7,-1,0,-2,-2,16.71
3343,-2,0,2,0,1,-1,0,0,16.715
3344,-1,7,3,3,0,-2,0,-1,16.72
3345,-1,-2,-7,-6,0,-2,0,0,16.725
3346,-3,-7,2,3,-2,0,-2,-2,16.73
3347,2,1,-4,-10,-3,-1,0,0,16.735
3348,-1,6,-4,-4,-2,0,-1,-2,16.740000000000002
3349,-1,0,1,-2,0,0,-3,-2,16.745
3350,-2,-6,3,5,-2,-1,-1,-1,16.75
3351,-1,-1,-4,2,0,-1,-3,-1,16.755
3352,-1,4,-7,-5,-3,0,-1,0,16.76
3353,-2,-1,-7,-8,-2,-1,1,-2,16.765
3354,0,-9,0,9,-1,-2,-1,-1,16.77
3355,0,-1,5,0,0,0,-1,0,16.775
3356,1,2,3,6,0,-1,-1,0,16.78
3357,-3,-1,-1,-4,-1,-1,0,-1,16.785
3358,-2,-8,-7,-8,-2,0,-1,-1,16.79
3359,-1,1,7,8,1,1,-1,0,16.795
3360,-3,4,-8,-13,-2,-2,-1,-2,16.8
3361,1,-1,1,-9,-3,-1,-1,-1,16.805
3362,-1,-5,5,12,4,0,0,-1,16.81
3363,0,0,6,14,4,2,0,1,16.815
3364,-1,3,-9,-9,-3,-1,0,-2,16.82
3365,-1,-2,3,2,-1,-1,-2,-1,16.825
3366,0,-5,-4,-4,-1,-1,-1,0,16.830000000000002
3367,-1,1,-3,-7,-1,-2,-1,-1,16.835
3368,0,5,2,4,-1,0,-1,0,16.84
3369,-1,0,-2,-1,2,-2,0,-1,16.845
3370,0,-8,-4,-5,-4,-1,-1,0,16.85
3371,-2,-1,-1,1,0,-2,-1,0,16.855
3372,-1,4,1,4,-2,-1,-1,-2,16.86
3373,0,-1,0,1,-1,0,-2,-2,16.865000000000002
3374,-2,-8,3,6,2,0,0,-2,16.87
3375,-2,-2,-7,-11,-4,-2,-2,-2,16.875
3376,0,6,-2,-10,1,0,0,-1,16.88
3377,-1,0,3,8,2,0,-2,-1,16.885
3378,-3,-9,4,10,0,-1,0,0,16.89
3379,-2,0,-4,-5,-1,0,-1,-1,16.895
3380,1,4,-3,-5,1,-1,2,1,16.9
3381,-2,-3,-1,6,2,0,-2,-2,16.905
3382,-1,-8,-5,-6,-2,0,0,-1,16.91
3383,0,2,-4,-11,-1,-2,0,-1,16.915
3384,-1,4,3,4,-1,-2,-2,-1,16.92
3385,0,0,5,6,0,0,-2,1,16.925
3386,1,-7,-2,-1,-4,-2,-1,-2,16.93
3387,3,4,-7,-24,-3,-3,-2,0,16.935
3388,-3,5,11,27,2,1,-1,-1,16.94
3389,-3,-2,-8,-14,-6,-2,0,-2,16.945
3390,-1,-8,5,13,5,2,1,-1,16.95
3391,-1,1,0,-1,-3,-1,0,-1,16.955000000000002
3392,-1,6,-6,-10,0,-1,0,-1,16.96
3393,-1,-1,-1,-1,-4,-2,-1,-1,16.965
3394,-1,-8,-6,-13,-2,-1,-2,-1,16.97
3395,-2,0,7,16,3,0,-1,0,16.975
3396,-2,2,-2,2,-3,-1,-2,-2,16.98
3397,0,-1,-2,0,0,1,0,0,16.985
3398,-1,-8,-3,-8,-1,-2,0,1,16.990000000000002
3399,-1,0,-2,2,2,-1,1,-2,16.995
3400,0,7,-1,-10,1,2,-1,0,17.0
3401,-2,-2,-2,3,-2,-1,-1,-1,17.005
3402,-1,-6,2,-1,0,-1,-1,-1,17.01
3403,0,-2,3,8,2,0,-1,0,17.015
3404,-1,5,-5,-11,-3,0,-1,1,17.02
3405,2,0,1,4,1,-1,0,-1,17.025
3406,-2,-7,1,4,-2,-1,-3,-2,17.03
3407,-1,1,-6,-15,-2,-1,-2,0,17.035
3408,-1,4,6,19,2,-1,-1,-1,17.04
3409,0,-1,-2,0,3,-1,-1,1,17.045
3410,-1,-8,-7,-4,-3,-2,-2,-1,17.05
3411,1,1,2,2,0,-2,0,0,17.055
3412,-1,5,-7,-20,-2,-1,-1,-1,17.06
3413,0,-1,3,5,1,0,-3,-2,17.065
