slno,emg1,emg2,emg3,emg4,emg5,emg6,emg7,emg8,Time
0,-2,1,-1,2,-2,-1,-1,-2,0.0
1,-1,-1,0,1,0,0,0,-1,0.005
2,-1,-2,-3,-3,-3,-2,0,-2,0.01
3,-1,-1,2,-1,0,-1,-1,-1,0.015
4,2,0,-2,-4,-1,0,1,1,0.02
5,-4,-5,-1,-3,-2,-3,-2,-1,0.025
6,1,-2,-3,-2,-1,-1,-3,-1,0.03
7,-1,0,-6,-3,-1,1,-1,1,0.035
8,-1,0,8,0,1,-1,-3,0,0.04
9,-3,-2,-17,-2,0,0,-2,0,0.045
10,-1,-2,1,-2,-1,0,1,-2,0.05
11,-1,0,0,-1,-1,-2,-1,-2,0.055
12,-1,-1,-3,-1,-2,0,0,-1,0.06
13,0,1,6,1,0,0,0,0,0.065
14,1,1,0,0,-1,2,1,0,0.07
15,1,0,-1,1,0,1,0,-1,0.075
16,-2,-1,-1,-1,1,1,-1,0,0.08
17,1,2,3,1,1,0,-1,1,0.085
18,-1,0,-1,0,-2,-2,-2,-1,0.09
19,-1,-3,0,-4,-4,-2,-3,-1,0.095
20,-1,-2,-4,0,-2,0,0,-1,0.1
21,2,-2,4,-1,0,-3,0,-2,0.105
22,-2,1,2,1,1,3,0,0,0.11
23,-2,-2,1,1,-1,-3,0,1,0.115
24,-1,-2,0,-2,-2,0,-1,2,0.12
25,-1,0,1,3,0,-2,-1,0,0.125
26,-1,0,-2,-2,-2,-2,-1,-1,0.13
27,-1,-1,0,0,-1,0,-1,-1,0.135
28,0,0,-2,-2,-1,-1,-1,0,0.14
29,-3,-3,-2,0,-2,-1,-1,-1,0.145
30,-1,0,1,-2,0,1,-1,1,0.15
31,-2,0,-7,1,2,-1,-1,-1,0.155
32,-1,-1,-1,-3,-2,0,1,-1,0.16
33,-1,-1,0,0,-1,-1,0,-3,0.165
34,1,0,-1,2,-1,-1,0,0,0.17
35,-3,0,1,-1,0,0,0,0,0.17500000000000002
36,0,-2,2,0,0,0,-1,0,0.18
37,-1,-1,-4,-5,-1,0,-3,-1,0.185
38,0,0,2,3,1,-4,2,-1,0.19
39,-1,0,-1,-2,-1,3,0,-1,0.195
40,0,-1,-1,2,0,-2,0,-1,0.2
41,-1,0,2,2,-2,1,1,-1,0.20500000000000002
42,-2,0,-3,-4,-2,0,-2,-1,0.21
43,0,-1,-4,-1,-1,-2,-1,1,0.215
44,-1,0,-3,0,0,-2,-2,-1,0.22
45,-1,0,-3,1,0,-2,-1,0,0.225
46,-1,-2,-1,-1,-1,0,-2,0,0.23
47,1,0,2,-1,-1,-1,-1,-2,0.23500000000000001
48,0,0,1,1,0,-2,-2,-1,0.24
49,0,-2,-3,-4,-3,-1,0,0,0.245
50,-3,0,-1,1,-2,-2,-1,-1,0.25
51,-1,0,0,-2,0,-1,-2,-1,0.255
52,0,0,2,3,1,-2,0,-1,0.26
53,0,0,-10,-3,0,-1,0,-1,0.265
54,-2,-2,5,-1,1,-1,-2,-2,0.27
55,0,0,2,0,-2,0,0,-1,0.275
56,0,-1,1,0,-1,-1,0,-2,0.28
57,-2,-3,-4,-2,0,1,-2,-1,0.28500000000000003
58,0,-2,-1,-1,-2,0,-1,-1,0.29
59,0,-1,-3,0,-1,-5,-2,0,0.295
60,-1,-4,0,1,-1,-1,0,1,0.3
61,-2,-1,0,-1,-2,-2,2,0,0.305
62,2,2,-3,-1,-1,0,0,1,0.31
63,-1,-3,0,1,-1,0,-1,-2,0.315
64,-2,-1,-2,-4,-2,-2,-3,-1,0.32
65,0,2,3,-3,1,6,-2,-1,0.325
66,-2,-1,-1,0,0,0,-1,-1,0.33
67,0,-3,-4,-4,-2,-1,0,-1,0.335
68,-2,-1,0,0,-2,0,0,-2,0.34
69,0,-2,0,-1,-2,-3,-1,-2,0.34500000000000003
70,-1,-1,-1,2,0,0,-1,0,0.35000000000000003
71,0,0,-2,-1,-2,0,-2,-1,0.355
72,0,-2,-3,1,-1,0,0,-1,0.36
73,-1,-1,-1,-6,-2,-1,-2,1,0.365
74,-2,0,-2,-3,0,1,-1,0,0.37
75,0,-2,3,4,1,-2,-1,-1,0.375
76,-2,-3,-3,-3,-4,-1,0,-1,0.38
77,-1,1,-2,0,-1,0,0,-1,0.385
78,1,0,1,1,-1,-1,-1,-2,0.39
79,0,-1,-3,-1,-1,0,-1,1,0.395
80,0,1,0,-3,-3,0,1,-2,0.4
81,-1,-2,-1,0,-2,-1,0,-2,0.405
82,-1,-2,-3,-3,-1,-3,-1,0,0.41000000000000003
83,-1,1,2,0,-1,0,-2,-1,0.41500000000000004
84,-2,1,-3,-1,0,1,-1,0,0.42
85,0,-2,0,-3,-2,-2,-1,-2,0.425
86,0,0,-2,1,-1,4,2,0,0.43
87,-2,1,-4,-2,0,-1,1,-3,0.435
88,0,-3,-1,1,0,-1,0,-1,0.44
89,-3,-1,1,2,-1,-5,-1,0,0.445
90,-1,-2,-3,-6,-2,-2,-2,-1,0.45
91,-1,-2,-1,2,-1,-2,-1,1,0.455
92,-1,2,-1,-4,1,-3,-3,-2,0.46
93,-1,-1,4,1,1,0,-1,0,0.465
94,0,-2,-2,3,-2,-2,0,-4,0.47000000000000003
95,-1,1,1,-3,-1,-3,0,0,0.47500000000000003
96,0,-1,2,1,-1,-1,0,-1,0.48
97,1,-1,3,3,0,-1,-2,0,0.485
98,-1,-1,-1,-4,-3,1,-1,1,0.49
99,0,-1,-1,0,0,-3,0,0,0.495
100,-3,-1,-2,0,1,0,-1,-2,0.5
101,-1,1,0,2,0,-1,-1,-1,0.505
102,1,-1,-3,-1,-1,-3,-1,-1,0.51
103,1,0,6,1,0,0,0,-2,0.515
104,0,-1,-2,-1,0,-1,-2,0,0.52
105,-1,-1,-4,-1,-2,1,-2,0,0.525
106,-1,0,-2,-2,-2,-2,0,0,0.53
107,-1,-1,-4,-1,-1,1,-1,-1,0.535
108,0,-1,-1,-1,-1,0,-1,0,0.54
109,0,1,2,1,0,-2,-1,-1,0.545
110,-1,0,2,-2,-1,-3,-2,-1,0.55
111,-2,-3,-6,-3,-2,-2,-1,-1,0.555
112,1,0,-1,-1,-1,-1,-1,-1,0.56
113,0,1,-1,2,-1,-1,-1,-1,0.5650000000000001
114,-1,-1,0,2,-2,-1,-2,-4,0.5700000000000001
115,-1,-1,-3,-2,0,2,0,-1,0.5750000000000001
116,-1,-1,1,-1,-2,1,-3,-1,0.58
117,-1,0,0,0,0,-1,-1,-1,0.585
118,0,1,-1,2,1,-1,0,0,0.59
119,-1,-2,1,2,-2,1,0,1,0.595
120,1,0,-5,-3,-1,1,0,0,0.6
121,-1,-2,2,-3,-1,1,0,-1,0.605
122,-2,0,-4,0,-2,1,0,-2,0.61
123,0,0,3,-2,0,-1,-1,-1,0.615
124,-1,-1,-7,2,1,-1,-1,-1,0.62
125,2,1,0,1,0,-1,1,1,0.625
126,0,0,2,-1,0,-2,-2,0,0.63
127,-1,-3,-4,-3,-2,-2,-3,-1,0.635
128,0,0,-1,-2,-1,3,2,-1,0.64
129,0,-2,0,-1,-2,-1,-2,1,0.645
130,-2,0,-1,-2,-2,-2,-1,0,0.65
131,1,2,0,1,-2,1,0,0,0.655
132,-2,-2,1,-1,-1,-4,-1,-1,0.66
133,1,-2,-3,-1,-1,0,-3,0,0.665
134,1,0,4,2,2,1,0,1,0.67
135,0,-1,-4,-6,-1,-3,-1,0,0.675
136,0,0,2,-3,-2,-1,0,-1,0.68
137,-4,-3,-2,-2,-1,-1,1,0,0.685
138,0,0,0,1,0,0,-2,0,0.6900000000000001
139,-1,-1,-4,2,2,0,-2,-1,0.6950000000000001
140,0,-3,-1,1,0,-2,-2,-2,0.7000000000000001
141,-1,0,1,-1,0,-2,-1,-1,0.705
142,-2,-1,-6,-3,-2,-1,-2,-2,0.71
143,-2,-1,0,-1,1,-1,0,-2,0.715
144,-1,-1,2,-1,-1,-1,-1,1,0.72
145,-1,-2,-5,-1,-1,2,-2,-1,0.725
146,1,-1,2,0,0,-2,0,0,0.73
147,-1,-1,0,1,-1,1,-1,0,0.735
148,-1,-3,-2,-2,-2,-1,0,-1,0.74
149,0,-4,-4,-1,-2,-1,0,-2,0.745
150,-3,-1,-9,-5,-2,0,-2,-2,0.75
151,-2,0,2,-2,-1,2,2,-1,0.755
152,-1,0,0,0,1,-2,-1,0,0.76
153,-2,2,1,0,0,-1,-2,-1,0.765
154,0,-4,-3,-1,-2,-4,0,-1,0.77
155,1,0,-2,1,1,-1,-3,-1,0.775
156,-2,-1,-3,-5,-1,-1,-1,-2,0.78
157,-1,0,3,1,-1,-1,1,0,0.785
158,-2,-1,0,-1,0,1,-1,-2,0.79
159,-1,-3,-1,0,0,0,-1,-1,0.795
160,-2,0,0,1,1,-2,-1,1,0.8
161,-1,-2,-2,0,0,0,-2,-1,0.805
162,-1,0,0,0,0,1,-2,-2,0.81
163,0,-2,-1,-1,0,0,-1,0,0.8150000000000001
164,1,-1,-1,1,-2,0,0,0,0.8200000000000001
165,0,0,1,-1,-1,-4,0,0,0.8250000000000001
166,1,1,-1,1,3,8,1,1,0.8300000000000001
167,-1,-1,4,-1,-4,-2,-1,-1,0.835
168,-1,-3,0,-1,-1,-1,2,0,0.84
169,1,0,-2,-2,-1,1,0,0,0.845
170,0,-1,8,0,0,-2,-1,1,0.85
171,-1,-1,-9,0,-1,-2,-1,0,0.855
172,0,2,4,1,1,0,-3,-2,0.86
173,-2,0,-3,-1,-2,1,-2,0,0.865
174,-2,-3,-3,-1,-2,-3,0,-1,0.87
175,-1,-1,1,-2,-2,-3,-2,-2,0.875
176,0,-1,-1,2,-2,-2,-3,-1,0.88
177,-1,0,-2,-1,1,1,-1,-3,0.885
178,-1,-2,3,0,-3,-3,-2,0,0.89
179,0,0,-1,-1,0,-1,1,2,0.895
180,0,1,0,-1,0,1,-2,-1,0.9
181,0,-1,-2,-3,-2,-3,-1,1,0.905
182,-1,-2,-2,2,-2,-1,-2,-2,0.91
183,-1,-1,0,0,0,1,1,-1,0.915
184,-1,0,-3,0,-2,-1,1,0,0.92
185,0,0,1,1,0,3,-1,0,0.925
186,-1,1,-3,-3,1,0,-1,0,0.93
187,-1,-2,0,1,0,-2,-1,-1,0.935
188,1,0,-2,-1,-1,-2,-1,-2,0.9400000000000001
189,-1,-1,6,2,-1,-2,2,-2,0.9450000000000001
190,-2,0,-9,0,-2,1,-1,-1,0.9500000000000001
191,-1,-2,0,1,-1,1,1,-1,0.9550000000000001
192,0,0,-1,-4,-2,0,0,-1,0.96
193,0,-1,-1,-2,-1,-3,-1,0,0.965
194,-1,-1,1,-1,0,-1,-1,-1,0.97
195,-1,2,5,3,1,0,0,0,0.975
196,-3,-3,-5,-3,-1,-1,-1,-2,0.98
197,1,1,-1,-1,1,1,1,-1,0.985
198,2,0,1,0,-1,-2,-1,-1,0.99
199,-1,-3,-6,-7,-2,2,0,1,0.995
200,-1,1,0,-1,0,-1,0,-1,1.0
201,-1,-1,-3,-2,0,-2,-1,-2,1.0050000000000001
202,-1,-3,0,1,0,-2,0,-2,1.01
203,1,2,-3,0,-2,-3,-3,-2,1.0150000000000001
204,1,-2,2,1,2,6,0,0,1.02
205,-1,0,-5,-5,-3,-1,0,0,1.025
206,-2,1,-2,-1,0,-1,1,-1,1.03
207,1,-1,-4,-5,-1,-2,-3,0,1.035
208,-2,0,8,2,0,1,0,0,1.04
209,1,-5,-10,-4,-1,-1,0,0,1.045
210,3,1,0,0,0,0,-1,1,1.05
211,2,2,0,-1,-1,-2,-1,0,1.055
212,-1,0,1,3,-2,-2,0,-2,1.06
213,-1,0,0,0,0,-1,0,0,1.065
214,-1,-2,-4,0,-1,-1,-1,0,1.07
215,-3,-3,-3,2,-2,-1,0,-3,1.075
216,0,0,3,0,0,-3,-1,0,1.08
217,1,-1,-3,-1,-1,-1,-2,0,1.085
218,0,0,8,-1,-3,-2,0,-2,1.09
219,-2,-3,0,1,0,1,0,-1,1.095
220,1,-2,-3,-3,-1,0,-2,-1,1.1
221,-2,-2,-1,1,-1,-4,-1,-2,1.105
222,-1,1,-3,-2,-1,0,-2,-1,1.11
223,0,1,2,-2,0,1,1,0,1.115
224,-1,-3,-6,-4,-3,-2,-3,1,1.12
225,0,0,5,2,0,-2,0,0,1.125
226,-1,-2,-10,-3,-1,2,1,0,1.1300000000000001
227,0,-1,4,0,-1,-1,-2,-2,1.135
228,1,1,-4,0,0,-1,0,1,1.1400000000000001
229,-1,1,3,1,0,0,-1,0,1.145
230,1,-1,0,-1,-1,-2,1,-1,1.1500000000000001
231,0,-1,-3,0,0,1,1,1,1.155
232,-1,0,-2,-3,-1,0,-2,-2,1.16
233,-1,1,3,0,-2,0,-2,-1,1.165
234,0,-1,0,0,-1,0,0,0,1.17
235,0,-2,-3,0,-1,0,1,-1,1.175
236,-2,0,-2,-1,-1,-1,0,-2,1.18
237,-1,-3,0,-1,-1,1,0,-2,1.185
238,-1,0,-5,-6,-3,-2,1,0,1.19
239,1,0,1,0,1,-2,-1,-1,1.195
240,-2,-1,-1,0,-2,-2,0,0,1.2
241,0,-1,1,-2,0,1,0,0,1.205
242,0,0,-2,-1,-3,0,-1,-1,1.21
243,0,0,1,0,-1,1,-2,-1,1.215
244,-1,0,-1,-3,-3,-2,-1,-1,1.22
245,-1,0,-1,2,0,-2,-1,0,1.225
246,1,-1,-2,-3,-2,-2,-2,0,1.23
247,-3,-3,0,1,-2,0,-1,0,1.235
248,-1,-2,2,1,-1,-2,-3,0,1.24
249,0,-4,-12,-2,-2,1,1,0,1.245
250,0,-2,3,-2,-1,-1,-1,-1,1.25
251,-1,0,-3,-2,-2,-1,0,0,1.2550000000000001
252,2,-1,0,0,1,0,0,0,1.26
253,-2,-1,2,1,-1,-2,-2,-2,1.2650000000000001
254,-3,-1,1,-1,0,0,-1,-2,1.27
255,0,-1,-2,-4,-3,-3,-1,-2,1.2750000000000001
256,0,0,2,1,0,-1,1,0,1.28
257,-1,-3,1,-2,0,0,-1,1,1.285
258,-2,-1,-2,0,-1,-1,-1,-1,1.29
259,-1,2,0,0,-2,-1,-2,-2,1.295
260,0,1,1,-3,-2,0,-1,-1,1.3
261,0,-1,4,2,-2,0,-1,-2,1.305
262,0,-5,-7,-1,-1,-3,-2,-1,1.31
263,-2,1,-4,-2,1,4,-1,0,1.315
264,0,0,-2,-1,0,0,-1,0,1.32
265,-1,-1,0,0,-1,-1,-2,-1,1.325
266,0,0,4,2,-1,-3,-4,0,1.33
267,0,-2,-3,-3,-2,-1,1,-1,1.335
268,-1,-1,-1,4,0,0,-2,0,1.34
269,1,2,-3,-4,-3,-1,0,-1,1.345
270,0,-1,1,2,0,1,0,-1,1.35
271,1,0,1,1,0,-2,-1,-1,1.355
272,-1,-1,-2,-5,-4,-1,1,-1,1.36
273,0,0,2,3,1,-1,0,-1,1.365
274,-3,0,-3,-2,-2,-1,-1,0,1.37
275,-2,-4,-5,-3,-1,-2,-1,0,1.375
276,-1,0,-3,-1,-1,0,1,1,1.3800000000000001
277,-2,1,0,-1,1,-2,-2,0,1.385
278,0,-1,-4,-2,-2,0,1,-1,1.3900000000000001
279,-1,-1,4,3,-1,-4,-2,-1,1.395
280,0,-2,-4,-3,0,3,1,-3,1.4000000000000001
281,-1,0,-3,-2,0,-2,0,-1,1.405
282,0,0,5,-1,1,-3,0,0,1.41
283,-1,1,-2,-2,0,0,-2,0,1.415
284,-2,-2,-2,1,-2,-1,-1,-1,1.42
285,-1,-1,-3,-5,-2,-1,-2,-2,1.425
286,0,1,0,1,1,-1,-2,-1,1.43
287,1,0,-1,-2,-1,0,3,-2,1.435
288,0,-2,-3,-1,1,-1,-1,-1,1.44
289,-1,4,-1,-3,-1,0,-2,1,1.445
290,-2,-4,-3,1,0,1,0,-1,1.45
291,-2,-1,2,0,0,-2,-2,-1,1.455
292,-1,0,0,0,-1,1,-1,0,1.46
293,0,0,3,1,-1,-2,-1,-1,1.465
294,-1,-1,-5,-2,-1,0,-1,-2,1.47
295,-2,-1,7,1,0,0,-2,0,1.475
296,-1,-3,-7,2,0,0,0,-1,1.48
297,-1,-1,-1,3,0,-4,-2,0,1.485
298,0,0,0,-5,-2,0,-1,0,1.49
299,0,1,6,2,1,1,0,-1,1.495
300,-2,-4,-11,-4,-3,-4,-1,-2,1.5
301,0,-2,1,1,1,2,0,0,1.5050000000000001
302,1,-1,-5,0,-1,0,1,-1,1.51
303,-1,0,0,-3,-2,-4,-4,-2,1.5150000000000001
304,1,1,6,2,1,1,1,-2,1.52
305,1,0,-5,-5,-2,2,1,0,1.5250000000000001
306,-1,-1,1,-1,-3,-1,-1,-1,1.53
307,-2,-5,-5,-1,-2,-2,0,-2,1.5350000000000001
308,1,1,3,2,-1,-2,-2,1,1.54
309,0,0,2,-2,-1,-2,0,-1,1.545
310,0,1,1,3,0,0,-1,-2,1.55
311,0,0,3,0,0,-1,-3,0,1.555
312,-1,-3,-7,-1,-2,-2,-2,0,1.56
313,0,0,-3,-5,-1,-3,-1,-1,1.565
314,0,-2,1,1,-2,-4,-4,0,1.57
315,-1,-1,-2,1,0,6,1,1,1.575
316,0,0,4,-1,0,1,-1,-1,1.58
317,-1,-3,-5,-1,0,-1,0,-1,1.585
318,1,2,0,0,3,0,1,-1,1.59
319,-1,0,-3,1,0,-3,-2,-1,1.595
320,2,0,2,-2,1,-1,-1,-1,1.6
321,-3,-1,-2,0,-1,1,-1,0,1.605
322,-2,-1,1,-2,-1,0,-1,0,1.61
323,-2,-2,-6,1,-2,-4,-3,0,1.615
324,-2,1,5,-3,-1,3,1,0,1.62
325,0,-1,0,0,-2,0,-3,-1,1.625
326,-3,-1,3,0,-1,1,-1,-3,1.6300000000000001
327,0,2,-1,-4,0,0,-1,0,1.635
328,-1,-2,-5,-1,-1,-3,-4,-1,1.6400000000000001
329,0,-2,-2,1,-1,0,0,-2,1.645
330,-1,1,3,-1,0,-1,-2,0,1.6500000000000001
331,-1,-3,-5,-2,-1,-5,-1,-1,1.655
332,-1,1,9,2,-1,2,1,-1,1.6600000000000001
333,0,-5,-10,-3,-1,3,0,-2,1.665
334,1,-1,-4,0,-1,-1,0,-1,1.67
335,0,1,1,-1,0,-3,0,-2,1.675
336,-2,-1,3,0,0,-2,-1,1,1.68
337,-1,1,1,-2,-1,0,-1,-1,1.685
338,-1,-5,-3,-3,-1,-1,0,0,1.69
339,0,1,-1,1,-1,1,0,1,1.695
340,1,0,-4,-4,-2,-2,-2,-2,1.7
341,-2,0,3,1,-1,-1,2,-1,1.705
342,0,-1,1,3,1,-1,-1,0,1.71
343,-1,-3,-3,-5,-1,1,0,-1,1.715
344,1,-3,-2,-2,-1,1,-3,-2,1.72
345,0,1,6,2,-1,-1,-1,0,1.725
346,1,-2,-5,-5,-1,0,-1,-1,1.73
347,-1,-2,-3,-3,-3,-4,0,-1,1.735
348,-2,-1,-2,0,1,-1,-1,0,1.74
349,0,-2,-3,0,1,-1,-1,-1,1.745
350,-1,2,3,0,-2,1,1,0,1.75
351,0,0,-1,-2,-1,3,1,-2,1.7550000000000001
352,-1,0,-2,1,0,-3,0,-1,1.76
353,-1,0,-1,0,0,-2,-2,1,1.7650000000000001
354,0,-2,0,-2,-2,1,1,0,1.77
355,0,-1,1,-1,-1,0,0,1,1.7750000000000001
356,-1,-1,-1,0,-1,-3,1,0,1.78
357,0,-3,1,1,0,-2,0,-1,1.7850000000000001
358,-2,1,-6,-1,0,-2,-2,0,1.79
359,1,1,5,4,1,1,-1,0,1.795
360,-1,-1,-2,0,0,-2,-3,0,1.8
361,-1,-1,3,0,0,1,-2,0,1.805
362,-2,-2,-7,1,-1,0,1,-1,1.81
363,0,0,3,-2,-1,0,-1,0,1.815
364,-1,-1,0,-1,-2,0,-1,-1,1.82
365,0,0,-2,-2,0,-2,0,0,1.825
366,-1,0,5,1,-1,-1,0,-2,1.83
367,-1,-2,-5,-3,-2,-1,0,-1,1.835
368,-2,-2,-1,0,-1,-1,1,-1,1.84
369,0,0,0,-2,-1,-3,-1,-2,1.845
370,-1,-1,1,-2,0,0,-1,-1,1.85
371,-2,-1,-2,1,-1,-3,2,0,1.855
372,-2,-1,-4,-4,-2,1,2,-1,1.86
373,-1,1,1,-2,-1,1,0,-2,1.865
374,0,-3,0,1,1,-3,-1,-2,1.87
375,0,-1,-7,-4,-1,-1,0,-1,1.875
376,-1,-3,5,3,0,-1,-2,-1,1.8800000000000001
377,1,-1,1,1,-3,1,-1,0,1.885
378,-1,-1,-9,-1,0,-1,-2,-1,1.8900000000000001
379,0,0,1,-3,-2,-1,-5,1,1.895
380,-1,0,-3,-3,-1,1,2,-1,1.9000000000000001
381,-1,-1,-1,-1,-1,0,-2,1,1.905
382,-2,-1,1,-1,-2,1,-1,-1,1.9100000000000001
383,-1,-1,-2,3,-1,0,-1,1,1.915
384,0,0,-2,1,-1,-2,-2,-1,1.92
385,-2,-1,-1,-2,-1,-1,0,-1,1.925
386,-1,1,2,-3,-2,-2,0,-1,1.93
387,-1,-2,-2,-2,0,-1,0,0,1.935
388,0,4,1,1,1,0,-1,0,1.94
389,-1,0,-1,1,1,-1,-1,-2,1.945
390,1,-2,0,-2,-1,0,1,0,1.95
391,-3,-2,3,2,0,-3,-1,-1,1.955
392,0,-1,-2,-5,-2,4,0,1,1.96
393,0,0,-1,0,-1,0,-3,-1,1.965
394,-1,0,1,-1,-1,-2,0,-1,1.97
395,0,0,-2,-2,-1,1,0,-2,1.975
396,-2,-2,2,-3,-2,-3,1,0,1.98
397,-1,1,-8,-1,-3,-1,-1,0,1.985
398,1,3,3,1,2,2,-2,0,1.99
399,-3,-2,-4,0,-1,-3,1,-1,1.995
400,1,2,-5,0,1,-3,-2,0,2.0
401,-1,1,4,3,0,0,0,-1,2.005
402,-3,-3,-4,-4,-1,-1,-1,-2,2.0100000000000002
403,1,-1,-1,-1,-2,1,-1,-1,2.015
404,0,-1,-3,1,-1,0,-2,-1,2.02
405,-2,-2,-1,0,1,-1,-1,-1,2.025
406,0,0,-1,0,-2,-2,-2,-2,2.0300000000000002
407,0,0,1,1,1,-1,-1,-2,2.035
408,-1,-2,0,-2,-2,-3,-1,-2,2.04
409,0,-1,1,-2,0,0,-2,2,2.045
410,-3,-3,-2,-1,1,0,-1,0,2.05
411,-1,0,1,1,-1,0,0,-1,2.055
412,0,-1,-1,1,-1,-1,0,0,2.06
413,-3,-2,-3,-3,-4,-1,0,0,2.065
414,0,-1,0,-2,-1,0,-1,0,2.07
415,-1,-1,-2,1,1,1,-1,1,2.075
416,0,0,-2,-3,-1,0,-2,-2,2.08
417,-1,0,6,0,0,0,-1,-2,2.085
418,0,-2,-1,-1,-1,-3,-1,0,2.09
419,1,0,2,-1,1,0,0,-2,2.095
420,0,1,-1,1,-1,0,-1,-1,2.1
421,1,-2,-3,-2,0,-2,-1,-1,2.105
422,-1,-1,1,-1,-1,-1,2,0,2.11
423,2,0,0,-3,-2,-1,-2,0,2.115
424,0,-1,-2,-1,-1,-1,-1,0,2.12
425,0,0,1,1,1,-1,0,-2,2.125
426,-2,1,-2,1,0,-1,-2,1,2.13
427,0,0,-4,-2,-3,0,-2,0,2.1350000000000002
428,0,-3,1,1,-1,-1,-1,0,2.14
429,-1,-2,-4,-3,-1,-1,-2,0,2.145
430,-1,-1,0,1,0,0,0,-1,2.15
431,-1,-2,-2,1,0,-1,0,-1,2.1550000000000002
432,0,0,-3,-3,0,-2,-2,-1,2.16
433,2,-2,-3,-1,-1,-3,1,-1,2.165
434,0,-2,5,0,-3,1,-3,0,2.17
435,-1,-2,-10,-1,-1,0,-1,-1,2.1750000000000003
436,0,1,2,3,2,-2,1,-1,2.18
437,-1,-2,-2,-1,-1,-1,-1,0,2.185
438,0,0,0,-1,0,-1,0,-3,2.19
439,-2,1,1,0,-2,-2,-1,-1,2.195
440,-1,-1,-1,-1,-2,0,-2,-1,2.2
441,-2,-2,0,0,0,-1,0,-1,2.205
442,-1,-3,-4,-2,-3,-1,-1,-1,2.21
443,-1,1,7,2,0,-2,-1,1,2.215
444,-2,-2,-4,-3,-2,-1,0,0,2.22
445,-1,1,0,1,-1,-1,1,-1,2.225
446,-1,-3,-3,-5,0,-2,1,-1,2.23
447,0,0,-4,0,0,2,2,0,2.235
448,-1,1,2,2,-1,-1,-2,-1,2.24
449,0,0,1,-1,-2,-1,-1,-1,2.245
450,-2,2,1,4,2,-2,-1,-1,2.25
451,-1,1,-1,-3,-2,-2,-1,-2,2.255
452,-2,-1,0,-2,-1,0,0,-1,2.2600000000000002
453,-1,-2,-2,-1,0,1,-2,-2,2.265
454,0,1,-2,-1,-1,-1,-1,0,2.27
455,-1,-3,3,3,-1,-2,0,-1,2.275
456,-2,0,-2,-2,0,1,-1,-1,2.2800000000000002
457,-1,-1,-4,-2,-2,0,0,0,2.285
458,1,-1,-3,-4,-1,-1,-1,-1,2.29
459,0,-1,0,0,-1,0,-1,0,2.295
460,-3,-3,-4,-2,-1,-2,0,-1,2.3000000000000003
461,-1,1,4,3,-1,-3,0,1,2.305
462,-2,0,-9,-1,0,1,-1,0,2.31
463,-2,-2,-1,-1,-2,-1,-2,-1,2.315
464,1,-1,0,0,-1,0,0,-1,2.32
465,1,1,1,1,1,2,-1,0,2.325
466,-2,-2,-3,-1,-1,-2,-1,-2,2.33
467,1,-1,0,0,-1,-3,0,-1,2.335
468,-1,-1,-2,-1,-1,0,-1,1,2.34
469,-1,0,0,-1,-4,-3,-3,-1,2.345
470,-1,-1,0,-1,-2,4,0,0,2.35
471,-2,-2,-3,-2,0,-1,-1,-1,2.355
472,0,0,1,0,0,-1,-1,-3,2.36
473,-1,-2,-4,-1,0,1,0,1,2.365
474,0,-1,2,1,0,-2,-2,-1,2.37
475,-1,-1,0,-2,-2,-2,0,-2,2.375
476,1,0,0,0,1,0,-2,0,2.38
477,-3,-2,-4,-7,-2,-2,-2,-2,2.3850000000000002
478,-1,-3,6,0,0,-1,0,0,2.39
479,-1,-2,-8,2,-1,-1,-1,-1,2.395
480,0,-1,0,-2,0,-2,1,-1,2.4
481,-1,0,-1,1,0,0,0,-1,2.4050000000000002
482,1,0,2,0,-1,-1,0,-1,2.41
483,-1,0,3,-1,-1,-1,0,0,2.415
484,-1,-2,-2,0,-2,0,-2,1,2.42
485,-1,-2,-4,-2,-3,-3,0,-2,2.4250000000000003
486,0,1,0,-1,-2,-2,0,-3,2.43
487,1,-1,-1,-3,-1,0,0,0,2.435
488,0,0,-2,-3,-2,-2,-1,-1,2.44
489,-2,0,0,-1,-1,-1,-2,-1,2.445
490,-2,-2,0,0,-2,-2,-2,1,2.45
491,0,0,2,-2,0,1,0,-1,2.455
492,-2,-2,-2,-1,0,-2,-2,-1,2.46
493,0,-1,0,-2,0,-2,-1,-1,2.465
494,-1,1,2,-3,-1,2,0,-1,2.47
495,-1,-2,-6,-1,-1,-2,-4,0,2.475
496,1,1,-1,-1,-1,2,2,-1,2.48
497,-2,-2,-1,-1,-3,-1,-1,-1,2.485
498,1,0,-4,1,-1,-3,-1,0,2.49
499,-3,-2,5,2,0,4,-2,-3,2.495
500,-2,-1,-6,-7,-3,-2,-2,-1,2.5
501,-1,-2,1,2,1,2,-1,-1,2.505
502,0,-2,-2,-3,-1,-2,0,-1,2.5100000000000002
503,0,0,-1,-4,-1,-1,0,-1,2.515
504,-2,1,-1,3,-1,-2,-1,-1,2.52
505,-1,-2,0,1,1,1,0,-1,2.525
506,-1,-1,-3,-3,-3,-3,-2,-1,2.5300000000000002
507,1,0,0,0,0,-1,1,-1,2.535
508,-2,0,2,7,-1,0,0,-2,2.54
509,0,0,-7,-8,-3,0,-1,1,2.545
510,1,-2,0,2,-1,0,-2,0,2.5500000000000003
511,-1,-2,-1,-2,-2,-4,-1,1,2.555
512,0,-1,1,2,0,-1,-1,1,2.56
513,-1,-1,-3,0,-1,-2,-1,-2,2.565
514,0,1,7,0,-1,-1,-4,-1,2.57
515,-1,-3,-11,-4,-3,0,1,0,2.575
516,-1,-3,2,0,1,-1,-1,-1,2.58
517,-1,-1,-2,0,1,0,0,-2,2.585
518,-1,0,-1,-2,-2,1,-1,-2,2.59
519,-1,1,0,0,-1,0,-1,-1,2.595
520,-1,0,0,-4,-1,-4,1,0,2.6
521,-2,0,-1,2,1,1,0,0,2.605
522,-1,1,-1,2,1,0,1,-1,2.61
523,0,-3,-2,-6,-1,-1,-2,0,2.615
524,2,-2,1,-2,-3,1,-1,-2,2.62
525,1,-1,2,2,-1,-1,0,0,2.625
526,-1,-2,-2,0,-2,-1,1,-1,2.63
527,0,0,2,3,-1,-2,-2,-1,2.6350000000000002
528,0,0,-4,-5,1,-2,-1,-1,2.64
529,-2,0,2,0,0,-2,0,1,2.645
530,-1,0,-6,-3,-1,0,-1,0,2.65
531,-3,-2,4,1,2,0,-1,-2,2.6550000000000002
532,0,0,-5,-3,-1,0,-1,-1,2.66
533,-2,1,7,1,-1,-2,-3,-2,2.665
534,-1,-2,-4,-1,-1,0,2,0,2.67
535,-1,1,0,-3,-1,-3,-1,0,2.6750000000000003
536,-2,-1,1,1,1,-3,-1,0,2.68
537,2,-1,0,-3,-2,3,-1,-2,2.685
538,-2,-2,-4,-1,0,-2,-2,-3,2.69
539,0,0,0,-2,0,0,-2,0,2.695
540,0,0,0,-1,-1,0,0,0,2.7
541,1,0,-2,-2,-2,-1,-1,0,2.705
542,-1,1,2,1,0,-1,-2,-1,2.71
543,-1,-2,1,0,0,0,-1,-1,2.715
544,-2,-1,-1,0,0,-1,-1,-1,2.72
545,-1,-3,-3,-1,0,-2,0,-1,2.725
546,0,0,-2,0,0,0,0,-1,2.73
547,-1,0,1,-1,0,-1,0,-1,2.735
548,2,2,-1,0,-2,0,-1,-2,2.74
549,-2,-4,0,3,0,-1,-1,-3,2.745
550,-1,-3,-4,-4,-1,1,1,0,2.75
551,-2,-2,-3,1,-1,-1,-2,-1,2.755
552,0,1,-1,2,-2,1,2,1,2.7600000000000002
553,0,1,0,-1,-1,1,0,-2,2.765
554,0,-2,0,0,-1,0,-1,-2,2.77
555,-2,-1,0,0,-1,0,-2,-2,2.775
556,-2,-2,2,-2,-2,-1,-2,-2,2.7800000000000002
557,0,0,-7,-1,-2,-1,0,0,2.785
558,-1,-1,0,0,1,-1,0,0,2.79
559,0,1,-5,-3,0,-2,0,0,2.795
560,-2,0,3,-1,0,3,0,0,2.8000000000000003
561,-1,1,0,-2,-3,-3,1,1,2.805
562,0,-1,0,-1,0,1,-1,0,2.81
563,1,-1,0,1,-1,-1,1,-1,2.815
564,0,-4,-4,-1,-1,-1,-2,-3,2.82
565,0,3,3,3,-1,-3,-1,-2,2.825
566,-2,-2,0,2,-1,0,-1,0,2.83
567,0,0,-2,-1,-2,2,0,-2,2.835
568,-1,0,-5,-3,-2,-3,-1,2,2.84
569,-1,-2,-2,-1,0,-2,0,1,2.845
570,-1,1,1,-1,-2,-1,-2,0,2.85
571,-1,-1,2,-1,-1,-1,2,-1,2.855
572,0,0,0,0,-1,0,-1,-3,2.86
573,-1,-1,0,0,1,-2,-2,0,2.865
574,1,0,-1,-2,-2,0,-1,1,2.87
575,0,0,4,-1,-3,-3,-2,-2,2.875
576,-1,-4,-8,-1,0,-1,-1,-2,2.88
577,1,1,0,-1,1,-1,0,-1,2.8850000000000002
578,-3,-3,-1,1,-1,1,-1,0,2.89
579,0,-2,1,-1,0,3,0,1,2.895
580,-3,-2,1,0,0,-2,0,0,2.9
581,-1,-3,-2,-1,-1,-1,-3,-2,2.9050000000000002
582,-1,0,-1,1,0,0,-1,-2,2.91
583,1,-1,-3,-3,0,-1,0,-1,2.915
584,0,1,-1,2,-1,1,-2,0,2.92
585,-2,-3,-2,1,0,2,-1,-1,2.9250000000000003
586,0,-3,-4,-6,-2,-3,-1,-2,2.93
587,-2,-2,-1,1,-1,-2,-2,-1,2.935
588,-1,0,2,-1,-1,-2,0,-1,2.94
589,-2,-1,2,0,1,0,-1,-2,2.945
590,1,0,-3,2,-3,0,-1,0,2.95
591,-1,0,-6,-4,-1,0,-3,-1,2.955
592,0,-1,5,3,1,0,-1,0,2.96
593,0,0,2,-3,-1,-2,0,-2,2.965
594,-1,-2,-1,2,0,-2,-2,-2,2.97
595,-1,-1,-2,-1,-1,1,0,-1,2.975
596,-1,-1,-3,-2,-1,-2,-1,1,2.98
597,-1,-2,1,-1,-1,-1,1,0,2.985
598,0,-1,2,-2,0,0,-1,0,2.99
599,-1,-2,0,2,1,-2,-1,1,2.995
600,-1,0,-2,-2,-2,0,0,0,3.0
601,-1,-1,-2,1,-2,-4,-2,1,3.005
602,-1,1,-4,-1,1,3,-1,0,3.0100000000000002
603,-2,-1,-1,-2,-2,-1,-1,-2,3.015
604,-1,-1,0,-2,-1,-2,0,-1,3.02
605,0,1,-1,-1,-1,0,0,-1,3.025
606,-1,-3,-1,-1,-1,-1,0,0,3.0300000000000002
607,0,0,2,-1,-1,-2,0,0,3.035
608,0,-3,-2,-1,-1,1,-2,-1,3.04
609,-1,-2,-4,-5,-1,1,-1,1,3.045
610,-2,0,3,-1,0,0,0,0,3.0500000000000003
611,0,-1,-2,0,-1,0,1,-1,3.055
612,-3,0,6,1,-2,-3,-1,-1,3.06
613,-3,-3,-10,0,0,0,1,-2,3.065
614,-1,0,4,0,1,0,1,-3,3.0700000000000003
615,0,1,-3,-2,-2,-3,-2,0,3.075
616,1,0,0,-3,0,1,-1,-1,3.08
617,2,2,5,3,-1,0,-1,0,3.085
618,0,-2,-2,1,0,-2,-1,-2,3.09
619,-1,0,0,0,0,-1,0,0,3.095
620,-1,0,-4,-1,-1,-2,0,-1,3.1
621,0,-3,-2,-6,-1,-2,-2,-2,3.105
622,1,0,-1,2,-1,-3,1,-2,3.11
623,1,0,1,-1,-2,-1,0,-1,3.115
624,-3,-2,-3,-2,-1,2,0,-1,3.12
625,-2,-1,1,1,-2,0,-1,0,3.125
626,0,1,-1,-4,-1,1,1,0,3.13
627,0,-2,-2,-2,-2,-2,-2,-1,3.1350000000000002
628,0,0,-4,-3,-1,-3,-2,-1,3.14
629,-1,0,1,0,0,-1,-2,-2,3.145
630,-2,-1,-3,-1,0,1,0,1,3.15
631,0,0,-1,0,-1,-1,0,-1,3.1550000000000002
632,0,-2,-1,1,-1,-2,-1,-1,3.16
633,-2,0,0,-2,-1,1,-1,-1,3.165
634,-3,-2,-3,-5,-2,-3,-2,1,3.17
635,-3,3,4,0,-2,0,0,1,3.1750000000000003
636,0,1,-7,0,0,-1,-1,-1,3.18
637,1,-1,-1,-5,0,0,0,0,3.185
638,1,-2,-1,0,-2,1,-1,1,3.19
639,0,0,3,-1,-1,-1,-2,-1,3.1950000000000003
640,1,1,4,2,0,-1,2,1,3.2
641,-3,-3,-3,-5,-1,0,-1,-2,3.205
642,0,0,-2,0,-1,-1,-1,-1,3.21
643,-1,-2,-4,0,0,0,0,-1,3.215
644,-1,0,2,0,0,-1,-3,-1,3.22
645,-2,-2,-2,0,-2,-3,-2,-3,3.225
646,-2,1,1,0,-1,-1,-2,-1,3.23
647,-1,-3,-4,-2,-2,-1,0,0,3.235
648,0,0,-1,0,0,-2,-2,-2,3.24
649,1,0,0,3,1,0,0,1,3.245
650,1,-2,-2,-6,-4,-3,-2,0,3.25
651,0,-2,-2,1,3,1,-1,-2,3.255
652,-1,0,0,-1,0,-1,-1,0,3.2600000000000002
653,-1,1,4,3,-1,0,0,1,3.265
654,-1,2,3,1,1,-1,0,-2,3.27
655,-1,-3,-7,-2,-1,1,0,-2,3.275
656,-1,-3,1,-1,-2,0,2,-2,3.2800000000000002
657,0,1,-2,4,0,-3,1,-2,3.285
658,-2,-3,2,0,-1,-2,2,-1,3.29
659,-2,0,1,2,-1,2,-1,2,3.295
660,-1,-1,-3,-1,0,0,0,0,3.3000000000000003
661,-1,0,0,1,-1,2,0,-1,3.305
662,-2,-2,-3,-1,-1,-3,-2,-2,3.31
663,-2,0,0,0,-3,-1,0,0,3.315
664,-1,-1,0,-2,-3,-1,-2,0,3.3200000000000003
665,2,1,-2,-3,0,1,-2,-1,3.325
666,0,2,-2,0,0,2,-2,0,3.33
667,-1,-1,-2,-1,-2,-3,0,0,3.335
668,-1,0,-1,0,1,4,1,-1,3.34
669,-2,-3,0,3,0,0,0,0,3.345
670,-1,-2,-4,-3,-2,-1,-1,1,3.35
671,0,0,4,-2,0,-2,-1,0,3.355
672,1,0,-1,0,-1,-1,-3,-1,3.36
673,1,0,-4,-3,0,-1,-1,-1,3.365
674,0,0,0,1,0,-1,0,-2,3.37
675,-1,1,-2,0,-1,-1,-2,-1,3.375
676,-3,-3,0,-1,-1,-1,-2,-1,3.38
677,-1,0,-2,-3,-1,-2,-2,1,3.3850000000000002
678,-1,-2,6,2,1,3,2,0,3.39
679,0,-1,-7,-2,-1,-2,-1,0,3.395
680,0,-2,-1,1,-2,-1,-1,-3,3.4
681,-1,0,0,0,-2,-1,-1,0,3.4050000000000002
682,1,-1,-1,0,-1,-2,-3,0,3.41
683,-1,-2,-2,-3,-2,-4,-2,-1,3.415
684,-2,-3,-2,-3,0,-1,-1,-1,3.42
685,0,0,-2,-2,-3,-2,-2,1,3.4250000000000003
686,-1,0,-2,-4,-1,0,0,-1,3.43
687,-1,2,2,1,1,-3,-2,-1,3.435
688,1,-1,-3,-2,-1,0,-1,0,3.44
689,-1,-3,-1,-2,-1,-1,0,0,3.4450000000000003
690,-1,-1,-2,0,-1,-1,0,0,3.45
691,-2,0,1,1,-1,-2,-1,-2,3.455
692,1,1,-2,-1,-3,-3,0,-1,3.46
693,0,-2,0,-1,-1,0,-1,-1,3.465
694,1,0,-2,2,1,-2,-2,0,3.47
695,-2,-2,1,0,1,0,0,-2,3.475
696,-3,-1,-4,3,0,0,0,0,3.48
697,-2,-2,-1,-6,-2,-2,-3,0,3.485
698,0,1,0,-1,-2,0,-1,0,3.49
699,-2,-2,-3,-3,-1,2,-1,0,3.495
700,-2,0,4,0,-1,-1,0,-1,3.5
701,-1,-1,0,1,-2,-5,3,-2,3.505
702,0,-1,-1,-3,-1,-1,-1,-2,3.5100000000000002
703,2,0,2,1,-1,-1,-2,0,3.515
704,0,0,-4,-3,-1,-1,-1,-1,3.52
705,-1,0,0,0,0,-2,-2,-1,3.525
706,-1,1,-1,0,-2,-2,-1,-1,3.5300000000000002
707,-1,-1,-1,0,-2,-1,1,1,3.535
708,0,0,-2,-2,0,0,1,1,3.54
709,-1,0,-1,0,-2,1,-1,-2,3.545
710,0,-1,-1,3,-2,0,-1,-1,3.5500000000000003
711,0,-2,-2,-5,-1,1,-1,-2,3.555
712,-1,-1,1,-1,-1,-1,-2,-1,3.56
713,0,-1,-3,0,-2,1,-2,0,3.565
714,-2,-1,-2,0,-1,-1,0,-1,3.5700000000000003
715,-3,0,0,1,-2,-2,-1,-1,3.575
716,-2,-3,-1,-2,-2,-4,-1,-2,3.58
717,-1,-1,2,1,0,1,-1,-2,3.585
718,-2,-4,-6,-3,0,-3,-3,-2,3.59
719,1,0,-1,-1,1,0,-2,-1,3.595
720,0,0,-8,-3,-2,-3,0,0,3.6
721,-3,-2,5,1,0,-3,-4,-1,3.605
722,-1,-2,1,-1,-2,1,1,1,3.61
723,0,0,-3,-2,-1,-1,-1,-1,3.615
724,-1,-1,1,1,0,2,-1,-2,3.62
725,-2,-2,-6,-4,0,0,0,0,3.625
726,1,1,2,0,-1,0,-2,-1,3.63
727,0,0,0,-3,-3,-1,-1,0,3.6350000000000002
728,1,0,0,2,-1,1,0,-1,3.64
729,0,-2,-3,-5,-1,0,-1,1,3.645
730,-1,-2,0,0,-2,-3,-1,-1,3.65
731,0,1,1,0,1,1,-1,-1,3.6550000000000002
732,-2,0,-1,-1,-1,0,-1,0,3.66
733,-1,1,-1,0,-1,0,0,0,3.665
734,0,0,-5,2,1,-1,-2,2,3.67
735,-2,-4,-2,-2,-4,-3,-2,0,3.6750000000000003
736,-2,-1,1,-4,-1,3,-2,0,3.68
737,-1,0,-2,0,1,1,1,0,3.685
738,-1,0,0,-1,0,-3,-1,-1,3.69
739,1,0,4,2,2,2,3,0,3.6950000000000003
740,-1,-2,-3,-2,0,-5,-1,-1,3.7
741,0,-1,-3,-2,0,-4,-3,1,3.705
742,0,0,1,-1,-2,1,2,-2,3.71
743,-4,-1,-4,-2,-1,0,-1,-3,3.715
744,-2,-2,1,2,-1,0,0,-1,3.72
745,1,1,-3,0,0,1,1,0,3.725
746,-2,-1,0,-1,-2,-2,-2,0,3.73
747,0,0,-3,1,-1,1,-1,0,3.735
748,0,-1,1,-2,0,0,-1,0,3.74
749,0,1,-2,-1,1,-3,-3,-2,3.745
750,0,1,6,2,-1,-2,0,0,3.75
751,-2,-2,-9,-1,0,3,0,-1,3.755
752,-1,0,0,1,-1,-1,-1,1,3.7600000000000002
753,-1,0,0,0,-1,0,1,-1,3.765
754,-1,-1,0,-3,-1,-3,-3,-1,3.77
755,-2,1,1,1,1,0,-1,-1,3.775
756,1,0,-2,-3,-1,0,-1,-1,3.7800000000000002
757,-2,1,4,2,-2,-2,0,0,3.785
758,-1,-3,-7,-7,-2,1,1,1,3.79
759,0,0,4,2,0,-2,0,-1,3.795
760,0,0,-2,-2,-1,-1,0,-1,3.8000000000000003
761,0,-2,1,0,0,-1,0,-2,3.805
762,-1,-2,-6,-1,-1,-1,-4,-2,3.81
763,0,1,5,0,-2,-3,1,1,3.815
764,-1,-1,1,0,-3,-1,-1,-1,3.8200000000000003
765,-1,-1,-5,-4,-2,0,-1,-3,3.825
766,-1,-2,-3,-3,-2,-2,0,-1,3.83
767,0,-1,-2,-4,-2,-4,-2,-2,3.835
768,-1,0,7,1,-1,0,-1,-1,3.84
769,-1,-3,-9,-2,-2,-2,1,0,3.845
770,2,0,2,2,0,-1,0,-1,3.85
771,1,-1,1,0,-2,-3,-3,0,3.855
772,-1,-1,-1,0,1,0,-1,1,3.86
773,-3,-1,1,1,-3,-4,-1,-2,3.865
774,-2,1,-1,1,1,1,0,0,3.87
775,-2,-2,-5,-3,0,-2,-1,-1,3.875
776,0,1,-1,1,1,0,-1,-2,3.88
777,0,-1,2,-2,0,2,-1,-1,3.8850000000000002
778,-3,-1,0,0,1,0,1,0,3.89
779,0,-2,-2,-2,-1,-1,0,-2,3.895
780,-2,-1,-3,-2,-1,0,0,-1,3.9
781,1,-2,1,-2,-2,-1,-1,-1,3.9050000000000002
782,-1,-2,-4,-3,-2,0,0,-1,3.91
783,-2,-2,-1,1,0,-1,-1,0,3.915
784,0,0,-6,-4,1,0,0,1,3.92
785,0,1,11,3,-2,-3,-2,-2,3.9250000000000003
786,-2,-2,-2,-1,-3,-2,-3,-1,3.93
787,1,-2,-1,2,1,1,-1,-1,3.935
788,-1,-2,-2,-2,-2,-1,0,-1,3.94
789,0,-1,-5,-7,-3,2,1,1,3.9450000000000003
790,-1,2,0,-1,-1,-4,-1,-1,3.95
791,-1,-1,-1,0,0,3,1,-1,3.955
792,1,-3,-1,0,-1,-2,-2,0,3.96
793,0,-2,-1,6,1,2,0,-1,3.9650000000000003
794,2,-1,-3,-7,-3,0,-1,0,3.97
795,-1,-1,-3,-2,1,-1,-1,1,3.975
796,0,2,1,-1,-1,-2,-2,-1,3.98
797,-1,-1,0,0,-1,0,-3,-1,3.985
798,-1,-2,-1,-1,0,1,0,-1,3.99
799,0,1,0,0,-1,0,-3,-1,3.995
800,-1,-1,-1,-1,-1,0,0,0,4.0
801,0,0,-4,-2,-1,-1,-1,-1,4.005
802,-3,-1,-1,2,0,0,1,-1,4.01
803,0,2,-2,-2,-3,-3,-1,-1,4.015
804,-1,-2,1,3,0,0,1,-2,4.0200000000000005
805,-1,-2,3,-4,-2,-2,0,-2,4.025
806,-1,-2,-7,-2,0,-1,-1,-1,4.03
807,0,0,1,1,-1,-1,1,1,4.035
808,0,0,-2,-1,-1,-2,-2,-1,4.04
809,1,-1,-1,-1,0,0,-3,-2,4.045
810,-1,0,1,-1,-1,0,-1,-1,4.05
811,-1,0,3,0,-1,0,-1,1,4.055
812,-2,-5,-6,-2,-1,-3,-1,0,4.0600000000000005
813,-2,0,-4,-3,-1,3,1,0,4.065
814,-1,0,1,1,0,1,-3,-1,4.07
815,0,-3,-3,-2,-1,-1,0,-3,4.075
816,-1,-1,1,1,0,0,0,0,4.08
817,-1,-1,0,1,0,-1,-1,-1,4.085
818,-1,-3,0,1,-2,1,-1,1,4.09
819,0,-2,0,-1,0,0,-2,0,4.095
820,-1,0,-3,-2,-2,1,-1,0,4.1
821,-1,-2,-4,-2,-1,-3,-1,-2,4.105
822,-1,0,6,1,-1,0,0,0,4.11
823,-1,-2,-1,-1,-2,-2,0,-1,4.115
824,0,-1,-1,-3,-1,-1,-3,-3,4.12
825,0,-2,-2,0,-2,1,1,0,4.125
826,-1,-1,3,-3,-1,0,0,-2,4.13
827,-3,-2,-6,0,0,-2,-3,1,4.135
828,0,1,2,2,1,3,1,0,4.14
829,0,2,-2,1,0,-1,-2,-1,4.1450000000000005
830,-1,0,0,-3,-3,-3,0,1,4.15
831,-3,-1,1,2,-1,-1,-2,-1,4.155
832,-1,0,-2,-4,-2,-1,0,-2,4.16
833,1,-1,-1,0,0,-4,0,1,4.165
834,1,1,-2,2,2,4,0,0,4.17
835,-1,-1,-3,-1,-1,0,0,-1,4.175
836,-1,-3,-1,0,-2,2,0,-2,4.18
837,1,0,1,-2,-2,-2,-1,0,4.1850000000000005
838,0,0,-1,-2,-2,-3,-1,-1,4.19
839,-2,-1,-2,-2,-1,0,-1,-1,4.195
840,0,0,4,2,-2,-2,-2,-1,4.2
841,-1,-2,-2,0,0,0,-1,-1,4.205
842,-1,0,-1,1,-1,-2,0,-2,4.21
843,0,1,0,-1,0,-2,-1,-2,4.215
844,-4,-1,-1,1,0,-1,-3,-1,4.22
845,-2,0,1,-3,-2,-1,0,0,4.225
846,-1,-2,-4,-1,-1,0,-2,1,4.23
847,2,0,0,-1,-2,0,1,-1,4.235
848,2,-1,-1,0,0,-4,-4,-1,4.24
849,-2,0,0,1,0,-1,2,-1,4.245
850,0,1,-1,-2,-1,-2,1,-2,4.25
851,-1,-1,0,-2,0,-1,0,0,4.255
852,-1,1,-3,-2,1,0,1,0,4.26
853,0,-1,0,-2,-2,-3,-3,0,4.265
854,0,0,-1,0,0,2,-1,0,4.2700000000000005
855,0,0,-1,0,-2,-1,1,-1,4.275
856,0,-3,-2,-3,1,1,-1,-1,4.28
857,2,0,-2,0,0,0,-1,0,4.285
858,0,0,-2,-1,-2,-1,-2,-2,4.29
859,-1,0,2,1,0,-3,-1,-2,4.295
860,1,0,-2,-2,-3,-2,0,-1,4.3
861,0,-1,-2,-1,-2,0,-1,-1,4.305
862,0,-2,-2,-1,-1,-1,-2,1,4.3100000000000005
863,-2,0,1,0,0,-1,-2,-2,4.315
864,0,1,2,4,2,-2,0,-1,4.32
865,-1,-3,3,-4,-2,-1,0,-1,4.325
866,2,1,-5,2,-2,-1,1,1,4.33
867,-1,0,1,0,-1,0,1,0,4.335
868,0,-1,1,-2,-3,-1,1,0,4.34
869,-1,-2,0,0,-2,0,0,-1,4.345
870,0,0,1,1,1,0,-3,-1,4.3500000000000005
871,-2,-1,-3,-2,-3,-4,2,0,4.355
872,-1,-2,2,0,1,1,-1,-2,4.36
873,-1,-2,-2,1,0,0,-3,-1,4.365
874,-2,-2,-1,-1,-1,-1,-1,-2,4.37
875,1,-1,-6,-4,-1,-2,-1,-1,4.375
876,-2,-1,0,-3,1,1,0,0,4.38
877,0,2,-1,2,1,-3,0,-1,4.385
878,-2,-4,3,1,-1,0,1,-1,4.39
879,0,-1,-5,-2,-2,1,-2,-1,4.3950000000000005
880,-1,-1,-4,-1,-3,-3,-1,0,4.4
881,0,-1,-2,-2,-2,1,-2,0,4.405
882,-1,1,0,-1,-1,-1,-1,-1,4.41
883,0,-1,1,-1,0,0,-1,-1,4.415
884,-2,-2,-3,-2,-1,-1,0,1,4.42
885,1,2,-2,0,-1,-2,-1,1,4.425
886,1,1,-1,-3,-1,0,0,0,4.43
887,-5,-6,-1,-4,-3,-1,-1,-1,4.4350000000000005
888,-2,-1,-1,1,0,-2,-1,0,4.44
889,0,-1,2,-1,0,-2,1,-2,4.445
890,-2,-1,-1,-1,-2,-1,0,-3,4.45
891,0,3,1,2,-1,-1,-2,0,4.455
892,0,-2,1,2,0,0,3,-3,4.46
893,1,0,-2,-1,-2,0,0,0,4.465
894,-1,-3,-6,-5,-2,-2,-1,-1,4.47
895,1,0,1,0,1,1,-2,-1,4.4750000000000005
896,0,-1,1,0,0,-2,-2,0,4.48
897,-1,-2,-1,1,1,0,1,0,4.485
898,-1,1,-4,-3,0,-1,0,-2,4.49
899,1,0,-2,0,0,-2,1,0,4.495
900,-2,1,-3,-1,-2,-3,-2,-1,4.5
901,-1,-2,-1,-2,0,-1,-1,-1,4.505
902,-1,-1,6,2,0,-2,-2,2,4.51
903,-4,-4,-9,-1,-2,0,-2,-1,4.515
904,1,1,4,2,-1,-1,-1,0,4.5200000000000005
905,-1,-2,-2,0,-2,-1,-1,1,4.525
906,-1,0,1,-2,-1,1,0,-1,4.53
907,-1,2,2,4,2,1,1,1,4.535
908,0,-1,-3,-3,-1,-2,-1,-1,4.54
909,-2,-1,2,3,2,-1,-4,-3,4.545
910,0,-2,-1,0,0,-1,0,-2,4.55
911,0,-4,0,-2,-2,-1,0,-2,4.555
912,0,0,-3,0,-1,1,-2,0,4.5600000000000005
913,-1,0,-2,-1,0,-1,0,-1,4.565
914,-3,-2,-3,-3,0,-3,0,0,4.57
915,-1,-1,0,2,-1,-1,-1,0,4.575
916,0,-1,-1,-2,-2,-3,1,-1,4.58
917,-2,-2,-5,-4,-1,3,-1,0,4.585
918,-1,-4,0,3,0,0,-2,-1,4.59
919,0,-1,-3,-6,-1,-2,-2,-1,4.595
920,0,1,2,0,-2,0,-2,-1,4.6000000000000005
921,-1,1,1,-1,0,-3,0,0,4.605
922,0,0,-1,-2,1,-3,-1,-1,4.61
923,-1,1,0,0,2,0,0,-2,4.615
924,-1,-3,-5,-5,-3,-1,0,-2,4.62
925,0,1,-2,-2,1,1,1,0,4.625
926,-3,-4,2,0,-1,-2,-1,-2,4.63
927,0,-2,0,-1,-2,-5,-1,0,4.635
928,-1,-1,-1,0,-1,1,-2,-2,4.64
929,-1,0,-1,-1,-2,-2,-3,-2,4.6450000000000005
930,2,1,-3,2,-1,-1,-1,0,4.65
931,-1,1,-2,0,1,4,1,0,4.655
932,-1,-2,0,2,0,-1,-1,0,4.66
933,-3,-4,-3,-1,-1,-3,0,-1,4.665
934,1,-1,-1,-1,-1,-2,-2,1,4.67
935,1,0,0,0,-2,4,-2,-1,4.675
936,0,-2,-1,1,1,1,0,-1,4.68
937,-2,1,5,-2,-1,-2,-1,1,4.6850000000000005
938,0,-3,-7,1,-2,-2,0,0,4.69
939,-2,1,1,-1,-1,-1,0,0,4.695
940,-3,1,-3,-2,0,-4,0,0,4.7
941,0,1,1,1,0,-2,-1,-1,4.705
942,-1,0,-2,-2,-1,1,1,-1,4.71
943,2,0,0,-2,0,-1,0,-2,4.715
944,0,-3,1,1,0,-1,-1,0,4.72
945,-2,-2,-1,-3,-2,-1,-1,-1,4.7250000000000005
946,0,-2,0,3,0,0,1,0,4.73
947,0,-1,-2,-3,0,-5,-1,0,4.735
948,-1,-2,0,-1,-1,0,-1,0,4.74
949,1,-1,-2,4,1,1,-1,-1,4.745
950,0,1,0,-3,-2,-2,-4,-1,4.75
951,-1,-3,0,0,0,-1,2,-3,4.755
952,1,1,0,0,0,1,0,-1,4.76
953,1,-2,-2,-1,-1,-1,0,-2,4.765
954,-2,-1,0,0,0,0,-2,-1,4.7700000000000005
955,-2,-1,1,1,0,-3,-1,0,4.775
956,-3,-1,0,-1,-2,0,-1,-1,4.78
957,-2,-2,-4,-2,-1,-4,-1,-2,4.785
958,1,1,4,-2,0,3,-1,-1,4.79
959,-2,-2,-2,-1,-2,0,-3,0,4.795
960,1,-1,0,-2,-3,-1,-1,-1,4.8
961,-1,-1,-1,-1,-2,1,0,-1,4.805
962,-3,-2,-1,0,-1,-3,0,0,4.8100000000000005
963,-1,-1,-1,-1,-2,1,-1,0,4.815
964,0,1,-3,-2,2,0,1,-1,4.82
965,-1,-1,-2,-1,-2,-2,-1,0,4.825
966,0,-1,2,1,1,-2,-1,-1,4.83
967,0,1,-2,0,0,0,-1,-1,4.835
968,-2,-3,-6,-3,-3,0,-2,-2,4.84
969,0,0,-2,-2,-1,2,-1,0,4.845
970,1,-1,1,-1,-1,-3,-1,0,4.8500000000000005
971,-1,1,0,2,1,0,2,-1,4.855
972,-1,-1,4,-1,-2,-3,-2,-1,4.86
973,-2,0,-1,1,0,-2,0,-1,4.865
974,-1,-2,-3,-1,-1,1,0,-1,4.87
975,-2,-2,1,-1,-1,-4,-2,-2,4.875
976,0,-1,-6,-4,0,4,0,-1,4.88
977,0,1,7,1,0,-1,-1,-1,4.885
978,0,-1,-2,-3,0,0,1,-2,4.89
979,1,-1,0,-2,-2,-1,-1,0,4.8950000000000005
980,-2,-1,-3,0,-1,0,-2,1,4.9
981,-1,-2,-5,0,0,-2,-1,-1,4.905
982,1,0,0,-2,-3,-1,1,0,4.91
983,-2,0,-2,-1,0,2,-2,-1,4.915
984,-2,-3,2,3,2,-5,0,0,4.92
985,-2,-1,-1,-2,-2,0,-2,-1,4.925
986,-3,0,-5,-3,-2,1,0,-2,4.93
987,0,-2,-3,-3,-2,-2,-3,0,4.9350000000000005
988,0,0,0,0,-1,-2,2,-2,4.94
989,-2,-1,-2,-2,0,-3,0,0,4.945
990,-2,1,1,3,-2,3,0,-2,4.95
991,-1,-1,-1,-3,-1,0,-1,-1,4.955
992,1,0,-1,-2,-3,-1,-1,0,4.96
993,-1,-2,-2,0,-1,0,0,-1,4.965
994,-1,0,0,0,-1,-4,0,0,4.97
995,0,1,0,1,-1,0,0,-1,4.9750000000000005
996,0,0,-1,1,0,0,0,0,4.98
997,0,0,-2,-2,-1,0,0,-1,4.985
998,-1,-1,1,-2,-2,-1,1,-1,4.99
999,-1,0,-2,4,0,-1,-2,-2,4.995
1000,-2,-3,0,-1,0,-1,0,-1,5.0
1001,1,-2,-3,-3,-2,1,0,-1,5.005
1002,0,0,-1,-1,1,-5,-3,0,5.01
1003,0,-1,3,-3,0,-2,0,0,5.015
1004,0,-1,-5,3,1,-1,-1,-3,5.0200000000000005
1005,-1,0,-3,-2,-1,2,0,-1,5.025
1006,-2,-1,0,0,2,1,-1,-1,5.03
1007,1,3,1,1,-1,-2,-2,-2,5.035
1008,0,-1,1,-3,-1,-1,2,0,5.04
1009,0,0,0,2,1,-1,0,1,5.045
1010,-3,-2,-2,-2,-1,0,-1,-1,5.05
1011,0,-3,-2,-3,0,1,1,-1,5.055
1012,-1,0,0,0,0,0,-2,-1,5.0600000000000005
1013,1,1,-1,-2,-2,-3,-2,-1,5.065
1014,-2,-3,0,-1,-2,0,-1,0,5.07
1015,-2,-3,-1,-1,-2,-1,1,-1,5.075
1016,1,1,-3,-2,-1,-3,1,0,5.08
1017,1,-1,0,-3,-1,0,0,-2,5.085
1018,-2,0,-2,0,-1,-6,0,-1,5.09
1019,-3,-1,0,1,-2,-1,-1,1,5.095
1020,-3,-3,-4,-2,-1,-2,-2,-2,5.1000000000000005
1021,-3,-2,-1,0,0,1,0,0,5.105
1022,0,-1,0,-2,-1,2,-1,0,5.11
1023,-1,-1,0,0,-1,-1,-1,0,5.115
1024,-3,2,7,0,0,0,0,-1,5.12
1025,0,-1,-11,-2,-2,-2,0,-1,5.125
1026,-2,-2,-2,0,-2,-1,-1,1,5.13
1027,-3,-2,-2,-3,0,-2,0,-1,5.135
1028,2,-1,0,-1,-2,-1,-3,-1,5.14
1029,-1,1,5,2,2,5,1,0,5.1450000000000005
1030,0,1,0,-3,-1,0,-1,-1,5.15
1031,-1,1,-2,2,1,-2,0,-1,5.155
1032,-2,-2,-2,0,0,0,-1,0,5.16
1033,-1,-2,2,2,-2,-3,-1,-1,5.165
1034,0,-6,-1,-2,-2,0,-1,-1,5.17
1035,0,2,1,0,0,-1,-3,0,5.175
1036,0,-2,-2,1,-2,-3,-2,0,5.18
1037,-2,-2,-6,-5,-4,-3,-1,-3,5.1850000000000005
1038,-3,0,-1,2,0,0,0,-1,5.19
1039,-3,-1,-2,-2,-1,-1,0,0,5.195
1040,-1,0,1,-1,0,0,1,0,5.2
1041,0,-2,-1,0,1,-2,-2,0,5.205
1042,1,1,-2,0,1,-3,0,-1,5.21
1043,-2,-2,1,1,-2,1,-1,0,5.215
1044,0,0,-8,-1,-1,1,-2,-1,5.22
1045,-2,-2,2,-4,-3,0,-1,-1,5.2250000000000005
1046,-1,1,1,-2,-2,-3,-2,0,5.23
1047,0,-1,-1,0,1,4,-1,1,5.235
1048,-1,1,0,1,1,0,0,-1,5.24
1049,-2,-2,0,0,-1,0,-3,-1,5.245
1050,1,-1,-5,-1,-1,-2,-1,-1,5.25
1051,-1,0,-1,0,-2,0,0,0,5.255
1052,-2,-3,-2,-5,0,-1,-2,-2,5.26
1053,0,-1,2,4,1,-1,1,1,5.265
1054,0,-1,0,-3,-2,-2,0,0,5.2700000000000005
1055,1,1,-2,-1,-3,-2,0,-1,5.275
1056,-2,1,3,-1,-2,0,1,-1,5.28
1057,-1,2,-2,1,-1,-3,-1,1,5.285
1058,-1,-1,-3,-5,-2,1,-1,-1,5.29
1059,0,-1,-1,1,2,-1,-1,-3,5.295
1060,0,-1,-1,-2,-4,0,-1,0,5.3
1061,-1,-1,-1,-3,0,-1,0,0,5.305
1062,0,0,2,1,-1,1,-1,-1,5.3100000000000005
1063,0,-3,5,-2,-1,-2,-2,-2,5.315
1064,-1,-4,-8,3,-1,-1,-1,-1,5.32
1065,-1,0,0,2,-2,0,-1,-2,5.325
1066,-2,-1,-2,0,0,0,-1,-1,5.33
1067,1,0,-5,-5,-3,-3,0,-1,5.335
1068,-1,0,2,-1,1,0,-2,-1,5.34
1069,1,-1,2,-1,-2,-1,1,-1,5.345
1070,-2,-2,-3,-1,-2,2,-1,0,5.3500000000000005
1071,-2,-2,1,2,1,-2,-1,0,5.355
1072,-1,-1,1,0,0,-1,0,0,5.36
1073,0,0,-5,-3,-1,-1,-2,-2,5.365
1074,0,-1,2,3,0,-1,1,0,5.37
1075,0,-2,-1,-1,-2,0,0,-1,5.375
1076,0,1,-1,-1,-2,0,0,-3,5.38
1077,-2,-1,0,0,0,0,-2,-1,5.385
1078,-3,-1,-1,-2,-1,-1,-1,-3,5.39
1079,-1,-1,-3,-2,-2,1,-2,0,5.3950000000000005
1080,-2,-1,1,-2,-2,1,0,-1,5.4
1081,-1,-2,2,2,0,-2,0,0,5.405
1082,0,2,2,-2,-1,0,-2,-2,5.41
1083,-1,-2,-3,2,0,-1,2,-2,5.415
1084,-1,0,0,-4,-2,-2,-1,0,5.42
1085,-1,-3,-3,0,-1,1,0,-1,5.425
1086,0,0,-1,-1,0,-2,-2,0,5.43
1087,1,-2,0,0,1,-2,2,-1,5.4350000000000005
1088,0,0,1,3,-1,-1,0,0,5.44
1089,-1,-1,-1,-3,-1,-1,-1,-1,5.445
1090,-1,0,0,2,0,0,0,0,5.45
1091,-1,-1,-6,-5,-3,-2,-2,0,5.455
1092,1,-1,0,-1,0,-2,-1,-1,5.46
1093,-2,-1,-1,-2,-2,-1,-1,1,5.465
1094,-1,0,0,-1,0,-2,-1,0,5.47
1095,-3,-1,0,0,-2,-2,-2,-1,5.4750000000000005
1096,0,0,0,-2,0,0,0,0,5.48
1097,-1,0,-1,-4,-1,0,-1,-1,5.485
1098,1,0,0,1,1,-2,1,0,5.49
1099,0,-2,-1,0,-1,-1,0,1,5.495
1100,-2,-1,-2,-2,-2,-2,-1,0,5.5
1101,0,-1,4,2,-2,-1,-1,-1,5.505
1102,-1,-1,-10,0,-1,1,0,-1,5.51
1103,-1,-1,3,-2,1,0,-1,-2,5.515
1104,0,-2,0,0,-2,0,-1,-1,5.5200000000000005
1105,-2,0,-1,0,0,-2,-3,-2,5.525
1106,0,1,2,-3,-4,1,1,-1,5.53
1107,-2,-1,-4,-3,-1,2,0,-1,5.535
1108,-1,-3,-4,-2,-2,-2,-1,-1,5.54
1109,0,2,2,-1,-1,-2,2,0,5.545
1110,-1,-3,0,1,-1,0,-1,-1,5.55
1111,0,0,0,1,1,-2,0,-2,5.555
1112,-2,-1,-2,-3,-1,-1,0,-2,5.5600000000000005
1113,0,-1,-3,-1,-1,-1,0,-1,5.565
1114,-2,0,-1,1,0,0,-1,0,5.57
1115,1,2,6,3,0,1,0,-1,5.575
1116,0,-1,0,-1,1,-1,-2,0,5.58
1117,0,-2,-3,-1,-2,-2,0,0,5.585
1118,1,-2,-2,-2,-3,0,0,0,5.59
1119,-1,1,-2,-1,-3,0,-1,-1,5.595
1120,1,-1,7,0,0,0,-1,-1,5.6000000000000005
1121,-1,0,-10,-1,0,0,1,-1,5.605
1122,-1,0,0,-1,0,-3,-3,-1,5.61
1123,0,0,0,-1,-3,-2,-3,-1,5.615
1124,-2,-1,-2,1,-1,-2,-1,-1,5.62
1125,-2,0,0,0,0,-2,-5,-1,5.625
1126,1,0,1,0,0,0,1,-2,5.63
1127,-1,-2,-4,-1,-1,-2,-2,-1,5.635
1128,0,1,-1,0,-2,-1,-1,-2,5.64
1129,-1,-3,-1,-1,-1,-2,0,-1,5.6450000000000005
1130,-2,0,-2,-1,-2,-2,-1,0,5.65
1131,0,0,1,-2,0,-1,0,2,5.655
1132,-1,-1,-3,-2,-2,1,0,0,5.66
1133,-1,-3,1,-2,-2,0,-2,-2,5.665
1134,-3,-2,0,-2,-2,-2,0,-2,5.67
1135,-1,-2,-6,-8,-3,-1,0,0,5.675
1136,-1,-1,-1,1,0,-3,-1,0,5.68
1137,0,0,0,1,1,2,1,-1,5.6850000000000005
1138,-2,0,1,0,1,-2,1,0,5.69
1139,0,-1,-1,1,0,-1,0,-2,5.695
1140,-3,-1,0,-3,-1,1,-1,-1,5.7
1141,1,1,5,0,-3,0,-1,0,5.705
1142,0,-2,-3,-2,-2,1,0,-1,5.71
1143,-1,-2,-2,-1,1,-1,-1,-3,5.715
1144,1,0,-2,-1,0,1,-2,0,5.72
1145,-2,-1,4,2,-1,-1,-1,-3,5.7250000000000005
1146,0,1,-1,-2,-1,-2,-2,0,5.73
1147,-1,-2,2,0,-2,-2,-1,-1,5.735
1148,1,-3,-2,-1,-1,1,2,0,5.74
1149,0,-1,-3,-1,-2,-2,1,0,5.745
1150,-2,-1,0,1,0,-1,-2,-2,5.75
1151,-1,-2,-3,-1,-1,1,-2,-1,5.755
1152,-1,-2,1,-2,-1,-1,-1,0,5.76
1153,2,-1,-3,-3,-1,-1,0,1,5.765
1154,-2,-1,1,1,1,0,-2,-3,5.7700000000000005
1155,-2,1,-1,-2,0,-1,-1,2,5.775
1156,0,-1,-1,1,1,-1,1,-2,5.78
1157,-2,-1,-4,-1,-1,1,2,-1,5.785
1158,-1,-1,0,0,-2,-3,0,0,5.79
1159,-2,-1,-1,2,1,-2,-3,-1,5.795
1160,-2,-2,0,1,-1,-1,-2,-2,5.8
1161,0,1,1,-1,-1,0,-3,0,5.805
1162,0,-1,-2,-1,0,-6,-1,-1,5.8100000000000005
1163,-1,-1,-3,1,-1,2,-1,-1,5.815
1164,0,-1,-1,0,-2,-1,-2,-1,5.82
1165,-1,-1,0,2,2,-1,-2,0,5.825
1166,1,-1,-1,0,0,3,-1,-1,5.83
1167,1,2,-1,-2,-1,-1,2,0,5.835
1168,0,-4,-4,-2,-1,-1,-1,0,5.84
1169,-1,1,1,-2,-2,-1,2,-1,5.845
1170,-2,0,-3,-2,-1,1,0,-1,5.8500000000000005
1171,-1,1,1,-3,-1,-2,-3,-2,5.855
1172,0,1,-1,0,0,-1,-1,0,5.86
1173,1,0,0,-1,0,-2,-2,-1,5.865
1174,-1,-2,0,0,1,0,-1,-1,5.87
1175,0,-1,-1,1,-2,-1,1,0,5.875
1176,-2,0,-1,0,0,0,-2,-1,5.88
1177,-2,-2,-2,0,-1,0,0,0,5.885
1178,-1,-2,-1,-3,-2,0,-3,1,5.89
1179,-1,0,-2,0,0,-1,-2,-2,5.8950000000000005
1180,-1,-1,0,1,-1,-1,0,-1,5.9
1181,0,-2,1,-1,-1,-3,0,-2,5.905
1182,0,1,0,-2,0,0,1,0,5.91
1183,-3,-3,2,1,-1,-2,-3,2,5.915
1184,-1,2,1,-1,-1,0,-1,0,5.92
1185,0,-1,-1,-2,0,-1,-3,0,5.925
1186,-2,-1,0,0,-2,-1,-1,0,5.93
1187,-1,-1,-2,-1,-1,-1,1,-2,5.9350000000000005
1188,-1,-1,-1,0,-3,-2,-1,-2,5.94
1189,-1,0,1,-1,0,0,-2,-1,5.945
1190,1,-1,-6,0,-2,-2,-1,-1,5.95
1191,0,0,2,-1,-1,0,1,-1,5.955
1192,-1,-1,0,-2,0,2,1,-2,5.96
1193,-2,-1,-3,-2,-1,1,0,0,5.965
1194,0,1,0,-1,-2,-2,1,1,5.97
1195,1,-1,-4,-1,0,-1,0,0,5.9750000000000005
1196,-2,-3,-1,-3,-3,-1,-1,-2,5.98
1197,-2,-1,1,-1,-1,1,-1,0,5.985
1198,-1,-1,1,3,0,0,-2,-1,5.99
1199,-2,-2,-4,-4,-2,-1,0,0,5.995
1200,-1,-1,0,-5,1,-1,-1,-1,6.0
1201,2,-1,-2,0,-2,-1,-1,0,6.005
1202,-1,-3,0,-2,-1,0,0,-2,6.01
1203,1,2,0,1,0,-2,1,0,6.015000000000001
1204,1,1,-2,-1,-1,-1,-1,-1,6.0200000000000005
1205,-2,-2,-1,0,0,-1,-1,-1,6.025
1206,0,-1,2,1,-1,-2,0,-1,6.03
1207,0,-1,-2,-3,-1,1,-1,0,6.035
1208,-2,-2,-2,0,0,-3,0,1,6.04
1209,-3,0,0,1,-2,-2,-1,-1,6.045
1210,0,-1,3,2,0,0,-1,-1,6.05
1211,-1,0,1,0,-2,-1,-1,1,6.055
1212,1,1,6,1,-1,-3,-2,1,6.0600000000000005
1213,1,-1,-13,-2,-1,-1,1,0,6.065
1214,-2,1,2,-1,0,-2,-1,-1,6.07
1215,-1,0,0,1,-2,1,-2,-2,6.075
1216,0,0,-2,-2,-2,2,0,-2,6.08
1217,-1,-1,2,0,0,-4,-1,-1,6.085
1218,-2,0,-2,-2,-2,-1,-1,-1,6.09
1219,0,-1,1,-4,0,0,-1,0,6.095
1220,-1,-2,-1,2,-1,-1,-1,-1,6.1000000000000005
1221,2,1,1,1,-1,-1,-1,-1,6.105
1222,1,1,-4,-3,-1,1,1,0,6.11
1223,0,-1,3,0,1,-2,-1,-1,6.115
1224,-1,-1,0,0,-2,-2,-3,-1,6.12
1225,-1,0,-1,0,0,4,-2,0,6.125
1226,-1,-1,0,0,-1,-1,-1,-1,6.13
1227,0,-1,0,2,-1,0,-1,-1,6.135
1228,-1,1,-1,-2,-3,-2,1,-1,6.140000000000001
1229,-4,-3,0,-2,0,-2,1,-1,6.1450000000000005
1230,2,1,-3,-2,-2,-2,-3,-1,6.15
1231,-1,-1,-2,0,0,-1,2,-2,6.155
1232,0,-1,-2,-2,-1,0,0,-1,6.16
1233,0,0,-1,-2,-2,-1,-2,-2,6.165
1234,-1,-1,-3,0,-1,1,0,-2,6.17
1235,-1,0,0,-1,0,-2,-1,-1,6.175
1236,0,-1,-2,0,0,1,0,-1,6.18
1237,-1,1,6,-1,-2,2,1,-1,6.1850000000000005
1238,0,-3,-4,1,-1,-1,-1,1,6.19
1239,-3,-2,-1,-1,0,-1,1,-1,6.195
1240,-1,0,-1,-2,1,0,-1,0,6.2
1241,-1,-1,-1,-1,-2,-2,-1,-2,6.205
1242,-1,-1,0,-1,-2,0,-2,-1,6.21
1243,0,0,-1,-1,-2,-2,-1,-1,6.215
1244,-1,-2,1,1,1,-1,0,0,6.22
1245,-4,-2,-6,-1,-1,-5,-1,-1,6.2250000000000005
1246,-1,-1,1,0,2,2,0,0,6.23
1247,-2,-2,-2,-2,-2,-1,1,-2,6.235
1248,0,0,-1,0,0,0,-1,-1,6.24
1249,-1,0,-1,-1,-1,-2,0,0,6.245
1250,-2,1,0,-1,0,-1,1,-1,6.25
1251,-1,3,0,-1,-2,0,0,0,6.255
1252,-1,-1,-1,0,0,0,1,-3,6.26
1253,0,-1,-1,0,-2,0,-1,-1,6.265000000000001
1254,0,-1,-2,-3,-2,0,-1,-2,6.2700000000000005
1255,-1,-1,-3,0,0,-1,-1,-1,6.275
1256,-1,-2,-1,0,-3,-1,-1,-1,6.28
1257,0,-1,-5,-2,-1,0,-1,-2,6.285
1258,-1,-1,1,2,-1,-3,-2,-1,6.29
1259,-2,-3,-2,-1,1,1,-1,-1,6.295
1260,-1,-1,0,-2,1,0,0,0,6.3
1261,-1,0,2,-1,1,0,1,1,6.305
1262,-1,0,4,0,-1,-1,-1,-2,6.3100000000000005
1263,-2,-2,-4,4,1,-1,-2,1,6.315
1264,0,-2,-1,-2,0,0,0,1,6.32
1265,-1,-2,0,-1,-2,1,-1,-1,6.325
1266,2,-1,0,0,-2,-5,-1,0,6.33
1267,-1,0,0,0,-3,-1,0,-1,6.335
1268,-2,0,-4,-2,-3,0,0,-2,6.34
1269,0,-1,2,0,1,0,-1,-1,6.345
1270,-3,1,-3,-2,0,-1,-2,0,6.3500000000000005
1271,0,-2,-3,-1,0,-4,-2,1,6.355
1272,0,1,-3,-2,0,2,-1,2,6.36
1273,0,-2,-2,-3,-3,1,-1,-2,6.365
1274,-2,-1,1,0,-1,0,1,-2,6.37
1275,1,0,0,-2,-1,1,-1,0,6.375
1276,-1,0,0,4,-2,-1,-1,-3,6.38
1277,-2,-2,-1,-1,0,-3,-3,-1,6.385
1278,1,0,-1,-2,0,1,0,0,6.390000000000001
1279,-1,-2,-1,-1,-2,-2,-3,-2,6.3950000000000005
1280,-1,-2,1,-3,0,-2,1,-1,6.4
1281,-2,-1,0,0,-1,1,0,0,6.405
1282,-2,-1,-2,0,-2,-1,0,-2,6.41
1283,-1,0,0,-3,-1,-1,-1,0,6.415
1284,0,-2,-4,-2,-1,-2,-3,-2,6.42
1285,2,0,-1,3,-1,-2,0,0,6.425
1286,-2,-3,-3,-5,-3,-2,-3,1,6.43
1287,-1,-4,0,0,-2,-1,0,-1,6.4350000000000005
1288,0,0,0,-2,-2,-1,-1,1,6.44
1289,-1,1,1,-2,-2,-1,-1,-2,6.445
1290,-1,0,-1,0,2,-1,-1,0,6.45
1291,0,-1,2,-1,-1,3,1,-3,6.455
1292,-1,-1,-2,-1,-2,-2,-2,-1,6.46
1293,0,-1,0,-1,-2,1,-1,-2,6.465
1294,-2,-3,-1,0,0,-1,-1,-1,6.47
1295,-1,0,-1,-2,-2,-1,-1,1,6.4750000000000005
1296,-2,0,3,1,-1,-2,1,0,6.48
1297,-1,-1,-3,-2,-2,-1,-1,-2,6.485
1298,-1,-2,-1,-4,-2,2,-2,-1,6.49
1299,0,0,-2,-2,-1,0,0,1,6.495
1300,0,-1,0,-2,-1,2,-2,-1,6.5
1301,-1,-1,-4,-2,1,-5,-2,1,6.505
1302,-1,2,1,0,0,2,1,0,6.51
1303,-2,-1,-1,-1,-1,-1,-1,-2,6.515000000000001
1304,-2,-1,-2,2,-2,0,0,0,6.5200000000000005
1305,-1,2,-1,0,0,-1,-3,-1,6.525
1306,-3,-3,-2,-1,0,1,0,-2,6.53
1307,-1,2,2,1,0,-1,-1,-2,6.535
1308,1,-2,-1,-1,1,0,0,-1,6.54
1309,0,-1,0,0,0,1,0,-1,6.545
1310,0,-1,1,-1,-3,-4,-1,0,6.55
1311,-1,0,-3,0,-1,-2,-1,-2,6.555
1312,-2,-2,2,0,-1,-2,-1,-1,6.5600000000000005
1313,-1,-1,0,-3,-1,0,-1,-1,6.565
1314,-1,0,0,0,-1,-3,0,-4,6.57
1315,-1,0,0,1,-1,0,-1,0,6.575
1316,0,-1,-3,0,0,0,-2,-1,6.58
1317,-2,-1,-2,-2,0,0,-2,0,6.585
1318,0,1,0,0,-1,-1,0,0,6.59
1319,-1,-2,-1,-1,-1,-1,-2,0,6.595
1320,-1,0,1,1,0,-1,-2,-1,6.6000000000000005
1321,-2,-2,1,2,0,0,0,-1,6.605
1322,0,-1,-4,-1,-1,-2,-2,-1,6.61
1323,0,0,6,-1,0,0,-1,1,6.615
1324,-2,-3,-5,-1,-2,0,0,-1,6.62
1325,0,-1,-1,0,-1,-2,1,-1,6.625
1326,-1,-1,0,2,1,2,0,-1,6.63
1327,0,-2,-3,0,-2,-1,0,-2,6.635
1328,-1,-2,1,-7,-4,-1,-1,-2,6.640000000000001
1329,0,1,4,2,0,0,-2,-2,6.6450000000000005
1330,-1,-1,-2,-1,-2,-1,-2,1,6.65
1331,0,-2,-2,0,0,0,-1,-1,6.655
1332,0,-1,-1,0,0,-1,0,0,6.66
1333,-2,-2,-4,-1,0,-1,-1,-1,6.665
1334,0,-2,-3,-1,1,-1,-1,-1,6.67
1335,0,0,-2,-3,0,0,0,1,6.675
1336,0,1,0,1,-1,-1,0,0,6.68
1337,0,-1,0,-5,-3,1,0,0,6.6850000000000005
1338,3,2,0,-1,1,-1,0,0,6.69
1339,-2,-1,1,-2,-1,-1,-1,-1,6.695
1340,-1,-2,-4,1,0,-1,0,-3,6.7
1341,0,-3,-1,-2,-2,-2,1,1,6.705
1342,0,-1,0,1,-1,-1,0,-3,6.71
1343,-4,-1,-3,-2,-1,-3,-2,-2,6.715
1344,1,2,2,-3,-1,1,0,1,6.72
1345,0,-1,-2,-4,-2,-3,-4,-2,6.7250000000000005
1346,-2,-1,-2,0,-2,2,-1,-1,6.73
1347,0,0,0,-3,-2,0,0,-1,6.735
1348,-2,-1,-3,-1,1,-2,-1,0,6.74
1349,-2,-2,-4,-1,-1,-1,0,-1,6.745
1350,-1,-1,6,2,0,0,-1,-1,6.75
1351,-1,-1,-1,1,0,-1,-1,-1,6.755
1352,-3,1,0,-3,-3,-1,-1,-2,6.76
1353,-1,-2,-3,1,1,-1,-3,-1,6.765000000000001
1354,0,0,-4,-4,-2,-2,0,0,6.7700000000000005
1355,1,-1,-2,-1,-2,0,0,0,6.775
1356,-1,-4,-1,-2,0,-2,-1,0,6.78
1357,-1,3,2,3,1,0,0,-1,6.785
1358,-4,0,0,-1,-1,0,-2,-1,6.79
1359,1,-1,-7,0,0,0,1,0,6.795
1360,2,-1,1,0,-1,-1,0,-1,6.8
1361,-2,-1,-1,1,1,-1,2,-2,6.805
1362,-1,-2,1,4,0,0,-3,1,6.8100000000000005
1363,-1,1,-2,-4,0,-3,0,-2,6.815
1364,-2,-1,1,0,-1,-2,-2,0,6.82
1365,-1,-1,-4,-2,-3,0,0,0,6.825
1366,0,-1,-2,-2,0,-3,-2,-2,6.83
1367,0,-1,1,-2,0,2,1,1,6.835
1368,-1,1,-2,-1,0,-1,0,-1,6.84
1369,0,-2,1,-3,0,-2,-1,0,6.845
1370,0,3,0,-1,-1,-2,-1,-2,6.8500000000000005
1371,0,-2,0,2,-1,-3,-3,-3,6.855
1372,-2,1,-2,-2,-1,1,-1,-2,6.86
1373,0,0,1,-2,-3,-1,-2,1,6.865
1374,-1,0,-4,-3,0,0,0,0,6.87
1375,0,-1,-1,2,-1,-1,-1,-1,6.875
1376,1,0,1,0,0,0,0,-2,6.88
1377,-1,0,-2,-3,-2,-1,-1,-1,6.885
1378,-1,-1,7,-1,-1,-2,-1,-2,6.890000000000001
1379,-1,-3,-8,-1,0,0,-2,0,6.8950000000000005
1380,-1,-4,-2,0,0,-2,-1,1,6.9
1381,0,0,-2,-1,-2,-1,-2,-3,6.905
1382,-1,-1,-3,-1,-1,0,0,-1,6.91
1383,-1,0,1,-2,0,-2,-2,-1,6.915
1384,1,0,-2,-2,-2,-1,-2,-1,6.92
1385,0,-1,1,0,0,0,0,-2,6.925
1386,-1,2,-6,0,0,-1,0,1,6.93
1387,-2,-3,2,-3,-2,-2,-2,0,6.9350000000000005
1388,-2,-1,1,-2,0,0,-1,0,6.94
1389,-1,-1,-1,-2,0,1,2,0,6.945
1390,-2,-3,-4,-2,-1,-2,-1,-1,6.95
1391,-1,0,-3,-1,-1,-2,1,0,6.955
1392,-1,1,0,1,-2,0,-1,-1,6.96
1393,-3,0,5,2,0,0,-2,-1,6.965
1394,-2,-4,-7,-3,-1,-1,-1,-1,6.97
1395,0,-1,2,-1,-2,-1,-1,-2,6.9750000000000005
1396,1,-1,-2,2,-1,-1,0,-2,6.98
1397,0,-1,0,-2,-2,-2,-1,0,6.985
1398,0,-2,0,1,-2,-3,-3,0,6.99
1399,1,-1,2,1,0,4,0,0,6.995
1400,0,-3,0,-1,-2,-3,0,-1,7.0
1401,0,0,-2,1,-1,-2,1,-1,7.005
1402,-1,0,2,1,0,0,0,1,7.01
1403,-1,-1,-1,-1,-2,0,0,0,7.015000000000001
1404,0,-1,-1,-1,-1,1,-2,-1,7.0200000000000005
1405,-1,-3,-4,-2,-1,0,-1,1,7.025
1406,-1,-3,-3,-2,-2,0,0,-1,7.03
1407,-1,-1,0,-1,1,-2,0,-2,7.035
1408,0,0,0,-1,-2,1,-1,-3,7.04
1409,-1,0,3,4,1,-1,-1,-1,7.045
1410,0,-1,1,-1,0,1,-2,-2,7.05
1411,-1,-2,-4,-2,-4,-1,-2,-1,7.055
1412,-2,-2,-2,-2,0,0,0,0,7.0600000000000005
1413,-1,-1,2,1,-2,0,-1,-1,7.065
1414,0,-2,-2,-1,0,-2,-1,-1,7.07
1415,-1,0,2,1,-2,1,1,1,7.075
1416,0,-1,-1,2,0,-1,-1,0,7.08
1417,0,-1,-5,-6,-2,-2,0,-1,7.085
1418,-1,0,-3,-2,-1,-1,-1,-1,7.09
1419,-3,-4,1,-2,-2,-4,-3,-3,7.095
1420,1,-1,-1,-2,-2,-2,-3,0,7.1000000000000005
1421,0,1,1,4,0,-2,-3,-2,7.105
1422,0,-2,0,-2,0,1,3,0,7.11
1423,1,2,0,0,-1,-1,-1,-1,7.115
1424,0,0,4,-3,-1,-1,-1,-1,7.12
1425,1,0,-10,-3,-3,-2,0,-3,7.125
1426,0,1,2,0,-2,-2,-2,1,7.13
1427,0,0,0,2,2,1,0,0,7.135
1428,-1,-1,1,0,-1,-2,-2,0,7.140000000000001
1429,0,-2,-1,-1,1,0,-2,0,7.1450000000000005
1430,0,0,0,1,-1,2,1,0,7.15
1431,-2,-1,-4,-3,-2,0,1,-2,7.155
1432,0,-1,-3,-2,-1,0,0,0,7.16
1433,0,-2,0,2,1,-2,-4,-1,7.165
1434,-1,-1,-2,-3,-3,1,1,-2,7.17
1435,0,-1,1,2,-1,-2,-1,-1,7.175
1436,-2,0,-2,-2,0,0,-2,-1,7.18
1437,0,0,1,1,-2,-1,0,1,7.1850000000000005
1438,-1,-1,0,0,-1,-2,-2,-1,7.19
1439,1,2,-2,-3,-1,-2,-1,-1,7.195
1440,-2,0,-2,0,0,-1,1,0,7.2
1441,-1,0,0,-2,-2,-2,0,0,7.205
1442,-1,1,4,0,0,3,-1,-2,7.21
1443,0,-2,-8,-3,-1,0,-2,0,7.215
1444,0,-4,-1,3,-1,1,-1,-2,7.22
1445,-1,1,1,-1,-1,2,0,1,7.2250000000000005
1446,0,1,-2,1,-1,-4,-2,-2,7.23
1447,0,-1,1,1,0,0,1,-3,7.235
1448,-2,-1,-2,-3,1,-1,-1,0,7.24
1449,0,0,-3,0,-2,-1,-2,-1,7.245
1450,-1,-1,-1,0,-1,-1,0,0,7.25
1451,-1,-1,0,-1,0,-1,-1,-1,7.255
1452,1,0,-1,-1,0,-1,-1,0,7.26
1453,-3,-2,0,0,-2,1,-1,-1,7.265000000000001
1454,0,0,-7,-3,1,-4,1,0,7.2700000000000005
1455,0,-1,0,1,0,-1,-1,2,7.275
1456,0,0,-2,-2,-2,-2,0,-3,7.28
1457,-3,-2,2,0,1,1,1,0,7.285
1458,1,-1,1,1,-3,0,-2,-2,7.29
1459,0,-1,-1,3,-1,0,-1,0,7.295
1460,0,-1,-2,-3,-1,-2,1,0,7.3
1461,0,0,0,1,-1,-3,0,-1,7.305
1462,-2,-1,-1,-3,-1,1,0,0,7.3100000000000005
1463,-2,-1,3,-1,-1,-2,-1,-2,7.315
1464,0,0,6,3,-1,1,-2,-1,7.32
1465,-1,-3,-10,-1,-1,1,0,-1,7.325
1466,-2,-1,-1,-3,-1,-3,-1,-1,7.33
1467,-1,-2,-3,-1,-1,-1,-2,-2,7.335
1468,1,2,2,0,-1,-1,-1,-1,7.34
1469,1,1,-1,-2,-2,0,0,-1,7.345
1470,-1,-1,1,-3,-1,-1,-2,1,7.3500000000000005
1471,0,-1,0,-1,0,1,-1,0,7.355
1472,0,-3,-7,-3,-1,-2,0,0,7.36
1473,0,-1,3,2,-1,-2,-1,-2,7.365
1474,1,-1,-4,1,1,-1,-1,-1,7.37
1475,-2,0,-2,-5,-1,-1,-1,0,7.375
1476,-1,-1,-2,3,0,0,-1,0,7.38
1477,0,2,4,-1,-1,-3,-3,-1,7.385
1478,0,-4,-4,-3,-1,0,3,-2,7.390000000000001
1479,0,-2,1,0,-1,0,-1,-2,7.3950000000000005
1480,-1,-1,-3,-2,-1,0,0,-1,7.4
1481,1,-1,-2,-2,-1,0,1,0,7.405
1482,-2,0,4,1,-2,-2,0,-2,7.41
1483,1,-2,-5,-2,-2,-3,-1,0,7.415
1484,0,1,1,2,0,-2,0,0,7.42
1485,-1,-2,-2,0,-1,-4,-1,-1,7.425
1486,0,0,0,0,0,3,-1,1,7.43
1487,-2,0,1,2,-1,0,1,-2,7.4350000000000005
1488,-2,-3,-5,-5,-2,-1,-1,-2,7.44
1489,-1,-1,-3,-2,-1,0,0,-1,7.445
1490,-1,3,-1,-1,-1,-5,-1,1,7.45
1491,-2,-1,1,2,0,-2,-2,1,7.455
1492,0,1,2,0,-3,-1,0,1,7.46
1493,-1,-3,0,0,1,0,0,-1,7.465
1494,-2,-4,-1,1,0,-2,-3,-2,7.47
1495,-2,-1,-3,-1,0,-3,-2,-1,7.4750000000000005
1496,-2,0,3,-1,-2,-1,-1,-1,7.48
1497,0,-1,-2,-2,-1,0,-1,-2,7.485
1498,2,0,-3,-3,-3,-1,-1,0,7.49
1499,-1,0,1,-1,-1,-1,0,-1,7.495
1500,-1,-2,-4,-1,0,0,-2,-1,7.5
1501,1,0,0,0,0,-1,1,1,7.505
1502,-3,-1,0,2,0,-2,0,-1,7.51
1503,-1,-1,-3,-4,-1,-3,-3,-3,7.515000000000001
1504,-1,-2,-2,-1,1,2,2,0,7.5200000000000005
1505,-1,1,0,0,-2,-1,-1,-1,7.525
1506,0,1,3,1,1,-1,0,0,7.53
1507,1,0,2,1,-1,0,-1,1,7.535
1508,-2,0,-4,-5,-3,-3,-1,0,7.54
1509,-1,-1,-1,-1,-2,-1,-1,-2,7.545
1510,-2,-1,-1,1,-1,0,-1,-2,7.55
1511,1,1,1,-1,-2,-2,1,1,7.555
1512,2,0,1,-1,0,-2,0,0,7.5600000000000005
1513,0,1,0,-1,-1,-2,-2,-2,7.565
1514,0,-1,-1,-4,-1,0,-1,-2,7.57
1515,0,-1,-4,-4,1,-1,0,-2,7.575
1516,-4,-2,-2,-1,-1,-1,0,-2,7.58
1517,-2,-2,-2,0,-1,0,-1,0,7.585
1518,-2,-2,-2,0,0,-2,-3,-2,7.59
1519,1,1,-1,0,-2,1,-1,0,7.595
1520,1,1,1,1,-1,1,-1,-1,7.6000000000000005
1521,-1,-2,-2,-3,-2,-1,-1,0,7.605
1522,-2,-1,-1,3,0,0,-1,0,7.61
1523,-2,1,2,2,0,0,0,1,7.615
1524,-3,-2,-3,-3,-1,-1,-2,-1,7.62
1525,1,2,7,2,-1,1,0,-1,7.625
1526,0,-2,-2,-3,-2,-1,0,-1,7.63
1527,-2,-2,-2,-1,-2,1,1,-1,7.635
1528,0,0,0,0,0,0,-1,-1,7.640000000000001
1529,-2,-1,-6,-3,0,-1,0,-2,7.6450000000000005
1530,0,-1,-2,-2,0,-1,0,-1,7.65
1531,1,-1,2,0,0,-2,-2,-1,7.655
1532,-1,-1,-5,0,-2,1,0,-1,7.66
1533,-1,1,1,-1,-2,-1,-1,0,7.665
1534,-1,0,3,2,-1,1,1,-1,7.67
1535,-3,-5,-9,-5,-2,-2,-2,-3,7.675
1536,0,-1,3,-2,-1,-1,-2,0,7.68
1537,-1,-2,-2,-1,0,-1,1,0,7.6850000000000005
1538,0,-2,-2,0,-1,0,-2,0,7.69
1539,1,0,1,1,0,-1,-1,0,7.695
1540,1,-3,-1,0,0,1,-1,-2,7.7
1541,0,0,-1,0,0,-1,0,0,7.705
1542,-1,-1,-4,-1,-1,-3,0,0,7.71
1543,-1,-1,-1,-2,-1,0,-1,-1,7.715
1544,-1,0,-1,0,-3,-2,-1,-1,7.72
1545,-2,1,-2,-1,-1,-2,-1,0,7.7250000000000005
1546,-1,-1,2,0,-1,0,-2,-1,7.73
1547,1,1,1,0,0,-2,-1,0,7.735
1548,1,-2,0,2,-1,-2,-1,-1,7.74
1549,-2,-3,-2,-1,0,0,-1,-1,7.745
1550,0,0,0,0,1,-3,-1,0,7.75
1551,-1,-1,-4,-3,-3,-1,-1,-1,7.755
1552,-1,1,3,0,1,2,-1,0,7.76
1553,2,1,-1,-2,-1,1,0,0,7.765000000000001
1554,1,0,-2,-2,1,-1,0,0,7.7700000000000005
1555,-1,-1,0,0,-1,-2,-1,0,7.775
1556,-1,-1,-1,2,1,-4,-1,-1,7.78
1557,-3,-1,-4,-8,-3,-1,-3,-1,7.785
1558,-1,-1,-3,-2,-2,0,0,0,7.79
1559,0,-2,2,1,-1,-1,3,-2,7.795
1560,0,0,-2,-3,-3,0,1,0,7.8
1561,-1,-1,1,2,1,1,-4,-1,7.805000000000001
1562,0,1,2,-1,-1,-1,-1,1,7.8100000000000005
1563,-2,-1,-2,-5,-2,-3,-1,0,7.815
1564,-1,-1,-1,-1,0,-2,2,-1,7.82
1565,-1,-4,-1,1,-1,-1,-1,0,7.825
1566,0,2,-2,-1,-2,-2,0,-2,7.83
1567,-1,0,2,2,0,1,0,1,7.835
1568,0,-1,-2,-1,-3,-1,1,-2,7.84
1569,-2,-1,-1,-3,-2,-3,-1,-1,7.845
1570,-2,0,-2,-2,0,-1,-1,0,7.8500000000000005
1571,0,1,8,3,-1,2,0,0,7.855
1572,0,-1,-9,0,0,-2,-1,-1,7.86
1573,-2,-2,-1,-1,-1,-2,0,-1,7.865
1574,1,1,-3,0,0,1,-1,-2,7.87
1575,-1,-1,-4,1,0,-1,1,-1,7.875
1576,1,-1,0,-1,-2,-2,-1,0,7.88
1577,1,0,-1,2,1,1,1,-1,7.885
1578,-2,-3,-6,-2,-1,-2,1,-2,7.890000000000001
1579,-1,-1,-2,-3,-1,0,-2,-1,7.8950000000000005
1580,-1,0,2,-2,-1,0,-3,-3,7.9
1581,0,-2,-2,-1,-2,0,1,0,7.905
1582,-4,-3,1,-5,-2,-1,-1,0,7.91
1583,1,0,-1,-1,0,0,-1,-1,7.915
1584,-2,0,-1,1,0,1,-2,-1,7.92
1585,-1,2,1,-3,-1,0,1,-1,7.925
1586,-1,0,1,3,-2,-3,1,-1,7.930000000000001
1587,0,2,-4,0,-1,1,0,0,7.9350000000000005
1588,-1,-1,-1,-2,-1,-1,-1,-1,7.94
1589,0,-3,0,0,-1,-2,-1,-1,7.945
1590,1,0,4,-2,-2,1,-1,0,7.95
1591,1,0,-10,1,1,-1,-1,0,7.955
1592,-1,-1,0,-2,-4,-2,0,-1,7.96
1593,-2,0,3,1,-1,-1,0,0,7.965
1594,-1,-2,-1,-2,2,-1,0,-1,7.97
1595,-2,-2,1,-2,0,0,-1,0,7.9750000000000005
1596,-1,-2,-1,-1,-2,1,-1,-2,7.98
1597,-1,0,2,1,2,-1,-2,-1,7.985
1598,1,-2,-5,-2,0,0,-1,-1,7.99
1599,-1,-1,2,0,-1,-4,-1,-2,7.995
1600,-2,0,-3,-4,0,1,0,1,8.0
1601,1,1,0,0,-2,-2,0,-1,8.005
1602,0,-1,-2,-2,-2,-2,-5,-2,8.01
1603,0,-2,1,-2,-2,0,1,-1,8.015
1604,-1,0,-2,-1,-1,-2,-1,0,8.02
1605,-1,-3,-2,-1,-1,1,0,-2,8.025
1606,0,-1,-1,2,0,-1,-1,-1,8.03
1607,-4,-4,-6,-5,-2,1,-1,0,8.035
1608,0,0,5,2,-2,-1,-1,-1,8.040000000000001
1609,-1,1,2,-2,-1,-1,0,0,8.045
1610,-1,-1,-3,0,-1,0,0,-1,8.05
1611,0,-2,-2,-4,0,0,-1,-2,8.055
1612,0,-2,4,2,0,0,0,-1,8.06
1613,1,1,-3,0,0,-1,-1,-2,8.065
1614,0,-1,2,-2,-4,-1,-1,-1,8.07
1615,0,3,-2,1,-1,0,0,0,8.075
1616,-1,-1,0,1,1,-1,0,-1,8.08
1617,0,0,-5,-5,-3,-2,0,-2,8.085
1618,-2,0,-1,2,-2,0,-1,-2,8.09
1619,0,-1,1,1,1,-2,-1,-3,8.095
1620,-1,1,-2,-3,-2,-3,-1,0,8.1
1621,-1,-2,-1,0,-1,-2,-1,0,8.105
1622,-1,1,-2,1,0,-1,1,-1,8.11
1623,-1,-1,1,1,-1,-1,-1,-2,8.115
1624,-1,-1,0,1,-2,-1,0,-1,8.120000000000001
1625,-1,-3,-1,-1,0,1,-1,-1,8.125
1626,-1,-2,1,-2,-1,0,0,1,8.13
1627,1,-2,0,0,-3,-3,-1,-1,8.135
1628,-1,-2,-4,-2,0,-1,0,-1,8.14
1629,1,-2,-1,-1,0,-1,-1,-1,8.145
1630,0,1,0,2,-1,-1,0,-2,8.15
1631,-1,-2,-1,-3,-2,0,-1,-1,8.155
1632,0,0,-1,0,0,-1,-1,0,8.16
1633,-1,1,1,-1,-3,-3,-1,-2,8.165000000000001
1634,0,0,3,0,0,-1,0,0,8.17
1635,-1,-2,-6,1,2,-1,1,-1,8.175
1636,-3,-2,1,-3,-1,0,-2,-3,8.18
1637,0,-1,-1,0,1,-1,-2,0,8.185
1638,0,-2,0,-3,-3,-3,-3,0,8.19
1639,0,0,1,-4,-2,0,-1,0,8.195
1640,-1,-1,-3,-1,-1,-4,-3,-1,8.2
1641,-1,-1,-1,-1,-1,2,2,-1,8.205
1642,0,-2,-2,-1,-2,4,2,-1,8.21
1643,0,-1,1,1,0,-5,1,0,8.215
1644,-2,-3,-1,-1,0,-3,0,-3,8.22
1645,-2,0,-2,-3,-1,-3,-2,-1,8.225
1646,-1,-2,-3,-2,0,-2,0,0,8.23
1647,-1,-1,0,2,-2,1,-1,0,8.235
1648,-1,1,-2,0,0,0,0,0,8.24
1649,-2,-2,-2,1,0,0,-1,-1,8.245000000000001
1650,-1,1,-1,1,0,-1,-2,0,8.25
1651,-3,-2,-3,-7,-1,-1,-1,-1,8.255
1652,-1,-2,-2,-1,0,-2,0,1,8.26
1653,-3,-2,0,-1,-1,-1,-2,-1,8.265
1654,0,0,5,-1,1,0,-2,0,8.27
1655,-2,-2,-5,3,-3,-2,-2,0,8.275
1656,0,-1,-1,0,1,2,0,0,8.28
1657,-1,0,0,3,0,-1,-2,-2,8.285
1658,-1,-1,-4,-1,0,-1,-1,-3,8.290000000000001
1659,1,1,4,1,0,-1,-1,-1,8.295
1660,-1,0,-3,-2,1,-1,0,0,8.3
1661,-2,-1,0,-1,-2,-1,-1,-1,8.305
1662,-1,-1,-2,-1,0,0,-1,-2,8.31
1663,1,2,0,0,-1,-1,0,-2,8.315
1664,-2,-2,-1,0,-1,-2,-1,0,8.32
1665,0,-1,-4,-2,0,-1,0,0,8.325
1666,0,0,1,2,-1,-3,-3,-1,8.33
1667,-1,-1,-1,0,0,2,1,0,8.335
1668,0,-1,-1,-3,-4,-2,0,0,8.34
1669,-2,-3,-1,-1,0,4,1,0,8.345
1670,-1,-2,-1,-2,-1,1,-1,-1,8.35
1671,0,0,2,-2,-2,-1,-1,0,8.355
1672,1,0,-2,-1,0,1,-1,-1,8.36
1673,2,2,0,-1,-1,-5,-1,2,8.365
1674,-1,0,-3,1,0,0,0,-1,8.370000000000001
1675,0,-1,3,0,0,-1,-1,0,8.375
1676,-2,-1,-4,-2,-2,1,0,-1,8.38
1677,-1,2,1,-1,-1,-1,-1,-1,8.385
1678,-1,0,7,3,-1,-1,1,-2,8.39
1679,0,-3,-14,-4,0,-3,0,-1,8.395
1680,0,-2,2,-1,-1,-1,-2,-1,8.4
1681,-1,-1,1,-2,0,-2,0,-3,8.405
1682,-1,-1,-3,-4,0,-1,-1,1,8.41
1683,-2,-2,2,-2,-1,0,-1,0,8.415000000000001
1684,-1,-1,-2,-1,0,-1,-2,-1,8.42
1685,2,-2,-3,-1,-3,-2,1,0,8.425
1686,-2,-1,-4,-1,-1,-2,0,-1,8.43
1687,-1,2,8,2,1,-1,-1,0,8.435
1688,0,1,-1,-3,-1,-1,0,-1,8.44
1689,-1,-2,2,1,0,-2,-2,0,8.445
1690,-4,-2,-5,-3,0,0,0,0,8.45
1691,0,1,2,4,-1,1,-3,0,8.455
1692,-2,-4,0,1,-3,0,-1,-1,8.46
1693,0,1,-1,-2,-1,0,-1,0,8.465
1694,1,0,-1,-3,-1,-4,-2,-1,8.47
1695,-2,-1,-3,-2,1,0,-1,-2,8.475
1696,0,0,3,2,0,-2,-1,-2,8.48
1697,0,-2,-1,-2,-2,0,0,0,8.485
1698,-1,-3,-3,1,0,0,0,-2,8.49
1699,-1,0,-1,-1,0,0,0,1,8.495000000000001
1700,-1,-1,-2,-3,-1,-1,0,-3,8.5
1701,0,0,-4,-2,-2,-3,-2,-1,8.505
1702,-1,0,3,1,0,1,1,-2,8.51
1703,-2,-2,-3,-3,-1,-1,-1,-1,8.515
1704,1,2,0,-2,0,0,1,0,8.52
1705,0,-2,0,2,0,1,-2,-1,8.525
1706,0,0,-1,-2,-1,-1,0,1,8.53
1707,-1,-3,0,-2,-3,-1,-2,-3,8.535
1708,-1,1,1,0,0,-1,-1,1,8.540000000000001
1709,-1,-2,-2,0,-1,0,0,-1,8.545
1710,-1,1,-5,-1,-2,2,-1,0,8.55
1711,-1,-1,4,1,-1,-1,0,-1,8.555
1712,0,0,-1,0,-1,-2,-2,0,8.56
1713,1,0,-1,-1,0,-2,-1,-1,8.565
1714,1,0,-1,-1,0,0,1,0,8.57
1715,0,0,0,-1,0,-1,-1,-1,8.575000000000001
1716,-3,-3,-4,-4,-2,0,0,0,8.58
1717,-2,-1,1,0,0,1,-1,0,8.585
1718,0,0,0,-2,-2,-2,-2,0,8.59
1719,-1,0,2,0,-1,-1,-1,-2,8.595
1720,-2,-4,-7,2,0,0,0,-2,8.6
1721,0,1,3,2,0,2,0,-1,8.605
1722,-2,-4,0,-3,-3,-3,-1,-1,8.61
1723,0,-1,1,1,-1,-1,-1,-1,8.615
1724,0,-2,0,-3,-2,-1,-2,0,8.620000000000001
1725,-1,-1,-3,0,0,2,0,-1,8.625
1726,-1,1,0,1,0,0,-1,-1,8.63
1727,1,0,-4,-2,0,-1,0,1,8.635
1728,1,-1,1,-1,0,0,-3,-2,8.64
1729,-2,-5,-4,-7,-2,-2,0,-2,8.645
1730,-2,-1,1,-2,0,0,1,-1,8.65
1731,-2,-3,-4,-1,-2,1,-1,-2,8.655
1732,-1,1,0,0,-1,-1,-1,1,8.66
1733,0,-2,0,0,0,-1,-2,0,8.665000000000001
1734,0,-2,-6,-3,0,-1,-5,0,8.67
1735,1,2,1,-1,-1,-1,-1,0,8.675
1736,-1,1,1,2,0,2,0,0,8.68
1737,1,-1,0,0,0,-1,-1,0,8.685
1738,0,-3,-3,-2,0,0,0,0,8.69
1739,0,0,-1,2,1,-1,0,-1,8.695
1740,-1,-1,-1,-3,-1,-1,-1,-1,8.700000000000001
1741,0,-1,-1,0,-1,-1,-2,-2,8.705
1742,-1,0,-1,1,-1,-1,-1,-1,8.71
1743,0,-1,-1,1,2,0,1,-1,8.715
1744,-1,0,-2,-3,-1,0,0,0,8.72
1745,-2,-1,1,-3,-2,-1,0,0,8.725
1746,-2,-2,-5,-2,-2,-1,-2,-2,8.73
1747,-1,-3,-1,-4,-3,-3,-2,-1,8.735
1748,0,0,-1,1,-1,4,1,0,8.74
1749,0,0,3,0,0,-1,-1,0,8.745000000000001
1750,-2,-1,0,-2,0,-1,-1,-1,8.75
1751,-1,0,-2,-2,-3,-1,-2,0,8.755
1752,0,-1,3,3,1,-3,-3,-1,8.76
1753,-1,0,-4,-1,1,-1,-1,0,8.765
1754,-1,-2,1,4,-1,-2,-2,0,8.77
1755,0,-1,-1,-2,-1,0,-1,0,8.775
1756,-1,0,1,-1,-2,-2,0,0,8.78
1757,-1,1,-1,2,1,-1,-1,0,8.785
1758,2,2,3,2,0,1,2,-2,8.790000000000001
1759,-1,-3,-5,-4,-2,-2,0,0,8.795
1760,0,0,0,0,0,0,-1,-3,8.8
1761,0,-1,-3,-2,-4,-1,-1,-1,8.805
1762,-1,-1,-1,-2,-1,0,-1,0,8.81
1763,-1,-1,-1,1,-2,-1,-2,-1,8.815
1764,-1,-1,4,0,0,-1,0,-1,8.82
1765,-1,-4,-10,1,-2,-1,-1,-2,8.825000000000001
1766,-2,-2,-1,-3,0,-1,0,-2,8.83
1767,1,-2,2,0,0,0,2,0,8.835
1768,-2,-2,-2,-2,-1,-4,0,0,8.84
1769,0,1,2,-1,-1,0,0,-2,8.845
1770,0,1,2,0,0,-1,0,-1,8.85
1771,-1,-1,-1,-4,0,1,-1,-1,8.855
1772,-1,-1,0,-1,-1,-1,-1,-1,8.86
1773,-1,0,1,1,-2,-1,-2,-1,8.865
1774,1,-1,-2,3,0,0,-3,0,8.870000000000001
1775,-3,-1,0,2,-2,-2,0,-1,8.875
1776,-2,-4,-3,1,0,2,-1,-1,8.88
1777,-1,0,0,-2,-1,1,-1,0,8.885
1778,0,0,2,0,0,-1,0,-1,8.89
1779,0,-1,-2,-2,-2,-1,-1,-1,8.895
1780,-1,-1,-2,-1,0,0,-1,-1,8.9
1781,-1,-2,-2,1,-1,-2,-2,-2,8.905
1782,-2,-1,2,-2,-1,-1,-3,1,8.91
1783,-2,-1,-1,-1,0,-1,-2,0,8.915000000000001
1784,0,1,-1,-2,-1,-2,-2,-1,8.92
1785,-1,-2,1,0,1,0,1,1,8.925
1786,1,-1,2,2,1,0,0,0,8.93
1787,-1,-2,-2,-3,-3,-3,-2,0,8.935
1788,-2,-1,-3,0,-1,1,3,-1,8.94
1789,-1,0,-1,1,-2,-1,-1,-1,8.945
1790,-1,-4,-5,-5,-2,-1,0,0,8.950000000000001
1791,-1,0,0,0,0,0,-1,-2,8.955
1792,0,0,5,0,-2,-4,-1,0,8.96
1793,-2,-2,-6,-2,-1,-1,0,-1,8.965
1794,-1,-1,0,0,-1,-2,-1,0,8.97
1795,0,-1,-2,0,0,0,0,-2,8.975
1796,1,0,-3,-4,-2,0,-1,-2,8.98
1797,-1,0,1,0,1,1,2,-1,8.985
1798,-1,-2,-1,0,-1,0,-3,-1,8.99
1799,-2,-4,-1,-4,-1,-1,-1,-1,8.995000000000001
1800,0,-1,-3,2,3,0,-3,1,9.0
1801,-1,-1,1,-3,0,0,-2,-2,9.005
1802,1,1,-1,-1,-1,0,0,-3,9.01
1803,-1,-1,0,1,0,0,-2,-4,9.015
1804,-1,1,0,0,-3,-2,-1,0,9.02
1805,1,0,0,0,-1,-2,0,2,9.025
1806,-4,-1,2,6,-1,-3,-2,0,9.03
1807,0,1,-2,-2,-1,-1,0,0,9.035
1808,0,-2,-2,0,1,-1,1,-1,9.040000000000001
1809,1,2,-1,-2,-2,-2,-1,1,9.045
1810,-1,-1,-2,-2,-3,-1,1,0,9.05
1811,0,0,1,0,0,-2,0,2,9.055
1812,-2,1,0,0,-2,0,-1,0,9.06
1813,0,2,4,1,2,2,-1,0,9.065
1814,-1,-2,-5,-6,-2,0,-1,0,9.07
1815,-3,-3,-2,-1,-1,0,0,-2,9.075000000000001
1816,0,-2,-4,-2,-1,-1,0,0,9.08
1817,-2,-2,0,1,-2,-2,-2,-3,9.085
1818,-2,0,-1,1,0,-2,0,-2,9.09
1819,2,3,1,0,-1,0,0,1,9.095
1820,-1,-1,0,0,-1,-3,-1,-1,9.1
1821,0,0,2,0,-2,-2,-1,0,9.105
1822,1,-1,-1,1,-2,1,0,-1,9.11
1823,0,0,-3,-3,-2,-1,-1,-1,9.115
1824,-1,0,1,-2,0,-2,0,-2,9.120000000000001
1825,-1,-2,-3,-1,-2,-1,-2,-3,9.125
1826,-1,-1,1,-2,0,0,-1,0,9.13
1827,-1,-1,-2,-4,-1,-1,-2,0,9.135
1828,-1,-4,-3,1,-3,-3,-1,0,9.14
1829,-1,-2,0,0,0,-2,0,-1,9.145
1830,0,0,-2,0,0,0,0,-2,9.15
1831,-2,-2,1,-3,-2,-3,-2,-1,9.155
1832,0,-3,-2,-3,-1,0,-1,-1,9.16
1833,-3,-5,-4,-3,-2,-3,-1,0,9.165000000000001
1834,1,4,8,2,-1,0,-2,0,9.17
1835,-1,-2,-9,2,-2,0,-1,-1,9.175
1836,-1,1,-1,-1,1,0,-2,-1,9.18
1837,-1,1,-2,-3,-2,-1,2,-1,9.185
1838,0,-2,-1,-1,-1,0,1,-2,9.19
1839,-2,0,-2,-4,-1,-2,-1,-1,9.195
1840,0,0,1,0,1,1,0,1,9.200000000000001
1841,0,1,-2,0,-1,0,-1,0,9.205
1842,0,-1,-4,1,1,0,-1,-1,9.21
1843,0,-2,3,-2,0,0,0,-2,9.215
1844,-1,-2,-1,0,0,0,-1,-3,9.22
1845,-2,-2,-1,-6,-2,-2,-2,-1,9.225
1846,-3,-2,-4,-2,-1,0,2,1,9.23
1847,1,0,-1,2,1,0,1,-1,9.235
1848,2,0,-1,0,-1,0,-1,0,9.24
1849,0,-1,1,2,1,0,-2,0,9.245000000000001
1850,-2,-3,-1,-1,0,-3,-2,-2,9.25
1851,-1,0,0,1,-1,-4,-2,-2,9.255
1852,-2,0,-1,-1,-2,4,0,0,9.26
1853,2,0,0,0,-1,1,-1,-1,9.265
1854,1,0,-2,-3,0,-2,0,0,9.27
1855,1,1,2,2,1,1,1,0,9.275
1856,-4,-2,0,-1,-3,0,-1,-1,9.28
1857,-2,1,6,-2,0,0,0,0,9.285
1858,0,-2,-10,-3,0,0,-1,-2,9.290000000000001
1859,0,0,1,4,1,1,1,1,9.295
1860,-1,0,1,-2,-2,-2,0,-2,9.3
1861,-2,0,-1,-2,-1,-1,-1,0,9.305
1862,-2,0,5,1,-2,-2,0,-1,9.31
1863,-3,0,1,2,-1,0,-1,0,9.315
1864,1,1,-2,1,-1,-1,-2,-1,9.32
1865,-1,-2,-4,-5,-2,1,0,-1,9.325000000000001
1866,-2,0,2,-3,-1,-3,0,-1,9.33
1867,-2,-2,-1,-1,0,-1,-2,0,9.335
1868,-1,0,0,-2,-1,-1,-1,-2,9.34
1869,0,-1,-2,1,-2,-1,0,0,9.345
1870,-1,0,0,1,-1,-2,-3,-1,9.35
1871,1,-2,-2,-3,-2,1,1,-1,9.355
1872,-1,1,-1,-2,-1,-3,0,1,9.36
1873,0,-1,-2,3,-1,-1,0,-2,9.365
1874,1,-1,-2,-2,0,-1,-3,-2,9.370000000000001
1875,0,-1,-1,-3,-2,-3,-3,-1,9.375
1876,-2,-3,-1,0,-1,0,-1,-1,9.38
1877,-2,-2,-2,2,1,-1,-1,1,9.385
1878,-2,-3,1,-2,-2,-2,-1,0,9.39
1879,0,0,-2,-1,-1,-1,-1,0,9.395
1880,0,1,-1,-1,-1,-2,-1,-1,9.4
1881,-1,0,-2,-3,-1,-2,-2,-1,9.405
1882,0,0,0,-1,-1,4,-1,-2,9.41
1883,-2,-3,0,-1,-1,-1,-2,0,9.415000000000001
1884,0,2,0,-2,0,1,-1,0,9.42
1885,-2,-1,0,0,1,0,0,-1,9.425
1886,1,1,1,2,-1,-1,-1,1,9.43
1887,-1,-1,-1,-2,1,0,1,-2,9.435
1888,1,1,-1,0,1,-2,0,0,9.44
1889,-1,0,-1,0,-2,0,0,-3,9.445
1890,-1,-1,2,2,-2,0,0,-2,9.450000000000001
1891,-3,-1,-4,-4,-2,-3,-2,-2,9.455
1892,-1,-3,-2,1,0,-1,0,0,9.46
1893,1,3,1,0,-1,0,0,-1,9.465
1894,-2,-1,-3,-8,-3,-3,-1,0,9.47
1895,0,2,2,5,0,1,-1,0,9.475
1896,-2,-3,-2,-3,-4,-4,-4,-2,9.48
1897,-1,-1,-2,-2,-1,2,0,1,9.485
1898,1,0,1,-1,-1,0,-2,0,9.49
1899,0,-1,1,1,0,1,-1,-2,9.495000000000001
1900,0,-1,-1,-1,0,-1,0,0,9.5
1901,1,0,-1,-3,-1,-1,-1,-2,9.505
1902,1,-1,-1,-1,-2,-2,0,-1,9.51
1903,0,0,0,-1,-1,0,-2,-1,9.515
1904,-2,-3,-2,-1,-2,0,-1,-2,9.52
1905,-1,-1,0,1,-1,-1,-1,0,9.525
1906,-1,0,1,-1,-1,0,-2,-1,9.53
1907,1,2,-3,-1,-3,-2,1,-2,9.535
1908,-2,-1,4,4,-1,-1,-1,-1,9.540000000000001
1909,-2,-1,-4,-7,-1,0,0,-2,9.545
1910,-2,-1,-2,1,-1,-2,0,0,9.55
1911,-1,-1,1,1,0,0,0,-1,9.555
1912,-1,0,-2,-2,-2,0,0,1,9.56
1913,-1,-3,-1,1,0,-3,-1,0,9.565
1914,-2,-4,-6,-3,1,-2,0,0,9.57
1915,-2,2,5,-1,-2,1,-1,-2,9.575000000000001
1916,0,-1,-2,-1,-2,0,0,0,9.58
1917,-2,-2,-1,-2,-2,-2,-3,-2,9.585
1918,-2,0,-1,-1,-2,-1,-1,-2,9.59
1919,-1,-2,-2,2,0,-1,-1,0,9.595
1920,-1,0,-1,-2,-1,-2,-1,-1,9.6
1921,-2,-2,-1,-1,-1,0,-2,-1,9.605
1922,0,-1,-2,-1,-1,0,1,-1,9.61
1923,-1,-2,-2,-2,0,0,2,0,9.615
1924,-1,0,-1,1,-2,0,0,0,9.620000000000001
1925,-1,0,-1,2,-2,-1,-1,-1,9.625
1926,-1,0,0,1,0,-3,-3,-1,9.63
1927,-1,-1,-1,-1,0,2,0,-1,9.635
1928,1,0,6,-7,-2,-1,0,-1,9.64
1929,1,-1,-12,2,1,-2,0,1,9.645
1930,1,2,2,0,-3,1,-1,1,9.65
1931,0,-4,-4,-4,-1,-2,0,-1,9.655
1932,-2,2,0,0,-2,0,0,0,9.66
1933,-3,-2,1,0,0,0,0,-1,9.665000000000001
1934,-3,-1,0,0,-2,-1,-2,-1,9.67
1935,-1,-1,0,2,-1,-3,-2,0,9.675
1936,0,1,-3,-4,-2,0,-1,-1,9.68
1937,1,1,0,0,-1,-3,-2,-2,9.685
1938,1,-2,-2,1,-2,4,0,0,9.69
1939,0,-1,-1,1,-1,0,0,0,9.695
1940,-2,-2,-1,-2,-1,1,-2,-3,9.700000000000001
1941,1,0,0,1,-1,-1,-1,0,9.705
1942,-1,0,3,1,-1,-3,-1,0,9.71
1943,0,-1,-3,-6,-1,2,-2,0,9.715
1944,1,-2,-1,-1,-2,-2,-1,0,9.72
1945,-1,0,-1,-2,-3,0,-1,-1,9.725
1946,0,0,-1,0,0,0,0,0,9.73
1947,-2,0,-2,-2,-2,-2,-2,-2,9.735
1948,-1,0,-3,1,1,-2,-1,1,9.74
1949,1,-3,4,-1,0,1,0,0,9.745000000000001
1950,0,0,-3,-3,-1,-1,0,-1,9.75
1951,1,-1,1,-2,-3,-2,-3,0,9.755
1952,-1,-3,-2,0,-1,0,-1,-4,9.76
1953,-1,0,-3,-3,-1,-1,-1,0,9.765
1954,-2,-3,-2,0,0,1,0,-2,9.77
1955,-2,0,1,1,-1,-1,0,2,9.775
1956,-1,-1,-3,1,-2,-3,-1,-1,9.78
1957,-2,0,-3,-3,-1,2,-1,-1,9.785
1958,-4,-3,-1,-1,-3,-1,-4,-1,9.790000000000001
1959,-1,1,-1,0,0,-1,0,-1,9.795
1960,0,-1,1,0,0,-1,-2,1,9.8
1961,0,0,-1,-2,-2,0,-1,0,9.805
1962,2,-1,-2,-2,0,0,2,-2,9.81
1963,-1,-2,2,1,0,-1,0,-1,9.815
1964,-2,-2,0,5,1,-4,0,1,9.82
1965,-2,-2,2,-2,0,-2,-2,-1,9.825000000000001
1966,-1,-2,-2,-3,-1,-2,-2,0,9.83
1967,0,-1,2,2,0,-2,0,-1,9.835
1968,-2,-2,-2,-3,0,0,0,-2,9.84
1969,0,-2,-3,-3,-1,0,0,-3,9.845
1970,0,0,1,0,-2,1,-1,0,9.85
1971,-1,0,-2,-3,-2,-1,0,-1,9.855
1972,0,-1,-2,1,-1,2,0,0,9.86
1973,-3,-2,3,-1,0,0,0,-1,9.865
1974,-1,-2,-3,-4,1,-1,1,0,9.870000000000001
1975,-1,-2,-2,-1,-3,-3,-1,-2,9.875
1976,1,-1,0,-2,0,-1,0,-1,9.88
1977,0,1,0,2,0,-2,1,-1,9.885
1978,-2,-1,0,-2,-1,-1,-2,-3,9.89
1979,-1,-1,-4,-3,-1,-2,1,1,9.895
1980,-1,2,4,-3,1,3,0,-1,9.9
1981,1,-2,-11,-2,-2,-1,1,0,9.905
1982,0,0,3,2,-1,-4,-1,0,9.91
1983,0,0,-2,1,-1,0,-1,-1,9.915000000000001
1984,-1,-1,-1,-1,-2,-2,-3,-3,9.92
1985,0,1,3,2,3,2,1,-1,9.925
1986,-1,-1,-2,4,0,0,0,-2,9.93
1987,-2,-2,-2,-4,-2,-1,0,-1,9.935
1988,0,-2,-3,0,-2,-3,-1,1,9.94
1989,-2,-2,3,-1,-3,-1,0,0,9.945
1990,0,-3,-2,0,-2,-3,-1,-2,9.950000000000001
1991,-1,0,1,3,-1,1,-1,-1,9.955
1992,0,0,-2,-1,-3,-1,0,-1,9.96
1993,-2,-1,1,1,0,-1,-1,-1,9.965
1994,0,0,0,-5,-1,-1,-1,0,9.97
1995,0,-1,-1,1,-1,-2,-1,-1,9.975
1996,-2,0,-4,-2,0,-1,-2,-1,9.98
1997,0,1,5,1,-3,-1,-2,0,9.985
1998,-1,1,-1,1,2,2,-2,-1,9.99
1999,-1,1,-2,-3,0,0,-1,0,9.995000000000001
2000,-2,-1,5,0,-1,-1,1,-1,10.0
2001,1,0,-7,-2,-2,-3,-1,-1,10.005
2002,-1,0,0,-1,-2,-2,0,0,10.01
2003,-3,-3,-3,-1,0,3,-1,-1,10.015
2004,0,1,-1,-2,0,0,0,-1,10.02
2005,-1,-3,1,-1,0,-4,-1,0,10.025
2006,-1,-1,0,-2,-3,1,-1,-1,10.03
2007,0,0,1,0,1,-2,-1,-2,10.035
2008,-1,-1,-2,0,0,1,1,1,10.040000000000001
2009,1,0,0,0,-1,-1,-1,-1,10.045
2010,1,-1,-2,-2,-1,0,1,-1,10.05
2011,-1,-1,2,0,0,-1,-2,0,10.055
2012,-2,-1,-3,-3,-2,1,-1,-1,10.06
2013,-3,-1,-3,-1,0,0,-1,-1,10.065
2014,0,-1,-1,-1,-1,-1,-3,-1,10.07
2015,-1,-2,-1,0,-1,-1,-1,-1,10.075000000000001
2016,0,-1,-1,0,0,-2,-2,-1,10.08
2017,0,0,0,0,-1,1,-2,0,10.085
2018,-1,-1,-2,0,-1,0,0,0,10.09
2019,1,-1,0,-2,-2,0,-2,0,10.095
2020,-1,0,-1,1,-1,-1,-1,0,10.1
2021,-1,-1,-2,-5,-2,0,-1,-1,10.105
2022,-2,-2,1,3,0,-1,-1,0,10.11
2023,0,-2,-3,-2,-1,-1,0,0,10.115
2024,0,1,-3,-1,-2,-1,0,0,10.120000000000001
2025,-3,0,3,1,-2,-2,0,-1,10.125
2026,0,0,-3,-2,-1,0,-2,-1,10.13
2027,-1,-1,-2,-2,0,1,0,-1,10.135
2028,0,0,0,0,0,-1,0,0,10.14
2029,-1,-1,-2,-2,-1,-1,-1,-1,10.145
2030,-1,-3,0,-1,-1,-2,-1,0,10.15
2031,0,1,8,2,-3,-2,0,1,10.155
2032,1,-1,-10,-2,-3,-1,-1,-2,10.16
2033,-1,-2,-1,-1,0,1,0,0,10.165000000000001
2034,-3,-3,2,-1,-1,-3,-2,-3,10.17
2035,-1,2,-3,-1,-1,1,-2,0,10.175
2036,-1,-1,2,0,-1,0,-2,-1,10.18
2037,-1,0,-2,-1,0,1,-1,-1,10.185
2038,1,1,1,-2,-1,0,0,-1,10.19
2039,-1,-3,-2,1,-1,-2,0,-1,10.195
2040,-1,-1,0,1,0,-2,-1,-2,10.200000000000001
2041,1,-3,-4,-3,-1,-3,0,1,10.205
2042,-2,-1,-3,0,-1,-1,0,-1,10.21
2043,0,-1,-1,-4,0,0,-1,-1,10.215
2044,0,2,-1,0,-3,1,-1,0,10.22
2045,-3,-2,1,0,-2,-3,-2,-3,10.225
2046,0,0,-3,-1,1,0,-1,0,10.23
2047,-3,-4,-4,0,-1,-3,-1,-2,10.235
2048,-2,-2,1,1,0,-1,-1,-2,10.24
2049,1,1,1,-1,-1,-1,-1,0,10.245000000000001
2050,-1,-1,0,-2,-1,-1,-2,-1,10.25
2051,0,-1,-2,1,-1,-1,2,-2,10.255
2052,-2,-2,0,-1,-1,-1,-2,-2,10.26
2053,0,1,2,0,0,2,0,0,10.265
2054,-1,-3,-7,0,-1,0,-1,-1,10.27
2055,-1,1,3,1,-1,-1,-1,0,10.275
2056,-1,-2,-3,-3,0,-2,0,-1,10.28
2057,-1,0,1,-1,-1,0,-2,-1,10.285
2058,-1,1,0,0,0,-2,1,-1,10.290000000000001
2059,-1,-3,0,0,1,-1,-1,-2,10.295
2060,-1,-1,0,0,0,0,-1,0,10.3
2061,1,-2,-2,0,0,1,0,-2,10.305
2062,0,2,-1,0,-1,-1,0,0,10.31
2063,-2,-1,-1,2,-1,-1,-2,-2,10.315
2064,-2,-1,-1,-2,-2,0,-2,-1,10.32
2065,1,1,-4,-1,-1,0,-3,-2,10.325000000000001
2066,0,-1,-2,-2,-2,0,-1,-2,10.33
2067,-1,-1,0,-3,-1,-1,-3,0,10.335
2068,0,0,0,-1,0,-2,-1,-1,10.34
2069,-2,-2,-2,-4,-1,-1,-1,1,10.345
2070,0,-2,0,0,-2,-1,-1,-1,10.35
2071,-1,1,-4,-5,-2,-2,0,-1,10.355
2072,1,-1,-1,3,-1,0,-1,-1,10.36
2073,-1,-1,-1,0,-1,-1,-2,-1,10.365
2074,0,1,0,-1,1,2,-2,0,10.370000000000001
2075,1,2,-1,1,-2,1,0,0,10.375
2076,-2,-2,-2,-2,-2,-1,-1,1,10.38
2077,0,-2,1,-1,-1,-1,-1,-1,10.385
2078,1,1,0,-2,-1,-2,1,-1,10.39
2079,-1,-1,-3,-3,-1,-1,0,-1,10.395
2080,0,2,-1,-2,1,1,0,-1,10.4
2081,-1,1,0,4,-1,-2,0,0,10.405
2082,0,0,2,0,0,3,0,0,10.41
2083,0,-5,-1,-1,-3,-3,-1,-2,10.415000000000001
2084,0,-5,-2,-2,-1,-2,-1,-3,10.42
2085,-2,-2,0,-2,-1,-3,-1,-1,10.425
2086,0,-2,-3,-2,1,0,-1,-1,10.43
2087,1,2,-1,-2,-2,0,-2,0,10.435
2088,-1,-1,0,1,0,0,-1,-2,10.44
2089,-2,1,0,1,-1,1,-1,-1,10.445
2090,-1,-1,-1,2,-1,0,-2,-1,10.450000000000001
2091,-1,0,-2,0,-1,0,1,1,10.455
2092,-1,-2,2,-1,-1,-1,0,-1,10.46
2093,0,6,0,-2,0,0,1,-1,10.465
2094,-1,-3,2,1,-3,-1,-2,-1,10.47
2095,-1,-1,-1,-2,-1,1,-1,-1,10.475
2096,0,0,0,1,-1,-2,-2,-1,10.48
2097,-1,-4,-3,-3,-2,-1,-1,-3,10.485
2098,-1,-1,-3,-3,-1,-2,1,-3,10.49
2099,-1,1,0,2,0,0,-2,-1,10.495000000000001
2100,1,-1,0,-1,-3,-2,-1,0,10.5
2101,0,-2,-3,-2,0,0,-1,0,10.505
2102,0,-2,1,3,-1,-2,0,-1,10.51
2103,0,-3,-7,-7,-3,-2,-2,-1,10.515
2104,-2,-1,-1,-2,-2,-2,2,0,10.52
2105,-1,-4,-2,1,-1,0,-1,-1,10.525
2106,-2,-1,1,0,-1,-1,-1,-1,10.53
2107,0,0,0,0,2,-1,1,-1,10.535
2108,1,-3,-1,-1,1,2,-2,1,10.540000000000001
2109,-1,-1,-1,0,-1,-1,0,0,10.545
2110,-3,0,-1,-4,-3,-2,-1,-1,10.55
2111,0,0,0,2,-3,0,-1,0,10.555
2112,-1,0,0,0,-1,0,-2,-1,10.56
2113,0,2,1,2,0,-1,-2,0,10.565
2114,0,-1,0,0,0,-1,1,0,10.57
2115,-2,-1,0,0,-1,-2,-2,-2,10.575000000000001
2116,-2,2,0,-1,-2,0,0,-2,10.58
2117,0,0,-2,0,0,-1,-2,-1,10.585
2118,-2,-3,-5,-2,-1,0,-2,-1,10.59
2119,0,0,-1,0,-2,-2,0,-1,10.595
2120,2,1,0,-1,0,0,0,-1,10.6
2121,-2,-1,2,-1,-1,1,-1,0,10.605
2122,0,-1,1,-4,-2,-3,-1,1,10.61
2123,0,0,1,1,1,0,-1,0,10.615
2124,0,0,-6,0,-1,1,0,1,10.620000000000001
2125,-2,-1,1,-1,-1,-2,-2,0,10.625
2126,1,0,-2,-2,1,1,1,-2,10.63
2127,-1,-1,2,-2,-1,-1,0,-1,10.635
2128,1,-2,-3,-1,-2,-1,-1,-1,10.64
2129,-1,-1,1,2,2,0,-2,-1,10.645
2130,-1,0,2,2,-2,-1,-2,-1,10.65
2131,-3,-1,-3,-4,-2,0,-2,0,10.655
2132,-3,-1,-1,-1,-1,-3,1,-1,10.66
2133,0,0,-4,-2,-3,0,-1,0,10.665000000000001
2134,0,0,-1,-2,-2,-1,2,0,10.67
2135,0,-2,-3,0,0,0,0,1,10.675
2136,-1,0,0,0,-3,-2,-1,0,10.68
2137,0,-2,0,1,0,1,0,-1,10.685
2138,-1,0,-2,0,-1,0,-1,-1,10.69
2139,1,-1,-1,1,-2,0,-3,-2,10.695
2140,-2,-1,0,-2,-1,-1,-3,0,10.700000000000001
2141,1,-1,0,-2,0,-1,-2,-2,10.705
2142,0,1,0,-1,-2,-2,0,1,10.71
2143,0,-1,0,0,-1,0,0,0,10.715
2144,-2,-2,-1,1,-1,-1,-1,-1,10.72
2145,-1,-1,-1,-3,0,0,0,-1,10.725
2146,1,-1,-3,-1,0,1,0,0,10.73
2147,-2,-1,0,0,-1,0,0,-1,10.735
2148,-1,0,-1,-1,1,0,-1,1,10.74
2149,-2,-2,-3,-4,-1,-1,-1,-2,10.745000000000001
2150,0,-3,1,-1,0,1,-1,-1,10.75
2151,1,2,-1,1,1,1,-1,-1,10.755
2152,1,-4,1,1,-2,0,0,-2,10.76
2153,0,-3,-2,-1,-3,-3,0,0,10.765
2154,0,-1,-2,1,0,-1,-4,0,10.77
2155,-2,-2,0,-1,0,-2,-1,-1,10.775
2156,-1,-2,-3,-2,-2,0,-1,-2,10.78
2157,1,1,-1,0,0,0,0,0,10.785
2158,-2,-3,0,-2,-1,-2,-2,-1,10.790000000000001
2159,-1,-1,-2,-2,-1,-1,0,-2,10.795
2160,-3,1,1,0,0,-1,-1,0,10.8
2161,-1,-1,0,-1,-1,-2,1,-1,10.805
2162,-1,0,2,1,-1,0,1,1,10.81
2163,-2,-2,-7,-5,-1,-2,-1,0,10.815
2164,1,0,6,-1,1,0,0,1,10.82
2165,-1,0,-7,2,-2,-1,0,0,10.825000000000001
2166,-2,-2,1,-1,-2,-1,-3,-1,10.83
2167,0,-1,1,1,-1,0,0,0,10.835
2168,0,-1,-2,1,1,2,-1,-1,10.84
2169,0,-3,5,0,0,1,-2,-1,10.845
2170,0,3,-2,0,0,0,0,-1,10.85
2171,-1,-2,-3,-1,0,1,1,-1,10.855
2172,-2,-1,4,3,-2,-1,-1,-1,10.86
2173,0,-4,-4,-5,-1,1,0,0,10.865
2174,-1,1,-1,-2,-1,0,1,-3,10.870000000000001
2175,1,-1,1,2,-2,-1,-2,1,10.875
2176,2,0,-1,0,0,-1,0,0,10.88
2177,-1,1,-2,-2,-2,-2,-1,0,10.885
2178,-2,-2,-4,0,-4,-2,-1,-1,10.89
2179,1,2,0,-3,0,0,0,2,10.895
2180,-3,0,3,-1,0,1,-2,-1,10.9
2181,1,-2,-6,0,1,-1,0,-1,10.905
2182,-2,0,1,0,0,3,-2,-1,10.91
2183,0,-2,-1,-1,0,-1,-2,-2,10.915000000000001
2184,1,-1,-1,-3,0,1,0,2,10.92
2185,1,1,3,1,0,-1,-2,1,10.925
2186,-2,-1,-2,0,1,-1,1,-1,10.93
2187,0,1,1,0,-1,-1,0,-1,10.935
2188,-2,-1,-2,0,0,-2,1,0,10.94
2189,-4,-2,-1,-1,-2,0,-1,-1,10.945
2190,-2,0,-2,-2,0,0,-1,0,10.950000000000001
2191,-1,-2,-2,-4,-4,-3,-2,-1,10.955
2192,-1,-3,-4,0,-3,-1,-2,-3,10.96
2193,0,5,3,0,-1,-1,0,-2,10.965
2194,1,-2,0,3,0,-1,-1,-2,10.97
2195,-1,-1,-2,0,1,-3,-1,-1,10.975
2196,0,-1,0,0,-1,0,-1,-1,10.98
2197,-2,-4,-2,-1,-1,1,0,-2,10.985
2198,2,2,0,-2,-2,-1,0,0,10.99
2199,-1,2,2,4,0,0,-1,-2,10.995000000000001
2200,0,0,-1,-1,0,-2,1,0,11.0
2201,-2,-1,1,-3,-2,-2,-2,-1,11.005
2202,-1,0,-4,0,1,0,0,-1,11.01
2203,-1,-1,-2,-1,-1,-1,1,0,11.015
2204,-2,-1,-3,-1,0,-1,0,0,11.02
2205,-2,1,-2,-1,-1,-1,-1,-1,11.025
2206,-1,-2,4,2,-2,0,-1,-2,11.03
2207,-2,-2,-6,-5,-3,-1,-1,-4,11.035
2208,-1,0,-1,-2,0,0,-2,0,11.040000000000001
2209,-1,-1,-4,-1,-2,1,-2,0,11.045
2210,0,0,-1,-1,-2,-3,-2,-1,11.05
2211,-1,0,2,6,2,1,-2,-1,11.055
2212,-1,-3,-5,-4,-2,0,1,-1,11.06
2213,-2,-3,0,0,-1,1,1,-1,11.065
2214,-1,-1,-1,2,2,1,-1,1,11.07
2215,-2,-2,0,-5,-3,-1,0,-1,11.075000000000001
2216,-2,-1,0,3,0,0,-2,-2,11.08
2217,0,0,-1,-1,-1,0,0,-1,11.085
2218,-1,0,-3,-1,-1,-1,1,-1,11.09
2219,1,-1,-2,-1,-1,-1,-2,-1,11.095
2220,-1,1,0,-2,0,-1,-1,-1,11.1
2221,0,0,-1,-1,0,-2,-2,-1,11.105
2222,0,-1,-2,-3,-2,0,-1,-1,11.11
2223,-1,-3,0,1,0,-1,-1,-1,11.115
2224,-1,-1,-1,-4,-1,-3,-1,-1,11.120000000000001
2225,0,-1,-1,-2,1,-2,-1,-1,11.125
2226,0,-2,-1,-3,-1,-2,-2,-1,11.13
2227,-2,0,1,-3,-2,-1,0,-1,11.135
2228,-1,2,-1,1,1,0,0,-1,11.14
2229,-2,0,2,4,-1,-1,-1,-1,11.145
2230,0,-4,-6,-2,0,-1,0,-1,11.15
2231,-2,-2,1,-3,-1,0,-2,-2,11.155
2232,0,1,0,2,-1,-3,-1,0,11.16
2233,-1,0,-1,-2,-3,-2,-1,0,11.165000000000001
2234,-2,-2,2,-1,-2,1,-1,0,11.17
2235,-1,-1,-1,2,0,-1,1,1,11.175
2236,-2,1,-3,-1,-1,0,0,-1,11.18
2237,0,-2,2,-1,1,-1,-1,-2,11.185
2238,-1,-1,1,-1,-2,-2,0,-1,11.19
2239,0,0,-3,-1,-1,1,1,0,11.195
2240,-1,-1,-2,-2,-2,0,-2,-1,11.200000000000001
2241,0,0,-1,2,-1,-2,0,0,11.205
2242,-2,0,-2,-4,-2,-2,-2,0,11.21
2243,-2,-4,-3,1,-1,1,0,-2,11.215
2244,0,0,1,-1,0,-2,0,-2,11.22
2245,-1,0,0,3,1,-1,-1,0,11.225
2246,-2,0,-3,-3,0,0,-2,-1,11.23
2247,0,0,2,0,-1,-2,0,0,11.235
2248,0,-2,-1,-1,-1,0,-3,-1,11.24
2249,-1,-1,7,1,-1,-1,0,-2,11.245000000000001
2250,1,-1,-10,0,-1,-1,-1,-2,11.25
2251,1,1,-1,-1,-2,-1,-2,-1,11.255
2252,0,-1,-1,-2,0,-1,0,-1,11.26
2253,-2,-1,-4,-2,1,-1,0,-1,11.265
2254,-2,0,3,0,-1,0,1,1,11.27
2255,0,0,-2,-1,0,-2,-3,0,11.275
2256,-2,-2,-1,-1,-3,-1,-1,1,11.28
2257,0,0,0,1,0,0,0,2,11.285
2258,-1,-2,0,-3,1,-1,1,0,11.290000000000001
2259,-1,-1,-1,-2,-2,-2,0,-1,11.295
2260,-1,-1,1,0,0,-1,-3,0,11.3
2261,-1,-1,-6,-3,-1,-1,-1,0,11.305
2262,0,1,3,3,0,1,-1,0,11.31
2263,1,0,4,0,1,-3,0,0,11.315
2264,-1,-1,-2,-2,-1,0,-1,-1,11.32
2265,-1,0,-4,-3,-1,1,-1,-1,11.325000000000001
2266,-1,-1,0,0,-3,-2,-1,-1,11.33
2267,0,0,-1,-1,0,0,-2,1,11.335
2268,-1,0,-2,0,0,-1,0,-3,11.34
2269,1,-2,0,1,-1,-1,-1,-1,11.345
2270,-1,-1,0,-2,-2,-1,2,-1,11.35
2271,0,1,0,-3,-1,0,1,0,11.355
2272,-1,-3,-2,1,-1,-1,-3,1,11.36
2273,1,-1,0,-2,-1,1,-1,-2,11.365
2274,0,0,1,0,-1,-1,0,-2,11.370000000000001
2275,0,1,0,2,-1,-1,-1,-2,11.375
2276,-1,-2,-1,-2,-1,2,0,-1,11.38
2277,0,-1,-2,-6,-2,-3,-3,-1,11.385
2278,0,-1,0,-1,-1,-1,-3,-2,11.39
2279,-2,0,0,0,-1,-2,-1,-1,11.395
2280,-1,-1,7,-2,1,-2,0,0,11.4
2281,-1,-3,-10,-1,-1,-1,0,-2,11.405
2282,-1,-1,0,-2,-2,1,0,0,11.41
2283,0,-1,1,3,-1,-1,0,-1,11.415000000000001
2284,0,-2,-4,-9,-2,-2,-1,-3,11.42
2285,0,-1,3,0,0,1,-1,0,11.425
2286,0,-2,1,-1,-2,-1,-1,0,11.43
2287,-2,-1,-5,-1,-2,0,-1,-3,11.435
2288,-1,1,-1,2,-1,-1,0,0,11.44
2289,0,1,2,1,0,0,-1,0,11.445
2290,-2,1,-2,1,0,-1,1,-1,11.450000000000001
2291,-1,-1,0,-1,-2,-1,0,-2,11.455
2292,0,2,-2,0,0,-1,0,-2,11.46
2293,-2,0,-1,-1,1,-2,1,1,11.465
2294,0,-2,2,1,2,1,-1,1,11.47
2295,1,-2,-3,-5,-1,1,-4,0,11.475
2296,0,1,-2,-2,-3,0,-1,-1,11.48
2297,0,0,2,3,0,0,-1,-2,11.485
2298,1,1,-2,-2,-1,-3,-2,-1,11.49
2299,-2,-1,-1,1,-1,-3,-3,-1,11.495000000000001
2300,0,1,-2,0,-1,0,0,-1,11.5
2301,0,0,1,-1,-2,-2,-1,-2,11.505
2302,1,1,-1,0,-2,0,0,0,11.51
2303,-1,-1,-1,0,1,1,0,0,11.515
2304,0,1,-1,0,1,-2,1,1,11.52
2305,0,-2,0,-2,-2,-1,1,-1,11.525
2306,-1,-1,1,2,-1,-2,-1,-1,11.53
2307,0,-1,-4,-3,-1,-1,-1,0,11.535
2308,-1,-2,1,-1,0,-1,-2,-1,11.540000000000001
2309,-1,-1,-2,-1,-2,0,1,-1,11.545
2310,-1,-2,-1,-4,-1,-1,-2,-1,11.55
2311,-1,-2,1,3,0,1,1,-1,11.555
2312,-2,-4,-3,0,0,0,-2,-2,11.56
2313,-1,0,1,-1,-1,-2,-2,-1,11.565
2314,-1,0,-2,-4,-1,0,-2,-1,11.57
2315,-1,2,0,1,0,0,0,0,11.575000000000001
2316,-1,0,1,1,-1,-2,-1,0,11.58
2317,2,0,-2,1,-2,-2,-2,-1,11.585
2318,-2,-2,0,-1,-2,0,-1,-2,11.59
2319,0,0,0,-4,-1,-1,0,-1,11.595
2320,0,-1,-1,1,-2,1,1,0,11.6
2321,-2,-1,-3,-4,-1,0,-1,-1,11.605
2322,-2,-1,-5,3,0,-2,-2,0,11.61
2323,0,-1,0,0,-2,-3,-1,0,11.615
2324,0,0,1,1,1,-1,0,1,11.620000000000001
2325,-1,-2,-1,-1,0,-1,-2,-2,11.625
2326,1,-1,2,-3,-1,-2,-1,-2,11.63
2327,-2,0,1,2,-1,-2,-1,0,11.635
2328,0,-1,-4,-1,-3,-1,-2,0,11.64
2329,0,0,1,2,0,1,-2,0,11.645
2330,0,-1,-4,-5,-2,-1,0,0,11.65
2331,-3,0,0,-2,1,0,-1,0,11.655
2332,-2,-2,-2,-1,-1,-2,-1,-1,11.66
2333,-1,-1,-1,1,-1,0,1,1,11.665000000000001
2334,-2,-3,1,2,1,0,-2,-1,11.67
2335,0,0,-2,-1,-1,0,0,0,11.675
2336,-2,1,0,1,-1,1,0,-1,11.68
2337,-1,-3,-2,-5,-2,1,0,-2,11.685
2338,1,1,-2,-2,-2,-1,0,-1,11.69
2339,1,-2,0,1,-3,-3,-2,-2,11.695
2340,0,-2,-3,-4,-2,-3,-4,-3,11.700000000000001
2341,-1,-1,-2,1,-1,2,1,-1,11.705
2342,-2,1,-2,-2,-2,-1,0,-2,11.71
2343,0,0,0,-2,-2,-1,0,-3,11.715
2344,-1,0,-3,-2,-1,-1,-1,0,11.72
2345,-4,-1,0,1,-1,-2,-2,-1,11.725
2346,0,0,1,-1,-1,0,-1,-1,11.73
2347,-1,-1,-2,-1,-1,1,0,0,11.735
2348,-1,1,0,-1,-1,-1,0,0,11.74
2349,1,0,0,0,0,-2,1,0,11.745000000000001
2350,-1,-1,1,0,0,0,0,1,11.75
2351,0,0,-2,-2,-2,-1,-1,-2,11.755
2352,0,-1,1,-1,-1,0,0,-2,11.76
2353,-1,-1,-1,-1,-1,-2,-2,0,11.765
2354,-1,-1,-4,-2,0,-1,-1,-1,11.77
2355,0,0,-2,-1,-2,0,0,-1,11.775
2356,1,0,2,1,0,1,0,-2,11.78
2357,-1,-1,1,-2,-1,-1,-2,-2,11.785
2358,-2,0,-1,0,0,-1,0,-1,11.790000000000001
2359,-2,-1,-1,-2,-1,-2,-1,0,11.795
2360,0,-2,-3,1,0,-3,0,1,11.8
2361,-1,-2,-4,-4,-1,-2,-1,0,11.805
2362,-1,-2,0,1,-3,0,-1,-2,11.81
2363,0,-1,-1,1,0,-3,0,-2,11.815
2364,-2,-3,-1,-1,-1,0,1,-2,11.82
2365,0,0,1,-1,-2,0,-1,1,11.825000000000001
2366,1,0,-2,-1,-1,-2,-2,1,11.83
2367,-1,-1,1,2,-1,3,1,-1,11.835
2368,-1,1,0,-3,-1,-2,-2,0,11.84
2369,0,0,-1,0,-1,2,-1,0,11.845
2370,-1,-2,0,1,-2,0,-1,-1,11.85
2371,1,-1,3,3,2,-2,-2,0,11.855
2372,0,-1,-5,-8,-2,-1,0,0,11.86
2373,-1,0,-1,-2,-2,-3,-1,-3,11.865
2374,-1,-1,-1,-1,-2,-2,-1,-1,11.870000000000001
2375,2,1,-3,-3,-2,-1,1,2,11.875
2376,0,1,4,4,1,1,-1,-2,11.88
2377,-1,-3,1,3,-2,-2,-2,-2,11.885
2378,-2,-1,-1,-1,-1,-1,-1,-1,11.89
2379,-2,-1,-3,-4,-3,-3,-2,-2,11.895
2380,0,0,-2,-3,0,-1,-2,0,11.9
2381,-2,0,-2,-3,-1,-1,1,0,11.905
2382,-1,-1,0,-2,-1,-1,1,-2,11.91
2383,-1,0,7,0,1,-1,-2,0,11.915000000000001
2384,-1,-3,-8,0,-2,-2,-1,-1,11.92
2385,-1,-1,1,0,-1,0,0,1,11.925
2386,-3,-1,0,-2,-1,0,0,0,11.93
2387,0,-2,-3,1,-2,0,-2,0,11.935
2388,0,0,0,-3,-1,-3,0,-1,11.94
2389,0,0,-2,-2,-2,2,1,-1,11.945
2390,0,-2,0,0,-2,-1,1,0,11.950000000000001
2391,-1,1,0,1,1,1,-1,-1,11.955
2392,0,-1,1,-1,1,-1,-2,0,11.96
2393,1,1,0,-2,-1,1,-1,-1,11.965
2394,0,-1,2,0,0,0,-1,-2,11.97
2395,-1,0,-3,-2,-1,-1,-1,-1,11.975
2396,-3,-2,1,1,-3,1,-1,-2,11.98
2397,1,-1,-1,-2,-1,-1,-1,0,11.985
2398,-1,1,0,0,2,-1,0,0,11.99
2399,1,-1,-5,-4,-2,-2,-2,1,11.995000000000001
2400,-3,0,1,1,-3,1,1,-1,12.0
2401,-1,-1,-1,0,-2,-3,-1,-1,12.005
2402,-2,0,-2,-3,-2,0,-2,1,12.01
2403,-1,-2,-2,-1,-2,0,1,0,12.015
2404,2,1,0,1,0,-2,-1,0,12.02
2405,-2,-3,0,-2,-1,0,-2,-1,12.025
2406,0,0,0,1,2,-1,-1,0,12.030000000000001
2407,0,0,6,-3,0,0,1,-1,12.035
2408,0,-3,-11,-2,0,-1,-1,0,12.040000000000001
2409,-2,-1,-1,1,1,-1,0,-1,12.045
2410,0,0,-1,1,0,0,-2,-1,12.05
2411,-2,0,-3,0,0,-2,-5,0,12.055
2412,-2,-1,4,0,-1,0,2,-1,12.06
2413,1,1,-1,3,0,0,0,-1,12.065
2414,1,-3,-4,-5,-3,-3,0,-2,12.07
2415,-1,0,-2,0,-1,0,1,-2,12.075000000000001
2416,-1,-1,1,-3,-2,-1,0,1,12.08
2417,1,2,-1,-2,-1,-1,0,0,12.085
2418,0,-1,1,0,1,2,-1,0,12.09
2419,-2,-2,-2,1,-2,-2,-2,-1,12.095
2420,-1,-1,-1,-1,-1,-1,-1,-2,12.1
2421,-3,-2,-1,-1,0,-1,0,0,12.105
2422,-1,1,2,0,0,0,-2,-2,12.11
2423,1,-2,-1,1,-2,-2,0,-2,12.115
2424,1,1,-1,-1,1,-1,0,-1,12.120000000000001
2425,0,-2,0,-1,-1,0,-3,0,12.125
2426,-1,0,-5,-7,-3,-1,0,0,12.13
2427,-1,0,-2,-2,-2,-1,-1,-1,12.135
2428,0,-2,1,3,-3,0,-1,-2,12.14
2429,-1,-3,-4,-4,-1,-3,1,-1,12.145
2430,-2,-3,0,2,-2,0,0,0,12.15
2431,-2,-2,-2,-2,-1,-1,1,-1,12.155000000000001
2432,-2,-1,0,-2,-2,-2,0,0,12.16
2433,-1,-2,-1,0,0,0,-3,-2,12.165000000000001
2434,1,0,-3,-2,-3,1,0,0,12.17
2435,-3,-2,-5,-1,1,2,-1,-1,12.175
2436,-1,1,2,0,0,-2,-2,-1,12.18
2437,-2,0,-1,4,-1,0,0,-2,12.185
2438,0,-1,1,-1,-1,-3,-1,0,12.19
2439,1,0,1,0,-2,-1,1,1,12.195
2440,1,1,-5,-2,0,2,0,-1,12.200000000000001
2441,-2,-2,3,0,-1,-2,-1,0,12.205
2442,-1,0,0,1,2,2,-2,-1,12.21
2443,0,-3,-1,-2,-1,-2,-1,-1,12.215
2444,-2,0,1,2,-1,-1,-2,-1,12.22
2445,-1,0,2,0,-1,-2,0,-1,12.225
2446,0,-1,-4,-5,-3,-2,-1,0,12.23
2447,0,0,1,2,0,-1,-2,-1,12.235
2448,-2,-4,0,-4,-1,-2,-1,-3,12.24
2449,-1,2,-1,0,0,2,-1,0,12.245000000000001
2450,-2,0,1,3,-1,-2,-1,-1,12.25
2451,-1,-2,-2,-1,0,0,-1,0,12.255
2452,1,-1,0,-2,-2,-1,0,1,12.26
2453,2,-1,-3,-3,0,-2,0,0,12.265
2454,0,0,1,0,0,-1,-2,-2,12.27
2455,-1,0,-3,-1,-1,-2,-1,-1,12.275
2456,-2,-3,-1,-2,-2,1,0,-1,12.280000000000001
2457,0,-1,-1,0,-3,-1,0,-1,12.285
2458,-1,-2,1,-4,-4,-4,-3,-2,12.290000000000001
2459,-2,0,-1,-2,-1,-1,2,0,12.295
2460,0,-3,-1,0,0,1,-1,0,12.3
2461,-1,-2,-1,-5,-3,-1,-2,-1,12.305
2462,0,0,-1,1,0,0,0,0,12.31
2463,1,1,-1,-3,-2,-3,-3,-2,12.315
2464,1,2,0,0,0,-2,-1,0,12.32
2465,-2,-2,-2,-4,-1,-1,-1,-2,12.325000000000001
2466,0,0,-1,2,0,-1,2,-1,12.33
2467,-1,-1,-3,-1,0,-1,0,-1,12.335
2468,-1,-1,-1,-2,-1,0,0,-2,12.34
2469,-1,0,1,0,0,-1,0,0,12.345
2470,0,0,-4,-2,-1,-1,-2,0,12.35
2471,0,-1,0,4,-1,0,-2,1,12.355
2472,-2,-1,-1,-3,-1,-1,0,1,12.36
2473,0,2,-1,-1,-1,0,1,-1,12.365
2474,-2,-2,-1,-2,-2,-2,1,-1,12.370000000000001
2475,-1,-1,1,2,0,1,-1,-2,12.375
2476,1,-1,0,-1,-2,0,-1,-2,12.38
2477,1,-1,-2,1,0,-2,-1,-1,12.385
2478,-1,-1,-1,0,0,-2,-1,0,12.39
2479,1,1,0,-2,0,1,0,-1,12.395
2480,-1,-1,-2,-1,-2,-2,-3,-2,12.4
2481,-2,-1,-2,-1,-1,-1,1,0,12.405000000000001
2482,-1,0,1,1,0,-1,1,-2,12.41
2483,0,0,-1,-1,-1,-2,-2,-1,12.415000000000001
2484,-1,-2,-2,1,0,-1,-1,-2,12.42
2485,1,-1,-1,-1,-1,-1,-1,0,12.425
2486,1,-2,-1,0,-1,-1,-1,-1,12.43
2487,-1,-1,-4,-3,-2,-1,0,0,12.435
2488,-1,0,-1,-1,0,-1,0,0,12.44
2489,-1,-1,-2,-1,-1,0,-2,0,12.445
2490,-1,0,2,2,-2,1,0,-2,12.450000000000001
2491,0,-1,-2,1,0,-1,0,-1,12.455
2492,-2,-1,-1,0,-1,-1,-1,0,12.46
2493,0,0,1,0,-2,0,-1,0,12.465
2494,0,1,-3,-1,-1,3,-1,0,12.47
2495,-3,0,1,1,-1,-2,-2,-2,12.475
2496,0,0,0,-1,0,2,0,0,12.48
2497,-1,-2,0,-2,1,-1,0,-1,12.485
2498,-1,-1,-5,-4,-2,-2,0,-2,12.49
2499,-1,0,2,2,-1,-1,0,-1,12.495000000000001
2500,-1,-1,-2,-3,-1,1,0,0,12.5
2501,-1,0,-2,3,0,0,-2,-2,12.505
2502,-1,-2,-4,-3,-2,-2,-3,-2,12.51
2503,-2,-1,-2,-1,-1,0,-1,-1,12.515
2504,1,0,1,2,0,1,0,-2,12.52
2505,-2,0,-2,1,-1,-1,0,0,12.525
2506,-3,-2,-1,0,3,0,1,0,12.530000000000001
2507,-1,-1,0,-3,0,0,-2,0,12.535
2508,0,-2,2,-2,-1,-2,-1,-1,12.540000000000001
2509,1,-2,1,-1,-2,0,0,0,12.545
2510,0,0,-1,-1,-2,-1,-2,0,12.55
2511,-2,-5,-3,-2,-1,-1,0,0,12.555
2512,0,-2,-3,0,-1,-2,0,-1,12.56
2513,1,1,1,1,-1,-2,0,0,12.565
2514,0,0,0,0,-2,0,-2,-1,12.57
2515,1,1,-1,0,-2,1,0,-1,12.575000000000001
2516,-1,1,-2,-3,-2,-1,-1,1,12.58
2517,-1,-2,-3,-1,0,0,0,-1,12.585
2518,-1,0,0,0,1,0,-1,1,12.59
2519,0,1,-2,1,0,0,1,-1,12.595
2520,-3,0,-4,-5,-1,-2,-2,0,12.6
2521,0,0,-2,-1,-2,-1,-2,-1,12.605
2522,0,1,0,0,-2,0,0,2,12.61
2523,-1,-3,-1,-3,-2,-2,0,-1,12.615
2524,0,-1,-2,2,2,2,0,0,12.620000000000001
2525,-2,-3,-1,-1,0,-3,0,-2,12.625
2526,1,-1,-2,-1,-3,0,-2,-1,12.63
2527,1,0,-1,-1,-1,0,-3,-3,12.635
2528,0,-1,0,1,-2,-1,-1,-1,12.64
2529,-2,0,0,-2,-1,0,-2,-2,12.645
2530,-1,-1,0,3,0,-2,0,0,12.65
2531,-2,-3,0,-3,-2,-3,-2,0,12.655000000000001
2532,2,-1,1,0,-2,-2,-2,0,12.66
2533,0,-1,-2,-4,-2,1,-1,-1,12.665000000000001
2534,-1,0,-2,-1,-1,-3,0,-1,12.67
2535,0,-1,-1,2,0,2,1,-1,12.675
2536,-1,-1,-2,-1,1,-1,-2,0,12.68
2537,0,-1,-4,-4,-3,-2,-1,0,12.685
2538,-1,1,3,-2,-1,-1,-1,0,12.69
2539,-1,-1,-6,1,2,-1,-2,0,12.695
2540,-2,0,1,-2,-1,-1,-2,-1,12.700000000000001
2541,-1,-3,-1,-1,-1,0,-2,0,12.705
2542,0,-1,0,-2,1,-1,0,0,12.71
2543,0,2,2,-1,0,0,-1,-1,12.715
2544,-1,-2,-2,0,0,-1,0,-1,12.72
2545,-1,-2,-3,-3,-2,0,0,-1,12.725
2546,0,-1,0,0,-3,-3,0,-2,12.73
2547,-1,-2,0,1,0,-2,1,1,12.735
2548,0,2,-1,1,-1,0,0,0,12.74
2549,1,0,0,-3,-1,-1,-1,-1,12.745000000000001
2550,-1,-3,-4,-2,-1,1,0,-1,12.75
2551,-1,-1,0,-2,0,-2,-1,-1,12.755
2552,-1,0,-1,1,-2,-1,-1,-1,12.76
2553,-1,0,1,7,1,-1,-1,0,12.765
2554,-1,-1,-2,-2,-3,-1,0,-1,12.77
2555,-2,-3,-2,-6,0,-1,-3,0,12.775
2556,-3,-2,1,-2,-2,-2,-2,-1,12.780000000000001
2557,-2,-1,-2,-2,-1,-1,0,1,12.785
2558,2,1,-1,-1,0,1,-1,0,12.790000000000001
2559,1,0,1,-2,-1,-1,0,0,12.795
2560,0,-3,0,3,0,0,-1,-2,12.8
2561,1,-1,0,-2,0,-1,-2,-2,12.805
2562,-2,-1,-2,-3,0,-2,-1,-1,12.81
2563,1,-2,-3,1,-2,3,0,0,12.815
2564,1,1,0,0,0,-2,-1,0,12.82
2565,0,0,2,1,2,0,-1,0,12.825000000000001
2566,-1,1,-7,3,0,-1,-3,0,12.83
2567,-2,-3,1,-5,-4,-4,-2,-3,12.835
2568,0,0,-2,-3,-2,1,-1,-1,12.84
2569,0,2,-1,0,-3,-2,-1,0,12.845
2570,0,-1,4,3,1,0,1,-1,12.85
2571,-1,1,-2,2,-1,-3,0,0,12.855
2572,0,-3,-1,0,0,0,1,-1,12.86
2573,-1,-2,-1,-3,0,0,1,0,12.865
2574,-3,-2,-2,-2,-1,-2,-2,-1,12.870000000000001
2575,1,-1,-3,-2,-2,0,-2,0,12.875
2576,-1,-1,-2,-2,-1,-1,0,-1,12.88
2577,-1,-2,0,-1,-1,-2,-1,-1,12.885
2578,-2,-1,1,4,-1,-1,0,0,12.89
2579,-2,-1,-4,-2,0,0,2,-1,12.895
2580,-1,1,-1,0,-2,-1,1,0,12.9
2581,0,-2,-3,-2,-1,-2,-1,-2,12.905000000000001
2582,0,-4,1,0,-2,0,-1,-1,12.91
2583,0,-2,0,-1,-1,-2,-2,0,12.915000000000001
2584,0,-1,-2,0,0,0,-1,-1,12.92
2585,0,0,0,2,-1,-2,-1,-1,12.925
2586,-1,-1,-2,-5,-1,-1,-2,-1,12.93
2587,-2,-1,0,1,0,-1,0,-2,12.935
2588,-2,-3,-3,-5,-2,-2,-1,-1,12.94
2589,-1,0,1,0,-2,-1,0,-1,12.945
2590,-1,2,1,1,-2,0,-3,-2,12.950000000000001
2591,-2,-4,0,-2,-2,0,-1,-1,12.955
2592,-1,0,-1,-2,-1,-3,-1,0,12.96
2593,-1,-1,-4,-2,-2,-3,-3,-2,12.965
2594,0,-1,-3,-1,2,0,0,0,12.97
2595,-1,-1,0,1,-1,0,0,0,12.975
2596,-1,-3,-3,-3,0,-1,0,1,12.98
2597,1,0,2,-1,2,1,0,1,12.985
2598,2,0,2,-2,-2,0,-1,0,12.99
2599,3,1,-8,1,-2,-2,0,-2,12.995000000000001
2600,0,-1,0,0,-1,-3,-1,-1,13.0
2601,-3,1,0,0,0,-1,-3,-2,13.005
2602,-3,0,-1,-1,-2,1,0,-1,13.01
2603,0,0,2,1,-1,1,0,-1,13.015
2604,0,1,-2,-2,-1,-2,-2,1,13.02
2605,0,-1,-5,0,-2,1,1,1,13.025
2606,0,-2,1,-3,0,-1,-1,-1,13.030000000000001
2607,-2,0,0,1,0,-1,0,-2,13.035
2608,-1,-2,-2,-4,-2,0,0,-1,13.040000000000001
2609,-2,-1,2,2,-1,0,0,-2,13.045
2610,0,0,-5,-2,-2,-3,0,-1,13.05
2611,0,1,2,-3,-1,-1,-2,0,13.055
2612,-1,-1,0,2,0,-1,-1,-1,13.06
2613,1,-1,0,-3,0,0,0,0,13.065
2614,1,2,0,1,0,0,1,-1,13.07
2615,-1,-1,-3,-2,0,-2,0,0,13.075000000000001
2616,-2,-3,1,0,-1,-1,-3,-3,13.08
2617,-2,-3,-4,0,-2,-2,-1,0,13.085
2618,-2,-4,2,3,1,0,0,-1,13.09
2619,-1,2,1,-1,-1,0,-2,-1,13.095
2620,1,1,0,1,-1,0,0,0,13.1
2621,-1,-2,-3,-3,0,0,0,0,13.105
2622,0,0,-2,-3,-1,-1,-1,0,13.11
2623,0,-2,0,0,-2,-1,-1,-2,13.115
2624,1,0,6,0,-1,1,-1,0,13.120000000000001
2625,1,-2,-9,0,0,-1,-4,0,13.125
2626,1,1,-2,-2,-2,-3,-2,-1,13.13
2627,-1,-2,-1,0,0,-1,1,-1,13.135
2628,2,3,0,-1,0,1,0,0,13.14
2629,-1,-2,0,-2,-3,-1,-1,-2,13.145
2630,-2,-1,-3,2,0,0,-1,-1,13.15
2631,0,-1,-1,0,-1,0,-1,0,13.155000000000001
2632,0,-1,-3,-4,-1,-1,1,-1,13.16
2633,-1,0,4,2,0,-3,1,0,13.165000000000001
2634,-1,-2,-3,-4,-1,-4,-2,0,13.17
2635,1,1,1,1,0,-2,-1,0,13.175
2636,-1,-1,-6,0,-1,0,-1,0,13.18
2637,-1,-2,4,2,-1,2,-1,-2,13.185
2638,0,-1,0,-1,-1,0,0,-1,13.19
2639,0,-1,0,-1,0,-1,1,-1,13.195
2640,-2,-2,-1,1,0,-1,0,-2,13.200000000000001
2641,0,0,-2,-2,-2,-2,-2,1,13.205
2642,0,0,1,1,0,1,-1,0,13.21
2643,-3,-2,-1,0,1,0,-3,1,13.215
2644,0,-2,-1,1,-2,-1,-1,0,13.22
2645,1,-1,-4,-1,-2,-3,1,-1,13.225
2646,-2,-1,9,-1,0,0,0,0,13.23
2647,-2,0,-11,-3,-1,0,-1,0,13.235
2648,-3,-2,6,-1,0,-2,-1,-1,13.24
2649,-1,-1,-5,-3,0,1,-3,-1,13.245000000000001
2650,-3,0,-1,0,-2,0,-2,-1,13.25
2651,-1,1,2,-1,0,-1,0,-2,13.255
2652,1,-2,0,0,-2,0,-1,-1,13.26
2653,1,1,2,4,-1,0,0,-2,13.265
2654,-3,-1,-4,-6,-1,-1,1,-2,13.27
2655,0,-2,-3,-5,-3,-3,-4,0,13.275
2656,-2,4,-5,-1,-1,1,2,0,13.280000000000001
2657,1,-2,3,2,-1,1,-1,0,13.285
2658,-1,1,-1,3,-1,0,-1,-1,13.290000000000001
2659,0,-2,1,0,-2,-1,0,-2,13.295
2660,-2,-1,3,0,1,0,-2,-1,13.3
2661,1,-1,-4,-5,-1,-3,0,0,13.305
2662,-1,-1,-2,0,-2,-1,-1,1,13.31
2663,0,0,-2,-3,-3,0,1,-1,13.315
2664,0,-1,0,1,-1,-1,-1,-2,13.32
2665,-3,-1,2,-1,-1,1,1,-1,13.325000000000001
2666,2,-1,-3,2,-1,1,-1,2,13.33
2667,-1,-1,3,2,-1,0,-2,0,13.335
2668,0,-2,-3,-1,-4,-1,-2,-2,13.34
2669,-1,-2,-2,-7,-1,-1,-1,-2,13.345
2670,-1,-1,-2,2,-1,-1,0,-1,13.35
2671,0,0,2,2,1,1,1,1,13.355
2672,-1,-2,0,2,-1,0,-1,0,13.36
2673,0,-2,-5,-5,-3,-1,-1,1,13.365
2674,-1,-2,3,1,-1,-2,-3,0,13.370000000000001
2675,0,-2,-1,-3,0,0,1,0,13.375
2676,-1,0,3,3,0,-2,-3,0,13.38
2677,0,-2,-4,-1,-1,1,-1,-1,13.385
2678,-3,-2,0,0,1,-1,0,-1,13.39
2679,-1,-2,0,-2,-3,0,0,-1,13.395
2680,-2,0,-3,-1,-1,-1,-2,-1,13.4
2681,-2,1,4,1,-1,-2,-1,-1,13.405000000000001
2682,0,0,-3,-4,-3,-3,-1,-1,13.41
2683,2,-2,-1,2,0,0,0,0,13.415000000000001
2684,-2,-1,-2,-4,-1,-2,0,-1,13.42
2685,0,0,1,-1,-1,0,0,-1,13.425
2686,0,0,0,0,-1,0,-1,0,13.43
2687,-2,-2,-2,-3,-1,-2,-2,-1,13.435
2688,-2,-2,-4,-2,-1,-1,0,2,13.44
2689,-1,0,2,1,0,0,-2,-2,13.445
2690,0,-3,-2,-3,0,0,-1,-1,13.450000000000001
2691,-1,0,0,0,-3,1,-2,0,13.455
2692,1,2,0,1,-1,1,1,-1,13.46
2693,-3,-3,-4,-3,-3,-1,-3,1,13.465
2694,-1,-1,-1,0,0,-1,-1,-1,13.47
2695,-1,1,0,-1,1,-2,-2,-1,13.475
2696,0,-2,-3,-1,-2,0,0,-1,13.48
2697,0,0,3,2,0,-2,1,0,13.485
2698,-3,0,-2,-2,0,-1,-2,-1,13.49
2699,-2,-2,0,-1,-1,-2,3,-1,13.495000000000001
2700,0,-3,-1,1,-1,1,0,-1,13.5
2701,0,-1,-1,-1,-1,-2,-1,-1,13.505
2702,-2,0,0,0,-1,-2,1,-3,13.51
2703,2,1,-1,-1,-1,-2,-2,-1,13.515
2704,-4,-3,1,1,-1,-2,-1,-1,13.52
2705,-2,-4,0,2,-3,1,-2,-2,13.525
2706,1,2,-3,2,-1,-1,-1,1,13.530000000000001
2707,-1,0,-2,-1,-1,0,-2,-1,13.535
2708,0,0,0,-8,-3,-2,0,-1,13.540000000000001
2709,0,-2,-6,-1,0,0,0,0,13.545
2710,-1,-1,-3,-6,-3,-1,0,0,13.55
2711,-1,-1,-1,3,1,-1,-1,0,13.555
2712,1,-2,1,-2,-2,1,-2,-2,13.56
2713,-1,-1,-1,-1,-2,-2,-2,-1,13.565
2714,0,-2,2,3,0,1,-1,0,13.57
2715,0,0,1,1,-1,-1,1,0,13.575000000000001
2716,-2,-1,-6,-2,0,0,-1,-1,13.58
2717,-1,-1,1,1,-1,-1,0,-2,13.585
2718,0,-1,-2,-1,0,1,-1,-1,13.59
2719,-1,0,0,0,-1,-2,-4,1,13.595
2720,-1,0,-1,0,-1,-3,3,0,13.6
2721,1,0,0,2,0,-2,-1,-1,13.605
2722,1,-1,1,0,0,0,0,-1,13.61
2723,-2,-2,-1,-2,-1,1,0,-2,13.615
2724,0,1,-2,0,0,0,-2,1,13.620000000000001
2725,-2,-3,1,0,-1,-2,-1,-1,13.625
2726,-1,-1,-2,-2,-1,-2,-1,0,13.63
2727,-1,1,0,0,-1,0,-2,-1,13.635
2728,-3,-2,1,0,0,-3,-2,-1,13.64
2729,1,1,-1,0,1,-1,1,-1,13.645
2730,-3,-3,-1,1,-1,-2,-2,-2,13.65
2731,0,-1,-2,-1,-3,0,-2,-2,13.655000000000001
2732,0,-2,1,-1,-1,-1,1,-3,13.66
2733,-1,-1,0,-1,-1,-1,-1,-3,13.665000000000001
2734,1,1,-4,-2,-3,-2,-1,-1,13.67
2735,-1,-1,0,0,-2,-2,0,0,13.675
2736,0,-2,-5,-3,-3,-2,0,-2,13.68
2737,-2,-1,1,1,1,0,0,-1,13.685
2738,1,0,0,-2,-1,0,-1,-1,13.69
2739,-1,1,-2,1,-1,-1,-2,0,13.695
2740,1,0,1,0,0,2,0,0,13.700000000000001
2741,-2,0,-3,-2,-2,0,0,0,13.705
2742,-2,1,1,2,-1,0,-2,0,13.71
2743,-1,0,-2,-2,-1,0,0,-2,13.715
2744,1,-1,0,-1,1,-1,-2,-1,13.72
2745,2,0,-2,-2,-2,-2,-2,0,13.725
2746,-2,-3,0,0,0,-1,0,0,13.73
2747,-2,-3,-1,-1,0,0,-1,-2,13.735
2748,0,-2,-3,-4,-3,-1,-1,-2,13.74
2749,1,1,2,2,0,0,0,-2,13.745000000000001
2750,-2,-1,-3,-3,-1,-2,0,0,13.75
2751,0,-2,-1,-2,1,-1,-1,0,13.755
2752,-1,2,2,5,2,0,-1,-1,13.76
2753,-1,-1,-2,-3,1,-1,-2,-1,13.765
2754,-1,0,0,-1,-1,-2,1,-1,13.77
2755,0,0,-2,-1,-2,0,0,0,13.775
2756,-2,-2,1,1,-1,0,-1,0,13.780000000000001
2757,0,0,0,0,-1,-1,-1,-1,13.785
2758,0,0,0,1,-2,0,-2,-1,13.790000000000001
2759,-3,0,-1,-1,-1,1,0,0,13.795
2760,1,0,0,-1,-1,1,-1,-1,13.8
2761,-2,0,-3,-2,-1,-2,-2,-1,13.805
2762,-2,-2,2,-1,0,2,0,-1,13.81
2763,0,0,3,4,2,-1,-3,0,13.815
2764,-1,0,-7,-11,-3,-2,1,-1,13.82
2765,-1,0,-1,-2,-2,-1,-1,0,13.825000000000001
2766,1,1,1,-1,-1,-1,-1,-1,13.83
2767,-1,-2,-4,-3,-1,-1,0,-1,13.835
2768,-1,-2,1,2,-1,-2,-1,-1,13.84
2769,0,-1,1,-1,-1,-2,0,1,13.845
2770,1,0,-4,-3,-1,-1,-1,0,13.85
2771,-1,-2,1,0,1,0,0,0,13.855
2772,-2,-1,1,2,-1,-1,-1,0,13.86
2773,-3,-3,-2,-1,-3,0,-3,-3,13.865
2774,-2,-2,0,2,-1,-1,-1,-3,13.870000000000001
2775,1,-1,-3,-2,-2,0,0,-1,13.875
2776,-1,-2,3,0,0,2,-1,0,13.88
2777,1,0,-3,-2,-2,-1,-1,-1,13.885
2778,-1,0,1,1,-1,-1,-2,-1,13.89
2779,0,-2,-1,-3,-3,-1,1,0,13.895
2780,0,-3,-1,1,0,2,0,0,13.9
2781,0,-1,1,1,-1,-2,0,-1,13.905000000000001
2782,1,1,-1,0,0,2,1,1,13.91
2783,-1,-4,-3,-1,1,-1,-3,-2,13.915000000000001
2784,-2,0,-1,0,-2,-4,-1,-2,13.92
2785,-2,-2,1,-1,1,-2,0,-1,13.925
2786,-2,-3,-1,-1,-1,-2,-1,-3,13.93
2787,0,0,1,-2,-2,-1,-1,-1,13.935
2788,-3,-2,-1,-1,-3,-2,0,0,13.94
2789,-2,-1,-2,0,-1,1,1,1,13.945
2790,-3,-2,-1,-2,-1,-3,-2,0,13.950000000000001
2791,-3,-1,-1,0,0,0,0,-1,13.955
2792,1,0,-2,-1,-1,-2,-2,-1,13.96
2793,0,3,0,-1,-1,0,-2,-2,13.965
2794,0,0,-2,-1,-2,0,0,-1,13.97
2795,0,-1,-2,-1,-2,-1,0,-1,13.975
2796,0,2,-1,-3,1,0,-2,-1,13.98
2797,-1,-1,-1,-3,-3,0,1,0,13.985
2798,0,-1,0,-2,2,1,0,0,13.99
2799,2,0,0,0,-2,0,1,-1,13.995000000000001
2800,-2,-2,-1,2,-1,-2,-1,0,14.0
2801,0,0,-1,0,0,3,2,-1,14.005
2802,-1,2,-1,0,-1,0,-1,0,14.01
2803,-2,1,-1,-2,0,-1,-1,-1,14.015
2804,-2,-4,-1,1,-1,-3,-2,-1,14.02
2805,-1,-1,-1,0,0,-1,0,-1,14.025
2806,-2,-1,1,-1,-2,0,-1,2,14.030000000000001
2807,-1,-1,-3,-5,-2,-2,-2,0,14.035
2808,0,0,-3,-3,-2,1,1,-1,14.040000000000001
2809,-1,0,-2,1,0,-4,-1,-2,14.045
2810,0,-2,-3,-5,-1,-2,-1,-1,14.05
2811,-1,1,0,0,-1,-3,0,0,14.055
2812,0,0,-1,-1,0,0,0,-2,14.06
2813,-2,-2,-1,-2,-1,-2,-1,-1,14.065
2814,-1,-1,0,3,0,-1,-1,0,14.07
2815,-1,-1,1,-1,0,-2,-1,-1,14.075000000000001
2816,1,0,-2,0,-2,2,2,0,14.08
2817,-1,-1,-1,1,0,-1,-2,0,14.085
2818,-1,-1,-2,-1,-3,-4,0,0,14.09
2819,-1,-1,0,2,1,-1,-1,-1,14.095
2820,-1,-1,-2,0,-1,-1,0,-1,14.1
2821,-2,-4,-2,-1,-1,-1,-1,-1,14.105
2822,1,-1,0,-2,-1,1,0,-1,14.11
2823,-1,-3,-4,-4,-2,-1,0,-2,14.115
2824,-1,0,0,1,0,0,1,0,14.120000000000001
2825,0,1,4,3,1,1,-1,0,14.125
2826,-2,2,-6,-6,-3,-1,-2,0,14.13
2827,-2,-1,-1,2,-1,0,-2,-2,14.135
2828,0,0,1,-1,-1,-3,-3,0,14.14
2829,-1,-1,-2,-3,1,3,-1,0,14.145
2830,1,-1,1,-1,0,-2,0,-3,14.15
2831,-1,1,0,0,-2,-1,-4,-1,14.155000000000001
2832,0,-2,0,-2,-1,-3,0,-2,14.16
2833,1,1,1,-1,-2,-2,-1,-1,14.165000000000001
2834,-2,0,-2,1,1,-2,0,-2,14.17
2835,-1,-1,-2,2,0,1,-1,0,14.175
2836,0,0,-2,-2,-1,-2,-2,0,14.18
2837,-1,0,0,-2,-1,-1,-2,-1,14.185
2838,0,-1,-1,-2,0,0,0,0,14.19
2839,1,-1,1,-2,-1,-1,1,-1,14.195
2840,-1,-2,0,-4,-1,0,0,-1,14.200000000000001
2841,-2,-1,0,0,-2,-2,0,-1,14.205
2842,-2,-1,-2,0,1,-2,-2,0,14.21
2843,-3,-3,-1,0,0,-1,-1,-1,14.215
2844,0,-2,-2,-2,-2,-1,-1,0,14.22
2845,0,0,-2,-1,-3,-2,-1,-1,14.225
2846,-1,2,3,1,0,-2,-2,-1,14.23
2847,1,-1,-1,-3,0,0,1,1,14.235
2848,-1,1,-3,1,-1,-4,-4,-2,14.24
2849,-3,-1,-3,-2,0,-1,2,1,14.245000000000001
2850,1,0,2,4,-1,2,-1,0,14.25
2851,-2,1,-2,-3,-1,-1,1,0,14.255
2852,-2,-2,-2,0,0,-2,-1,-2,14.26
2853,0,0,0,-2,1,-1,-3,0,14.265
2854,-1,-3,-3,-5,-2,-3,0,-1,14.27
2855,1,0,1,1,-3,-2,0,0,14.275
2856,-2,-3,-2,1,0,0,0,-1,14.280000000000001
2857,-2,-3,-1,0,-2,-3,-1,0,14.285
2858,-1,0,-1,-1,0,0,-1,-1,14.290000000000001
2859,0,0,0,1,1,1,-1,-1,14.295
2860,-1,-1,-1,-3,-2,-1,-1,0,14.3
2861,-1,0,0,-1,-3,1,-2,-1,14.305
2862,0,0,-2,-1,-2,-2,-1,-1,14.31
2863,1,0,-3,-2,-1,-2,-1,-1,14.315
2864,0,-2,-1,-1,-2,2,0,0,14.32
2865,-1,-1,1,0,-2,-1,-1,-1,14.325000000000001
2866,-1,-3,-1,-1,-1,2,-1,-1,14.33
2867,0,-1,-1,0,-1,-1,-3,-3,14.335
2868,0,-2,0,-1,0,1,3,0,14.34
2869,2,-1,-2,-1,0,-1,-1,-1,14.345
2870,-2,-3,-3,-2,-1,-2,1,-1,14.35
2871,-1,-2,-3,-2,0,-3,0,-1,14.355
2872,-1,-3,0,3,-2,2,-1,0,14.36
2873,-1,-1,-2,-3,0,-1,1,0,14.365
2874,1,0,-1,1,2,1,1,-1,14.370000000000001
2875,-3,-3,-2,-2,-1,-1,-1,-2,14.375
2876,-1,1,0,0,1,0,-3,-2,14.38
2877,0,-1,0,1,0,0,0,-1,14.385
2878,1,0,2,0,-1,0,-1,1,14.39
2879,1,0,0,-1,-3,1,-1,1,14.395
2880,-1,-1,1,2,-1,-3,-1,-2,14.4
2881,-3,-1,-2,-4,-2,-1,0,-1,14.405000000000001
2882,-2,-2,-2,-5,-2,-1,-1,-1,14.41
2883,0,-1,0,-2,0,0,0,0,14.415000000000001
2884,0,0,-1,-1,0,1,1,1,14.42
2885,-2,-2,1,0,0,-3,-2,-2,14.425
2886,-1,-1,0,2,0,-1,-1,1,14.43
2887,-2,-2,-2,-2,-1,-1,-1,-2,14.435
2888,0,1,-1,-1,-2,-4,-3,0,14.44
2889,-1,-2,-1,-4,-1,0,0,-1,14.445
2890,0,-1,-2,1,-1,1,-1,1,14.450000000000001
2891,-1,0,0,-1,-1,-1,0,-1,14.455
2892,0,0,-2,-1,1,3,0,-1,14.46
2893,-2,0,1,2,-1,-2,0,-1,14.465
2894,0,-1,0,2,-1,-1,-1,-2,14.47
2895,-2,-1,-1,-1,-1,1,-1,-1,14.475
2896,-1,0,0,-3,-1,-1,-1,-2,14.48
2897,0,1,-1,0,0,0,-2,0,14.485
2898,-2,-2,-3,-3,-1,-1,0,-1,14.49
2899,0,-1,-1,-1,-1,-2,-1,1,14.495000000000001
2900,0,1,0,0,0,0,1,-1,14.5
2901,1,-1,1,0,-1,-1,0,0,14.505
2902,-2,-1,-1,-3,-3,-2,0,-1,14.51
2903,0,-1,-1,1,2,2,0,-2,14.515
2904,-1,-1,-1,-1,-1,-3,0,0,14.52
2905,1,0,-4,0,0,0,0,-1,14.525
2906,-2,-1,1,2,-1,-1,-1,-2,14.530000000000001
2907,-3,-1,0,-1,0,0,-1,-1,14.535
2908,-2,-1,-1,-3,0,0,-1,-1,14.540000000000001
2909,-1,1,0,0,-1,0,0,-2,14.545
2910,1,-1,-2,-2,-2,-1,1,0,14.55
2911,1,1,0,0,-2,-2,0,-1,14.555
2912,0,-2,-1,-1,-2,-3,-1,0,14.56
2913,-2,-2,-3,-1,-1,-2,-4,1,14.565
2914,-2,1,0,-1,-1,2,2,0,14.57
2915,-2,-1,0,1,-2,-1,0,0,14.575000000000001
2916,1,0,-3,-4,-1,-1,0,-2,14.58
2917,-2,0,2,-1,1,0,-1,0,14.585
2918,1,0,0,1,0,0,-1,0,14.59
2919,0,1,0,-2,-1,1,-1,3,14.595
2920,-1,0,0,-2,-1,-2,-2,0,14.6
2921,0,-2,0,-1,-2,1,-1,-1,14.605
2922,0,-1,0,1,2,-1,-1,0,14.61
2923,-1,0,0,2,0,0,0,-1,14.615
2924,-2,-2,0,0,-1,-1,-3,-1,14.620000000000001
2925,1,1,-1,-2,1,-2,1,-1,14.625
2926,-2,0,-1,0,-1,2,-1,0,14.63
2927,1,0,-2,-2,1,-1,0,0,14.635
2928,-3,-2,1,-2,-1,-2,0,-2,14.64
2929,-3,0,-3,-1,-1,-3,-1,-1,14.645
2930,0,-2,2,-1,-1,-2,-3,-3,14.65
2931,-1,-2,-3,-4,-3,-1,-2,-1,14.655000000000001
2932,0,-1,0,-1,-2,1,1,-1,14.66
2933,-1,-2,0,0,-1,0,0,-1,14.665000000000001
2934,0,-3,-1,-3,-1,-2,-3,0,14.67
2935,-2,1,0,-1,-1,4,0,0,14.675
2936,-1,-1,-1,-1,-2,-1,-1,0,14.68
2937,-1,-2,-1,0,0,0,0,-1,14.685
2938,-2,0,1,1,0,-2,-1,1,14.69
2939,0,-2,0,0,-1,-2,-2,-1,14.695
2940,0,1,-2,1,-1,1,0,0,14.700000000000001
2941,0,-1,-2,-3,-1,0,-2,-1,14.705
2942,-1,-1,-1,-1,-3,0,-1,-1,14.71
2943,-1,1,1,0,-3,-5,-1,-1,14.715
2944,1,-2,-3,-1,1,0,1,0,14.72
2945,-1,0,-1,0,0,0,-1,-1,14.725
2946,-1,1,-4,-1,1,-1,-1,-1,14.73
2947,-2,-1,-2,-3,-3,-2,0,0,14.735
2948,-1,-1,-1,1,0,-1,-1,-2,14.74
2949,-1,0,-2,-2,-1,-3,1,0,14.745000000000001
2950,1,1,-2,1,0,0,1,-1,14.75
2951,0,0,-1,0,0,0,-1,-1,14.755
2952,-1,1,2,1,-1,-1,-1,-1,14.76
2953,0,-1,0,-1,-3,1,0,1,14.765
2954,-1,-1,-3,-2,1,0,-2,-1,14.77
2955,-2,-1,-1,-2,0,-3,-3,-1,14.775
2956,-1,0,0,-1,0,3,2,-1,14.780000000000001
2957,-2,-1,-1,0,0,-3,-2,-1,14.785
2958,0,-1,-1,-4,-3,-1,-2,-1,14.790000000000001
2959,0,-2,-1,0,-1,1,-1,-2,14.795
2960,-1,0,0,-2,-1,-3,-3,-1,14.8
2961,-1,1,-1,-1,-2,0,-1,-2,14.805
2962,-1,-1,0,1,0,-1,0,-3,14.81
2963,-2,-4,-1,-2,-3,-3,0,0,14.815
2964,-1,0,-1,0,-1,0,-1,0,14.82
2965,1,-1,-2,0,-1,-1,0,0,14.825000000000001
2966,-2,-2,1,1,-1,0,-1,0,14.83
2967,-2,-2,0,0,-1,0,-1,-1,14.835
2968,0,0,-1,0,-1,-5,-1,0,14.84
2969,-2,-2,-1,0,1,4,-1,-2,14.845
2970,1,0,-3,-3,-2,-4,0,0,14.85
2971,0,-2,0,2,1,0,1,1,14.855
2972,-1,-1,1,-2,-1,-4,1,-1,14.86
2973,-1,-1,-1,-2,0,1,0,-1,14.865
2974,0,-2,2,0,-1,0,0,0,14.870000000000001
2975,1,0,-1,0,1,2,-2,0,14.875
2976,-2,-5,1,1,-2,-1,-2,-1,14.88
2977,1,-1,-2,-4,-2,1,0,0,14.885
2978,-2,1,1,-1,1,0,-3,-1,14.89
2979,-1,0,1,0,0,-3,0,-1,14.895
2980,0,0,0,-1,-1,0,0,0,14.9
2981,-2,-2,-1,0,-2,-3,-2,-1,14.905000000000001
2982,-3,-2,-1,0,-1,2,0,-1,14.91
2983,-1,0,0,-1,-2,-1,-1,-1,14.915000000000001
2984,1,0,-2,-3,-1,0,-3,0,14.92
2985,0,-1,-1,-2,0,-2,-1,-2,14.925
2986,1,-1,0,-1,-1,-1,-1,-2,14.93
2987,-2,-2,-2,-3,-1,-4,-2,1,14.935
2988,-3,-2,-1,-2,-3,0,0,-1,14.94
2989,0,-2,-1,-1,-1,-2,-1,0,14.945
2990,0,0,-2,-1,1,-1,-1,1,14.950000000000001
2991,-1,0,-2,0,-1,1,-1,-1,14.955
2992,2,-1,0,0,-1,-1,0,-1,14.96
2993,0,0,-1,0,0,-1,-2,-2,14.965
2994,1,0,-1,-3,0,-1,0,-1,14.97
2995,-2,-2,1,-1,-1,-1,1,-2,14.975
2996,-1,0,-1,4,2,3,-1,-1,14.98
2997,-1,0,-1,2,-2,-2,-8,-2,14.985
2998,-2,-1,1,2,-1,0,6,0,14.99
2999,1,-1,-1,-3,-3,-2,2,0,14.995000000000001
3000,0,0,-3,-1,0,-1,0,-1,15.0
3001,-2,-1,-2,0,-1,-1,0,1,15.005
3002,-1,-1,-3,-2,-2,1,-3,0,15.01
3003,0,1,-2,0,-2,0,-1,-1,15.015
3004,-1,0,-2,0,-1,-1,0,0,15.02
3005,-1,0,-1,-1,-1,-1,1,-1,15.025
3006,0,0,1,1,0,-2,-2,-2,15.030000000000001
3007,-1,-2,-1,-2,-1,0,1,-2,15.035
3008,-2,-1,-1,0,-3,-1,-1,-2,15.040000000000001
3009,-1,0,0,-1,0,-3,2,2,15.045
3010,-2,-2,0,-1,-2,-2,0,-1,15.05
3011,0,0,1,1,1,2,0,0,15.055
3012,0,0,1,-3,-1,1,-1,-1,15.06
3013,-1,-2,-1,-3,-2,0,1,-1,15.065
3014,-1,0,-3,-1,-1,-1,-1,-1,15.07
3015,0,1,1,1,-1,1,-2,1,15.075000000000001
3016,-1,-1,-1,-1,-2,-2,-1,0,15.08
3017,-2,0,0,-1,-2,-1,0,0,15.085
3018,-2,1,-2,-3,0,-1,-2,0,15.09
3019,0,-2,-2,0,-1,-1,-1,0,15.095
3020,0,-1,-1,0,0,-1,0,-2,15.1
3021,1,-2,-3,0,-2,1,0,-2,15.105
3022,0,0,0,3,-1,-3,0,-2,15.11
3023,0,-1,-1,-3,-1,1,-2,-1,15.115
3024,0,0,-2,-2,1,0,-1,0,15.120000000000001
3025,-1,-2,-1,-2,-2,0,1,-1,15.125
3026,-1,-1,1,-3,0,-1,-1,0,15.13
3027,0,1,-1,0,-1,-4,-1,-1,15.135
3028,1,-1,-5,-4,1,0,0,-1,15.14
3029,-3,0,1,0,0,0,-1,-1,15.145
3030,-2,-1,-2,-3,-3,-3,1,0,15.15
3031,-2,-2,-1,0,0,-2,0,-1,15.155000000000001
3032,-1,-2,0,1,0,-1,-1,-2,15.16
3033,-1,-1,-1,-2,-1,-2,-1,-3,15.165000000000001
3034,-1,-1,-1,2,-1,0,-2,-2,15.17
3035,-1,-1,0,-2,-1,-1,-2,-1,15.175
3036,1,0,0,-1,-1,-1,-1,0,15.18
3037,0,-1,3,0,0,0,-1,-1,15.185
3038,0,-1,-4,1,-1,-1,0,-1,15.19
3039,-2,-2,-1,-1,-4,-1,-1,-5,15.195
3040,1,-1,0,1,-1,1,1,5,15.200000000000001
3041,-1,1,0,0,1,0,0,0,15.205
3042,1,-1,0,-2,0,0,-2,1,15.21
3043,-4,0,1,2,1,-1,0,-2,15.215
3044,2,-3,-3,-4,-3,-1,-1,-5,15.22
3045,0,0,-1,1,0,-1,0,-1,15.225
3046,-2,0,2,1,0,0,2,1,15.23
3047,-1,-1,0,-1,-1,0,1,1,15.235
3048,-4,1,0,-1,-3,-2,-2,-1,15.24
3049,1,0,-2,0,0,-2,-2,0,15.245000000000001
3050,0,-3,-2,0,-1,-1,-4,-3,15.25
3051,-1,-2,-2,-2,0,-3,-1,0,15.255
3052,-3,-1,-2,0,0,-2,1,0,15.26
3053,1,0,-3,-3,-1,-4,-1,0,15.265
3054,-3,1,-2,-2,-2,0,-1,-1,15.27
3055,0,-2,-2,0,0,0,-1,-1,15.275
3056,-1,0,-2,-3,0,0,-3,-2,15.280000000000001
3057,-1,0,0,2,1,1,-1,-1,15.285
3058,0,-3,-2,-1,-1,-1,-2,-1,15.290000000000001
3059,0,1,-3,-1,-2,0,1,0,15.295
3060,-4,-3,-2,-3,-3,-1,0,-2,15.3
3061,-1,-2,-2,-3,-2,-2,0,0,15.305
3062,1,0,0,0,1,1,0,1,15.31
3063,-3,-2,-3,1,-1,0,-1,-2,15.315
3064,-2,-1,1,1,-1,0,1,-2,15.32
3065,-1,1,-1,-2,-1,-1,-1,-2,15.325000000000001
3066,0,0,-2,0,-1,-1,0,-2,15.33
3067,-1,-2,0,-4,-2,-3,-1,0,15.335
3068,-1,-2,0,0,0,-2,-2,-1,15.34
3069,0,1,-2,-1,0,4,2,3,15.345
3070,-1,0,0,-1,0,0,-2,-1,15.35
3071,0,1,-1,0,-1,1,0,0,15.355
3072,-1,1,1,2,-1,-2,-3,-1,15.36
3073,-2,-2,-2,0,-2,-2,-2,-3,15.365
3074,0,1,-1,-2,0,1,-1,1,15.370000000000001
3075,-2,-1,1,-2,-1,-3,-3,-2,15.375
3076,-2,0,0,1,1,1,1,-1,15.38
3077,-2,0,-2,-3,-3,-2,0,-1,15.385
3078,-4,-1,2,2,1,-1,1,0,15.39
3079,1,-2,1,1,1,-2,1,-1,15.395
3080,0,-1,-4,-3,-2,-3,0,-1,15.4
3081,0,-2,-3,1,1,-1,-1,0,15.405000000000001
3082,0,-2,-4,-4,-3,-2,-1,-3,15.41
3083,0,-1,0,0,0,0,-2,0,15.415000000000001
3084,0,0,-2,0,-2,2,0,1,15.42
3085,0,-2,2,1,2,0,-3,-3,15.425
3086,0,-1,-1,-4,-3,-2,1,-2,15.43
3087,-1,0,-2,-1,-1,1,0,0,15.435
3088,-2,-1,-1,-2,-1,-1,0,-1,15.44
3089,-3,-1,3,2,-1,-1,-1,-2,15.445
3090,-1,0,-2,-4,0,-1,-1,-1,15.450000000000001
3091,-4,-1,-3,0,-1,0,0,-6,15.455
3092,5,0,1,1,-1,-3,-1,6,15.46
3093,-4,-2,-1,0,-2,0,2,-2,15.465
3094,0,-2,-3,0,-1,1,-1,0,15.47
3095,0,2,-4,0,-1,-1,0,0,15.475
3096,-4,-2,-3,-3,-3,-1,0,-3,15.48
3097,-2,-1,1,2,-1,-3,-2,-1,15.485000000000001
3098,-1,-1,-2,-1,-2,-3,-1,1,15.49
3099,0,-1,2,1,-1,-1,-2,0,15.495000000000001
3100,-1,0,-1,1,0,-1,-2,0,15.5
3101,0,0,-1,-2,0,-1,0,-1,15.505
3102,-2,-1,1,4,-1,1,0,-2,15.51
3103,-2,-2,-3,-3,-1,1,0,-1,15.515
3104,-1,0,1,1,1,1,1,-1,15.52
3105,-2,0,-1,-4,0,-3,0,-1,15.525
3106,-1,-2,0,-2,-2,0,0,-2,15.530000000000001
3107,1,-1,-1,-1,-1,-2,-1,-1,15.535
3108,-1,0,-1,-1,-2,2,-1,-1,15.540000000000001
3109,0,0,-1,0,0,1,-1,0,15.545
3110,0,1,0,0,1,-1,-2,0,15.55
3111,1,-2,0,-1,-1,1,-2,0,15.555
3112,-2,-1,-1,-3,-1,-1,-2,-1,15.56
3113,-1,-1,-1,0,-3,-2,0,-2,15.565
3114,0,0,-1,-1,-1,-3,-3,0,15.57
3115,-1,0,-1,1,-1,5,0,0,15.575000000000001
3116,0,-2,1,0,0,-2,-1,-2,15.58
3117,0,-1,-1,1,-2,0,-2,0,15.585
3118,0,0,1,-1,-1,1,0,-1,15.59
3119,2,0,-2,0,-1,-3,-1,-1,15.595
3120,0,-2,-3,-1,1,-1,1,-2,15.6
3121,-5,1,-2,-1,-1,1,0,-3,15.605
3122,3,0,0,0,-1,-3,-3,2,15.610000000000001
3123,-1,-1,-1,-1,-2,-2,-2,-1,15.615
3124,0,0,0,-1,-1,-4,-2,0,15.620000000000001
3125,-1,-1,4,1,1,-2,-3,0,15.625
3126,-2,1,-4,-3,-1,-1,1,-1,15.63
3127,-1,-1,1,1,0,-3,-1,-2,15.635
3128,-2,-3,0,0,-2,-5,-1,-2,15.64
3129,-2,-1,-1,0,-1,1,1,2,15.645
3130,-1,2,0,4,-1,1,0,-1,15.65
3131,-1,-4,-3,-4,-1,-1,-4,-2,15.655000000000001
3132,-1,1,-1,-6,-1,2,1,-1,15.66
3133,2,-1,-2,-1,-1,-1,-1,1,15.665000000000001
3134,-1,-2,2,-1,0,-1,-1,-1,15.67
3135,-1,0,0,0,0,-2,-2,-1,15.675
3136,0,-2,-3,0,-1,0,-1,-1,15.68
3137,3,1,1,1,1,0,-1,-1,15.685
3138,-3,-6,-4,-3,-2,0,-1,-2,15.69
3139,-1,1,-1,0,1,-3,0,0,15.695
3140,0,-1,1,2,2,2,-1,0,15.700000000000001
3141,0,-2,-4,-2,-2,-1,-1,-1,15.705
3142,-2,1,1,-1,-1,-3,0,-1,15.71
3143,-5,-2,0,-4,-1,1,0,-5,15.715
3144,4,3,2,2,0,0,-1,6,15.72
3145,-2,0,-2,-3,0,-1,-1,-1,15.725
3146,1,0,-1,-1,-2,-5,0,1,15.73
3147,-4,-2,0,-1,-1,3,1,-1,15.735000000000001
3148,-1,0,-3,-1,-2,0,-1,-4,15.74
3149,0,-2,0,-1,-1,-2,-2,-1,15.745000000000001
3150,0,-1,1,1,0,0,-1,-1,15.75
3151,2,-1,-1,-2,-1,-1,2,0,15.755
3152,-2,-1,0,0,-1,1,0,-1,15.76
3153,2,-1,0,-2,-2,-1,0,-1,15.765
3154,0,1,5,1,-1,-1,0,-2,15.77
3155,3,-2,-12,-5,-1,-2,-1,2,15.775
3156,-3,-3,1,2,0,-1,0,-2,15.780000000000001
3157,-1,0,0,-4,1,-1,0,-2,15.785
3158,-1,-1,-1,0,1,0,-1,0,15.790000000000001
3159,0,0,0,1,-2,0,-3,0,15.795
3160,-1,-1,-3,-3,-2,-3,-1,0,15.8
3161,0,0,-1,-1,0,-1,-1,-1,15.805
3162,-1,-3,-2,-1,1,-1,2,-2,15.81
3163,0,1,1,0,0,-2,-1,0,15.815
3164,-2,-3,-1,-1,-1,-4,-1,-1,15.82
3165,-1,-2,0,-1,-1,-2,-1,-1,15.825000000000001
3166,-1,-1,-4,-2,-1,2,-2,-1,15.83
3167,-1,-2,4,2,-1,-2,-2,0,15.835
3168,0,0,-2,-1,-1,1,-2,-1,15.84
3169,-4,-1,1,1,-1,-1,0,-6,15.845
3170,5,1,-2,-2,-2,-1,-2,7,15.85
3171,0,-1,-2,0,-2,0,1,2,15.855
3172,-1,3,-1,-2,-2,1,0,-2,15.860000000000001
3173,-2,-3,-1,1,-2,-1,1,-1,15.865
3174,0,1,-2,-3,0,-1,-1,-2,15.870000000000001
3175,-2,-1,-1,1,0,-1,-2,-2,15.875
3176,0,-1,-1,-3,-2,-1,-2,-1,15.88
3177,-1,2,-1,1,-1,-1,-2,-1,15.885
3178,-3,-5,-3,-7,-3,-1,-2,-2,15.89
3179,2,-3,0,-2,-2,-1,-1,-1,15.895
3180,-3,-1,-1,-1,-1,0,0,-2,15.9
3181,1,-1,-1,-1,0,-4,-1,1,15.905000000000001
3182,-1,1,4,-1,-1,-2,-1,-1,15.91
3183,0,-3,-7,-1,-4,0,0,1,15.915000000000001
3184,0,0,-1,-1,0,0,-1,-2,15.92
3185,-2,-3,0,-1,-2,0,-2,0,15.925
3186,-2,-1,3,3,0,-2,-2,-3,15.93
3187,3,-1,1,0,0,0,1,0,15.935
3188,-2,-1,-1,0,-1,0,-2,-1,15.94
3189,1,-1,-3,-1,-2,1,-1,-1,15.945
3190,1,-1,-1,2,0,-1,-1,-4,15.950000000000001
3191,-1,2,1,-1,-1,-4,-2,-3,15.955
3192,0,-2,-1,0,-3,-3,-3,0,15.96
3193,-1,0,-1,-1,0,1,2,1,15.965
3194,-3,-1,0,1,-1,0,-1,-2,15.97
3195,-3,0,-3,-6,0,-1,-1,-3,15.975
3196,1,-2,0,-2,1,-1,1,0,15.98
3197,0,-2,1,0,0,0,-3,-1,15.985000000000001
3198,-5,0,-3,-1,-2,-1,0,-5,15.99
3199,4,2,2,4,2,-2,1,6,15.995000000000001
3200,-2,0,-1,-1,-1,-1,-1,-1,16.0
3201,-1,-1,-6,-4,0,-1,-1,0,16.005
3202,-1,-2,-1,0,0,2,0,-1,16.01
3203,-3,-2,1,0,0,-2,-2,-2,16.015
3204,0,0,0,0,0,1,-2,0,16.02
3205,0,0,0,1,-1,-1,0,-1,16.025
3206,0,-1,1,-3,-3,-2,0,-1,16.03
3207,-3,0,1,-2,-1,-2,-1,-1,16.035
3208,1,0,-1,-3,-2,-1,-1,0,16.04
3209,-1,-1,1,-1,-1,-1,-3,-2,16.045
3210,0,-1,-2,0,0,-1,-2,1,16.05
3211,-3,-3,-5,-1,-2,0,-1,0,16.055
3212,-2,0,0,2,0,-2,1,-2,16.06
3213,-3,1,-1,0,-1,-1,-1,0,16.065
3214,0,-1,2,0,-1,0,2,-1,16.07
3215,-2,0,2,-1,-2,-2,-4,0,16.075
3216,0,-1,1,3,1,2,0,-1,16.080000000000002
3217,-3,-5,-5,-8,-4,-6,0,-2,16.085
3218,0,-1,-3,-1,0,2,0,0,16.09
3219,-1,1,-1,0,1,2,0,-1,16.095
3220,0,-1,0,0,0,-3,-1,0,16.1
3221,0,2,4,2,1,4,0,0,16.105
3222,-2,-1,-2,1,0,-1,-1,-1,16.11
3223,-2,-2,-1,-1,-1,0,1,-2,16.115000000000002
3224,1,1,0,-2,0,-1,0,0,16.12
3225,0,0,-3,1,-1,-2,1,0,16.125
3226,-1,1,-3,-3,0,-2,0,1,16.13
3227,0,0,1,1,-2,0,-1,-1,16.135
3228,-1,-1,-3,-1,-3,1,1,-1,16.14
3229,1,0,0,1,0,-1,-1,-2,16.145
3230,-3,-1,-2,0,-3,1,1,0,16.15
3231,-1,-3,-1,0,-3,-1,0,0,16.155
3232,-1,-2,0,-1,-1,-1,0,-1,16.16
3233,0,-2,-2,-1,-1,0,-1,0,16.165
3234,-2,0,0,-2,-1,-1,-1,-1,16.17
3235,-1,-1,0,0,0,-1,0,-2,16.175
3236,0,2,0,1,1,-2,0,-1,16.18
3237,-2,1,-3,-6,-3,-1,-1,-1,16.185
3238,1,0,7,3,1,-3,-2,0,16.19
3239,-2,-4,-10,-1,-2,-2,0,-3,16.195
3240,2,0,2,3,0,6,0,4,16.2
3241,1,2,-1,-1,0,0,-1,-1,16.205000000000002
3242,0,-2,-4,-2,-2,1,0,1,16.21
3243,-2,1,1,-2,-1,-5,-1,-2,16.215
3244,0,0,-1,-4,-2,-3,-2,-2,16.22
3245,-2,0,1,2,0,-3,1,0,16.225
3246,-1,-1,0,-3,-1,-2,-2,-2,16.23
3247,0,1,1,1,0,3,-1,1,16.235
3248,-3,-2,-2,-2,-1,-2,-2,-2,16.240000000000002
3249,-1,-2,0,0,0,-1,-1,0,16.245
3250,-2,-3,-2,-1,1,-3,-1,-2,16.25
3251,0,-1,1,2,0,0,-2,-1,16.255
3252,0,-1,-1,-2,-1,1,-3,-2,16.26
3253,1,0,-2,-1,-1,-1,-1,1,16.265
3254,-1,0,-1,2,-1,-1,0,0,16.27
3255,-1,-1,-2,-3,-1,0,1,-1,16.275
3256,-3,-1,0,-2,-2,-1,0,-2,16.28
3257,-1,0,1,2,-1,0,-1,-1,16.285
3258,-2,-2,-3,-1,0,-3,-3,-1,16.29
3259,-1,1,-1,-5,-2,-1,-1,0,16.295
3260,-2,-2,-3,-2,0,0,0,-3,16.3
3261,1,1,7,-1,0,-2,-2,4,16.305
3262,0,-1,-8,0,0,3,-1,-2,16.31
3263,-2,-1,0,-4,-2,-1,-2,-1,16.315
3264,-3,-1,-2,-3,1,-3,-1,-1,16.32
3265,0,-1,-1,0,-2,-1,-3,-2,16.325
3266,0,-1,0,-3,-2,0,-1,0,16.330000000000002
3267,-1,0,0,3,0,-1,-2,-1,16.335
3268,0,-1,-1,0,-3,-1,-2,0,16.34
3269,-1,-1,-1,-1,-1,0,0,-2,16.345
3270,-1,0,0,1,-2,-1,-1,0,16.35
3271,0,-1,-1,-1,-1,0,1,-1,16.355
3272,-1,-2,1,-1,-2,-3,-1,-2,16.36
3273,-1,-2,-3,-4,-2,-1,-1,-1,16.365000000000002
3274,1,0,1,1,0,0,0,0,16.37
3275,-1,1,0,-3,-1,-1,-1,0,16.375
3276,-1,2,1,0,1,-1,0,1,16.38
3277,-2,-3,0,0,-1,0,-1,-2,16.385
3278,-1,-2,-3,-5,-2,0,-2,0,16.39
3279,0,0,3,1,0,0,-1,1,16.395
3280,-1,0,-3,1,0,-2,0,-1,16.4
3281,-1,1,-2,0,0,0,1,-1,16.405
3282,-1,-1,2,-1,-1,-2,0,-1,16.41
3283,1,-1,-1,0,0,1,0,-1,16.415
3284,0,2,-2,-1,-3,-1,0,-1,16.42
3285,0,0,-1,0,-1,-1,-1,-1,16.425
3286,0,-1,0,-1,-1,1,-1,-2,16.43
3287,-1,-2,1,-1,-2,0,-1,-1,16.435
3288,0,-2,0,-2,-1,0,-1,1,16.44
3289,-3,0,-2,0,-1,-1,0,-2,16.445
3290,-2,0,-2,-3,-1,-2,0,-1,16.45
3291,0,1,-2,-1,0,-1,-1,0,16.455000000000002
3292,-2,-2,-3,-1,-2,0,0,0,16.46
3293,0,-1,0,-2,-2,0,-1,2,16.465
3294,-1,-1,1,2,0,-2,0,-2,16.47
3295,-1,-2,-3,-2,0,-1,1,1,16.475
3296,-1,-1,0,-3,-1,-2,-3,-3,16.48
3297,2,-1,-2,0,0,0,1,1,16.485
3298,-4,-2,-1,0,-2,0,1,-1,16.490000000000002
3299,-3,-2,-1,0,0,-1,0,-2,16.495
3300,-1,0,0,-2,-2,-2,-1,0,16.5
3301,-2,-1,0,0,2,1,0,-2,16.505
3302,-4,-2,-3,0,0,-2,-3,-2,16.51
3303,3,-1,0,1,-1,0,-1,6,16.515
3304,0,-1,-2,-3,0,-2,-1,-1,16.52
3305,-1,0,-1,1,1,-2,-1,-2,16.525
3306,2,-2,-2,-2,-1,-1,0,0,16.53
3307,-2,1,2,2,0,-1,-2,-2,16.535
3308,-1,-1,-1,-5,-1,0,0,-1,16.54
3309,-1,0,-2,1,0,1,1,-1,16.545
3310,-2,0,1,-2,-1,-1,-1,-3,16.55
3311,0,0,-1,-1,-2,0,-1,-1,16.555
3312,1,0,1,3,0,-1,-2,-1,16.56
3313,-2,-1,1,0,-1,-2,0,-1,16.565
3314,0,-1,-2,0,0,2,-2,2,16.57
3315,-1,0,-1,-2,0,-4,-2,0,16.575
3316,-2,0,-1,2,1,-1,1,-3,16.580000000000002
3317,2,-3,-2,-3,-1,-2,-2,0,16.585
3318,0,1,1,0,1,0,-1,2,16.59
3319,-2,-2,0,-3,-2,0,-1,-1,16.595
3320,0,0,-2,0,-2,0,0,-1,16.6
3321,-2,0,0,0,-2,-1,-3,-3,16.605
3322,1,0,-1,-3,-3,-1,0,-1,16.61
3323,-3,-2,0,-1,-1,-2,2,-1,16.615000000000002
3324,-3,-2,0,-1,-1,-1,0,1,16.62
3325,1,1,-2,-1,0,-1,-2,1,16.625
3326,-1,0,1,1,0,0,0,-1,16.63
3327,-1,-1,-1,1,-1,-1,-2,-1,16.635
3328,-1,-1,-3,-4,-3,-1,0,-1,16.64
3329,1,-2,2,1,-2,1,0,1,16.645
3330,-1,0,3,0,-1,-1,-2,-1,16.65
3331,-3,-1,-6,0,-2,0,0,-2,16.655
3332,5,1,0,2,0,-3,-2,0,16.66
3333,0,-1,0,-4,-1,5,-1,0,16.665
3334,-1,-1,-4,-2,-1,-1,-2,-1,16.67
3335,-2,-2,1,0,-1,0,0,-1,16.675
3336,0,0,-2,-1,-2,-2,-3,0,16.68
3337,-1,1,-2,-1,-1,-1,1,0,16.685
3338,-2,-1,0,-2,0,-2,-1,-3,16.69
3339,1,0,-1,0,1,0,-1,5,16.695
3340,-4,0,-1,-2,-2,-1,-1,-1,16.7
3341,-2,-1,-2,0,0,-4,-1,-1,16.705000000000002
3342,-3,-2,-2,-2,-1,0,-1,-2,16.71
3343,0,0,-1,-1,-2,-2,-2,-2,16.715
3344,-1,-3,-2,-2,-2,-2,-1,0,16.72
3345,-1,1,2,2,-2,-3,-2,-1,16.725
3346,1,-1,-3,-6,-2,-1,0,1,16.73
3347,-1,0,-2,1,1,-2,-3,-2,16.735
3348,1,-3,1,0,0,1,0,0,16.740000000000002
3349,-1,-1,1,-1,-3,-2,0,0,16.745
3350,3,2,-1,1,-3,-2,0,1,16.75
3351,0,-1,-4,-4,-3,-1,-1,-2,16.755
3352,-2,0,0,2,2,1,0,-1,16.76
3353,-3,-3,-1,-4,0,-3,0,-3,16.765
3354,-2,0,0,4,0,-2,-1,0,16.77
3355,-2,-1,-1,-1,0,3,1,-2,16.775
3356,2,0,0,1,-1,-1,0,2,16.78
3357,-1,0,-2,0,1,0,0,0,16.785
3358,0,-1,-1,1,-1,0,-2,-2,16.79
3359,0,-1,0,-1,-1,-2,0,-1,16.795
3360,-1,-1,-3,-2,-1,2,1,-3,16.8
3361,0,-1,-1,-1,-2,-2,-3,0,16.805
3362,-1,-1,-1,0,0,-1,0,1,16.81
3363,-1,-1,1,-4,-1,-1,-3,-2,16.815
3364,0,1,1,1,0,-2,0,-2,16.82
3365,-1,-1,-4,-4,-1,-2,0,-1,16.825
3366,-1,-2,-2,2,1,-1,0,0,16.830000000000002
3367,1,1,-2,-1,1,0,0,2,16.835
3368,-4,-3,-1,0,-2,-3,-1,-2,16.84
3369,1,0,1,3,-1,1,0,0,16.845
3370,-2,-2,0,0,-1,0,0,-2,16.85
3371,0,0,2,-1,0,-1,-1,0,16.855
3372,-7,-1,-7,-1,-1,0,-1,-4,16.86
3373,2,-1,0,-2,0,1,1,6,16.865000000000002
3374,-1,-1,0,2,1,0,0,1,16.87
3375,-1,0,-2,-1,-2,-2,0,0,16.875
3376,0,1,2,-1,1,0,-1,-1,16.88
3377,-2,-2,-1,-1,-3,-1,-1,-3,16.885
3378,1,0,-4,-1,-1,-1,-1,0,16.89
3379,-1,-1,1,0,-2,0,-2,-1,16.895
3380,0,0,0,-1,-2,-2,-2,0,16.9
3381,-3,-1,-1,-2,0,0,0,-3,16.905
3382,-2,-1,-2,-3,-2,-1,0,-2,16.91
3383,-2,0,-2,0,-2,-1,-3,-1,16.915
3384,0,0,0,1,0,1,2,1,16.92
3385,0,-2,-1,1,-1,-3,-3,0,16.925
3386,-1,0,0,-3,-1,-2,1,-1,16.93
3387,-2,-3,-2,-2,-2,-2,1,-3,16.935
3388,-1,0,-2,-1,-2,-2,-3,1,16.94
3389,-1,2,-1,0,1,0,-2,-1,16.945
3390,0,1,-1,-3,-2,0,-1,0,16.95
3391,0,-3,-1,2,1,0,-1,-1,16.955000000000002
3392,0,-3,2,-1,-1,-1,-1,0,16.96
3393,-2,-1,-1,1,-1,-1,-2,-4,16.965
3394,-2,-1,1,-2,-2,-2,-3,-2,16.97
3395,4,-1,-2,-3,-1,0,0,3,16.975
3396,-1,-2,-1,-4,0,2,-1,-1,16.98
3397,-2,0,0,1,-1,-1,-2,0,16.985
3398,-1,-3,-1,-1,0,1,-1,-1,16.990000000000002
3399,-2,0,-1,1,0,0,-1,-3,16.995
3400,1,0,-1,2,-1,-2,0,1,17.0
3401,2,-1,0,-1,-2,-3,0,-1,17.005
3402,0,0,0,-1,-2,0,0,-1,17.01
3403,-2,0,0,-1,-2,-1,-2,-1,17.015
3404,-2,0,-3,-1,-1,0,-1,-1,17.02
3405,-2,-2,0,0,-1,-1,-1,-1,17.025
3406,-3,-2,-2,1,1,-3,0,-3,17.03
3407,0,-2,-2,0,0,0,0,-1,17.035
3408,-1,0,1,1,0,2,-2,0,17.04
3409,-1,-2,-5,-4,-2,0,-2,0,17.045
3410,2,-1,0,-3,-2,-1,-4,-2,17.05
3411,-1,0,-3,-2,-1,0,1,-1,17.055
3412,-2,-1,1,-1,-1,0,-1,-1,17.06
3413,-5,2,0,0,-1,-1,1,-5,17.065
3414,4,-1,0,0,-1,-3,0,7,17.07
3415,-3,0,2,3,1,-1,-1,0,17.075
3416,1,-2,-2,-6,-2,-3,-1,-1,17.080000000000002
3417,-2,1,2,3,1,-1,0,0,17.085
3418,-4,-4,-3,-4,-4,-1,-1,-3,17.09
3419,1,1,-1,1,1,-1,0,-1,17.095
3420,0,-2,-2,-2,0,-2,-1,0,17.1
3421,1,-2,-3,-3,-1,0,-1,1,17.105
3422,1,1,0,0,1,0,0,-2,17.11
3423,0,-3,2,0,-1,-1,-1,0,17.115000000000002
3424,-1,-2,0,-2,0,0,-2,-1,17.12
3425,0,-3,-4,-5,-3,-1,-1,-1,17.125
3426,-1,2,1,4,1,0,1,-2,17.13
3427,-3,-1,-3,-3,-2,-1,0,-1,17.135
3428,0,2,-1,1,0,0,-1,-1,17.14
3429,0,-1,0,-1,0,-1,-2,0,17.145
3430,1,0,-1,-2,-1,-1,0,1,17.150000000000002
3431,3,0,-3,0,0,0,-4,-1,17.155
3432,0,-1,-1,-1,-1,-2,0,2,17.16
3433,0,-1,-1,2,0,0,-3,1,17.165
3434,-1,-2,-1,1,0,2,0,-2,17.17
3435,-1,1,-1,-3,-1,-1,0,1,17.175
3436,-1,-1,0,2,-1,-1,1,-1,17.18
3437,-1,0,3,1,0,-2,-1,-2,17.185
3438,-1,0,-2,-4,-2,-1,1,1,17.19
3439,-2,-1,-1,0,-1,-2,-1,-2,17.195
3440,0,-1,-2,-1,-1,-2,-1,-2,17.2
3441,-2,-2,-1,-2,-1,-2,-2,-1,17.205000000000002
3442,-1,1,1,0,-1,2,-1,0,17.21
3443,-1,0,0,-1,-1,-3,-1,0,17.215
3444,-2,1,0,-1,0,-2,-3,-1,17.22
3445,1,0,-2,-3,0,2,3,0,17.225
3446,-2,0,-1,-1,-1,-1,-4,0,17.23
3447,-1,-2,-2,-2,-3,-1,-1,-2,17.235
3448,-2,0,0,1,-1,-2,0,-2,17.240000000000002
3449,-1,0,-1,0,-2,0,0,0,17.245
3450,0,-2,0,0,1,-2,-2,0,17.25
3451,-1,0,1,3,-2,-4,0,-1,17.255
3452,-4,-1,-3,-4,1,2,-1,-5,17.26
3453,3,0,-1,-3,-2,-2,1,5,17.265
3454,-1,0,-3,-4,-1,1,-1,-2,17.27
3455,0,0,1,-1,1,1,-2,-1,17.275000000000002
3456,0,-2,0,1,-1,-1,-1,-1,17.28
3457,-2,-1,-1,0,-1,-2,-1,-1,17.285
3458,0,-2,0,1,-1,-3,0,1,17.29
3459,-1,-4,-3,-3,-1,-1,-1,-1,17.295
3460,2,0,-1,-3,-2,-2,0,0,17.3
3461,0,-2,-1,0,2,2,1,-2,17.305
3462,-1,2,-2,1,-1,-2,-1,0,17.31
3463,-2,-1,-1,-4,0,-1,0,-1,17.315
3464,-1,-2,1,0,-1,1,0,0,17.32
3465,-1,1,1,-1,-1,-2,-1,-1,17.325
3466,-2,-3,-1,1,0,0,-1,-2,17.330000000000002
3467,1,2,-2,-2,-1,0,0,0,17.335
3468,1,-1,0,-1,1,2,-1,2,17.34
3469,0,1,-4,-1,-1,-1,-2,-3,17.345
3470,-1,-2,-1,0,-1,-1,0,-3,17.35
3471,0,-2,0,1,0,1,-1,-1,17.355
3472,1,-2,-3,-2,-3,-2,-4,1,17.36
3473,-3,1,5,3,0,3,0,2,17.365000000000002
3474,-3,-3,-3,-1,1,-3,0,0,17.37
3475,0,-2,0,0,-2,-4,0,0,17.375
3476,-2,0,0,1,0,0,1,-3,17.38
3477,-1,-2,-1,-2,-1,-1,-2,-2,17.385
3478,1,1,-2,0,-1,-1,-1,-1,17.39
3479,-2,-2,0,-2,-2,1,0,-2,17.395
3480,0,0,-1,0,-1,-1,0,0,17.400000000000002
3481,-1,-3,-3,-2,0,-2,0,-3,17.405
3482,0,1,-1,-5,-3,1,-2,-1,17.41
3483,-2,-3,-3,0,-2,-2,-3,-1,17.415
3484,0,-1,-1,0,-1,0,0,0,17.42
3485,0,-3,-2,-2,-1,0,-1,0,17.425
3486,1,-1,-1,2,-1,-1,-3,-2,17.43
3487,-1,-1,-6,-1,0,3,2,-1,17.435
3488,-3,1,2,-1,-2,0,0,-3,17.44
3489,1,-2,-3,-3,-1,-4,2,3,17.445
3490,-1,-1,-1,-1,-1,-3,-1,0,17.45
3491,1,1,-2,-1,-1,-1,-1,1,17.455000000000002
3492,-2,-1,-3,0,0,0,-1,-1,17.46
3493,-4,-2,-2,1,-1,1,-1,-2,17.465
3494,0,-1,-1,-4,-1,-1,-1,0,17.47
3495,-2,-2,2,-3,0,-2,-1,-1,17.475
3496,-1,1,-1,-1,-1,1,0,0,17.48
3497,-2,-3,1,0,-1,-2,-4,-1,17.485
3498,-1,-2,1,0,-1,0,3,1,17.490000000000002
3499,-1,-2,0,4,0,0,-1,-1,17.495
3500,1,-2,-3,-7,-3,-2,-2,0,17.5
3501,0,1,0,1,-1,-2,1,-2,17.505
3502,-4,0,0,-3,-3,0,-1,-4,17.51
3503,4,-1,0,-2,-2,2,-1,5,17.515
3504,0,0,0,1,-2,-2,-1,-2,17.52
3505,0,0,-2,0,-1,-1,-1,-1,17.525000000000002
3506,-1,-1,-1,1,0,0,1,0,17.53
3507,-4,-1,1,0,-2,-1,1,-2,17.535
3508,-1,-1,-2,2,-1,1,0,1,17.54
3509,1,-1,-1,-1,-1,1,-1,-1,17.545
3510,1,-3,-7,-1,-1,-2,-2,-1,17.55
3511,0,0,1,-2,-1,-2,-2,-3,17.555
3512,1,-2,-4,-2,-1,-1,-1,1,17.56
3513,-3,-2,1,0,0,-2,-1,-1,17.565
3514,1,0,-1,-1,0,0,-1,-1,17.57
3515,0,-1,-3,-4,-2,-1,-1,0,17.575
3516,0,0,1,0,0,-2,-2,0,17.580000000000002
3517,-5,-5,-2,-3,-3,-3,-4,-7,17.585
3518,8,0,0,1,0,0,2,7,17.59
3519,-2,-2,-2,-2,-1,-2,-2,-3,17.595
3520,-3,-2,0,-1,-2,-1,0,-2,17.6
3521,0,2,0,-1,-1,0,-1,1,17.605
3522,-4,-2,0,-1,-1,-3,-1,-1,17.61
3523,0,-1,0,2,-2,0,0,-2,17.615000000000002
3524,0,0,-3,-1,-2,-1,0,-1,17.62
3525,0,0,-1,0,0,-1,-2,0,17.625
3526,0,-1,2,2,-1,0,-1,-1,17.63
3527,1,-1,-4,-1,1,-1,-2,0,17.635
3528,-2,1,1,2,0,-1,0,-1,17.64
3529,-1,-1,0,-3,0,-1,0,-1,17.645
3530,-1,0,-2,-2,-2,-1,-2,-1,17.650000000000002
