slno,emg1,emg2,emg3,emg4,emg5,emg6,emg7,emg8,Time
0,1,0,-5,-2,-1,1,0,1,0.0
1,-1,0,-9,0,0,-1,-1,-1,0.005
2,-2,0,8,7,-1,-3,-2,-1,0.01
3,1,1,15,-1,-1,0,0,-2,0.015
4,-4,-7,-29,-8,-3,-2,-1,-2,0.02
5,-1,-4,-19,-8,0,0,0,-1,0.025
6,-1,0,5,2,0,1,0,-1,0.03
7,-1,0,7,-2,-1,-2,-2,-1,0.035
8,0,2,15,7,1,-1,0,1,0.04
9,0,0,-2,-4,-1,-1,-1,0,0.045
10,-1,2,8,3,0,1,-1,-1,0.05
11,-2,-2,-26,-4,-3,-2,0,-1,0.055
12,-4,-8,-13,-5,-2,-1,-5,-2,0.06
13,-1,0,6,2,1,0,-1,0,0.065
14,1,-1,11,2,0,-1,-1,1,0.07
15,-1,-3,-38,-3,-3,0,-1,-1,0.075
16,1,4,9,1,1,-1,0,0,0.08
17,-1,-4,-3,4,-1,-2,-2,-2,0.085
18,0,1,-14,-15,0,1,0,0,0.09
19,0,2,20,6,2,0,0,0,0.095
20,-1,-1,-10,-5,0,0,0,-1,0.1
21,-2,0,2,-3,-1,0,0,-1,0.105
22,-1,1,-4,-2,-1,-1,0,1,0.11
23,-1,-3,-6,-2,-1,-2,0,0,0.115
24,-1,-1,6,2,0,0,-1,0,0.12
25,1,4,7,10,-1,-1,0,-1,0.125
26,-1,-3,-1,-9,-2,-1,1,-1,0.13
27,0,-1,-25,-9,0,0,-3,-2,0.135
28,-3,-6,-10,6,-4,-3,-2,-2,0.14
29,-1,-2,-5,-11,0,-1,-1,-1,0.145
30,0,3,16,3,1,1,0,0,0.15
31,0,1,13,7,-1,0,1,1,0.155
32,3,0,-3,2,2,0,0,0,0.16
33,-2,-6,-16,-11,-3,-1,-2,-1,0.165
34,0,0,-3,2,-2,-1,-1,-1,0.17
35,0,0,9,1,1,-1,0,-1,0.17500000000000002
36,0,1,7,-5,2,0,0,-2,0.18
37,-2,-2,22,4,0,-1,1,-1,0.185
38,-1,-2,-31,-4,0,-2,-2,-1,0.19
39,-1,0,14,5,-1,0,-2,-1,0.195
40,-1,0,8,0,-1,-2,-1,-1,0.2
41,-1,2,15,5,-3,-2,1,-1,0.20500000000000002
42,-2,-6,-11,-7,-1,-1,-2,-2,0.21
43,-3,0,-3,3,-1,0,1,0,0.215
44,0,0,-18,-11,-2,-1,0,0,0.22
45,-1,-2,4,5,1,1,-1,1,0.225
46,-1,1,18,8,0,-1,1,0,0.23
47,-2,-5,-21,-15,-3,-1,0,-3,0.23500000000000001
48,1,1,15,9,-1,-1,-1,-1,0.24
49,-2,-2,-2,-6,-3,-1,-3,-3,0.245
50,-2,-2,3,-1,-2,0,-2,1,0.25
51,2,3,2,0,0,1,0,0,0.255
52,-3,-5,-1,-3,-3,-1,-1,-2,0.26
53,0,-1,-11,4,-3,-2,-1,-3,0.265
54,0,-2,9,-1,2,2,1,0,0.27
55,-1,2,2,4,0,0,-1,0,0.275
56,-1,-3,-12,-6,1,-1,-3,-3,0.28
57,-1,2,7,8,2,0,-1,0,0.28500000000000003
58,0,-1,3,-1,-2,-1,-3,0,0.29
59,1,2,4,0,0,-2,0,1,0.295
60,-2,1,18,7,-2,-1,-2,0,0.3
61,1,-1,-18,-10,0,-1,0,0,0.305
62,-3,1,-13,-1,0,-1,0,-1,0.31
63,-1,-1,14,15,0,0,-1,-2,0.315
64,-2,-7,-41,-21,-4,-4,-3,-2,0.32
65,0,4,13,10,1,0,0,0,0.325
66,0,0,9,1,0,0,-1,-2,0.33
67,-2,-7,-41,-17,-2,-1,-1,0,0.335
68,0,3,11,6,-2,-1,0,0,0.34
69,0,0,3,-3,-1,1,1,-1,0.34500000000000003
70,-2,-3,-9,7,2,-2,-1,-1,0.35000000000000003
71,-1,-4,2,0,-2,-2,-1,-1,0.355
72,0,-1,-13,-6,1,0,-1,-1,0.36
73,1,1,5,4,1,-1,-2,1,0.365
74,0,0,-4,6,-2,0,0,-1,0.37
75,0,-2,3,-22,-3,-2,-1,0,0.375
76,0,1,-1,-1,0,1,-1,1,0.38
77,-2,-3,5,1,-5,-4,-2,-1,0.385
78,1,2,-6,1,0,-1,-2,0,0.39
79,-1,0,11,6,-2,-1,-2,-2,0.395
80,-2,-3,15,0,-1,-1,1,-2,0.4
81,-3,-5,-23,2,1,0,1,-1,0.405
82,0,1,7,-4,-1,-2,-1,-1,0.41000000000000003
83,1,2,-2,5,0,-1,-1,-1,0.41500000000000004
84,0,6,22,-8,0,-1,-1,0,0.42
85,-2,-8,-56,-15,-5,-3,-2,-1,0.425
86,0,2,7,-1,0,1,0,0,0.43
87,-2,-1,4,4,-2,-2,-3,-2,0.435
88,0,-1,-9,-6,-1,0,-2,1,0.44
89,-1,-3,19,-3,0,0,-2,-1,0.445
90,-1,0,1,-2,1,0,-1,0,0.45
91,1,3,2,7,0,0,0,0,0.455
92,2,0,11,11,1,1,0,-1,0.46
93,2,1,-5,-7,0,1,0,0,0.465
94,1,-3,26,-6,-1,1,0,1,0.47000000000000003
95,-3,-3,7,-4,-3,-1,-2,-1,0.47500000000000003
96,-1,-3,-5,3,2,-1,-1,-1,0.48
97,-2,2,2,4,-2,0,-1,-2,0.485
98,0,1,9,7,-1,0,1,-2,0.49
99,0,1,7,3,2,2,1,1,0.495
100,2,0,-4,1,0,-1,1,-1,0.5
101,1,0,1,-4,2,0,-1,0,0.505
102,-2,-5,-21,-10,-3,-3,-3,-1,0.51
103,1,-3,23,0,0,-2,0,-1,0.515
104,-3,-3,-23,1,-3,-1,0,-1,0.52
105,-2,2,30,10,0,-3,-1,0,0.525
106,-1,0,-33,-19,-2,-1,-2,-1,0.53
107,0,1,-1,-1,2,1,0,0,0.535
108,-2,0,7,7,0,-1,-1,0,0.54
109,0,2,13,1,1,1,0,0,0.545
110,-1,-4,-22,3,-3,-1,-1,-2,0.55
111,0,1,-1,-5,2,0,0,-2,0.555
112,-1,-3,-5,-7,-3,-2,0,-1,0.56
113,-2,-5,-15,-9,-3,-1,-1,-2,0.5650000000000001
114,0,0,12,6,0,0,-1,-2,0.5700000000000001
115,1,3,-1,6,1,-1,-1,0,0.5750000000000001
116,-2,-2,-27,-11,-1,-1,0,1,0.58
117,-1,1,17,-4,1,-2,-1,1,0.585
118,-3,-6,-36,10,-2,-2,-1,-2,0.59
119,-4,-10,-18,-12,-7,-4,-4,-4,0.595
120,1,4,17,1,1,2,1,-1,0.6
121,2,4,0,5,0,0,0,-1,0.605
122,1,2,2,-9,1,1,1,0,0.61
123,-3,-4,3,0,-3,-3,-1,-1,0.615
124,-1,-1,11,6,-1,0,-2,-1,0.62
125,1,0,-10,-1,0,1,-2,0,0.625
126,-1,-2,17,0,-6,-2,-3,-3,0.63
127,-1,-1,3,0,1,-1,-1,1,0.635
128,-4,-6,-11,-14,-1,-2,-1,-1,0.64
129,-1,-3,-11,6,-1,-2,0,-2,0.645
130,4,11,18,-1,5,2,1,2,0.65
131,-2,-4,3,22,-4,-2,-1,-1,0.655
132,-3,-1,-15,-15,-2,-4,-1,-3,0.66
133,0,0,7,3,2,0,0,1,0.665
134,-4,-4,-9,-26,-2,-3,-2,-1,0.67
135,0,3,-7,-5,-1,0,0,1,0.675
136,2,2,19,12,0,0,-1,-1,0.68
137,-4,-6,-11,12,-4,-4,-1,-2,0.685
138,1,3,8,3,2,-1,0,0,0.6900000000000001
139,-1,4,-3,-8,2,1,-1,1,0.6950000000000001
140,-1,1,3,10,-1,2,-1,-1,0.7000000000000001
141,-3,-6,-19,-18,-2,-3,-2,-2,0.705
142,-3,-2,13,22,-2,-1,-1,-2,0.71
143,2,2,-41,-9,5,2,1,1,0.715
144,-6,-7,29,2,-9,-6,-3,-2,0.72
145,-1,3,22,19,-3,-1,-1,-2,0.725
146,0,-3,-14,-8,-2,0,-1,0,0.73
147,-2,-3,-28,-4,0,-2,-1,0,0.735
148,4,5,-13,3,4,3,1,2,0.74
149,0,1,10,-6,-1,0,1,-1,0.745
150,-1,0,22,22,-1,-1,0,-1,0.75
151,1,2,4,-16,-3,0,-1,0,0.755
152,2,2,-10,-2,1,1,1,-2,0.76
153,-5,-12,-4,16,-4,-2,-2,-2,0.765
154,-2,-3,-20,-30,-3,-2,-1,-1,0.77
155,-2,-4,15,-1,0,-1,0,-1,0.775
156,0,0,0,4,2,-1,-1,0,0.78
157,1,6,5,4,1,1,0,1,0.785
158,1,-1,-2,7,2,0,1,1,0.79
159,0,-1,21,5,-2,-1,-1,-1,0.795
160,-2,0,4,-4,-2,0,0,-1,0.8
161,0,0,-3,-16,0,-1,-1,1,0.805
162,0,2,-16,3,1,2,0,-1,0.81
163,-4,-4,3,0,-4,-3,-2,-2,0.8150000000000001
164,-2,-2,-1,-13,0,1,-3,-2,0.8200000000000001
165,2,-1,5,11,1,1,1,0,0.8250000000000001
166,-3,0,8,-16,-4,-4,0,0,0.8300000000000001
167,2,4,6,3,-1,0,0,-1,0.835
168,0,2,17,16,1,-1,1,1,0.84
169,-3,-4,-21,-36,-4,-3,-1,0,0.845
170,1,-1,5,-1,1,0,-1,-3,0.85
171,-1,-5,-21,3,-1,-1,-1,-1,0.855
172,-1,-3,13,2,-3,-3,-3,-2,0.86
173,2,6,19,16,1,0,0,1,0.865
174,-4,-6,-44,-17,-6,-2,-2,-2,0.87
175,-1,-3,2,-8,-2,-1,0,0,0.875
176,-1,0,-11,3,0,0,-1,-1,0.88
177,0,-1,4,1,-1,1,1,0,0.885
178,-2,-2,12,9,-3,-2,-1,-1,0.89
179,0,0,8,0,1,1,-1,0,0.895
180,1,1,-11,-10,0,-2,0,1,0.9
181,-3,-5,-7,-3,0,0,-2,-3,0.905
182,0,5,9,1,0,-1,-1,-2,0.91
183,-1,-3,-14,1,0,0,-1,-3,0.915
184,-2,-5,3,-2,-2,-1,-1,-3,0.92
185,0,-1,-3,-9,-1,-1,-2,-2,0.925
186,0,3,7,5,-1,1,0,0,0.93
187,-1,3,23,16,2,2,4,1,0.935
188,1,-5,-31,-14,3,3,1,2,0.9400000000000001
189,-3,-3,-26,-7,-7,-4,-4,-4,0.9450000000000001
190,-2,-7,-14,-6,-5,-6,-4,-3,0.9500000000000001
191,0,0,4,2,-2,-2,1,-2,0.9550000000000001
192,-2,1,12,9,3,-3,-2,0,0.96
193,2,3,4,-4,0,2,0,0,0.965
194,0,1,4,-2,11,7,5,3,0.97
195,-1,-2,-10,-11,-1,1,-2,-1,0.975
196,-2,-3,-3,14,-7,-4,-2,-2,0.98
197,0,1,15,2,-4,-6,-1,1,0.985
198,-3,-12,-31,-14,-7,-6,-7,-4,0.99
199,0,-1,3,-9,-2,-2,-2,-2,0.995
200,-1,0,-26,-5,-1,1,0,-1,1.0
201,1,5,5,7,2,1,0,-1,1.0050000000000001
202,0,0,36,16,1,2,1,-1,1.01
203,-3,-2,9,-12,0,1,-1,0,1.0150000000000001
204,1,4,-10,-10,-4,-2,1,-1,1.02
205,-4,-10,-17,-16,-1,1,2,-2,1.025
206,2,6,1,11,3,1,1,1,1.03
207,1,3,18,13,2,-1,0,0,1.035
208,-4,-8,-20,-12,-5,-2,-2,-2,1.04
209,0,4,23,2,0,-2,0,-2,1.045
210,1,3,4,5,1,0,0,-1,1.05
211,0,-3,-2,3,-1,-2,-2,0,1.055
212,3,4,26,6,3,1,0,1,1.06
213,0,1,-15,-7,1,2,1,2,1.065
214,-2,-1,17,3,-4,-1,0,-2,1.07
215,-1,-4,-36,-1,-3,-3,-1,-2,1.075
216,3,1,14,9,2,1,0,0,1.08
217,-3,0,38,-10,-3,-3,-1,0,1.085
218,-2,-8,-61,-23,-1,-1,0,-2,1.09
219,0,1,-11,-5,0,0,0,2,1.095
220,0,2,27,16,-3,-2,-2,0,1.1
221,3,1,-20,0,2,0,-1,-1,1.105
222,-3,-2,-16,8,-3,-2,0,0,1.11
223,-3,0,13,9,-2,-1,-3,-1,1.115
224,-2,0,-12,-40,-1,-2,-1,-2,1.12
225,-1,-3,0,24,1,-1,-2,-1,1.125
226,1,4,15,-6,2,1,-1,1,1.1300000000000001
227,-4,-8,6,-11,-6,-4,-3,-2,1.135
228,2,5,22,36,1,1,1,0,1.1400000000000001
229,-2,-5,-24,-47,-1,-2,-1,-1,1.145
230,2,6,37,21,0,1,-1,-1,1.1500000000000001
231,2,5,37,-1,-1,0,0,2,1.155
232,-5,-15,-21,-16,-3,-2,-2,-1,1.16
233,0,2,-8,5,0,-1,0,1,1.165
234,1,-1,17,12,0,-1,-1,0,1.17
235,-2,-3,-58,-14,-2,-1,-2,-2,1.175
236,0,3,3,-7,1,-1,-2,-2,1.18
237,-5,-11,-40,20,-5,-3,-2,-2,1.185
238,-1,2,17,-23,-4,-1,-2,1,1.19
239,0,-1,4,1,-2,-2,0,-1,1.195
240,0,1,1,-8,1,0,1,1,1.2
241,0,0,-6,10,1,2,1,-1,1.205
242,0,2,21,6,1,1,0,-1,1.21
243,-3,-7,-13,-3,-2,-4,-3,-2,1.215
244,2,1,11,8,-2,0,-1,0,1.22
245,2,7,17,-4,1,2,0,1,1.225
246,-3,-6,-14,-15,-4,-2,-2,-4,1.23
247,0,-1,-26,-6,0,1,-1,0,1.235
248,-3,-4,-2,-2,-4,-5,-3,-2,1.24
249,-3,-3,14,6,0,1,0,-1,1.245
250,-1,0,-11,0,3,-1,1,0,1.25
251,-3,1,31,8,-1,0,-1,0,1.2550000000000001
252,-3,-5,-29,-10,-3,-2,0,-1,1.26
253,2,-3,-3,2,-1,-2,-1,0,1.2650000000000001
254,0,-2,-2,-7,-2,0,-2,1,1.27
255,4,7,12,4,3,3,1,0,1.2750000000000001
256,-2,-3,20,15,0,0,-1,-1,1.28
257,1,1,-1,-15,-1,-2,-2,0,1.285
258,-4,-10,-28,5,-5,-4,-2,-2,1.29
259,0,-3,-22,-4,-2,0,2,-1,1.295
260,1,5,14,2,2,2,0,1,1.3
261,0,-2,12,5,1,0,0,-1,1.305
262,0,1,-7,6,1,2,0,0,1.31
263,-2,-5,-17,-9,-3,-2,-3,-2,1.315
264,-4,-2,-16,-14,-2,-2,-1,-1,1.32
265,-1,-1,-7,-4,-1,-1,-1,-2,1.325
266,3,8,44,10,1,1,1,0,1.33
267,-3,-8,-15,-5,0,-3,-2,-3,1.335
268,-1,-2,-8,7,0,2,-2,-1,1.34
269,0,3,-14,-5,-3,1,-2,-1,1.345
270,-3,-5,6,-1,-1,-4,-1,-2,1.35
271,3,9,26,5,2,-2,1,3,1.355
272,0,2,-15,-5,0,1,1,0,1.36
273,-3,-4,12,13,1,-2,-2,-1,1.365
274,3,3,10,0,0,3,0,0,1.37
275,-3,-4,0,-5,-3,-2,-1,-1,1.375
276,-3,-3,-11,0,-2,0,0,-1,1.3800000000000001
277,-1,-1,5,2,0,1,-1,0,1.385
278,-2,1,-1,4,1,1,-1,-1,1.3900000000000001
279,1,0,-2,7,0,0,1,0,1.395
280,0,0,-1,-19,1,1,0,0,1.4000000000000001
281,-3,-2,13,2,-3,-2,-1,0,1.405
282,0,2,7,2,-2,-1,0,0,1.41
283,-1,-1,-26,-5,-2,-1,-1,-1,1.415
284,1,-1,-2,-7,0,-2,-2,-1,1.42
285,-2,-4,4,-4,-3,-1,-3,-3,1.425
286,1,-2,-34,-9,0,0,2,0,1.43
287,-2,3,38,13,-1,-1,-1,0,1.435
288,0,2,35,26,-1,-2,0,-2,1.44
289,-4,-12,-54,-22,-1,-2,-1,-1,1.445
290,1,3,16,3,-1,0,-1,0,1.45
291,1,-1,-16,-4,1,1,1,-1,1.455
292,0,-1,-9,3,1,0,1,0,1.46
293,-2,2,7,-9,0,-1,-2,0,1.465
294,-3,-6,-29,-3,-1,-3,0,-1,1.47
295,-1,-4,-8,6,0,1,0,-2,1.475
296,1,5,18,-8,0,-1,0,-1,1.48
297,0,1,6,-9,-3,-2,1,-1,1.485
298,-3,-6,-33,-15,-2,-4,-2,-1,1.49
299,1,7,31,4,0,-1,-1,-1,1.495
300,-2,-8,-26,-2,-2,-2,-1,-1,1.5
301,2,3,10,11,3,1,-1,1,1.5050000000000001
302,-1,-2,7,3,-1,-4,-3,-1,1.51
303,1,5,5,-1,1,1,1,1,1.5150000000000001
304,-3,-3,-1,-5,-1,-1,-1,-1,1.52
305,-2,-2,8,-4,-2,-1,-1,0,1.5250000000000001
306,0,1,-5,6,1,2,-1,0,1.53
307,0,0,-11,1,1,-1,-2,0,1.5350000000000001
308,-4,-12,-51,-11,-5,-4,-2,-3,1.54
309,-1,0,28,0,-1,0,0,0,1.545
310,-2,0,-8,-1,-2,-2,-1,-2,1.55
311,1,-1,14,2,-1,-1,-2,-2,1.555
312,2,6,12,-3,2,1,0,1,1.56
313,2,4,11,12,-1,2,0,1,1.565
314,-2,-4,-3,9,-2,1,1,0,1.57
315,-6,-8,-14,-17,-6,-3,-2,-2,1.575
316,0,1,-4,-5,-1,-2,-1,0,1.58
317,0,-3,-17,-1,0,-3,0,-1,1.585
318,2,4,20,0,2,1,0,-1,1.59
319,-1,-2,15,12,-4,-3,-1,0,1.595
320,-2,-2,9,0,-3,-2,-2,-4,1.6
321,-1,2,-10,1,0,0,0,-1,1.605
322,-2,-3,-9,-7,-1,0,0,-1,1.61
323,0,-2,-11,-2,-1,-1,-1,-1,1.615
324,1,2,7,-10,1,0,-2,-1,1.62
325,-1,0,20,16,0,-1,-2,-1,1.625
326,-2,-7,-24,-9,0,-2,-3,0,1.6300000000000001
327,-1,-2,4,-5,-2,0,0,0,1.635
328,-4,-6,-13,2,-2,1,-1,0,1.6400000000000001
329,0,3,-2,0,0,1,0,0,1.645
330,-1,0,18,4,-3,-3,0,-2,1.6500000000000001
331,1,3,-12,0,2,-1,0,0,1.655
332,-1,-3,1,9,-1,-2,0,-1,1.6600000000000001
333,-2,-4,-46,-13,-1,-1,-1,-1,1.665
334,0,2,10,8,-3,-1,-3,0,1.67
335,1,2,1,-12,2,2,-1,0,1.675
336,-2,1,17,-4,-3,-1,0,0,1.68
337,0,0,-11,-3,-3,-3,-1,-1,1.685
338,0,2,6,4,2,0,0,0,1.69
339,-1,-3,-4,2,-1,0,-2,-1,1.695
340,2,3,20,16,1,0,-1,1,1.7
341,-2,-5,-21,-17,-2,0,-2,-1,1.705
342,-3,-3,11,-3,-3,-2,-1,-1,1.71
343,-1,2,6,-2,-1,-1,-2,-1,1.715
344,-2,-5,-1,12,1,1,-1,-1,1.72
345,0,1,2,-13,-2,-3,0,0,1.725
346,0,2,1,-2,-1,2,0,-1,1.73
347,-1,0,8,9,0,-1,-1,0,1.735
348,1,2,9,5,0,0,-2,0,1.74
349,-1,-3,-29,8,-1,0,-1,0,1.745
350,0,-2,-10,-19,-3,-1,-2,-2,1.75
351,-1,-4,2,-9,-1,-2,2,0,1.7550000000000001
352,0,3,6,10,0,0,-1,-1,1.76
353,-1,0,10,8,-1,-1,-1,0,1.7650000000000001
354,-3,-7,-8,-25,-4,-3,-1,-5,1.77
355,-3,-4,-8,7,-1,0,-1,-2,1.7750000000000001
356,1,1,-3,-6,0,-2,-1,-2,1.78
357,0,3,19,11,0,1,1,-1,1.7850000000000001
358,0,3,-6,10,2,1,-1,0,1.79
359,-1,-1,-4,-6,0,-1,-1,-1,1.795
360,0,4,-5,3,0,-1,1,1,1.8
361,-2,-5,-11,-14,-3,-4,-1,-2,1.805
362,-1,-4,-32,0,-3,-3,-1,-1,1.81
363,-2,-1,3,7,0,-1,0,0,1.815
364,-1,-2,19,-14,-1,-1,-2,-2,1.82
365,-2,-1,4,1,-2,0,0,-2,1.825
366,-1,2,12,0,2,0,0,0,1.83
367,0,1,-7,7,0,1,0,0,1.835
368,-3,-7,-14,-5,-2,-4,-1,0,1.84
369,-2,-4,-8,-13,-2,-2,-1,-2,1.845
370,-2,-3,2,0,-1,-1,-2,-2,1.85
371,0,2,5,4,-3,-1,-1,0,1.855
372,1,0,-10,-7,-1,0,0,0,1.86
373,0,1,10,7,1,-1,0,-1,1.865
374,1,0,6,13,0,0,0,0,1.87
375,3,5,17,8,3,0,2,-1,1.875
376,-6,-12,-37,-34,-4,-2,-1,-3,1.8800000000000001
377,1,1,8,7,0,0,-1,1,1.885
378,-1,-2,1,-1,0,-3,-1,-1,1.8900000000000001
379,1,3,14,4,0,0,-2,-1,1.895
380,0,1,2,4,0,-2,-2,-2,1.9000000000000001
381,-1,1,-3,2,0,-1,-2,-1,1.905
382,-2,-2,8,6,-1,0,-1,-1,1.9100000000000001
383,-3,-7,-35,-21,-5,-3,-4,-3,1.915
384,2,4,6,12,0,0,1,0,1.92
385,-1,0,8,-4,-1,-1,0,-1,1.925
386,0,5,17,2,1,1,1,1,1.93
387,-3,-6,-13,-3,-2,-2,-1,-1,1.935
388,0,3,9,3,0,0,0,-1,1.94
389,3,2,-12,3,3,1,1,1,1.945
390,-3,-7,8,8,-1,-1,-1,1,1.95
391,-2,-4,-9,-18,-3,-1,0,-1,1.955
392,0,2,5,2,-1,0,1,1,1.96
393,-3,-2,6,2,1,0,-1,-2,1.965
394,2,3,-9,1,-2,2,-1,-1,1.97
395,0,1,2,-3,-1,0,-1,-1,1.975
396,-2,-5,-7,1,-2,0,-1,0,1.98
397,-2,-3,10,-17,-2,-1,-2,0,1.985
398,-2,-2,-16,-2,-2,-2,-2,-2,1.99
399,1,2,13,5,2,-2,-1,0,1.995
400,-3,-3,-8,-3,-4,-1,-2,-1,2.0
401,1,1,7,-1,-1,1,0,0,2.005
402,-1,-3,-16,-5,-2,-1,-1,-2,2.0100000000000002
403,1,2,9,15,1,1,1,-2,2.015
404,1,0,6,4,2,-1,-1,0,2.02
405,-3,-11,-26,-19,-7,-4,-2,-3,2.025
406,2,5,12,7,0,-2,-1,0,2.0300000000000002
407,-2,-1,-16,-13,-4,-2,-1,-1,2.035
408,-1,1,8,7,1,1,-2,-1,2.04
409,-1,0,14,13,-1,0,-2,0,2.045
410,0,-2,0,-7,-2,0,1,0,2.05
411,0,-3,-14,-7,-2,-2,0,-1,2.055
412,0,2,7,10,-1,-1,0,0,2.06
413,-1,-2,8,-10,-3,-1,-2,0,2.065
414,-1,2,8,-4,0,0,1,-2,2.07
415,0,1,6,2,-1,0,0,0,2.075
416,0,-5,-28,1,-1,-1,1,-2,2.08
417,2,1,-20,1,1,-1,-2,0,2.085
418,-4,-6,-5,-18,-4,-2,-3,-2,2.09
419,-1,-3,8,3,1,1,0,-1,2.095
420,0,3,13,4,0,0,-1,-1,2.1
421,0,3,-10,-1,-2,-1,1,0,2.105
422,-1,0,-20,-8,-1,0,0,0,2.11
423,-3,-5,4,-10,-4,-2,-3,-2,2.115
424,-1,-4,-35,1,-3,-1,-2,0,2.12
425,-3,-5,10,-2,0,-2,-1,-3,2.125
426,2,3,9,-5,-1,-2,1,1,2.13
427,0,2,9,9,-1,-1,0,-2,2.1350000000000002
428,-2,0,-1,1,1,1,0,-2,2.14
429,0,-1,-7,-4,-1,0,1,-1,2.145
430,-1,-1,-6,2,1,0,0,-1,2.15
431,-1,1,0,11,1,-2,-1,0,2.1550000000000002
432,0,1,27,-4,0,0,0,0,2.16
433,-2,0,-7,-3,0,-1,-2,-1,2.165
434,-4,-5,4,-5,-3,-2,-3,-1,2.17
435,1,1,-3,-2,2,1,1,-1,2.1750000000000003
436,-1,-2,-16,-10,0,-1,0,-1,2.18
437,0,1,9,14,0,-1,-1,1,2.185
438,-1,-3,-11,2,-4,0,1,-1,2.19
439,0,-1,-4,-6,-1,0,-3,0,2.195
440,0,3,5,-2,-2,-4,1,-1,2.2
441,-2,-2,2,9,-1,0,3,0,2.205
442,1,4,11,2,0,0,-1,-1,2.21
443,-2,-5,1,-3,-2,-1,0,0,2.215
444,-1,-5,3,-17,-3,-3,-2,-1,2.22
445,4,5,20,11,0,1,-1,1,2.225
446,-1,-6,-27,-4,-2,-3,-2,-1,2.23
447,1,6,8,10,4,1,0,0,2.235
448,-3,-5,-2,-2,-4,-2,-3,-1,2.24
449,-4,-4,-4,2,-5,-3,-3,-2,2.245
450,1,4,12,10,1,0,-2,0,2.25
451,-1,-7,-7,-10,-2,-2,1,-2,2.255
452,1,7,15,10,4,1,1,3,2.2600000000000002
453,-1,-4,1,-9,0,-2,-1,-2,2.265
454,-3,-5,-9,-8,-2,-3,1,-4,2.27
455,1,7,15,13,1,-1,0,1,2.275
456,-2,-6,-33,-21,-4,-1,-2,-3,2.2800000000000002
457,2,6,18,14,1,0,1,-1,2.285
458,-3,-6,-8,-26,-3,-3,-1,-1,2.29
459,0,-2,7,-3,-5,-1,-1,-2,2.295
460,1,2,12,6,0,-2,0,-1,2.3000000000000003
461,-1,0,6,2,1,0,-1,-2,2.305
462,-2,-2,-11,0,1,0,-1,-2,2.31
463,-3,-5,-7,-6,-1,-1,-3,-2,2.315
464,0,1,11,6,-1,0,-1,1,2.32
465,0,0,-12,-4,0,0,-2,1,2.325
466,3,7,17,8,3,0,1,1,2.33
467,-5,-11,-21,-5,-6,-5,-4,-2,2.335
468,0,3,-5,-2,1,1,-2,-1,2.34
469,1,-4,-7,-6,-1,-2,0,-2,2.345
470,-1,0,9,9,-1,0,-1,0,2.35
471,1,5,0,-5,2,1,-1,-1,2.355
472,-1,-1,-5,1,0,-2,1,-2,2.36
473,-3,-2,5,12,-2,-1,0,0,2.365
474,2,4,-11,4,-1,1,0,1,2.37
475,0,-2,-7,-10,0,1,0,0,2.375
476,-5,-12,-2,-9,-8,-4,-2,-4,2.38
477,0,6,7,-6,1,0,0,0,2.3850000000000002
478,-1,1,-9,5,1,2,1,0,2.39
479,6,7,7,18,7,3,1,2,2.395
480,-4,-4,1,-20,-5,-2,0,-2,2.4
481,-2,-6,-15,-8,-5,-3,-4,-2,2.4050000000000002
482,2,5,7,14,1,1,1,1,2.41
483,-2,-5,-8,-6,-2,-1,2,0,2.415
484,4,9,10,8,4,2,1,1,2.42
485,-3,-4,4,-3,-2,-3,-2,-4,2.4250000000000003
486,-3,-5,-2,2,-1,-1,-2,-1,2.43
487,0,3,1,-8,-1,0,-1,-1,2.435
488,2,0,12,7,2,0,-2,1,2.44
489,-3,-5,-8,-10,-3,1,0,-2,2.445
490,1,-1,17,-5,-1,1,1,-1,2.45
491,-3,-3,5,-1,-2,-3,-2,-3,2.455
492,1,4,17,16,1,0,-1,-1,2.46
493,0,-6,-32,-18,-3,0,-1,0,2.465
494,-1,-7,3,-14,-2,-2,-1,-1,2.47
495,-3,-2,-17,-4,-3,-2,0,-1,2.475
496,1,2,14,7,-1,0,2,-1,2.48
497,-1,-2,10,2,-1,-2,1,1,2.485
498,-1,0,1,4,0,-2,-1,-1,2.49
499,0,-1,-6,-4,-2,-1,-2,-1,2.495
500,0,0,-19,-1,0,0,-1,-1,2.5
501,1,4,8,9,2,0,0,-2,2.505
502,-4,-9,-40,-24,-5,-2,-2,-3,2.5100000000000002
503,0,1,6,9,-4,-1,0,-1,2.515
504,-3,-2,8,-3,-1,-1,-1,-1,2.52
505,1,7,20,11,1,-2,-4,0,2.525
506,-1,-2,2,8,0,-2,-1,0,2.5300000000000002
507,-2,-1,-10,-16,1,1,1,-1,2.535
508,-2,-1,-11,-15,-3,-1,0,-1,2.54
509,0,2,14,-4,0,0,2,-1,2.545
510,1,1,-2,7,0,0,0,-1,2.5500000000000003
511,0,-3,9,2,0,-2,-2,0,2.555
512,-1,0,3,5,0,-1,-1,-1,2.56
513,-2,-5,-10,-4,-3,-1,-2,-2,2.565
514,-1,4,8,8,1,0,-1,0,2.57
515,-2,-3,-5,-9,-1,-1,-1,0,2.575
516,-1,-3,-18,-1,-1,0,-1,-1,2.58
517,1,0,9,6,2,-1,-2,-1,2.585
518,0,3,11,4,-1,-1,-1,-1,2.59
519,-2,-4,-9,3,-1,-1,0,-1,2.595
520,1,-5,-7,-2,1,0,0,0,2.6
521,-3,-2,-10,-3,-4,-3,-1,0,2.605
522,1,4,23,6,1,1,0,-1,2.61
523,2,3,-3,5,1,-1,0,0,2.615
524,-2,-6,-3,1,-2,-2,0,0,2.62
525,2,-1,-14,-12,2,0,2,1,2.625
526,-1,-4,-13,-20,-1,-1,-2,-2,2.63
527,-2,1,20,22,-1,-3,1,-1,2.6350000000000002
528,-2,-1,10,0,-1,1,-2,0,2.64
529,-1,2,2,3,1,0,-1,1,2.645
530,0,-1,10,3,0,0,0,0,2.65
531,0,0,-22,-2,0,-1,-1,1,2.6550000000000002
532,-3,-2,-2,0,0,-2,-2,-1,2.66
533,0,2,-10,2,-1,0,0,0,2.665
534,-1,4,11,-3,1,-2,-1,-1,2.67
535,-2,-7,-12,-10,-3,-1,-2,-2,2.6750000000000003
536,-1,1,15,7,-2,-2,0,-1,2.68
537,0,2,3,5,1,0,-3,-1,2.685
538,0,-3,-12,-4,-2,-1,-2,-1,2.69
539,-1,-1,7,-5,1,0,-1,0,2.695
540,1,5,-9,-1,0,-1,-1,-1,2.7
541,-2,-4,1,-3,-3,-3,-1,-1,2.705
542,-2,-3,-4,3,-2,-2,-1,-1,2.71
543,-2,-4,-19,-3,-3,-3,-3,-2,2.715
544,-1,-5,-14,0,-1,0,-2,0,2.72
545,-2,1,-1,-11,0,-1,-1,-1,2.725
546,0,2,16,10,1,1,0,1,2.73
547,0,3,19,-4,-3,-2,-2,-1,2.735
548,2,-1,-29,-14,3,0,3,-2,2.74
549,-1,-2,23,-1,-3,0,-1,-1,2.745
550,-3,-4,-10,-5,-3,-3,-2,-1,2.75
551,0,3,8,4,3,1,0,-1,2.755
552,-1,0,9,4,0,0,-1,1,2.7600000000000002
553,-3,-6,-13,4,-1,-2,-2,-2,2.765
554,-1,-1,-5,-2,-1,0,0,-1,2.77
555,0,-1,8,4,-2,-2,-1,-1,2.775
556,1,2,-1,-7,1,0,0,0,2.7800000000000002
557,0,-3,-24,-3,-1,-2,-1,-1,2.785
558,-2,-1,8,7,-2,-2,0,-1,2.79
559,1,0,-9,-14,-2,0,-1,1,2.795
560,-2,-1,0,-2,-5,-3,-2,-2,2.8000000000000003
561,1,-1,11,4,1,1,-1,0,2.805
562,0,0,-6,-4,-2,-2,-1,-1,2.81
563,0,5,17,11,2,-1,-1,-1,2.815
564,-1,-5,0,0,0,1,-2,-1,2.82
565,-2,-3,-14,-6,-2,-1,-1,-1,2.825
566,1,1,-6,-6,0,-1,-1,-1,2.83
567,-2,-2,5,5,-1,0,0,0,2.835
568,-1,4,13,5,-1,-1,0,0,2.84
569,1,4,10,3,2,2,1,0,2.845
570,-3,-4,-16,10,-2,-2,0,-1,2.85
571,-2,-3,-25,-22,-3,-1,-2,-2,2.855
572,-3,-5,8,-1,-2,-1,-2,-1,2.86
573,0,0,9,6,-1,-1,1,1,2.865
574,0,2,14,-1,0,-1,0,-1,2.87
575,0,-2,-3,3,-1,0,0,-1,2.875
576,1,2,-4,3,2,-1,1,0,2.88
577,-2,-7,-8,-4,-2,-1,-1,-1,2.8850000000000002
578,0,-2,0,2,-1,-2,-2,-2,2.89
579,-2,-2,1,-2,0,0,0,0,2.895
580,-1,-1,-4,-7,-1,-2,0,-1,2.9
581,-1,0,-17,-3,0,-1,-1,-1,2.9050000000000002
582,0,0,-1,-5,0,-1,-1,1,2.91
583,0,4,20,6,0,1,1,1,2.915
584,0,-2,21,3,-1,-3,-1,-1,2.92
585,-2,-6,-33,-4,-1,-1,0,-1,2.9250000000000003
586,-2,-1,-8,-16,0,0,-1,-1,2.93
587,-1,0,5,-1,-1,-2,-1,-1,2.935
588,-1,0,-22,4,-3,-1,-2,-1,2.94
589,-2,0,-1,-6,-1,0,0,1,2.945
590,1,2,5,-1,0,-1,-1,-1,2.95
591,-2,0,-2,6,0,-1,1,-1,2.955
592,0,0,2,-1,1,-1,0,0,2.96
593,1,3,8,0,0,-1,-1,-1,2.965
594,0,-2,-5,9,1,2,0,2,2.97
595,-2,0,5,-3,-1,-2,-2,-1,2.975
596,-2,-2,-1,0,0,0,-2,0,2.98
597,0,2,-1,2,1,1,-1,-1,2.985
598,-1,-5,-6,-10,-1,-2,-3,-1,2.99
599,-1,-3,-3,0,-3,-2,-1,-2,2.995
600,-1,1,4,2,0,-1,0,-2,3.0
601,-1,2,12,2,0,-1,1,0,3.005
602,0,1,2,0,-1,-2,-1,-1,3.0100000000000002
603,1,-1,-10,-4,0,1,1,0,3.015
604,2,5,14,8,0,1,1,1,3.02
605,-5,-14,-58,-25,-6,-2,-2,-3,3.025
606,0,3,16,0,-1,0,0,1,3.0300000000000002
607,1,-1,15,-1,-1,0,-3,0,3.035
608,-3,-3,-29,-5,-2,-2,-1,-2,3.04
609,2,6,25,9,1,1,0,1,3.045
610,-1,-2,-1,0,-1,1,1,-1,3.0500000000000003
611,2,1,8,3,1,-1,-2,0,3.055
612,-1,-3,4,-3,0,0,-1,1,3.06
613,-1,1,0,-3,2,-1,-3,0,3.065
614,-2,1,-5,8,-2,-2,0,-1,3.0700000000000003
615,-4,-2,-1,1,-3,-1,-1,-2,3.075
616,-2,-4,-10,-13,-4,-2,1,0,3.08
617,-1,-2,-16,-12,-5,-2,-1,-1,3.085
618,-1,0,-3,-4,0,0,-1,-1,3.09
619,-1,0,-8,1,0,0,-2,0,3.095
620,1,-2,4,3,1,-2,-1,-1,3.1
621,2,3,26,6,0,0,-1,1,3.105
622,-1,0,3,2,0,1,-1,-1,3.11
623,0,-1,-1,-2,0,-1,0,-2,3.115
624,-2,-4,-19,-3,-1,0,-1,-1,3.12
625,-2,0,12,7,-1,0,-2,-1,3.125
626,1,-1,-3,-8,-1,-2,0,-1,3.13
627,-2,-2,-7,-8,0,-2,-1,1,3.1350000000000002
628,0,0,4,5,1,0,-1,-1,3.14
629,0,0,-1,0,-1,-2,0,-2,3.145
630,0,-1,6,9,0,-1,-1,1,3.15
631,-1,-2,-4,-9,-4,-1,-1,-1,3.1550000000000002
632,-2,-2,5,-3,0,1,-1,-1,3.16
633,1,1,18,14,-1,0,1,-1,3.165
634,-2,-4,-18,-25,-1,0,-2,-1,3.17
635,-2,-2,25,16,0,-2,-2,0,3.1750000000000003
636,-1,1,-15,0,-1,-1,-1,-1,3.18
637,-1,-2,-17,-4,1,-1,0,-1,3.185
638,0,2,2,4,-1,-1,-1,-1,3.19
639,-2,-5,-8,-9,-2,-1,-2,-1,3.1950000000000003
640,0,-1,-3,-5,-2,-1,-2,-3,3.2
641,0,1,17,3,3,0,-1,0,3.205
642,-1,-3,-6,3,2,1,-1,-2,3.21
643,-1,2,2,8,-3,-1,0,0,3.215
644,-4,-6,-5,-13,-4,-3,-2,-2,3.22
645,-2,-3,-35,-13,-4,-2,-3,-1,3.225
646,-1,-2,11,-1,-4,-2,-3,-1,3.23
647,0,-1,1,0,0,3,-1,0,3.235
648,-1,0,5,10,0,0,0,0,3.24
649,-1,2,6,2,-1,-2,0,-2,3.245
650,-2,-2,0,3,-2,0,0,0,3.25
651,-1,-4,-38,-7,-1,-2,-1,-1,3.255
652,2,5,7,-1,-1,0,-1,1,3.2600000000000002
653,2,3,-3,-5,3,3,-1,0,3.265
654,-1,-3,-5,5,-2,-1,-1,-2,3.27
655,-4,-3,-24,1,-4,-3,-2,-2,3.275
656,-2,-7,-5,-14,-1,-1,-1,-2,3.2800000000000002
657,0,2,10,6,-1,-2,0,0,3.285
658,-1,-1,-2,8,0,1,1,0,3.29
659,0,2,-2,-11,-1,1,-2,-1,3.295
660,1,4,21,10,1,0,-1,1,3.3000000000000003
661,-4,-8,7,-1,-5,-1,-1,-1,3.305
662,-2,0,12,-2,-1,-1,-1,-1,3.31
663,0,-1,-27,1,1,0,-1,-2,3.315
664,-1,-1,-5,-1,-2,-2,0,-1,3.3200000000000003
665,-1,-2,-2,-5,-2,-1,-1,-3,3.325
666,0,3,10,4,-3,-2,-1,0,3.33
667,1,0,11,-2,1,-1,2,-1,3.335
668,2,0,15,11,0,0,1,-1,3.34
669,-4,-6,-52,-11,-4,-1,-1,0,3.345
670,-1,-1,2,-1,-2,-2,-1,-1,3.35
671,0,0,-6,-4,-1,-2,-2,-1,3.355
672,-1,1,4,4,2,1,1,-1,3.36
673,-1,2,18,5,1,1,0,0,3.365
674,-1,-1,-7,-5,-1,-2,-2,-1,3.37
675,1,0,12,0,1,0,0,1,3.375
676,-1,2,3,-5,-1,-1,-1,-1,3.38
677,0,3,12,5,2,1,1,0,3.3850000000000002
678,-1,1,5,-4,1,0,0,-1,3.39
679,-3,-3,13,6,-4,-3,-1,-2,3.395
680,-3,-10,-31,-15,-6,-4,-3,-2,3.4
681,1,7,22,12,2,2,0,0,3.4050000000000002
682,-2,-5,14,-1,-3,0,0,-2,3.41
683,-1,-4,-18,-4,1,0,0,0,3.415
684,0,3,7,8,-2,1,1,1,3.42
685,0,-5,2,-7,-1,-2,-2,-1,3.4250000000000003
686,0,3,7,8,2,0,-1,0,3.43
687,-2,-3,-2,-7,-2,-1,0,-1,3.435
688,1,1,4,6,0,0,-1,0,3.44
689,-2,-4,0,-13,-1,-3,2,0,3.4450000000000003
690,1,-3,-9,0,0,0,-2,0,3.45
691,-2,-4,-6,-5,-2,0,0,0,3.455
692,0,4,2,0,2,1,0,1,3.46
693,1,-5,-1,6,-1,-3,-1,-2,3.465
694,-3,-4,-22,-11,-3,-2,0,-1,3.47
695,0,3,-6,6,-1,-1,0,1,3.475
696,-1,1,12,1,-2,-1,0,-1,3.48
697,-1,-1,-20,-6,-1,-2,-1,0,3.485
698,0,2,6,4,0,-2,2,1,3.49
699,0,1,15,1,0,-1,-2,0,3.495
700,1,1,1,4,2,0,2,0,3.5
701,-3,-3,-24,-8,-7,-2,-3,-2,3.505
702,-1,-3,-4,-9,-1,-1,0,-2,3.5100000000000002
703,-2,-2,-12,3,0,-2,0,-1,3.515
704,0,-1,-7,1,-1,-1,-2,1,3.52
705,1,3,19,6,1,0,0,-1,3.525
706,0,6,6,5,-1,0,0,-1,3.5300000000000002
707,-1,1,-1,-9,1,-1,0,-1,3.535
708,-2,-6,10,-2,-4,-2,-2,-1,3.54
709,-2,-1,-7,-3,-2,-1,-1,0,3.545
710,-2,0,1,1,0,0,0,-2,3.5500000000000003
711,1,4,17,7,4,0,1,-2,3.555
712,-2,-1,-9,-8,0,-1,-1,-2,3.56
713,-2,-1,-3,-3,0,-1,0,-1,3.565
714,-2,-2,2,6,-2,-1,-3,-2,3.5700000000000003
715,0,0,8,-3,0,0,0,0,3.575
716,-2,0,-8,5,0,-3,-3,0,3.58
717,0,2,23,-3,-1,0,1,0,3.585
718,-1,-2,-12,0,1,0,0,0,3.59
719,-3,-8,-32,-17,-4,-1,-1,-3,3.595
720,-2,-3,-4,-7,-2,0,-1,0,3.6
721,-1,1,10,8,1,-1,0,0,3.605
722,-1,0,-5,-5,-1,-1,-1,-1,3.61
723,2,4,19,11,2,1,-1,0,3.615
724,-3,-4,-1,-5,-2,-4,0,-3,3.62
725,1,-1,-12,-4,-1,-1,-1,1,3.625
726,1,2,-3,-1,-1,2,1,-1,3.63
727,-4,-5,-2,2,-4,-2,-3,-1,3.6350000000000002
728,0,0,-5,-8,-3,0,0,-1,3.64
729,-1,-3,6,4,1,-1,-2,0,3.645
730,1,1,0,-3,0,0,-1,0,3.65
731,0,1,1,7,-2,-1,1,0,3.6550000000000002
732,0,0,7,0,2,1,0,1,3.66
733,0,2,9,11,-2,0,-1,1,3.665
734,-4,-6,-10,-29,-4,-4,-2,-3,3.67
735,-2,-4,-27,-4,-2,-1,-1,-1,3.6750000000000003
736,0,-3,9,-4,-1,-2,0,-1,3.68
737,0,-1,-10,5,1,0,-1,-1,3.685
738,0,-3,1,10,0,-1,0,0,3.69
739,0,-1,9,-5,-1,0,-2,-2,3.6950000000000003
740,-2,-1,-8,3,0,0,1,1,3.7
741,0,1,7,-1,-1,-1,1,0,3.705
742,-2,-3,0,0,-2,-1,-1,0,3.71
743,0,2,7,-2,1,0,-1,0,3.715
744,0,2,-1,2,-2,0,-1,-1,3.72
745,-3,-5,-16,-6,-3,-2,0,-1,3.725
746,-1,0,-5,3,-2,-2,1,1,3.73
747,-2,-1,14,3,1,0,-2,0,3.735
748,0,0,-2,-6,2,0,-2,-2,3.74
749,1,2,10,3,1,1,-1,-1,3.745
750,0,1,1,1,1,-1,0,0,3.75
751,0,-1,0,4,-1,-1,0,0,3.755
752,0,1,15,-1,2,1,-1,-1,3.7600000000000002
753,0,-3,3,3,0,-1,-2,-2,3.765
754,-4,-8,-31,-9,-2,-1,-2,-2,3.77
755,-2,0,17,0,-2,0,-1,-1,3.775
756,-1,-2,-10,0,-1,-1,-1,0,3.7800000000000002
757,-1,0,10,0,1,-1,-1,0,3.785
758,1,0,8,6,1,-1,-1,0,3.79
759,2,-1,-4,-8,-2,0,0,0,3.795
760,0,-2,-7,2,-1,-1,0,-1,3.8000000000000003
761,1,3,6,1,-2,1,-1,1,3.805
762,-3,-4,2,3,0,-2,0,-1,3.81
763,-3,-3,-6,-11,-5,-2,-1,-1,3.815
764,0,0,17,3,0,3,1,0,3.8200000000000003
765,0,-1,-18,-3,-1,0,-1,-3,3.825
766,-3,-2,-2,-3,-1,-2,-2,-2,3.83
767,1,6,6,6,0,-1,-1,-1,3.835
768,0,-2,-8,0,-2,-3,-2,0,3.84
769,-1,0,-3,-1,-1,0,1,0,3.845
770,2,2,-1,3,0,1,-2,-1,3.85
771,1,5,11,-1,1,0,0,0,3.855
772,-4,-7,-19,-5,-4,-1,-1,-2,3.86
773,0,-5,-22,-8,-1,0,-2,-1,3.865
774,2,2,18,7,1,0,-1,-1,3.87
775,1,-1,11,-1,-1,1,0,0,3.875
776,0,0,0,2,0,0,0,-1,3.88
777,-1,0,-6,-6,-1,-1,-2,0,3.8850000000000002
778,1,-1,-1,-4,0,-1,0,1,3.89
779,-1,-3,5,2,0,-1,0,-1,3.895
780,1,3,6,6,0,-1,-3,0,3.9
781,-3,-5,-2,-13,0,0,-1,-1,3.9050000000000002
782,-6,-6,-20,0,-6,-2,-4,-2,3.91
783,-2,-3,-5,-3,0,-1,0,-1,3.915
784,-3,-7,-24,0,-2,-1,-1,-1,3.92
785,1,3,13,-10,-2,0,0,-2,3.9250000000000003
786,-1,-1,-2,6,-1,0,1,-2,3.93
787,0,-2,-9,-1,0,0,2,0,3.935
788,0,3,1,4,-1,-1,1,0,3.94
789,-1,-1,4,4,-1,-1,-2,0,3.9450000000000003
790,0,1,1,-8,1,0,2,2,3.95
791,1,1,11,6,0,-1,-1,-1,3.955
792,-5,-7,-25,-15,-2,-1,-2,-1,3.96
793,-2,-3,1,2,-1,-3,-1,-1,3.9650000000000003
794,2,1,5,-2,0,1,0,-1,3.97
795,0,-1,14,6,0,-1,-3,1,3.975
796,1,0,-9,-3,0,1,0,-1,3.98
797,0,0,-4,-2,-1,-1,-1,2,3.985
798,0,0,3,1,0,1,0,-1,3.99
799,-1,-2,-6,-3,-1,0,0,-2,3.995
800,-2,0,10,-2,-2,-1,-1,-2,4.0
801,-1,-4,-7,1,-1,-1,0,-1,4.005
802,3,7,8,6,1,0,0,0,4.01
803,-1,1,9,12,-1,0,1,0,4.015
804,-5,-14,-25,-34,-5,-5,-3,-3,4.0200000000000005
805,1,4,-5,0,3,2,-1,-1,4.025
806,-2,-4,30,2,-4,-2,-2,-2,4.03
807,-1,3,3,8,0,-1,0,0,4.035
808,0,7,29,15,1,1,2,0,4.04
809,0,1,3,-3,-2,-2,-2,0,4.045
810,0,-1,-8,-2,-1,1,-1,-1,4.05
811,0,-2,-15,-8,-3,-2,-2,-3,4.055
812,2,0,8,4,-1,0,-1,0,4.0600000000000005
813,0,1,-5,-2,-1,-1,-1,0,4.065
814,-2,1,7,1,1,-1,0,0,4.07
815,-4,-9,-28,-2,-2,-4,-1,-2,4.075
816,2,0,-1,-1,0,1,1,-1,4.08
817,-4,-8,0,-7,-4,-1,0,-2,4.085
818,0,-2,-22,1,1,1,-1,-1,4.09
819,-1,-1,-7,-16,-2,-1,-2,-1,4.095
820,1,4,15,9,0,-1,-1,1,4.1
821,-1,0,7,9,1,-1,-2,-1,4.105
822,0,-1,-1,-1,-2,-1,-1,-1,4.11
823,-1,-1,-7,-5,-1,0,0,-1,4.115
824,2,3,-11,1,2,0,-1,-1,4.12
825,0,0,15,11,-2,0,-1,-1,4.125
826,-2,-5,-6,-7,-1,1,0,-1,4.13
827,-1,-3,-22,0,-2,-3,0,-2,4.135
828,-2,0,5,-7,0,0,-1,-1,4.14
829,0,-1,6,3,0,-2,0,0,4.1450000000000005
830,1,1,3,-4,0,0,-2,-1,4.15
831,1,2,10,5,2,1,0,1,4.155
832,0,-1,-2,0,1,0,1,0,4.16
833,0,0,-3,-2,-1,0,2,0,4.165
834,0,1,9,4,0,-1,0,-2,4.17
835,1,0,-6,-1,-2,0,-1,-1,4.175
836,-4,-6,-24,-8,-3,-3,-2,-1,4.18
837,-2,0,5,-2,-3,-3,-2,-1,4.1850000000000005
838,1,2,0,-2,-2,-1,0,1,4.19
839,0,-1,0,-4,0,0,-1,0,4.195
840,2,4,10,8,0,-1,-1,0,4.2
841,-2,-4,-8,-6,2,0,0,0,4.205
842,-2,-1,-5,-1,-1,-1,-1,-1,4.21
843,-1,-2,10,3,-1,-1,-1,-1,4.215
844,0,3,2,0,-1,-1,-2,-1,4.22
845,0,-3,-10,2,-2,0,-2,-2,4.225
846,0,-2,-7,-14,-3,-2,-1,-1,4.23
847,1,-2,-1,7,0,-1,0,0,4.235
848,-4,-8,0,-20,-5,-4,-2,-3,4.24
849,-1,-5,-32,-7,-1,-1,1,0,4.245
850,0,2,9,3,0,-2,0,-1,4.25
851,-1,2,14,1,0,0,-1,-1,4.255
852,2,2,8,9,1,1,0,0,4.26
853,1,1,10,5,0,0,0,0,4.265
854,-1,-2,-9,-4,-1,0,1,0,4.2700000000000005
855,-1,3,2,-9,-3,-1,-2,-1,4.275
856,-3,-3,1,19,-1,1,-1,1,4.28
857,-1,0,0,-22,-1,-1,0,-1,4.285
858,-3,-4,-14,5,-1,-2,-2,-3,4.29
859,-2,-1,9,-8,-1,-1,0,-1,4.295
860,-2,-3,-10,-3,-1,0,-1,1,4.3
861,2,2,12,10,1,0,-1,1,4.305
862,0,-2,1,-1,0,0,-1,1,4.3100000000000005
863,-1,0,0,3,-2,1,0,-1,4.315
864,0,0,3,0,0,0,-1,-1,4.32
865,-1,-2,-3,1,0,0,1,-1,4.325
866,-1,-1,-2,3,-1,-1,0,-1,4.33
867,0,-3,-10,-1,0,-2,-2,-1,4.335
868,0,3,19,-3,0,0,1,0,4.34
869,-5,-13,-58,-8,-5,-2,-4,-3,4.345
870,-1,2,7,4,-1,0,-2,-2,4.3500000000000005
871,0,-1,9,1,0,-2,-1,0,4.355
872,-2,1,-8,-4,-1,-1,-2,-1,4.36
873,0,4,24,4,0,-1,1,-1,4.365
874,0,-3,-3,-2,-1,-3,0,-3,4.37
875,0,-2,-12,0,0,-1,1,0,4.375
876,0,-1,2,-1,2,-1,0,0,4.38
877,0,3,8,3,-1,0,-1,-2,4.385
878,-1,-1,-8,-3,-2,0,-2,0,4.39
879,0,6,4,8,2,1,-1,0,4.3950000000000005
880,-4,-9,-12,-6,-2,-2,-1,-1,4.4
881,-1,1,5,-12,-3,0,-2,0,4.405
882,-2,-6,15,-12,-1,-2,-2,-2,4.41
883,-1,-5,-26,3,-2,-1,0,-1,4.415
884,1,1,7,5,-2,-1,0,-2,4.42
885,1,4,15,12,2,0,0,2,4.425
886,1,2,-3,-1,0,-1,-1,2,4.43
887,0,-1,4,0,0,2,-1,0,4.4350000000000005
888,0,-1,-7,-1,-2,-1,-2,-3,4.44
889,0,0,3,4,-1,-1,1,0,4.445
890,2,3,-4,-2,1,-1,0,0,4.45
891,-3,-8,-17,4,-1,-1,-1,-1,4.455
892,-2,0,4,-9,-3,-3,-1,-1,4.46
893,-1,-4,-8,-9,-2,-1,0,-2,4.465
894,-3,-1,26,2,-1,0,0,0,4.47
895,-1,-4,-21,0,-1,-4,-2,0,4.4750000000000005
896,1,1,-6,-1,2,0,-1,0,4.48
897,-1,1,1,5,1,0,-1,0,4.485
898,0,2,7,3,0,-1,0,-1,4.49
899,-1,2,14,-3,0,-1,0,0,4.495
900,-2,-1,-1,-3,-1,0,-1,-1,4.5
901,0,0,2,1,0,0,0,0,4.505
902,1,0,-12,3,-1,0,-1,0,4.51
903,-1,3,1,-4,-2,1,0,0,4.515
904,-1,-2,9,-1,-2,-2,-1,0,4.5200000000000005
905,-3,-5,-22,-6,-4,-4,0,0,4.525
906,-2,-7,-13,-10,-3,-1,-1,-2,4.53
907,1,3,17,5,0,-1,0,0,4.535
908,-3,-3,3,2,-1,-2,-1,-2,4.54
909,0,0,6,3,1,0,0,-2,4.545
910,1,1,6,4,-1,0,0,0,4.55
911,-2,-1,-28,-17,-1,-1,-2,-2,4.555
912,3,4,1,7,0,-1,0,-1,4.5600000000000005
913,-1,1,14,4,-1,1,-1,1,4.565
914,-2,-5,-57,-13,-3,-2,-2,-2,4.57
915,0,2,8,2,3,0,0,0,4.575
916,-3,-4,5,2,-4,-1,-1,0,4.58
917,-1,-4,-1,0,0,-2,-2,-2,4.585
918,2,7,24,13,2,0,1,1,4.59
919,-1,-5,0,-6,-3,-1,-1,-1,4.595
920,0,2,-15,-2,2,0,0,0,4.6000000000000005
921,-1,0,2,-5,-1,0,-2,-1,4.605
922,-3,-1,7,14,-1,0,-2,-1,4.61
923,0,-1,-12,-6,-1,-2,1,-1,4.615
924,-2,-5,-32,-15,-2,0,-1,0,4.62
925,-1,-2,10,-3,-3,-2,0,-1,4.625
926,0,2,1,-6,-1,0,0,0,4.63
927,-1,1,-1,10,-2,0,-2,-1,4.635
928,0,-7,12,0,0,0,-2,-1,4.64
929,-2,-1,-19,-1,0,-1,-1,-2,4.6450000000000005
930,0,-2,-23,0,-1,-1,-1,0,4.65
931,-1,-4,0,-7,-1,0,0,-1,4.655
932,1,4,18,7,1,2,0,-2,4.66
933,-1,-5,-28,-10,-1,-2,0,-1,4.665
934,-1,3,27,-2,-1,-2,-1,-2,4.67
935,-1,1,4,0,0,-1,-2,1,4.675
936,-2,-1,-8,4,1,0,0,0,4.68
937,1,3,9,22,0,1,0,-1,4.6850000000000005
938,-1,-3,-3,-9,-3,0,0,-2,4.69
939,-2,-3,4,-1,-3,-1,-2,-2,4.695
940,1,4,14,2,0,-3,0,-1,4.7
941,0,1,-8,14,0,0,-1,0,4.705
942,-5,-8,-32,-30,-5,-4,-2,-1,4.71
943,-2,-6,-4,-9,-2,1,-1,-1,4.715
944,0,1,4,-1,0,0,-3,-2,4.72
945,3,3,18,-1,1,-1,0,0,4.7250000000000005
946,0,-4,7,7,1,0,-1,0,4.73
947,-2,-1,-14,13,-1,-2,-1,-2,4.735
948,-1,-1,-10,-12,-4,-1,0,-1,4.74
949,-3,-1,29,-1,-3,-4,-2,-1,4.745
950,0,3,10,3,2,0,0,0,4.75
951,0,-2,-5,8,0,-3,0,-2,4.755
952,-1,0,12,-2,-1,0,1,1,4.76
953,0,-2,-38,-20,-3,-1,0,-1,4.765
954,2,3,7,13,2,1,2,2,4.7700000000000005
955,-5,-9,-9,-21,-7,-5,-3,-4,4.775
956,-1,2,-11,8,-2,-2,-1,0,4.78
957,-1,-2,5,-9,1,-1,0,1,4.785
958,1,5,6,21,2,0,-1,-1,4.79
959,-1,0,29,15,-1,1,0,0,4.795
960,0,0,-4,-6,-2,-1,-1,-1,4.8
961,-1,1,-1,1,-1,1,-1,-1,4.805
962,0,-6,-21,-20,0,-1,0,0,4.8100000000000005
963,1,6,20,3,1,0,0,2,4.815
964,-2,-5,-12,0,-2,-4,-4,-3,4.82
965,-1,1,6,1,0,-1,-3,1,4.825
966,-2,1,4,5,1,0,0,-1,4.83
967,0,1,-2,-11,1,0,1,-2,4.835
968,-1,-1,0,2,-2,0,0,0,4.84
969,1,-1,-7,1,-1,-1,2,0,4.845
970,-4,-5,6,-4,-2,-1,-2,-2,4.8500000000000005
971,1,3,-9,-16,-1,-2,-1,-1,4.855
972,-1,-2,6,-5,-3,-1,-1,-1,4.86
973,-1,1,1,4,0,-1,-1,0,4.865
974,-1,-1,11,-3,-2,-3,0,0,4.87
975,1,2,-3,5,1,1,-1,1,4.875
976,-1,-4,-21,-8,0,0,0,0,4.88
977,-1,1,8,2,-1,-1,-2,-1,4.885
978,-1,-4,-11,-4,-3,-1,-1,-1,4.89
979,-3,-5,9,6,-4,-4,-4,-1,4.8950000000000005
980,-1,1,8,-4,1,-1,-1,-3,4.9
981,-2,0,-4,0,-1,-1,-1,-1,4.905
982,-1,1,0,-3,2,1,0,-1,4.91
983,1,3,7,3,-1,0,-1,0,4.915
984,0,-4,-21,-2,0,0,-1,0,4.92
985,-2,-2,13,1,0,-1,0,-2,4.925
986,1,3,-10,-2,1,0,1,-1,4.93
987,-2,-3,-6,-9,-2,0,0,0,4.9350000000000005
988,0,0,-2,6,-1,1,0,-2,4.94
989,1,5,21,8,0,1,0,1,4.945
990,-1,-3,-11,-6,-1,0,-2,0,4.95
991,1,1,1,8,-1,0,0,-1,4.955
992,-2,1,11,5,1,-1,0,0,4.96
993,-3,-12,-35,-23,-4,-2,-3,-3,4.965
994,1,1,9,13,-2,0,-1,-1,4.97
995,0,0,4,3,3,0,1,-1,4.9750000000000005
996,-2,3,11,3,1,-2,-1,-1,4.98
997,1,-3,-10,-5,0,-1,-1,-1,4.985
998,0,0,9,-2,-1,0,-1,1,4.99
999,-2,-3,-10,2,-2,0,-2,0,4.995
1000,-1,-2,-16,-8,-2,-1,-1,-1,5.0
1001,-1,-1,6,3,-1,-1,0,1,5.005
1002,-1,1,5,-2,-1,-1,-2,-2,5.01
1003,0,0,22,0,-1,2,0,0,5.015
1004,-1,0,14,13,-1,-1,-1,-1,5.0200000000000005
1005,2,3,3,7,2,1,1,1,5.025
1006,-3,-7,-17,-16,-7,-4,-1,-3,5.03
1007,-1,-1,-4,0,0,-1,-1,-1,5.035
1008,0,2,0,0,-2,0,0,0,5.04
1009,-2,-2,-1,7,2,0,-1,1,5.045
1010,1,1,15,9,1,-1,0,0,5.05
1011,-1,0,-14,-12,-1,-2,-1,-1,5.055
1012,3,4,3,8,3,0,0,0,5.0600000000000005
1013,-4,-3,6,-10,-6,-2,0,-2,5.065
1014,2,3,4,9,2,2,-1,0,5.07
1015,-2,-8,-25,-16,-3,-4,-1,-2,5.075
1016,0,-1,8,6,0,-1,0,0,5.08
1017,0,2,7,6,0,1,-2,-1,5.085
1018,-4,-4,-27,-14,-3,-1,0,-2,5.09
1019,-1,-1,14,4,-1,0,-1,-1,5.095
1020,0,-2,-11,-3,-1,0,0,1,5.1000000000000005
1021,-1,-2,-12,-1,-2,-2,-1,0,5.105
1022,0,-1,7,0,1,-2,0,1,5.11
1023,-4,2,4,4,-2,-2,-2,-3,5.115
1024,-4,-6,-13,-14,-3,-2,0,-1,5.12
1025,-2,-2,3,-3,-1,-2,-1,-3,5.125
1026,2,3,14,12,1,-1,0,0,5.13
1027,2,0,-8,-9,-1,0,0,-1,5.135
1028,-3,-2,6,9,-3,-1,-1,-2,5.14
1029,-1,5,6,5,1,-1,-1,-1,5.1450000000000005
1030,-3,-5,-6,-12,-2,-2,-2,-3,5.15
1031,3,3,4,4,2,0,3,0,5.155
1032,-2,-5,6,5,-3,-2,-3,-4,5.16
1033,1,-3,-26,-12,-2,0,1,-1,5.165
1034,-3,-6,-10,-11,-3,-2,-2,-1,5.17
1035,1,1,2,3,1,1,-1,1,5.175
1036,1,2,23,4,2,0,-1,0,5.18
1037,-2,-2,10,3,-3,-2,-3,-2,5.1850000000000005
1038,0,-3,-27,-11,0,0,0,-1,5.19
1039,-2,-4,17,8,-3,-2,-1,-1,5.195
1040,1,3,0,-6,1,1,0,1,5.2
1041,-1,-1,-8,-14,-3,0,-1,0,5.205
1042,1,2,11,11,2,-1,0,1,5.21
1043,-1,0,1,-6,-1,-1,-2,-1,5.215
1044,-2,-2,-18,-2,0,1,0,0,5.22
1045,-1,-2,-11,-4,0,-2,0,1,5.2250000000000005
1046,0,0,23,10,-2,-2,-1,-1,5.23
1047,-1,-1,-32,-4,0,-1,0,0,5.235
1048,0,-1,-3,-4,0,-3,-1,-1,5.24
1049,0,2,0,1,-1,-1,1,-3,5.245
1050,-2,-5,18,1,-2,0,-1,-2,5.25
1051,-3,-3,3,5,0,-2,-2,-2,5.255
1052,1,-2,-6,-13,-3,-2,-1,-2,5.26
1053,-1,-1,-1,3,2,1,-1,-2,5.265
1054,0,5,4,9,1,0,0,0,5.2700000000000005
1055,-1,-2,5,7,1,1,-1,-2,5.275
1056,-1,-1,4,-4,-1,-1,0,-1,5.28
1057,-1,-3,-9,-6,-3,-2,0,-2,5.285
1058,1,3,-12,-2,-1,0,-1,0,5.29
1059,1,1,10,1,0,-1,0,1,5.295
1060,-3,-5,-33,3,-1,-2,-1,-2,5.3
1061,0,2,10,2,0,-2,-2,3,5.305
1062,-1,-1,4,4,-1,-1,-2,-2,5.3100000000000005
1063,1,2,-1,-2,-1,0,0,-1,5.315
1064,1,1,13,-3,0,-2,-2,1,5.32
1065,-1,-2,-6,4,-1,-1,-1,0,5.325
1066,0,-3,-13,5,0,0,0,-2,5.33
1067,-1,1,-1,-12,-1,-2,0,0,5.335
1068,1,-2,-1,-1,-3,-2,0,-1,5.34
1069,-1,-2,0,-1,1,1,0,1,5.345
1070,-1,-1,2,-3,-2,-2,0,0,5.3500000000000005
1071,-3,-4,-1,4,1,-1,-1,-2,5.355
1072,-1,2,-1,-3,0,0,0,0,5.36
1073,0,0,5,1,0,-1,-1,-1,5.365
1074,-2,-2,3,2,1,-1,-2,0,5.37
1075,-1,-1,-18,-8,-2,-1,-1,-1,5.375
1076,0,0,7,6,-1,-1,-2,-1,5.38
1077,-5,-9,-19,-19,-4,-1,-2,-2,5.385
1078,-2,-3,-15,6,-1,-2,-1,-1,5.39
1079,-1,1,2,-9,-1,-1,-1,-1,5.3950000000000005
1080,1,0,11,2,2,1,1,0,5.4
1081,0,-2,-19,-11,0,-1,1,0,5.405
1082,-1,0,12,3,0,-1,-2,-2,5.41
1083,0,0,-5,4,0,2,-1,0,5.415
1084,-1,-1,20,4,-1,0,-3,-1,5.42
1085,0,3,10,14,1,0,-1,-2,5.425
1086,-4,-11,-29,-37,-5,-1,-1,-2,5.43
1087,-1,-2,10,7,0,-1,-1,0,5.4350000000000005
1088,-3,3,-4,4,0,-1,0,-2,5.44
1089,0,0,19,17,-1,-1,0,0,5.445
1090,0,6,5,-4,-1,-1,-1,-1,5.45
1091,0,3,3,-5,0,-1,1,0,5.455
1092,-4,-9,1,-9,-4,-1,-2,-2,5.46
1093,1,0,-7,-4,-1,-1,-1,1,5.465
1094,-1,2,-2,7,2,0,-1,-3,5.47
1095,0,-1,-2,-3,-3,-1,0,-2,5.4750000000000005
1096,0,4,9,-1,-1,0,0,-1,5.48
1097,2,2,8,2,1,0,1,0,5.485
1098,-3,-3,-13,2,-1,-1,0,0,5.49
1099,-1,-4,-9,4,0,-1,0,-1,5.495
1100,-1,0,-4,-2,2,0,-1,0,5.5
1101,-3,-2,2,1,-2,-1,1,-1,5.505
1102,1,1,9,-8,-3,-1,-2,0,5.51
1103,1,1,6,2,2,-1,-1,0,5.515
1104,1,0,-16,-1,0,-1,1,-1,5.5200000000000005
1105,-4,-4,18,-4,-1,-1,-2,-3,5.525
1106,1,-2,-9,6,-2,-2,-1,-1,5.53
1107,-1,1,4,2,-2,-2,0,-1,5.535
1108,-2,0,21,-5,-1,0,-1,-1,5.54
1109,0,0,-22,-1,-1,-2,-1,-1,5.545
1110,0,0,3,-1,-1,0,0,0,5.55
1111,-4,-4,-7,2,0,-1,-1,-1,5.555
1112,1,2,10,2,2,0,0,-1,5.5600000000000005
1113,-2,-4,-20,-1,-2,-2,-2,-1,5.565
1114,-2,-3,-3,-12,-2,-1,0,-2,5.57
1115,0,-1,-1,-1,-2,0,-2,0,5.575
1116,1,1,-1,4,0,0,0,1,5.58
1117,0,-1,15,0,0,-1,-1,0,5.585
1118,1,2,1,4,0,-1,0,0,5.59
1119,1,1,4,0,2,-1,1,0,5.595
1120,-4,-5,-4,4,-3,0,-2,-1,5.6000000000000005
1121,-1,-2,-24,-12,-1,-1,-1,-3,5.605
1122,0,0,5,8,1,1,0,0,5.61
1123,-5,-7,-10,-11,-6,-6,-4,-4,5.615
1124,0,-1,4,-2,-1,-1,-1,1,5.62
1125,-1,-1,-26,5,-2,-1,0,-2,5.625
1126,0,-1,-1,-5,-1,0,-1,-1,5.63
1127,-1,0,-4,-1,0,0,1,-1,5.635
1128,-1,-2,-5,-1,-1,1,-2,-1,5.64
1129,-2,-1,4,2,0,0,-2,-1,5.6450000000000005
1130,1,5,24,7,1,1,0,0,5.65
1131,-4,-6,-5,-5,-1,-1,-1,-3,5.655
1132,0,-1,-22,2,0,0,0,-2,5.66
1133,-2,-4,33,3,-4,-2,-2,-1,5.665
1134,1,-2,-34,-12,-3,-1,0,-1,5.67
1135,1,2,30,10,2,-2,-1,1,5.675
1136,-1,-1,-20,-14,-1,-3,0,1,5.68
1137,2,3,20,5,2,1,0,1,5.6850000000000005
1138,-1,-1,-16,-2,0,-1,-1,-1,5.69
1139,-1,-4,-10,-3,-5,-1,0,0,5.695
1140,-1,0,-5,-3,-1,-3,-1,-1,5.7
1141,-2,1,6,1,1,0,0,-1,5.705
1142,-2,-1,12,2,0,-1,-1,0,5.71
1143,1,1,-6,-3,-1,0,0,-2,5.715
1144,0,0,2,0,0,-1,0,0,5.72
1145,1,-1,-3,-3,-1,-1,0,1,5.7250000000000005
1146,-1,-2,13,1,1,-2,0,-1,5.73
1147,-1,0,-28,0,-3,0,-1,-1,5.735
1148,0,-1,8,-3,1,-1,0,0,5.74
1149,2,2,6,10,1,0,0,-1,5.745
1150,-2,-7,-33,-16,-4,-3,0,-2,5.75
1151,1,1,23,-10,-1,0,1,-1,5.755
1152,-2,0,2,8,-2,1,0,-2,5.76
1153,1,-1,8,4,1,0,-1,-1,5.765
1154,0,1,3,8,0,0,-1,-1,5.7700000000000005
1155,1,3,11,5,0,-1,-1,0,5.775
1156,-1,-3,-13,-7,-2,-2,-1,0,5.78
1157,-1,0,10,-2,-1,0,-1,-1,5.785
1158,-2,-2,5,5,-1,1,-1,1,5.79
1159,-1,-1,-3,-5,0,1,-2,0,5.795
1160,-2,2,5,2,-1,0,0,0,5.8
1161,0,0,-6,-10,-1,0,0,-1,5.805
1162,-2,1,1,7,-1,-1,-1,-1,5.8100000000000005
1163,-1,-2,-25,2,-3,0,-3,0,5.815
1164,-2,2,14,-1,-2,-2,-2,-3,5.82
1165,-2,-6,-37,-18,-2,-2,-2,-3,5.825
1166,-1,-2,15,2,-1,-1,-1,0,5.83
1167,-1,0,2,-3,3,-1,1,1,5.835
1168,0,-3,-7,6,-3,-2,-2,-1,5.84
1169,0,1,12,5,-1,0,0,0,5.845
1170,0,2,10,2,1,-2,1,0,5.8500000000000005
1171,-3,-7,-29,0,-2,-3,0,-1,5.855
1172,-1,-4,-12,-17,-1,0,-1,0,5.86
1173,0,3,7,3,-1,-2,1,0,5.865
1174,-1,0,9,2,0,0,-2,0,5.87
1175,-1,-1,-34,3,-1,-1,-1,-1,5.875
1176,-1,-1,-16,-7,-2,0,0,-3,5.88
1177,-1,-2,15,-3,-2,-1,-2,-1,5.885
1178,1,-1,-5,-4,0,0,0,0,5.89
1179,-1,3,32,11,1,-1,0,-1,5.8950000000000005
1180,-1,-2,-15,3,-1,0,-1,-2,5.9
1181,-2,1,-13,-5,-1,-1,-2,0,5.905
1182,-2,0,-3,1,0,-1,-2,-1,5.91
1183,2,5,45,6,1,0,0,1,5.915
1184,-3,-3,-9,1,-3,-3,-1,0,5.92
1185,1,2,-3,-1,3,-1,0,0,5.925
1186,-1,-2,1,4,-1,0,1,-2,5.93
1187,-1,2,0,-7,-1,-2,-1,-1,5.9350000000000005
1188,0,0,6,8,0,1,0,0,5.94
1189,-2,-3,-16,-11,-2,1,1,-1,5.945
1190,-4,-7,-22,-10,-3,-4,-2,-4,5.95
1191,-1,-1,0,1,2,0,-1,-3,5.955
1192,1,2,14,8,0,1,0,0,5.96
1193,0,-1,8,4,-2,-2,-1,-1,5.965
1194,1,1,9,-1,1,1,-2,0,5.97
1195,-1,-1,-9,-4,-1,-1,-1,0,5.9750000000000005
1196,1,4,12,0,1,1,-1,0,5.98
1197,-4,-7,-19,-10,-2,-1,-2,0,5.985
1198,-2,0,5,0,-1,0,-2,1,5.99
1199,0,1,-5,-1,-1,-1,1,0,5.995
1200,-1,-3,13,4,-1,-1,0,-1,6.0
1201,0,0,-2,-1,-1,-2,0,-2,6.005
1202,-1,0,1,-7,-1,-1,0,-1,6.01
1203,1,4,4,4,2,2,-1,1,6.015000000000001
1204,-1,-8,9,-15,-4,-2,0,1,6.0200000000000005
1205,-1,0,-19,2,0,-2,-2,-1,6.025
1206,-2,-6,-29,-1,-2,-1,-1,-2,6.03
1207,0,0,10,2,-3,-2,0,-2,6.035
1208,0,4,14,7,1,1,0,0,6.04
1209,-2,0,19,-1,0,-2,0,-1,6.045
1210,-2,-3,-3,-7,-2,-1,-2,0,6.05
1211,0,-3,-4,-1,0,0,0,0,6.055
1212,1,-1,-12,10,0,1,0,0,6.0600000000000005
1213,1,-1,-10,-20,-2,-2,-1,1,6.065
1214,2,3,27,4,1,1,1,-1,6.07
1215,-4,-4,-21,-4,-4,-2,-3,0,6.075
1216,1,1,-6,-6,0,-1,-2,-2,6.08
1217,1,4,28,16,3,0,0,0,6.085
1218,-1,-2,21,-3,-3,-2,-1,-2,6.09
1219,-3,-8,-15,-9,-2,0,-1,-2,6.095
1220,-1,1,-7,-3,-1,-3,-1,0,6.1000000000000005
1221,1,0,14,12,1,-1,-1,-1,6.105
1222,2,3,-5,-5,-1,1,1,0,6.11
1223,-2,-3,12,-2,-2,0,1,1,6.115
1224,-2,-3,-46,-8,-1,-1,-1,-2,6.12
1225,0,0,11,10,-1,-1,-2,-2,6.125
1226,1,-1,2,-6,2,1,0,1,6.13
1227,1,5,23,10,1,-2,-1,-1,6.135
1228,-3,-4,28,-15,-3,-2,-2,-1,6.140000000000001
1229,-3,-7,-66,-12,-1,0,-2,-2,6.1450000000000005
1230,-2,1,1,7,-1,-2,0,-4,6.15
1231,0,0,4,1,2,-2,0,0,6.155
1232,0,2,24,6,0,-2,-2,-2,6.16
1233,0,2,1,2,-1,0,0,0,6.165
1234,-1,-5,-13,-2,-2,-1,-3,-2,6.17
1235,0,0,1,1,-1,0,1,0,6.175
1236,0,1,-15,-6,2,-2,-1,1,6.18
1237,-4,-5,13,2,-6,-2,1,-1,6.1850000000000005
1238,-1,3,-10,8,-2,-1,0,0,6.19
1239,1,0,-2,-4,0,-1,-2,-2,6.195
1240,1,1,4,3,2,2,0,0,6.2
1241,1,0,-2,-4,0,1,-1,1,6.205
1242,-6,-10,-48,-8,-2,-4,-2,-3,6.21
1243,0,0,8,1,-2,-1,-2,-2,6.215
1244,0,3,17,6,-2,-1,0,-1,6.22
1245,-2,-1,0,-1,-1,0,-2,0,6.2250000000000005
1246,0,-1,12,2,0,-1,0,0,6.23
1247,0,-2,-10,-3,0,-1,0,0,6.235
1248,-2,-1,-6,-2,-2,-2,-1,-1,6.24
1249,-2,-2,8,0,0,-1,-1,0,6.245
1250,1,0,1,-1,1,-1,0,1,6.25
1251,-1,-3,-5,-3,-1,-1,0,-1,6.255
1252,-1,-3,-11,-2,-2,2,0,-1,6.26
1253,0,3,5,1,-1,-1,0,-1,6.265000000000001
1254,2,0,19,4,1,-1,0,0,6.2700000000000005
1255,-3,-1,-8,-3,-3,-2,-1,-1,6.275
1256,-1,-6,-28,-14,-1,-2,-1,-1,6.28
1257,-1,1,-7,3,0,-2,-1,1,6.285
1258,1,-1,-1,-13,-3,-1,0,-2,6.29
1259,0,2,8,1,-2,1,-2,1,6.295
1260,-1,-5,-6,-8,-2,0,0,0,6.3
1261,-1,-1,19,15,1,-1,-2,-1,6.305
1262,0,3,11,10,1,1,-1,0,6.3100000000000005
1263,-2,-3,-11,-4,1,0,-1,-1,6.315
1264,-3,-6,-5,-2,-3,-1,0,-2,6.32
1265,1,1,-4,2,3,0,1,0,6.325
1266,-2,2,12,2,-2,-1,-1,0,6.33
1267,-2,-3,-20,-14,-5,-2,-2,-2,6.335
1268,-1,1,9,8,1,-1,0,0,6.34
1269,1,1,18,-2,-1,1,-1,-2,6.345
1270,-3,-1,-7,-1,-2,-3,-2,0,6.3500000000000005
1271,1,-1,8,2,0,1,1,0,6.355
1272,-1,-3,-10,0,-2,-3,-1,-2,6.36
1273,-1,2,11,-4,-2,1,0,0,6.365
1274,1,1,-9,3,0,0,0,-1,6.37
1275,-1,-3,5,-1,0,-1,-2,-2,6.375
1276,0,1,5,2,-1,-1,-3,-2,6.38
1277,-1,-2,-2,-2,0,1,-1,-2,6.385
1278,0,1,10,6,-1,-1,1,-1,6.390000000000001
1279,0,-3,-8,-7,-2,-1,0,-1,6.3950000000000005
1280,2,6,20,11,4,0,1,1,6.4
1281,-2,-3,-25,-18,-4,-3,-1,-1,6.405
1282,-3,-3,-7,0,0,-2,-2,0,6.41
1283,3,1,17,12,1,2,0,-1,6.415
1284,-1,-1,-3,-2,-2,-2,-1,-1,6.42
1285,-1,-1,-13,1,-2,-1,0,-1,6.425
1286,-1,-2,5,-9,-1,-1,1,0,6.43
1287,-1,0,-2,8,1,-3,0,0,6.4350000000000005
1288,-1,-5,-20,-11,-2,-1,-1,0,6.44
1289,0,0,4,3,2,-3,0,-1,6.445
1290,-1,0,-4,-8,-1,1,-2,-3,6.45
1291,-3,-5,-1,-6,-2,-3,-1,-1,6.455
1292,1,1,14,5,1,0,0,0,6.46
1293,0,-3,-2,-6,-2,-2,-1,-1,6.465
1294,0,0,-24,-1,2,0,1,0,6.47
1295,-3,-2,7,-4,-4,-2,-1,-1,6.4750000000000005
1296,-1,2,-8,-4,0,1,0,0,6.48
1297,-3,-2,18,8,-1,0,1,-1,6.485
1298,-1,-2,-3,5,-1,0,0,-1,6.49
1299,-1,2,3,-3,-1,0,0,-2,6.495
1300,1,1,-4,4,0,0,2,-1,6.5
1301,0,-3,2,-3,-2,0,-1,-1,6.505
1302,2,-1,-2,-8,-1,0,-1,-1,6.51
1303,1,-2,-11,4,2,0,1,0,6.515000000000001
1304,-3,1,15,-2,-3,-1,-1,0,6.5200000000000005
1305,-1,-1,8,5,-2,-1,0,0,6.525
1306,-1,-3,-12,-2,-1,0,0,-2,6.53
1307,-1,1,12,-1,-2,-1,-1,-2,6.535
1308,0,-1,-1,2,0,-3,-1,-2,6.54
1309,1,4,8,-2,3,2,-3,2,6.545
1310,-1,-1,21,8,-3,-3,-1,0,6.55
1311,-1,1,4,1,3,-1,0,0,6.555
1312,-1,-6,-19,-5,0,0,-1,0,6.5600000000000005
1313,-3,0,-9,-11,-1,-1,-1,0,6.565
1314,-3,-4,-9,-1,-1,0,-1,-2,6.57
1315,2,1,1,2,-2,0,-2,-1,6.575
1316,1,1,4,4,-2,-1,-2,-1,6.58
1317,0,-2,15,1,-2,0,-1,-1,6.585
1318,-4,-3,-20,-5,-1,-1,0,-1,6.59
1319,0,0,-14,-6,-1,-2,1,-1,6.595
1320,-3,-4,8,2,0,0,-1,-1,6.6000000000000005
1321,1,2,6,2,0,0,-2,-1,6.605
1322,2,2,-9,13,3,0,1,-1,6.61
1323,-3,-8,-3,-8,-4,-1,-3,-1,6.615
1324,0,-1,11,-13,-2,0,-1,-1,6.62
1325,-3,-6,-53,-6,-3,-2,0,-2,6.625
1326,1,6,31,8,1,-1,-2,0,6.63
1327,1,1,1,0,2,-1,-1,1,6.635
1328,1,1,4,9,-1,-1,-1,0,6.640000000000001
1329,-1,-5,-8,-2,-3,-2,-1,-4,6.6450000000000005
1330,0,-2,11,-2,1,0,-2,-1,6.65
1331,1,-1,-13,5,0,0,0,-2,6.655
1332,-1,0,-12,-9,0,-2,1,-1,6.66
1333,-2,-4,-12,5,-3,-3,0,0,6.665
1334,0,-1,-9,-10,-2,-1,0,0,6.67
1335,-2,0,12,4,1,0,0,0,6.675
1336,0,-2,-10,4,0,0,-3,-1,6.68
1337,0,2,4,1,1,1,0,-1,6.6850000000000005
1338,1,-2,4,-2,0,0,0,1,6.69
1339,-3,-2,-3,-5,-1,-1,-1,-1,6.695
1340,0,1,-3,3,-1,2,-2,0,6.7
1341,0,0,-7,-4,0,-1,0,1,6.705
1342,-2,-2,7,-3,-2,0,0,-2,6.71
1343,-4,-2,-2,1,-2,-1,-1,0,6.715
1344,2,2,5,5,-1,-2,1,1,6.72
1345,-1,-1,-5,-11,0,-1,-4,-1,6.7250000000000005
1346,-5,0,-5,-3,-2,-3,-4,-3,6.73
1347,-2,-2,2,-4,-1,-2,-1,-2,6.735
1348,-2,-5,-24,0,1,0,-2,-2,6.74
1349,0,1,10,6,1,2,2,1,6.745
1350,1,0,-2,-4,-1,0,2,0,6.75
1351,3,3,0,-4,-1,-2,-1,0,6.755
1352,-1,-1,-9,-9,1,0,0,1,6.76
1353,-1,-5,13,-6,-7,-2,-2,-1,6.765000000000001
1354,-1,0,6,12,-2,0,-1,0,6.7700000000000005
1355,0,5,3,8,0,1,0,0,6.775
1356,3,-5,-35,-15,3,1,1,0,6.78
1357,-2,-5,-10,-14,-3,-2,-3,-3,6.785
1358,-12,-13,29,12,-14,-9,-6,-6,6.79
1359,1,2,10,15,-2,-1,-1,-2,6.795
1360,-1,0,4,10,0,-2,0,-3,6.8
1361,1,5,-19,1,6,4,3,3,6.805
1362,0,5,-8,-8,2,2,2,1,6.8100000000000005
1363,6,-1,-6,-6,1,1,0,-1,6.815
1364,-2,-3,-7,-7,-3,-2,-2,-2,6.82
1365,-1,-1,3,2,-3,-4,-1,-3,6.825
1366,3,0,-3,-2,1,1,0,1,6.83
1367,-6,-2,6,17,-5,1,2,5,6.835
1368,4,-16,7,-29,-3,0,0,-3,6.84
1369,-2,0,9,30,6,0,-2,-3,6.845
1370,-20,-1,-10,-39,3,-4,-3,6,6.8500000000000005
1371,-1,0,-2,24,2,-2,-4,-11,6.855
1372,6,-2,18,16,-9,-1,-2,2,6.86
1373,-6,-23,2,-28,6,2,0,-4,6.865
1374,1,22,-5,6,-6,1,2,-1,6.87
1375,10,7,6,-58,0,3,1,0,6.875
1376,-16,-3,10,63,9,0,-1,-4,6.88
1377,4,-12,-35,-14,8,-3,-6,1,6.885
1378,-4,-5,-12,68,5,3,2,3,6.890000000000001
1379,-7,-8,-12,-7,-11,-5,0,11,6.8950000000000005
1380,8,38,31,72,-11,-1,4,0,6.9
1381,0,19,32,-103,17,4,5,4,6.905
1382,15,-20,6,11,-19,-4,-5,-5,6.91
1383,-21,-28,-73,28,10,2,-5,-12,6.915
1384,5,-34,-20,-54,-2,-8,-10,-4,6.92
1385,3,41,37,90,-21,-4,0,5,6.925
1386,14,13,10,-109,7,6,7,3,6.93
1387,-7,15,-16,50,12,7,17,18,6.9350000000000005
1388,-13,-87,-41,-57,-14,-7,-11,-23,6.94
1389,14,60,-13,7,2,-1,-7,-4,6.945
1390,-23,0,-3,-6,-19,-10,-16,-17,6.95
1391,24,9,26,88,-24,2,2,14,6.955
1392,11,-3,-33,-121,53,12,15,26,6.96
1393,-9,-9,-12,74,-17,1,7,4,6.965
1394,-16,-6,-35,53,8,-10,-13,-19,6.97
1395,-4,-29,-53,-73,-10,-12,-7,-1,6.9750000000000005
1396,-1,91,1,-15,-15,1,0,5,6.98
1397,-5,-54,20,0,-6,3,9,13,6.985
1398,26,39,36,59,23,9,-15,-22,6.99
1399,-35,-24,-8,-36,29,-15,-25,-22,6.995
1400,-22,30,6,-34,-18,0,0,-9,7.0
1401,7,-68,-25,-90,21,-7,-3,-5,7.005
1402,5,24,36,95,-72,1,30,33,7.01
1403,-31,-56,-39,-104,72,12,-4,-22,7.015000000000001
1404,1,-21,50,113,5,-1,-19,-15,7.0200000000000005
1405,5,-15,-7,-75,-14,-2,17,86,7.025
1406,4,18,-47,-17,0,3,8,-41,7.03
1407,50,51,21,70,-16,-7,-30,-85,7.035
1408,-36,-13,-39,-70,-56,-6,15,63,7.04
1409,-21,-8,6,-55,87,6,-34,-93,7.045
1410,-41,-67,45,-6,-33,-21,-29,16,7.05
1411,-18,-10,3,68,-65,14,34,13,7.055
1412,48,-30,-15,-68,79,-16,-24,-5,7.0600000000000005
1413,-44,34,77,127,-62,-12,-10,-13,7.065
1414,0,18,-64,14,-29,12,26,33,7.07
1415,26,57,14,-40,19,-5,18,35,7.075
1416,39,24,20,127,-113,-2,27,104,7.08
1417,83,-12,-14,-128,107,38,56,11,7.085
1418,-31,-22,38,-22,34,-8,-39,-86,7.09
1419,-106,-79,20,127,-69,-43,-92,-120,7.095
1420,-11,33,55,-67,75,-2,-28,-66,7.1000000000000005
1421,-56,-59,10,22,-110,-23,-14,11,7.105
1422,69,35,34,-120,92,22,40,81,7.11
1423,71,116,61,-5,67,40,76,122,7.115
1424,-24,-65,-20,88,-95,-18,-23,-51,7.12
1425,-25,31,91,76,22,-12,-33,-43,7.125
1426,17,44,-49,-108,48,9,20,26,7.13
1427,-17,64,-19,44,-24,6,20,41,7.135
1428,-5,15,-50,-59,-9,-2,-4,-46,7.140000000000001
1429,-30,12,-52,118,-72,-13,-30,-56,7.1450000000000005
1430,42,-34,-37,72,-48,-9,-3,87,7.15
1431,3,-72,46,-57,-29,-19,-12,-72,7.155
1432,4,77,-50,125,-60,16,16,36,7.16
1433,-21,-22,14,35,32,2,-1,-42,7.165
1434,4,40,-19,127,-107,-11,-19,-31,7.17
1435,-23,-41,47,-102,22,-10,-13,-10,7.175
1436,-17,-79,29,59,13,-25,-20,-54,7.18
1437,61,-8,-52,34,-49,9,19,97,7.1850000000000005
1438,10,-84,58,100,17,26,56,40,7.19
1439,13,-51,-4,31,17,-1,-23,-6,7.195
1440,24,35,-3,-128,101,24,13,30,7.2
1441,33,12,-28,75,-23,-1,-9,-8,7.205
1442,-36,-12,7,41,-3,-6,-15,-55,7.21
1443,-58,-32,-28,-81,-43,-11,9,50,7.215
1444,69,27,-6,53,-17,5,15,13,7.22
1445,-56,-22,4,59,43,10,2,-24,7.2250000000000005
1446,-22,37,22,77,-41,-5,-28,-26,7.23
1447,-14,-10,14,3,30,-6,-3,-33,7.235
1448,-16,-51,24,-64,13,2,12,74,7.24
1449,57,121,-34,-13,-76,-7,-4,-3,7.245
1450,-14,63,-7,-84,85,3,-15,-65,7.25
1451,29,57,-21,96,-64,-19,-2,65,7.255
1452,39,40,28,-40,34,18,11,-47,7.26
1453,31,21,6,-7,5,-1,14,43,7.265000000000001
1454,-10,-43,0,-14,-44,-7,2,45,7.2700000000000005
1455,40,23,5,-122,76,26,18,12,7.275
1456,-17,-32,10,127,30,3,-8,-72,7.28
1457,-102,-67,-6,-103,12,-27,-28,-12,7.285
1458,9,53,-7,-16,-8,-4,0,-1,7.29
1459,35,-20,-5,36,10,24,32,14,7.295
1460,4,-42,-4,101,-64,-4,-10,4,7.3
1461,34,85,1,31,-59,-11,-9,-5,7.305
1462,9,-62,4,62,34,-2,1,19,7.3100000000000005
1463,20,65,-22,-62,39,27,31,32,7.315
1464,-46,-11,3,21,-31,1,5,-36,7.32
1465,6,-62,-4,37,0,4,5,9,7.325
1466,-91,-103,4,23,-37,-36,-53,-42,7.33
1467,54,-10,8,57,-29,15,22,48,7.335
1468,-38,86,8,-68,-10,-16,-32,-105,7.34
1469,-6,26,-2,-116,19,-6,-20,4,7.345
1470,47,18,2,52,13,9,11,4,7.3500000000000005
1471,-29,-19,0,55,-37,-23,-26,1,7.355
1472,-4,-31,4,3,29,5,13,73,7.36
1473,52,73,-6,-45,-37,20,43,32,7.365
1474,5,31,-3,-128,-18,2,-4,-17,7.37
1475,8,4,6,-75,23,6,12,4,7.375
1476,-18,-51,0,61,-105,-35,-35,-24,7.38
1477,25,-5,3,-72,123,13,-4,17,7.385
1478,-47,-15,-6,1,-38,-3,10,-11,7.390000000000001
1479,-13,-34,-14,51,-88,-34,-45,-72,7.3950000000000005
1480,15,-10,-3,73,-57,11,42,62,7.4
1481,12,23,2,-32,30,3,-2,-6,7.405
1482,12,-15,3,-82,11,0,-5,-3,7.41
1483,20,27,1,75,-38,0,-5,-6,7.415
1484,-17,-78,5,-125,27,5,5,-8,7.42
1485,-26,21,-5,50,20,-2,-5,-21,7.425
1486,10,15,-1,26,-3,0,2,37,7.43
1487,22,9,5,15,-14,-9,-8,-10,7.4350000000000005
1488,27,22,5,-128,99,32,31,54,7.44
1489,-62,-100,-5,97,-68,-20,-21,-30,7.445
1490,26,-32,11,77,-12,5,10,-11,7.45
1491,-6,55,-2,-103,52,18,16,19,7.455
1492,3,59,1,63,-25,-11,12,68,7.46
1493,16,-55,0,-31,72,11,-19,-48,7.465
1494,-38,-12,-2,-11,-18,-17,-38,-77,7.47
1495,20,-17,-8,27,-28,1,9,39,7.4750000000000005
1496,-25,-5,8,1,13,-5,1,-24,7.48
1497,41,-53,-9,-35,-58,-5,10,14,7.485
1498,-27,-10,-5,-91,33,6,22,72,7.49
1499,-29,54,7,-22,55,14,21,2,7.495
1500,-24,52,-1,55,4,-18,-59,-74,7.5
1501,6,-27,4,89,-37,-8,-1,32,7.505
1502,71,33,-4,16,9,7,14,4,7.51
1503,-25,-59,-2,-128,62,15,19,38,7.515000000000001
1504,-35,-3,-1,-4,36,8,-2,-30,7.5200000000000005
1505,-53,-51,-8,127,-124,-45,-50,-69,7.525
1506,44,31,-4,-58,102,38,60,75,7.53
1507,-22,-61,6,59,-24,-12,-42,-86,7.535
1508,4,-22,-3,-25,3,-16,-17,-13,7.54
1509,8,80,-12,44,-32,5,19,23,7.545
1510,-7,-21,-12,101,-15,0,-8,9,7.55
1511,-5,-42,-2,8,-8,-8,-5,-19,7.555
1512,18,39,-2,-11,17,9,9,21,7.5600000000000005
1513,-3,-43,-3,-128,45,17,26,16,7.565
1514,-31,50,-2,21,-35,-19,-17,-44,7.57
1515,20,6,0,86,2,7,-7,23,7.575
1516,16,12,9,122,-75,-26,-29,-17,7.58
1517,-25,-39,6,-19,25,2,14,7,7.585
1518,10,-8,3,-128,83,20,17,34,7.59
1519,-1,-14,-1,102,-46,-23,-41,-60,7.595
1520,-25,-22,-2,91,-33,1,8,3,7.6000000000000005
1521,30,-16,0,-73,59,18,21,13,7.605
1522,-24,-3,-4,18,-26,-11,-28,-40,7.61
1523,7,16,1,64,-47,-3,14,56,7.615
1524,13,28,2,-90,39,18,12,-9,7.62
1525,4,9,2,5,-13,5,11,25,7.625
1526,10,3,-4,-11,-21,0,-4,-29,7.63
1527,-3,28,2,42,2,-6,-13,-23,7.635
1528,21,72,-2,-36,-37,0,28,72,7.640000000000001
1529,-9,18,4,-6,48,10,7,-14,7.6450000000000005
1530,-16,-21,-2,54,-20,-5,-6,34,7.65
1531,-3,79,-3,4,14,3,1,-34,7.655
1532,9,-33,1,-90,11,3,12,-1,7.66
1533,-24,32,4,58,-14,-1,-5,10,7.665
1534,1,-13,-2,70,-42,-18,-3,2,7.67
1535,-1,-42,-7,-128,25,3,5,-16,7.675
1536,0,8,0,42,5,1,-10,-29,7.68
1537,-2,64,2,46,-12,-13,-22,-18,7.6850000000000005
1538,22,44,4,24,-7,8,-2,-25,7.69
1539,31,10,-5,-52,-20,10,47,56,7.695
1540,-42,-33,0,36,11,-10,-31,7,7.7
1541,15,-24,2,15,-15,-11,-14,-22,7.705
1542,-2,-33,2,-2,3,5,7,1,7.71
1543,8,7,1,-24,7,1,2,18,7.715
1544,-17,-16,-4,-22,10,-7,-8,-14,7.72
1545,2,82,-3,23,-17,-1,-2,-5,7.7250000000000005
1546,2,-17,-3,-6,-24,-3,8,30,7.73
1547,17,20,4,-93,89,21,11,14,7.735
1548,-12,-25,-5,31,10,-1,-11,-56,7.74
1549,-14,-24,-6,60,-39,-10,-4,0,7.745
1550,10,-32,-5,33,13,1,-1,-26,7.75
1551,-17,23,-2,84,-52,-13,-13,5,7.755
1552,34,35,-2,-105,37,9,15,22,7.76
1553,23,23,-5,-23,29,17,22,39,7.765000000000001
1554,-23,-14,-2,-17,-2,-3,-6,-29,7.7700000000000005
1555,-18,-48,-3,109,-29,-17,-32,-36,7.775
1556,4,-25,-3,-61,18,3,7,2,7.78
1557,8,-10,1,12,-5,7,16,9,7.785
1558,-9,4,-1,-63,12,-8,0,4,7.79
1559,-16,-17,1,68,-27,-8,-14,-16,7.795
1560,22,6,-2,-5,-14,15,22,47,7.8
1561,3,-13,1,-74,25,9,20,50,7.805000000000001
1562,-15,-8,0,5,-3,-13,-30,-92,7.8100000000000005
1563,-7,-10,2,44,-15,-9,-12,-11,7.815
1564,0,-62,-5,-32,3,-1,-4,2,7.82
1565,6,4,-2,6,-4,0,4,-9,7.825
1566,11,39,0,-20,3,5,16,22,7.83
1567,-9,-9,7,64,-33,-2,-8,3,7.835
1568,-1,-15,109,-37,7,-3,3,12,7.84
1569,-6,5,123,95,-14,-4,-12,-8,7.845
1570,3,-5,127,-121,27,5,8,15,7.8500000000000005
1571,-3,21,83,-35,7,-3,-6,-14,7.855
1572,-3,24,-21,61,-20,1,3,-2,7.86
1573,-1,-6,11,-36,4,-3,-6,-10,7.865
1574,8,5,57,51,-9,-6,-14,3,7.87
1575,4,-18,31,-57,8,4,6,1,7.875
1576,6,-3,29,10,-5,-2,-3,-15,7.88
1577,-7,3,10,-2,0,-4,-3,-2,7.885
1578,-4,-15,-27,8,-6,1,-4,-5,7.890000000000001
1579,-2,-12,-11,-49,6,2,1,19,7.8950000000000005
1580,-2,8,-67,41,-8,-3,1,-4,7.9
1581,-2,-47,-119,-25,3,-2,-2,-19,7.905
1582,6,5,-128,13,-3,0,-5,18,7.91
1583,-1,-11,-128,-30,2,2,26,2,7.915
1584,0,14,-119,32,-7,-5,-42,-15,7.92
1585,-4,1,-27,-20,0,-2,-1,-5,7.925
1586,2,-11,32,-10,0,1,1,7,7.930000000000001
1587,-5,18,68,29,-8,-2,0,-4,7.9350000000000005
1588,10,-15,17,-10,6,2,11,8,7.94
1589,1,10,33,-24,2,1,-2,1,7.945
1590,-4,0,-33,-11,-5,-3,2,-1,7.95
1591,-3,-6,-45,-15,4,0,-9,-7,7.955
1592,-7,5,-24,17,-9,-3,7,8,7.96
1593,-8,-2,-37,-11,-2,-3,-8,-4,7.965
1594,0,3,-40,23,-3,-1,3,3,7.97
1595,-1,-8,0,-15,1,-1,-2,-4,7.9750000000000005
1596,0,6,63,12,1,0,5,5,7.98
1597,3,3,5,-6,1,-1,-1,-8,7.985
1598,1,-1,30,17,3,4,1,7,7.99
1599,-10,-22,-42,-25,-6,-5,-5,-8,7.995
1600,-5,4,-20,-1,-1,1,2,-1,8.0
1601,-4,1,24,-9,-2,-2,0,0,8.005
1602,-2,-1,-6,11,-2,-1,0,1,8.01
1603,0,3,19,-3,9,2,-3,0,8.015
1604,-6,-3,13,15,-4,0,3,1,8.02
1605,-3,3,21,-6,1,-3,-3,-3,8.025
1606,-1,-1,14,7,1,0,0,2,8.03
1607,-4,-10,19,-18,-2,-1,-1,-8,8.035
1608,-3,-7,43,-5,-5,-3,4,7,8.040000000000001
1609,-1,0,62,-6,2,1,-2,-2,8.045
1610,-4,3,86,26,-4,-2,-3,-1,8.05
1611,1,0,9,-16,0,0,-1,1,8.055
1612,-2,-3,-28,-21,-4,-3,1,-2,8.06
1613,2,-1,-40,8,3,2,1,0,8.065
1614,-1,-2,-16,-5,-1,1,2,1,8.07
1615,0,-1,-14,11,3,-1,0,0,8.075
1616,4,-9,-19,1,-2,0,-1,0,8.08
1617,-2,6,12,-4,-1,1,-1,-2,8.085
1618,-1,-5,10,1,-1,-3,-2,-1,8.09
1619,0,18,24,1,-1,-1,0,1,8.095
1620,0,-3,-18,-3,0,-1,0,-1,8.1
1621,-1,-8,-9,2,-2,-3,-1,0,8.105
1622,0,6,-17,15,-1,-1,1,1,8.11
1623,4,1,-25,-26,6,3,0,1,8.115
1624,-9,-3,1,1,-11,-5,-3,-4,8.120000000000001
1625,-2,5,-38,-4,0,-2,-2,0,8.125
1626,4,-5,-62,-6,1,-1,-3,0,8.13
1627,-4,-11,27,11,-2,-2,-1,-2,8.135
1628,2,15,20,22,7,4,2,1,8.14
1629,-5,-16,-29,-29,-7,-2,-3,-2,8.145
1630,-2,-2,5,-7,-1,-3,-1,2,8.15
1631,0,-1,-13,0,4,3,1,-3,8.155
1632,2,4,25,-5,-1,-1,1,4,8.16
1633,0,5,25,21,0,-1,-1,-3,8.165000000000001
1634,0,-7,-16,-12,-1,0,-1,-1,8.17
1635,0,0,11,-8,1,-1,-9,-1,8.175
1636,-2,-6,64,6,1,-1,6,-4,8.18
1637,0,1,40,17,-4,-2,-3,-1,8.185
1638,-1,-1,33,-27,-1,1,-1,-6,8.19
1639,2,0,19,-2,1,0,4,10,8.195
1640,-1,-3,7,8,-3,-1,-6,-3,8.2
1641,4,1,5,-4,3,1,0,0,8.205
1642,-3,-3,6,12,-2,-1,-2,-1,8.21
1643,-3,-1,-38,-8,-3,-2,-1,-5,8.215
1644,3,5,-30,-9,3,1,1,1,8.22
1645,-1,2,1,7,-1,-2,1,0,8.225
1646,-6,-6,-9,1,-6,-4,-3,-4,8.23
1647,0,-7,3,1,-3,-2,-1,-2,8.235
1648,-1,-1,-36,-5,-1,-1,-1,0,8.24
1649,0,-2,-11,12,-2,-1,-2,-5,8.245000000000001
1650,1,1,-35,-16,1,0,1,2,8.25
1651,0,3,-14,11,0,-1,-1,-1,8.255
1652,-5,-6,-15,3,0,-1,-2,-4,8.26
1653,-2,-1,-30,-25,-1,-3,-2,0,8.265
1654,2,2,-27,-6,2,1,0,3,8.27
1655,-4,-7,-5,2,-4,-2,0,-3,8.275
1656,1,6,21,1,2,1,-2,-2,8.28
1657,-1,2,10,5,0,0,0,-1,8.285
1658,0,1,1,9,-1,-3,0,1,8.290000000000001
1659,1,-1,-1,-1,0,0,-1,0,8.295
1660,-1,1,-10,-8,1,0,0,0,8.3
1661,-2,-1,8,-1,-1,-2,-1,-1,8.305
1662,-1,-5,4,6,-3,-3,-3,-1,8.31
1663,-1,1,-5,-4,-2,-2,-1,-2,8.315
1664,0,-2,2,-6,0,-2,-1,1,8.32
1665,8,-13,-26,-5,-1,0,-1,1,8.325
1666,-7,5,25,1,-2,0,-2,-2,8.33
1667,-3,-6,-1,7,-2,-2,0,0,8.335
1668,-1,-3,-13,5,-1,-2,-1,-2,8.34
1669,0,-4,-3,-1,0,1,0,-1,8.345
1670,2,-2,-1,-6,0,0,-1,-1,8.35
1671,0,0,12,1,1,0,-1,0,8.355
1672,-1,4,11,27,-1,1,-1,1,8.36
1673,-3,1,-13,-33,-1,-1,-2,-2,8.365
1674,-2,-4,-7,-2,-2,-2,-1,-2,8.370000000000001
1675,-2,0,11,-4,-1,-2,-2,0,8.375
1676,-1,-1,8,-3,-1,0,-2,0,8.38
1677,1,4,1,18,2,0,0,0,8.385
1678,0,2,6,6,0,-1,0,1,8.39
1679,0,-4,-17,-11,1,0,1,-1,8.395
1680,-1,3,26,6,-2,-1,-1,-1,8.4
1681,-3,1,17,0,0,-1,-1,0,8.405
1682,-2,-5,-29,5,-6,-3,-2,-1,8.41
1683,1,-2,-4,-9,-2,-1,-1,-1,8.415000000000001
1684,-1,-1,-20,-16,-2,0,0,0,8.42
1685,-3,3,9,-2,0,-1,1,-1,8.425
1686,4,5,3,-4,2,2,0,-1,8.43
1687,0,1,6,10,0,-1,-1,-1,8.435
1688,-2,-4,4,1,-6,-2,-3,-1,8.44
1689,0,-1,-21,-12,2,-1,-1,0,8.445
1690,0,0,12,13,3,1,0,1,8.45
1691,-5,-6,13,-7,-6,-4,-4,-3,8.455
1692,2,4,34,2,0,1,-1,0,8.46
1693,-3,-5,-19,-9,-4,-4,-2,-2,8.465
1694,-2,-5,7,-13,-3,-1,-1,-1,8.47
1695,1,5,12,3,1,1,-1,0,8.475
1696,0,0,-4,-1,0,-1,0,0,8.48
1697,6,6,2,10,-1,-2,-1,-2,8.485
1698,0,5,9,7,1,0,2,-1,8.49
1699,0,-1,-2,-2,-3,-2,-2,-1,8.495000000000001
1700,-2,-1,-24,-21,-2,-1,-1,0,8.5
1701,0,-5,3,8,0,2,1,1,8.505
1702,-7,-13,4,-7,-7,-4,-4,-4,8.51
1703,-1,-1,-15,-4,-1,-1,0,0,8.515
1704,2,-3,2,5,0,0,-1,-1,8.52
1705,-3,-1,-14,3,-1,-1,0,-1,8.525
1706,1,4,4,1,2,1,0,0,8.53
1707,-1,1,2,7,1,-1,-1,0,8.535
1708,0,1,-14,-9,-1,-2,-2,-1,8.540000000000001
1709,-1,-2,1,1,2,0,1,0,8.545
1710,1,4,22,7,1,-1,-1,-1,8.55
1711,-2,0,-32,1,-5,-1,-1,0,8.555
1712,-4,-8,-37,-10,-2,-3,-2,-2,8.56
1713,0,2,18,5,-2,0,-1,-2,8.565
1714,1,-1,-4,1,1,0,-1,1,8.57
1715,2,0,-1,3,1,0,1,0,8.575000000000001
1716,1,0,8,4,2,1,1,0,8.58
1717,-2,-1,1,1,-1,-2,-3,-1,8.585
1718,1,2,-16,-2,1,0,-2,0,8.59
1719,-1,0,20,-5,0,-1,1,-2,8.595
1720,-1,-1,-4,0,-1,0,-2,1,8.6
1721,0,0,5,4,-1,-1,0,1,8.605
1722,-3,-6,-19,-8,-7,-3,-1,-2,8.61
1723,-1,-15,-36,-8,0,1,-2,0,8.615
1724,-7,13,27,2,0,-2,1,-2,8.620000000000001
1725,2,2,-4,2,2,2,-1,2,8.625
1726,3,2,22,10,2,-2,-1,1,8.63
1727,-2,-2,3,-1,-2,-1,-1,-1,8.635
1728,1,-3,-11,8,0,-1,-1,-1,8.64
1729,0,3,18,3,2,1,0,1,8.645
1730,-7,-5,-1,-8,-5,-3,-3,-3,8.65
1731,3,3,3,-5,0,0,1,0,8.655
1732,-5,-11,-27,-12,-4,-3,-4,-2,8.66
1733,-1,-1,-1,-2,-2,-1,-2,-3,8.665000000000001
1734,-1,-2,-4,-4,-2,0,0,-1,8.67
1735,0,5,8,2,0,-1,0,-1,8.675
1736,0,1,15,11,0,-1,-1,0,8.68
1737,-2,-2,-11,-1,-3,-1,0,-1,8.685
1738,0,1,-14,2,3,-1,1,1,8.69
1739,-2,-3,5,-11,-1,-1,-2,-2,8.695
1740,-1,1,12,6,-1,-1,-1,-1,8.700000000000001
1741,-5,-7,-19,-3,-4,-2,-3,-1,8.705
1742,0,-1,-1,-7,0,0,-1,-1,8.71
1743,-2,-4,-4,1,-1,-3,0,0,8.715
1744,2,-8,9,-2,0,1,-1,-1,8.72
1745,-6,14,13,-2,0,0,-1,0,8.725
1746,1,3,22,2,0,0,0,1,8.73
1747,-2,-3,-4,8,-1,-1,-1,-2,8.735
1748,-1,-3,-15,-2,-2,-2,0,-1,8.74
1749,3,-2,7,11,1,-2,0,-2,8.745000000000001
1750,0,-1,-20,-16,-1,-2,-1,-1,8.75
1751,-7,-7,5,-3,-2,-1,-2,-4,8.755
1752,3,3,-6,-5,1,2,-1,0,8.76
1753,-1,-3,6,8,-4,-1,-3,-1,8.765
1754,0,0,-45,-15,0,-1,-1,-1,8.77
1755,2,0,7,-4,0,1,0,1,8.775
1756,-2,2,18,13,-3,-1,-1,0,8.78
1757,-2,-6,-15,-7,-1,-2,0,-2,8.785
1758,0,1,10,10,2,1,1,1,8.790000000000001
1759,2,5,17,6,-1,-2,-2,0,8.795
1760,0,-2,-11,-8,0,0,-1,-1,8.8
1761,-3,-3,4,-10,-3,-3,-3,-3,8.805
1762,0,-1,13,9,0,0,-1,-1,8.81
1763,-3,-1,-1,1,0,-2,-2,-2,8.815
1764,-2,-6,7,-11,-2,-2,-1,-1,8.82
1765,0,-3,-6,0,-1,-2,-2,-1,8.825000000000001
1766,-1,-2,-11,-1,-2,-1,0,-1,8.83
1767,1,2,12,4,-1,1,-1,0,8.835
1768,-2,2,-8,0,0,0,-1,-2,8.84
1769,2,3,-3,3,4,2,1,2,8.845
1770,-5,-8,33,3,-8,-3,-3,-3,8.85
1771,-2,-2,-9,-7,-2,-2,-1,0,8.855
1772,0,3,8,3,1,-2,-1,0,8.86
1773,1,-1,5,-7,-2,-1,0,1,8.865
1774,0,1,-14,7,2,-1,1,0,8.870000000000001
1775,1,0,3,7,-1,0,0,0,8.875
1776,1,-3,-14,-13,-1,0,-1,0,8.88
1777,3,6,3,-2,1,1,1,1,8.885
1778,-2,-2,-5,4,-3,0,-1,-2,8.89
1779,-5,-2,-1,-3,-5,-3,-1,-2,8.895
1780,0,-2,-7,-16,2,2,1,-1,8.9
1781,-1,-3,16,-4,-2,0,-1,-1,8.905
1782,-1,0,-9,2,-1,0,-1,-1,8.91
1783,0,2,-3,2,1,-1,-1,1,8.915000000000001
1784,0,-1,12,8,-2,-3,0,-1,8.92
1785,0,-2,-1,-2,-2,-1,0,-2,8.925
1786,0,0,-3,-5,0,-1,-2,-1,8.93
1787,-1,0,-4,-2,0,0,0,0,8.935
1788,-1,2,5,6,-2,-2,0,-1,8.94
1789,-3,-5,-14,-3,-1,-1,-2,-1,8.945
1790,1,0,1,-4,2,0,0,-1,8.950000000000001
1791,1,1,4,-2,1,1,-2,0,8.955
1792,0,3,8,15,-2,-1,1,-1,8.96
1793,-7,-6,2,-6,-7,-5,-2,-4,8.965
1794,-4,-7,-17,-30,-3,-3,-3,-2,8.97
1795,-1,-2,10,6,1,-1,0,0,8.975
1796,1,4,3,-3,-1,0,-1,0,8.98
1797,2,3,6,5,3,1,0,0,8.985
1798,0,1,20,10,0,0,-1,0,8.99
1799,0,0,-12,-2,0,0,1,-1,8.995000000000001
1800,-2,-5,-18,-5,-1,-2,-2,-2,9.0
1801,1,-3,2,7,-2,-1,1,0,9.005
1802,0,0,-3,2,0,0,0,-1,9.01
1803,0,-4,-8,-6,1,0,1,0,9.015
1804,0,0,5,10,-2,-3,0,0,9.02
1805,-3,-4,-25,-18,-2,-1,-2,0,9.025
1806,0,0,3,7,0,-1,0,0,9.03
1807,0,0,14,-4,0,-1,1,-2,9.035
1808,0,-1,-21,-6,2,1,-1,-1,9.040000000000001
1809,1,1,16,6,-1,-1,0,0,9.045
1810,-3,0,-12,-9,-5,-1,-1,0,9.05
1811,-1,-3,-9,2,-2,-1,-1,0,9.055
1812,-1,-1,-1,3,-2,0,-2,-1,9.06
1813,0,1,-6,-1,2,1,0,0,9.065
1814,-2,-1,-2,-12,2,-1,-1,-1,9.07
1815,-1,-1,10,16,-1,-1,0,-3,9.075000000000001
1816,-1,-2,-9,-13,-2,-1,-1,-1,9.08
1817,0,-2,-5,1,2,-1,-1,-1,9.085
1818,0,0,9,12,-1,-1,-1,-1,9.09
1819,-3,-2,-24,-15,-3,-2,0,-2,9.095
1820,1,-1,19,0,1,-1,0,1,9.1
1821,-1,2,5,-9,-2,-2,-2,-2,9.105
1822,1,0,10,9,-2,-1,0,-1,9.11
1823,-1,-5,13,2,-2,-3,-2,-3,9.115
1824,-2,-2,-25,-12,-3,-1,-1,0,9.120000000000001
1825,1,1,-1,-6,0,1,0,1,9.125
1826,1,1,11,7,0,-1,0,1,9.13
1827,-1,1,3,6,-1,0,0,1,9.135
1828,0,-2,4,0,-1,-2,-1,-1,9.14
1829,-1,-3,-4,4,-1,-1,-1,-1,9.145
1830,1,1,-6,-5,-1,0,-2,-2,9.15
1831,0,0,-4,0,0,-1,1,-1,9.155
1832,-3,-2,2,2,-2,-4,-2,-1,9.16
1833,0,0,-7,1,2,0,1,-1,9.165000000000001
1834,0,2,7,8,-1,0,2,0,9.17
1835,-3,-3,7,-19,-2,-2,-4,-1,9.175
1836,-1,-5,-15,-5,-1,1,0,-2,9.18
1837,-4,-6,14,11,-6,-3,-1,-1,9.185
1838,1,3,-6,-4,1,0,1,1,9.19
1839,2,3,6,6,1,2,1,1,9.195
1840,2,2,13,3,0,-1,-1,-1,9.200000000000001
1841,0,-1,-4,-1,-1,0,0,-1,9.205
1842,-1,-4,-3,-1,-1,0,0,-1,9.21
1843,-1,-2,-8,-1,-1,-4,-2,0,9.215
1844,-3,-3,2,2,-3,-2,-1,-1,9.22
1845,-1,-1,-7,-4,-1,-1,-1,-2,9.225
1846,-1,-2,-2,-5,-1,-1,-1,0,9.23
1847,1,7,2,4,-1,1,-2,-2,9.235
1848,0,-3,-7,3,2,1,0,1,9.24
1849,-5,-7,2,-6,-4,-3,-2,-1,9.245000000000001
1850,-6,-15,-49,-13,-7,-3,-3,-3,9.25
1851,-2,-6,-1,2,-1,-1,-1,-1,9.255
1852,0,1,10,2,-1,0,-1,0,9.26
1853,3,5,-1,6,3,1,3,2,9.265
1854,1,3,18,8,2,1,-1,0,9.27
1855,-2,-2,-8,-6,-4,-1,1,-1,9.275
1856,-3,0,0,3,0,-2,-1,0,9.28
1857,-1,-1,2,-3,0,-1,-3,0,9.285
1858,-3,0,-1,-2,-2,-2,-1,-1,9.290000000000001
1859,0,0,-4,0,0,-1,1,0,9.295
1860,0,0,11,3,0,-1,-1,-3,9.3
1861,1,2,-13,-13,-2,-1,-1,-1,9.305
1862,0,1,8,0,1,0,-1,-2,9.31
1863,0,0,-11,-3,0,1,0,0,9.315
1864,-7,-8,37,-1,-5,-4,-1,-3,9.32
1865,-4,-6,-67,-16,-4,-2,-3,-1,9.325000000000001
1866,-1,0,12,4,-1,-2,-3,-1,9.33
1867,2,4,14,5,2,1,-2,1,9.335
1868,1,3,-3,4,1,0,2,2,9.34
1869,1,4,19,7,3,1,0,-1,9.345
1870,2,2,1,-7,2,0,0,0,9.35
1871,-3,-9,-34,14,-3,-3,-1,-1,9.355
1872,-3,-6,3,-19,-6,-3,-2,-1,9.36
1873,0,0,-10,-10,-2,-2,0,-1,9.365
1874,-1,2,1,9,0,0,0,0,9.370000000000001
1875,0,-1,-5,-11,1,-1,-1,-1,9.375
1876,1,-2,-7,9,0,-1,-3,-1,9.38
1877,-1,-3,14,5,-2,-1,-2,0,9.385
1878,0,0,-9,1,1,1,1,-1,9.39
1879,0,2,17,-5,-3,-1,-1,0,9.395
1880,-1,-1,-15,1,0,-1,1,0,9.4
1881,0,1,7,-2,-1,0,1,-1,9.405
1882,-1,-2,9,12,0,-2,-1,-1,9.41
1883,-3,-3,-18,-12,-2,0,0,-1,9.415000000000001
1884,0,1,-10,-4,1,0,-1,1,9.42
1885,-3,1,24,7,-3,-4,-2,-2,9.425
1886,-1,-7,-12,-10,0,-2,-1,-1,9.43
1887,-1,1,9,5,-1,-2,-2,-2,9.435
1888,0,4,-8,-13,2,2,-1,0,9.44
1889,-2,-1,24,29,-5,-2,-1,-1,9.445
1890,-1,-1,-20,-25,0,1,0,0,9.450000000000001
1891,2,0,0,0,1,0,1,-1,9.455
1892,0,1,-6,4,1,-1,-1,-1,9.46
1893,0,1,-5,0,3,2,-1,-2,9.465
1894,-2,0,8,3,-6,-3,-2,-2,9.47
1895,-3,-5,0,4,-1,1,-1,-2,9.475
1896,-1,-1,-10,1,-3,1,-1,-1,9.48
1897,0,1,9,0,0,0,-2,0,9.485
1898,-1,-2,4,0,0,-1,-1,0,9.49
1899,-2,-2,-27,-10,-2,-2,-1,0,9.495000000000001
1900,-1,2,8,0,0,0,0,-1,9.5
1901,-2,-4,-5,1,0,-1,0,0,9.505
1902,2,0,-13,-15,2,1,-1,0,9.51
1903,0,3,22,4,0,-2,0,1,9.515
1904,-4,-7,-1,-3,-2,-2,0,-1,9.52
1905,0,2,-8,-4,2,0,3,0,9.525
1906,-1,-3,-11,-7,-2,-1,-2,-1,9.53
1907,-1,-2,16,12,-2,0,-1,-2,9.535
1908,-1,0,-5,-3,0,1,-3,0,9.540000000000001
1909,1,0,4,4,1,1,0,1,9.545
1910,-2,-2,1,8,-2,-1,-2,-1,9.55
1911,1,0,-8,-10,-1,-3,-1,0,9.555
1912,0,-2,33,-5,0,-3,-1,-2,9.56
1913,-2,-2,-5,7,-1,0,0,-1,9.565
1914,-1,0,-14,3,0,0,1,0,9.57
1915,-1,0,12,-9,0,0,-1,1,9.575000000000001
1916,-1,-1,-5,14,-2,0,-2,0,9.58
1917,1,1,-13,-11,0,0,0,-1,9.585
1918,-1,3,37,5,0,0,0,0,9.59
1919,1,3,-15,15,3,2,2,0,9.595
1920,-2,0,-1,-24,-5,-4,-3,-1,9.6
1921,-3,-12,-13,-6,-2,-2,-2,-4,9.605
1922,-1,-1,1,2,2,1,0,-1,9.61
1923,2,4,9,5,0,0,1,1,9.615
1924,1,1,9,5,-1,1,-1,0,9.620000000000001
1925,-2,-4,-28,-11,-3,-1,-2,-2,9.625
1926,1,2,13,6,-1,-2,-1,-1,9.63
1927,-3,-3,-4,-8,-2,-2,-2,-3,9.635
1928,1,-1,-20,2,0,-1,1,-2,9.64
1929,-2,0,7,-2,1,-1,-1,-1,9.645
1930,-1,-2,21,5,-4,-4,-1,-1,9.65
1931,0,-5,-12,-12,-1,-1,-1,0,9.655
1932,-1,-4,-10,-2,-3,-1,0,0,9.66
1933,-1,-3,-2,-2,-1,1,0,0,9.665000000000001
1934,-1,-1,-12,-6,-2,-2,-1,-2,9.67
1935,-2,-1,7,2,-2,-2,-1,-1,9.675
1936,-1,3,0,7,0,-1,0,0,9.68
1937,-1,-2,-3,-9,-2,-1,-2,-1,9.685
1938,-1,-1,-5,-2,-1,0,-1,-1,9.69
1939,0,0,6,-2,0,-1,-2,-2,9.695
1940,-2,-2,-7,1,1,1,0,0,9.700000000000001
1941,0,3,10,3,1,-1,-1,2,9.705
1942,-1,3,-4,14,1,0,-3,-1,9.71
1943,-1,-4,-5,-10,-2,1,0,0,9.715
1944,3,2,9,-9,3,0,-1,-2,9.72
1945,-3,-4,-6,7,-8,-5,-3,-4,9.725
1946,-2,-5,-34,-17,0,0,-1,0,9.73
1947,1,3,14,12,-1,-2,0,0,9.735
1948,-1,1,-15,-2,1,2,0,0,9.74
1949,0,2,10,0,2,0,0,-2,9.745000000000001
1950,-1,2,13,2,-2,-1,0,1,9.75
1951,-2,-2,-10,-2,-2,-1,-2,-2,9.755
1952,0,-4,1,1,-3,-1,-1,-3,9.76
1953,1,3,1,-2,2,1,-1,0,9.765
1954,-2,-5,5,3,-2,-1,0,-1,9.77
1955,-4,-2,-2,-3,-1,-2,-2,-2,9.775
1956,1,1,-16,-9,1,-1,0,2,9.78
1957,-3,-2,21,11,-3,-4,-1,-3,9.785
1958,0,0,-2,-2,1,-1,0,0,9.790000000000001
1959,-1,-2,2,4,-2,0,-2,0,9.795
1960,-1,-1,1,-3,-1,0,-1,0,9.8
1961,1,1,-8,-6,0,0,0,2,9.805
1962,0,1,8,3,1,0,0,0,9.81
1963,-1,0,-7,-1,-1,-1,0,-1,9.815
1964,-2,-3,-5,5,1,1,0,0,9.82
1965,1,3,10,0,1,1,1,1,9.825000000000001
1966,-4,-9,-10,-9,-2,-1,-3,-2,9.83
1967,0,3,12,6,0,-1,0,-1,9.835
1968,-4,-5,-1,-4,-4,-1,-1,-1,9.84
1969,0,-2,-30,-9,-1,-1,0,-1,9.845
1970,-2,1,3,-3,0,-1,0,-1,9.85
1971,0,0,-2,-5,0,1,2,-2,9.855
1972,0,2,10,6,0,-1,0,0,9.86
1973,-2,-1,-4,-7,-2,-1,-1,-1,9.865
1974,1,4,-4,6,-1,2,0,0,9.870000000000001
1975,0,0,8,-12,2,2,0,0,9.875
1976,-5,-5,-13,-1,-4,-4,-1,-3,9.88
1977,0,1,6,4,2,0,0,0,9.885
1978,-1,-3,-10,-1,-3,-3,-2,-3,9.89
1979,0,2,-4,-2,1,0,-2,-1,9.895
1980,1,0,11,7,-1,-2,-2,-2,9.9
1981,-1,0,-7,-4,-1,-1,-1,-1,9.905
1982,0,2,-2,-2,-1,0,-1,-1,9.91
1983,0,0,0,2,-2,0,0,0,9.915000000000001
1984,-1,-1,-3,-2,-1,2,0,0,9.92
1985,-1,0,4,0,1,-2,-1,-1,9.925
1986,2,6,22,9,2,1,2,2,9.93
1987,-6,-13,-4,-4,-7,-4,-2,-2,9.935
1988,-4,-8,-1,-2,-3,-2,-2,-3,9.94
1989,2,3,14,7,-1,1,0,-1,9.945
1990,-2,-4,-6,-2,1,-1,-1,-1,9.950000000000001
1991,-1,0,4,-9,-5,-1,-1,-1,9.955
1992,1,2,-4,6,1,1,-1,2,9.96
1993,0,0,13,1,0,0,0,1,9.965
1994,-1,-2,-8,2,0,-3,-2,0,9.97
1995,1,1,-6,3,2,0,1,-1,9.975
1996,0,-1,-18,-6,-2,-3,-1,1,9.98
1997,-1,-3,-1,0,-1,-1,-1,0,9.985
1998,2,1,-4,-5,-3,0,0,-2,9.99
1999,-2,-2,-10,-4,0,1,0,-1,9.995000000000001
2000,-2,1,11,7,-3,-2,-1,-2,10.0
2001,-2,-6,-20,-2,0,1,-1,-1,10.005
2002,-2,-3,0,-8,-6,-2,1,-1,10.01
2003,-1,1,7,2,1,-1,0,0,10.015
2004,2,3,-1,-1,0,1,1,0,10.02
2005,-2,-1,1,1,-3,-1,-1,-1,10.025
2006,-2,-1,-1,0,-2,1,-2,-2,10.03
2007,0,-1,-4,0,-1,-1,-2,1,10.035
2008,0,2,3,3,0,0,-1,1,10.040000000000001
2009,-1,-3,-1,-3,0,-2,0,-1,10.045
2010,0,-1,-9,-6,-2,0,-1,1,10.05
2011,-2,0,2,2,-3,-2,0,-2,10.055
2012,0,0,14,5,2,0,0,-1,10.06
2013,-3,-5,-21,-13,-4,-2,-1,-2,10.065
2014,1,0,-6,0,1,-1,-1,-1,10.07
2015,1,0,-6,2,1,1,0,-1,10.075000000000001
2016,-1,1,-10,-9,1,-1,-1,1,10.08
2017,-1,2,16,-3,-1,0,-1,-1,10.085
2018,-3,-3,-19,2,-4,-5,0,-2,10.09
2019,-1,-1,6,1,-1,-2,-3,-1,10.095
2020,2,0,-7,1,1,0,-2,-2,10.1
2021,-3,-6,6,-3,-3,-1,-2,-1,10.105
2022,0,0,8,7,2,1,-1,0,10.11
2023,1,3,21,-9,0,-1,-1,-1,10.115
2024,-1,-2,-17,4,-4,-2,0,-3,10.120000000000001
2025,0,0,8,-2,-1,0,1,-1,10.125
2026,0,-1,11,0,1,1,0,-2,10.13
2027,-2,0,-7,3,0,1,0,-1,10.135
2028,-2,-1,7,-1,-1,0,0,-1,10.14
2029,-1,-2,-6,0,-1,0,-1,-1,10.145
2030,-1,-1,-2,-2,-1,-1,0,-1,10.15
2031,1,0,-11,5,0,0,0,1,10.155
2032,-2,-2,6,-20,-3,-3,-3,-4,10.16
2033,0,-4,-17,3,0,-2,-1,0,10.165000000000001
2034,-1,1,-8,-4,-1,1,1,2,10.17
2035,0,-2,-4,3,0,0,1,0,10.175
2036,-1,-2,-10,-2,-2,-2,0,1,10.18
2037,0,2,16,0,-1,-3,0,-1,10.185
2038,0,-3,7,-20,-2,-2,-2,-1,10.19
2039,0,-1,-21,-3,0,0,-1,-2,10.195
2040,-1,1,23,15,1,0,-2,-1,10.200000000000001
2041,0,0,-12,2,1,2,0,0,10.205
2042,-2,-1,-4,6,-2,0,-2,-1,10.21
2043,-1,-1,6,-5,-3,-3,-1,-2,10.215
2044,0,-2,3,-4,0,1,1,1,10.22
2045,1,-1,-12,1,0,-1,-1,-1,10.225
2046,0,0,1,10,1,0,0,0,10.23
2047,-3,0,1,4,-4,-1,-1,-2,10.235
2048,-1,-1,-4,-10,-2,-2,-2,-2,10.24
2049,2,1,-5,-6,0,-2,-2,0,10.245000000000001
2050,1,-2,13,6,1,-1,-1,-1,10.25
2051,-1,-3,-9,-4,-1,-2,-3,0,10.255
2052,-1,-1,-4,-1,-2,0,-1,0,10.26
2053,0,0,5,6,0,0,0,0,10.265
2054,0,2,3,-2,0,-1,-1,0,10.27
2055,-3,-4,1,-6,-3,-2,-1,-4,10.275
2056,1,-1,-16,-9,3,1,0,0,10.28
2057,-1,1,17,6,-2,-4,1,0,10.285
2058,-3,-3,-6,1,-4,-1,0,-1,10.290000000000001
2059,-1,1,-7,-5,1,0,-1,0,10.295
2060,1,2,13,5,1,1,-2,1,10.3
2061,-1,1,-10,12,2,1,1,-2,10.305
2062,-2,-2,-9,-24,-3,-3,-1,-2,10.31
2063,0,1,2,0,-2,-1,1,1,10.315
2064,-3,-1,7,-1,-3,-4,-3,-3,10.32
2065,-1,0,15,6,-1,-1,-1,-1,10.325000000000001
2066,-1,0,-4,1,0,0,1,0,10.33
2067,1,2,14,15,2,1,0,0,10.335
2068,-1,0,-11,-11,-2,-1,0,0,10.34
2069,-2,-1,3,-1,-2,0,-2,-2,10.345
2070,-2,-2,-5,-11,0,-1,-2,-1,10.35
2071,-1,-1,-6,-5,-2,-2,-2,-2,10.355
2072,0,0,3,6,1,0,1,-2,10.36
2073,-2,2,4,3,-2,-3,-2,-1,10.365
2074,-1,-3,8,7,-2,0,-1,0,10.370000000000001
2075,0,0,-3,-6,-2,-1,-1,-1,10.375
2076,-2,-5,-24,4,-2,-1,0,0,10.38
2077,-1,0,0,-20,-2,1,0,1,10.385
2078,-2,-1,9,18,-3,-2,-2,-3,10.39
2079,-2,-6,-5,-7,-2,-1,-1,-1,10.395
2080,1,4,5,7,2,1,2,0,10.4
2081,-1,0,6,2,-3,-2,-1,0,10.405
2082,0,2,-9,3,2,-1,0,0,10.41
2083,-2,-2,-8,3,-1,-1,-1,-2,10.415000000000001
2084,1,1,-7,-6,-2,-2,-1,-1,10.42
2085,-2,-2,-11,-6,0,1,-1,0,10.425
2086,-1,1,9,2,0,1,-1,0,10.43
2087,1,-2,-8,6,0,0,-1,-1,10.435
2088,0,1,2,1,2,1,-2,0,10.44
2089,-3,-6,15,-9,-3,-3,-1,-2,10.445
2090,-1,-3,5,-3,-1,0,-2,-3,10.450000000000001
2091,-2,-3,-18,-5,-2,-1,0,-1,10.455
2092,0,0,12,7,0,0,-1,1,10.46
2093,1,2,0,1,1,-1,0,1,10.465
2094,1,2,-4,-6,-1,-1,0,0,10.47
2095,-2,1,9,3,0,-2,0,0,10.475
2096,-1,-1,9,5,1,1,1,-1,10.48
2097,-2,-1,-15,-4,-1,-1,-2,-2,10.485
2098,0,-2,4,-3,-3,-1,-2,-2,10.49
2099,-2,-4,-10,-13,0,0,0,-1,10.495000000000001
2100,-1,0,2,5,-4,-2,-1,-2,10.5
2101,2,1,-1,3,0,0,-1,0,10.505
2102,0,2,-4,8,2,1,-1,-1,10.51
2103,1,2,10,-1,1,0,-1,1,10.515
2104,0,0,2,-9,1,2,1,-2,10.52
2105,-6,-7,-3,6,-7,-3,-3,-3,10.525
2106,-1,-6,-32,-12,0,0,0,0,10.53
2107,-2,-2,18,7,-2,-1,-1,-1,10.535
2108,-1,1,-6,1,-1,-2,-3,-2,10.540000000000001
2109,4,5,14,0,2,-1,0,0,10.545
2110,-2,0,-1,-2,-1,-1,-1,0,10.55
2111,0,0,2,6,1,0,0,-2,10.555
2112,0,-3,-3,-4,-1,-2,-2,0,10.56
2113,0,0,-10,-2,1,0,0,-1,10.565
2114,1,1,7,10,1,0,-2,0,10.57
2115,1,3,7,-6,-2,-1,1,0,10.575000000000001
2116,-3,-9,-17,-7,-5,-4,-2,-3,10.58
2117,-1,-3,3,5,2,1,1,0,10.585
2118,0,3,-5,-7,1,-1,-1,-1,10.59
2119,1,3,14,8,0,-2,1,-1,10.595
2120,-1,0,6,-4,-1,0,0,0,10.6
2121,-2,-1,-16,-7,-1,1,0,-2,10.605
2122,0,-2,3,2,-2,0,-1,0,10.61
2123,-1,0,-3,0,0,-1,-3,-1,10.615
2124,-1,2,9,17,2,-1,1,0,10.620000000000001
2125,-3,-6,-29,-16,-5,-2,0,-1,10.625
2126,-3,-1,21,-11,-2,-1,-2,-1,10.63
2127,-1,-6,-13,-17,-1,0,-2,-1,10.635
2128,0,0,7,4,0,1,-1,-2,10.64
2129,3,5,7,11,2,0,1,0,10.645
2130,0,1,-8,-3,1,-1,0,-1,10.65
2131,-2,0,4,0,-3,-1,-1,0,10.655
2132,-1,-1,2,-7,-1,-1,0,-1,10.66
2133,-2,-3,10,4,-1,-3,-1,-1,10.665000000000001
2134,-1,-1,-8,-2,-1,-1,0,-2,10.67
2135,-1,-2,7,3,0,-1,-1,-1,10.675
2136,-2,-3,-40,-6,-3,0,0,0,10.68
2137,0,-1,-1,10,0,0,0,0,10.685
2138,-3,-7,1,-8,-3,-2,-1,0,10.69
2139,-1,-2,-19,-18,-2,0,-1,0,10.695
2140,1,3,20,6,-1,-1,-2,0,10.700000000000001
2141,1,4,-4,-6,0,-1,-1,-1,10.705
2142,1,1,4,9,1,0,0,0,10.71
2143,0,0,-9,4,-1,0,-3,-1,10.715
2144,-1,-5,5,-5,-2,-1,-1,0,10.72
2145,-1,-4,-17,-7,0,-1,0,-1,10.725
2146,-1,1,17,8,0,-2,-1,-2,10.73
2147,1,1,7,4,-2,0,-1,-1,10.735
2148,-1,2,-2,-2,0,-1,0,-1,10.74
2149,-2,-6,19,8,-2,-1,-2,-2,10.745000000000001
2150,-3,-12,-55,-23,-4,-1,0,-4,10.75
2151,0,0,8,7,-1,-1,-1,-1,10.755
2152,-2,0,0,-5,-1,0,0,0,10.76
2153,1,5,16,11,2,1,1,1,10.765
2154,0,4,9,2,0,-1,-2,0,10.77
2155,-4,-10,-10,-10,-3,-3,-2,-3,10.775
2156,0,-5,-14,-6,-1,-1,-1,-2,10.78
2157,1,2,-5,-4,-1,0,0,-1,10.785
2158,1,3,11,13,-1,0,-1,0,10.790000000000001
2159,0,4,-4,6,1,1,-2,-1,10.795
2160,-2,0,8,-4,-1,-1,-2,0,10.8
2161,1,4,-3,-1,-1,0,-1,-1,10.805
2162,-2,-3,10,-7,-1,-1,-3,-1,10.81
2163,-3,-2,13,4,-4,-2,0,-1,10.815
2164,-2,-3,-6,-7,-2,-2,-1,-3,10.82
2165,0,1,0,-2,0,2,0,1,10.825000000000001
2166,-1,2,-9,-5,-1,0,-1,1,10.83
2167,1,1,7,4,1,0,-1,1,10.835
2168,0,0,2,-4,2,0,-1,-2,10.84
2169,-2,-1,-12,-15,0,-1,-2,-1,10.845
2170,-2,1,18,21,-2,-3,-1,-2,10.85
2171,2,-2,-22,-7,-1,-1,0,-1,10.855
2172,-4,-4,-13,-2,-3,-1,-1,-1,10.86
2173,0,1,-11,-7,-2,1,-1,0,10.865
2174,0,-1,21,1,0,0,1,0,10.870000000000001
2175,0,2,-7,6,1,-1,0,-1,10.875
2176,-1,0,2,6,-2,-2,-2,-1,10.88
2177,-2,-2,0,-4,-2,-1,-3,-2,10.885
2178,1,3,5,0,1,1,-1,0,10.89
2179,0,-4,-25,-7,-1,0,0,0,10.895
2180,0,-2,-5,-1,-3,-1,0,0,10.9
2181,-2,-3,6,4,-1,-3,0,-2,10.905
2182,0,-4,-27,2,0,-1,-1,-1,10.91
2183,0,3,6,-7,0,-1,0,0,10.915000000000001
2184,1,1,0,1,2,1,2,-1,10.92
2185,-2,-3,-10,-5,-4,-4,0,-1,10.925
2186,-3,-4,0,1,-1,1,0,-2,10.93
2187,1,0,1,-2,2,0,1,-1,10.935
2188,0,1,20,10,-2,2,0,1,10.94
2189,-2,-3,-12,4,-2,-1,-1,0,10.945
2190,-1,1,-2,-5,-2,-1,-2,-1,10.950000000000001
2191,-1,1,22,6,0,0,0,-1,10.955
2192,-2,-3,-14,-17,-4,-1,0,-1,10.96
2193,0,0,0,2,2,-1,-1,0,10.965
2194,-1,-1,0,0,-2,-2,-2,-2,10.97
2195,-1,0,9,53,-8,-3,-3,-2,10.975
2196,2,0,1,-17,5,0,-2,0,10.98
2197,0,-3,-20,-39,-2,-1,-3,-1,10.985
2198,0,2,-7,-17,3,1,0,0,10.99
2199,-1,-2,9,-25,-1,-1,-3,-6,10.995000000000001
2200,0,1,1,17,-4,-1,1,5,11.0
2201,-3,-5,2,18,-4,-1,-1,0,11.005
2202,0,1,-10,4,3,1,-1,-3,11.01
2203,-1,0,2,1,-2,-2,0,4,11.015
2204,-1,-6,-17,-6,-3,-2,-1,-3,11.02
2205,0,0,12,3,2,0,0,-1,11.025
2206,-1,4,-1,4,-4,-2,0,2,11.03
2207,-2,-3,-5,-2,2,0,1,-2,11.035
2208,-1,-3,-7,2,-2,-3,-2,-3,11.040000000000001
2209,0,0,2,-8,1,1,1,0,11.045
2210,2,1,19,11,1,0,0,-1,11.05
2211,-2,-1,-13,-11,-3,-2,-1,-7,11.055
2212,-1,1,-2,-2,1,-2,-2,6,11.06
2213,1,1,20,21,-2,-3,-1,-1,11.065
2214,-2,-1,2,-2,-1,1,1,0,11.07
2215,1,2,23,-5,2,0,0,0,11.075000000000001
2216,-3,-6,-19,-14,-3,-3,0,-4,11.08
2217,1,5,16,1,2,-1,-1,-3,11.085
2218,-2,-7,-39,-6,-2,-2,-1,0,11.09
2219,-3,-4,31,5,2,-1,-2,0,11.095
2220,1,6,11,2,0,0,-3,-3,11.1
2221,-4,-5,-8,12,-2,-1,0,-1,11.105
2222,-2,-1,15,-12,-2,-1,0,-2,11.11
2223,-3,-5,-19,-18,0,0,-1,1,11.115
2224,3,8,20,23,1,1,0,0,11.120000000000001
2225,-4,-9,-2,-21,-6,-2,-3,-4,11.125
2226,2,-19,-30,-8,-3,-2,-1,-1,11.13
2227,0,4,11,13,4,1,-1,3,11.135
2228,1,3,26,18,-3,1,0,-1,11.14
2229,3,5,-41,-12,7,4,2,1,11.145
2230,-8,-10,7,-6,-11,-8,-5,-5,11.15
2231,1,-2,-13,-18,-1,-2,0,0,11.155
2232,2,2,7,45,6,1,1,1,11.16
2233,4,5,-15,-13,1,1,1,0,11.165000000000001
2234,-2,-7,-6,8,-5,-2,-2,-1,11.17
2235,-7,-2,-44,34,-2,-2,-3,-2,11.175
2236,-7,16,7,-76,4,-1,-1,-1,11.18
2237,4,1,-3,9,0,0,4,5,11.185
2238,3,10,12,8,2,3,1,3,11.19
2239,-6,-6,21,-22,-1,-3,-4,-1,11.195
2240,4,-12,-12,20,-3,-4,-1,-2,11.200000000000001
2241,2,21,16,3,-5,-1,-2,-1,11.205
2242,11,27,-8,-4,16,7,6,2,11.21
2243,-10,-17,3,4,-12,-5,-2,-5,11.215
2244,-13,18,-25,-35,3,-3,-6,-2,11.22
2245,0,-6,24,16,-6,-4,-2,6,11.225
2246,0,2,4,16,-3,1,1,-18,11.23
2247,10,32,-37,1,7,4,2,3,11.235
2248,4,-6,3,20,-7,-3,-5,-3,11.24
2249,-6,-4,-9,-34,-4,-3,1,15,11.245000000000001
2250,-4,-7,-5,-31,12,5,5,1,11.25
2251,14,-36,-11,51,-1,-3,-3,-9,11.255
2252,14,-7,-11,-21,-8,0,7,9,11.26
2253,5,-7,24,8,-3,-2,-5,-3,11.265
2254,0,10,-37,-43,-5,-5,-4,0,11.27
2255,4,19,15,84,-2,3,3,11,11.275
2256,7,-44,-22,-62,5,-5,-8,-13,11.28
2257,-16,27,4,66,-5,-7,-13,-10,11.285
2258,-12,2,18,-106,20,3,-1,-5,11.290000000000001
2259,-4,-12,-5,13,1,1,2,3,11.295
2260,1,2,3,97,-15,6,14,37,11.3
2261,2,-23,-22,-23,3,6,17,-19,11.305
2262,-6,-13,18,84,-33,-10,-13,-3,11.31
2263,8,8,-29,-115,23,2,-1,-14,11.315
2264,-6,22,21,102,-3,3,-1,-1,11.32
2265,-18,-17,-21,-101,6,-8,-11,-12,11.325000000000001
2266,-9,2,-69,-8,-10,0,-1,7,11.33
2267,3,72,3,-47,15,6,14,21,11.335
2268,-22,-2,-6,62,-12,-9,-13,2,11.34
2269,24,84,14,17,0,13,21,29,11.345
2270,-19,21,24,16,-8,-3,-2,-49,11.35
2271,-10,-55,27,55,-30,-2,-17,-26,11.355
2272,16,-64,-22,-77,61,11,11,22,11.36
2273,-1,13,29,59,-22,-4,-6,-16,11.365
2274,-22,-8,8,-101,24,-8,-12,-12,11.370000000000001
2275,22,-36,12,41,-30,-5,7,40,11.375
2276,-17,-34,-12,37,-11,0,7,17,11.38
2277,13,-110,-25,-109,37,1,2,-9,11.385
2278,28,23,4,119,-75,-9,-16,-4,11.39
2279,3,11,-50,12,79,21,14,-14,11.395
2280,-16,57,-28,2,-35,-15,-33,-49,11.4
2281,37,-13,12,68,-13,-7,-1,53,11.405
2282,20,-57,18,-60,0,-1,13,-5,11.41
2283,-33,0,25,-86,27,9,19,41,11.415000000000001
2284,20,26,82,64,-52,16,53,52,11.42
2285,-46,-7,-1,-40,38,1,-22,-69,11.425
2286,14,-12,12,-62,-12,-20,-36,-3,11.43
2287,37,38,-12,20,20,11,16,29,11.435
2288,3,-54,18,-14,-18,-16,-31,-6,11.44
2289,-30,66,56,121,-79,1,10,-28,11.445
2290,-34,6,-9,-94,100,18,-4,-62,11.450000000000001
2291,-14,-25,12,77,-92,-32,-32,-40,11.455
2292,36,4,31,-128,76,13,8,15,11.46
2293,15,47,97,-10,12,0,0,39,11.465
2294,-13,32,18,127,-51,1,17,30,11.47
2295,8,53,56,10,58,21,33,66,11.475
2296,-1,7,17,-89,-35,-21,-13,-23,11.48
2297,-62,-84,-99,76,-64,-19,-25,-26,11.485
2298,28,9,-67,34,-18,4,16,43,11.49
2299,-51,-30,37,-24,12,-13,-32,-99,11.495000000000001
2300,26,54,-53,48,-76,-12,-2,75,11.5
2301,68,47,-47,-128,108,23,17,-6,11.505
2302,-99,1,-8,86,-57,-28,-49,-87,11.51
2303,48,91,-98,91,-99,-4,9,51,11.515
2304,3,-68,35,-128,127,11,-8,-56,11.52
2305,3,-51,-37,127,2,-1,-4,57,11.525
2306,40,-31,0,-68,40,33,50,63,11.53
2307,22,5,-2,33,-57,-29,-26,-62,11.535
2308,-6,33,-25,112,82,25,39,53,11.540000000000001
2309,-53,-40,29,-4,-23,-19,-31,-39,11.545
2310,13,-45,3,60,-68,-15,-8,-12,11.55
2311,7,-64,21,-112,76,33,38,55,11.555
2312,-46,34,5,127,-88,-47,-82,-128,11.56
2313,6,-5,-23,-2,-28,4,2,30,11.565
2314,71,31,1,83,15,29,42,74,11.57
2315,-6,-41,22,-19,36,0,9,22,11.575000000000001
2316,-32,79,-17,-38,-9,20,17,-37,11.58
2317,19,-12,31,-128,43,-7,-30,-61,11.585
2318,-44,59,-33,107,-59,-20,-13,-6,11.59
2319,47,48,-65,75,-88,5,30,78,11.595
2320,9,-34,13,-125,97,26,27,26,11.6
2321,-43,23,-19,39,-33,-25,-26,-33,11.605
2322,46,14,3,-115,0,5,20,60,11.61
2323,-23,-45,-6,-68,42,-2,-23,-58,11.615
2324,8,-7,11,115,-45,-7,-26,-79,11.620000000000001
2325,44,-2,-26,-49,-14,37,63,54,11.625
2326,-29,-81,41,95,37,-6,-15,33,11.63
2327,-87,18,41,-28,-38,-38,-50,-73,11.635
2328,-27,-7,4,83,-108,-13,3,18,11.64
2329,63,71,11,-68,83,25,35,92,11.645
2330,-1,-35,53,71,14,-6,-2,-46,11.65
2331,35,-12,8,47,12,12,22,49,11.655
2332,3,-58,1,-79,-66,-14,-11,18,11.66
2333,-64,42,6,86,-30,-22,-41,-106,11.665000000000001
2334,5,-12,28,-128,74,1,-16,-10,11.67
2335,-3,-2,-6,69,-41,-20,-23,8,11.675
2336,29,-3,16,-74,36,13,32,83,11.68
2337,2,-11,12,-104,97,26,30,42,11.685
2338,9,-16,-19,120,-10,-12,-14,-21,11.69
2339,4,-3,-7,76,-35,-9,-5,-17,11.695
2340,-60,-37,21,-64,60,18,26,14,11.700000000000001
2341,-3,41,-13,85,-62,-15,-11,-40,11.705
2342,67,71,0,24,-30,12,16,29,11.71
2343,-29,-18,20,-72,16,1,-5,43,11.715
2344,-40,-33,23,127,-68,-40,-55,-103,11.72
2345,-53,-113,23,-67,-6,-19,-36,-61,11.725
2346,-18,45,-6,-22,-16,4,1,14,11.73
2347,28,13,17,-4,-12,3,17,26,11.735
2348,41,-6,-16,44,-4,14,23,20,11.74
2349,-19,61,-20,23,-13,-7,8,12,11.745000000000001
2350,32,23,19,-77,68,18,16,41,11.75
2351,4,3,0,56,-41,2,-4,-14,11.755
2352,18,9,22,-128,115,23,15,1,11.76
2353,-18,-81,-9,127,-94,-34,-33,-40,11.765
2354,-12,-36,6,56,-21,-6,1,-6,11.77
2355,-37,14,0,-26,11,3,-7,-33,11.775
2356,95,55,-24,-13,13,19,38,87,11.78
2357,-56,49,-2,-107,58,10,14,1,11.785
2358,-45,-63,21,24,-10,-18,-18,-14,11.790000000000001
2359,95,68,18,-94,15,11,16,-39,11.795
2360,19,69,-28,53,22,9,-1,46,11.8
2361,9,-11,24,53,-1,17,-4,25,11.805
2362,-98,14,-3,16,-26,-24,-24,-91,11.81
2363,28,-29,-7,-72,77,28,37,40,11.815
2364,46,104,-16,1,-54,-17,5,15,11.82
2365,-75,-102,6,3,-14,-16,-29,-33,11.825000000000001
2366,61,-13,5,61,-5,13,19,30,11.83
2367,42,-87,5,88,-37,-15,-39,-30,11.835
2368,-12,67,16,-24,81,22,37,54,11.84
2369,87,71,-12,127,-57,5,16,20,11.845
2370,43,23,18,-111,16,10,24,57,11.85
2371,-14,18,-1,52,16,-5,-12,-41,11.855
2372,-64,-53,2,-55,-33,-21,-53,-93,11.86
2373,39,24,-7,-1,14,19,49,88,11.865
2374,-24,-21,10,-17,2,-28,-62,-105,11.870000000000001
2375,63,44,-16,49,-6,17,36,43,11.875
2376,-124,-18,-7,19,-58,-9,-8,10,11.88
2377,4,-50,2,-59,17,-15,-34,-23,11.885
2378,-11,-5,-22,32,-40,-11,12,45,11.89
2379,3,-43,1,-128,91,7,5,35,11.895
2380,59,-14,7,85,-41,-10,-6,7,11.9
2381,9,-28,10,-1,28,17,19,-63,11.905
2382,15,61,-14,-102,28,19,24,-6,11.91
2383,-128,-30,16,-12,-6,-21,-69,-88,11.915000000000001
2384,-14,-4,-12,82,-16,-13,-3,22,11.92
2385,69,43,-3,-112,39,8,15,80,11.925
2386,-10,-4,7,127,-47,-9,-7,-36,11.93
2387,1,-41,5,-79,45,10,14,2,11.935
2388,23,-23,-31,-6,-25,5,-1,11,11.94
2389,45,-9,2,104,-20,3,14,-10,11.945
2390,-10,38,-5,46,-20,-6,0,28,11.950000000000001
2391,38,8,2,-68,-15,-7,3,7,11.955
2392,-22,20,8,-66,74,2,-30,-7,11.96
2393,-17,50,-11,116,-61,-16,-11,-78,11.965
2394,-28,-32,3,9,43,15,9,35,11.97
2395,-54,-29,2,-6,18,9,13,-3,11.975
2396,45,13,-5,12,-31,-12,-11,-44,11.98
2397,1,21,5,-14,6,8,16,50,11.985
2398,11,-37,-1,-29,13,8,3,26,11.99
2399,-23,-27,0,107,-61,-26,-31,-34,11.995000000000001
2400,41,-16,-14,68,-25,4,23,52,12.0
2401,53,48,-3,-118,94,23,26,5,12.005
2402,-84,-60,-4,64,-14,-23,-43,-73,12.01
2403,16,-19,3,118,-60,-11,-2,11,12.015
2404,19,-29,7,61,-10,3,8,-17,12.02
2405,27,5,13,127,-39,2,7,112,12.025
2406,-14,-8,4,-59,2,-9,-12,-29,12.030000000000001
2407,53,40,-3,57,-21,-13,-16,-4,12.035
2408,-103,-7,20,-6,61,12,5,-23,12.040000000000001
2409,-31,-72,-3,29,-70,-25,-25,-77,12.045
2410,3,46,3,-14,16,17,13,14,12.05
2411,-4,-71,2,42,-42,-4,-3,-10,12.055
2412,68,48,3,-6,30,11,14,46,12.06
2413,-42,-38,1,-2,-15,-12,-7,16,12.065
2414,-34,17,6,64,-44,-11,-8,-24,12.07
2415,-12,3,5,-110,98,18,28,58,12.075000000000001
2416,-27,31,1,42,-31,-26,-57,-113,12.08
2417,7,18,0,24,-2,4,4,19,12.085
2418,61,49,0,8,27,7,-10,-6,12.09
2419,-14,48,-3,14,-32,0,0,4,12.095
2420,10,-46,3,-30,2,7,29,23,12.1
2421,-45,-34,3,-9,-20,-15,-17,-12,12.105
2422,36,25,-3,-22,-33,-7,-1,29,12.11
2423,31,81,-2,29,28,19,30,25,12.115
2424,-4,1,3,-64,14,-2,-7,-29,12.120000000000001
2425,16,16,5,92,9,-11,-31,-37,12.125
2426,41,-25,4,-108,21,23,30,39,12.13
2427,-119,-49,0,10,-24,-19,-27,-41,12.135
2428,5,-29,-12,44,-37,-5,-1,5,12.14
2429,-44,13,-5,-42,-5,6,13,10,12.145
2430,110,-2,2,87,10,5,9,16,12.15
2431,-46,13,5,-84,30,1,-12,-18,12.155000000000001
2432,-5,1,-1,57,-82,-15,-15,-21,12.16
2433,62,7,6,-92,23,17,36,51,12.165000000000001
2434,-88,-30,-2,-26,-10,-11,-28,-49,12.17
2435,29,19,-2,110,-52,-10,-11,-12,12.175
2436,22,11,3,-56,8,3,11,36,12.18
2437,-11,32,-1,24,8,9,8,-23,12.185
2438,-21,-79,2,-36,6,-12,-12,-1,12.19
2439,-29,-14,2,35,-17,-3,6,12,12.195
2440,-6,-33,1,17,0,-3,12,-6,12.200000000000001
2441,67,16,0,-38,14,5,-9,31,12.205
2442,45,44,0,13,8,0,18,30,12.21
2443,-90,-24,-2,-78,18,-4,-13,-32,12.215
2444,-42,-4,-2,-27,2,-13,-26,-21,12.22
2445,-31,-108,-7,-17,-23,-16,-14,-12,12.225
2446,12,-32,-2,64,-5,5,6,-9,12.23
2447,29,-40,1,-79,10,5,2,12,12.235
2448,40,31,-1,72,8,9,15,20,12.24
2449,-12,57,0,-44,-20,0,3,-14,12.245000000000001
2450,5,21,-7,87,13,4,5,16,12.25
2451,43,21,-6,-40,15,5,6,6,12.255
2452,-24,-31,-2,-34,4,-2,-9,-24,12.26
2453,7,-11,-1,-5,-1,-5,-5,-2,12.265
2454,4,22,-2,-24,1,2,9,16,12.27
2455,-7,24,-2,13,-11,-5,-1,-2,12.275
2456,0,-26,-5,15,0,4,14,3,12.280000000000001
2457,22,30,-3,124,-11,5,10,15,12.285
2458,-34,23,3,-128,26,3,-5,-7,12.290000000000001
2459,-20,5,2,32,-9,-13,-25,-37,12.295
2460,-6,-36,3,6,7,-2,-4,-1,12.3
2461,-1,-2,4,66,-12,-6,9,8,12.305
2462,6,4,-5,-64,14,10,5,4,12.31
2463,38,5,-2,68,-6,5,10,12,12.315
2464,7,5,26,26,-1,0,-3,-3,12.32
2465,-16,19,3,-66,-2,-1,5,14,12.325000000000001
2466,-19,6,10,31,-11,-5,-3,-9,12.33
2467,9,18,34,-1,1,0,1,5,12.335
2468,1,3,46,18,-7,0,-2,-1,12.34
2469,-3,-21,39,-25,7,0,-8,-10,12.345
2470,-4,-28,51,1,-8,-3,-2,-5,12.35
2471,5,14,31,7,-5,1,5,2,12.355
2472,3,-8,25,-24,4,-4,-2,4,12.36
2473,-19,-3,12,-24,0,-3,-5,-8,12.365
2474,-9,-6,88,2,-1,2,10,9,12.370000000000001
2475,30,1,117,17,-1,2,2,7,12.375
2476,-15,-4,104,-3,-4,-4,-6,-9,12.38
2477,-13,-8,23,-38,1,-3,-11,-10,12.385
2478,0,2,35,30,-2,-1,1,2,12.39
2479,17,-5,-5,10,-2,1,1,2,12.395
2480,9,4,-21,-31,2,-1,-2,-1,12.4
2481,1,0,-102,4,1,-2,-2,0,12.405000000000001
2482,13,3,-128,8,1,1,0,1,12.41
2483,17,16,-128,-7,-7,-1,-1,1,12.415000000000001
2484,-4,3,-128,-10,-1,-2,0,1,12.42
2485,4,-4,-1,6,2,0,0,-1,12.425
2486,-8,0,42,-6,-5,-5,-4,-5,12.43
2487,-5,-4,65,-5,-2,-1,-1,-1,12.435
2488,-1,-3,34,3,-1,2,2,1,12.44
2489,-3,-3,42,-7,0,-2,0,-3,12.445
2490,-3,-4,-24,6,-2,-1,0,-3,12.450000000000001
2491,-8,-1,34,-2,-2,-1,0,1,12.455
2492,-8,-4,21,-4,1,0,1,-1,12.46
2493,-8,-9,58,-2,0,-1,-3,-2,12.465
2494,-1,38,-12,-2,-2,0,0,0,12.47
2495,-1,1,-23,1,-1,-2,3,3,12.475
2496,-2,0,-3,-4,2,0,0,0,12.48
2497,-3,11,-19,3,2,-1,-3,-3,12.485
2498,0,-16,-83,-6,-4,0,1,-1,12.49
2499,3,-3,5,-6,-2,0,0,-1,12.495000000000001
2500,1,9,43,-1,1,0,1,0,12.5
2501,-3,-5,100,-6,-3,-2,-2,-2,12.505
2502,-4,-3,126,12,2,1,-1,0,12.51
2503,-8,-4,62,-11,-4,-4,-1,1,12.515
2504,-7,-13,47,-10,-1,0,-1,0,12.52
2505,-4,-2,-2,1,2,0,0,-1,12.525
2506,-6,-6,-52,9,-3,-4,-2,-1,12.530000000000001
2507,-2,0,-61,9,1,0,0,-1,12.535
2508,-1,-2,-48,7,0,-1,0,0,12.540000000000001
2509,1,1,-83,-11,-2,-1,0,-3,12.545
2510,-2,5,-42,5,1,2,-4,-2,12.55
2511,-8,-9,-72,-3,-5,-3,5,0,12.555
2512,1,-2,-70,-6,1,-1,10,2,12.56
2513,-3,-6,-36,11,0,-1,-10,-2,12.565
2514,-1,-8,-43,-5,-2,-2,-4,-4,12.57
2515,6,15,-46,-5,9,3,2,0,12.575000000000001
2516,-8,-16,-39,-20,-12,-4,-7,-2,12.58
2517,-2,-10,9,-7,-2,-4,1,-6,12.585
2518,1,-1,27,8,1,2,1,3,12.59
2519,2,-16,-17,7,-2,0,-2,-1,12.595
2520,-3,21,-9,4,5,4,3,0,12.6
2521,-3,-2,-26,6,2,2,3,1,12.605
2522,0,-4,7,3,0,-1,0,-2,12.61
2523,-2,3,-14,7,0,0,1,-3,12.615
2524,2,-8,35,-9,-3,-4,4,0,12.620000000000001
2525,-5,-4,17,-3,-2,-4,0,1,12.625
2526,-5,13,35,2,0,0,-1,-2,12.63
2527,5,4,13,5,3,0,2,1,12.635
2528,5,-5,-4,-7,-8,-4,-7,-3,12.64
2529,-3,5,-16,-2,0,-1,0,-1,12.645
2530,4,-2,-6,-13,2,-1,3,1,12.65
2531,-3,-5,-13,7,-3,-3,-5,-1,12.655000000000001
2532,-3,0,9,7,0,0,-5,-2,12.66
2533,8,2,15,-1,1,2,3,1,12.665000000000001
2534,-2,-10,-51,-10,-4,-1,-2,-1,12.67
2535,-4,-6,9,-9,-8,-5,-3,-3,12.675
2536,2,4,-15,9,5,2,2,1,12.68
2537,1,6,14,1,1,1,0,0,12.685
2538,-3,-8,-37,-7,-5,-3,0,0,12.69
2539,-3,1,29,1,-1,-1,1,0,12.695
2540,-8,-8,-17,0,-8,-5,-9,-5,12.700000000000001
2541,2,7,-2,4,0,-1,-1,-2,12.705
2542,4,2,2,0,2,0,2,1,12.71
2543,-5,-5,-2,-7,-6,-3,-2,-2,12.715
2544,2,2,1,-1,1,1,-1,-1,12.72
2545,-1,-4,1,-5,-2,-1,-1,0,12.725
2546,-2,-3,-4,-4,-2,1,-1,-3,12.73
2547,-6,18,16,11,3,1,-1,0,12.735
2548,0,1,-8,-5,3,1,2,1,12.74
2549,-3,-4,-24,14,-5,-2,0,-3,12.745000000000001
2550,-2,-5,28,-11,-3,-3,-1,0,12.75
2551,1,2,16,-2,1,1,-1,0,12.755
2552,1,-4,-30,3,2,2,0,-1,12.76
2553,-3,4,18,-1,-2,-1,-1,0,12.765
2554,-4,-15,10,-5,-6,-3,-1,-3,12.77
2555,2,3,32,15,3,1,-1,-5,12.775
2556,1,4,-15,-22,1,2,0,4,12.780000000000001
2557,-3,-10,0,-8,-2,-1,-1,-1,12.785
2558,1,4,24,11,0,-1,-2,1,12.790000000000001
2559,-2,-6,-44,-19,-4,-1,-2,1,12.795
2560,0,1,27,13,4,2,1,-1,12.8
2561,2,3,13,-2,1,1,1,0,12.805
2562,-3,-2,-10,3,-3,-2,-2,0,12.81
2563,2,-1,2,-4,2,2,0,1,12.815
2564,0,1,19,12,-4,-3,-2,-2,12.82
2565,1,-1,-4,-7,0,0,1,1,12.825000000000001
2566,-2,-2,4,-3,-1,-2,-1,-2,12.83
2567,3,-2,3,-7,1,1,1,1,12.835
2568,-7,14,8,21,-1,1,-1,-1,12.84
2569,-3,0,0,-22,-5,-1,-2,-3,12.845
2570,-2,4,15,2,0,0,0,0,12.85
2571,-2,-3,-5,-7,-1,-1,-1,0,12.855
2572,0,-1,22,2,0,1,-1,0,12.86
2573,-1,-4,-18,8,1,1,-2,-1,12.865
2574,3,6,12,5,2,0,1,0,12.870000000000001
2575,0,-5,-4,-5,-3,-2,-2,-1,12.875
2576,1,-2,10,0,0,-1,-1,0,12.88
2577,-4,-5,18,-2,0,-1,0,-1,12.885
2578,1,-6,-57,-6,-3,-3,-1,0,12.89
2579,1,-3,-13,-13,-7,-2,-2,-3,12.895
2580,1,-1,-8,-3,0,-2,-3,-2,12.9
2581,1,0,-8,7,1,-1,-1,0,12.905000000000001
2582,-2,1,13,6,0,0,-1,1,12.91
2583,2,3,1,0,2,1,0,0,12.915000000000001
2584,-1,-3,-7,-5,-1,-4,-1,-2,12.92
2585,-1,-1,-2,2,-2,-2,-1,0,12.925
2586,1,-2,8,-1,0,-2,1,-2,12.93
2587,-1,4,3,11,0,0,0,1,12.935
2588,1,-5,7,-4,1,2,1,0,12.94
2589,-4,-13,-27,-22,-8,-5,-4,-3,12.945
2590,-7,17,24,11,0,-1,0,0,12.950000000000001
2591,-2,-3,1,-14,0,-1,0,0,12.955
2592,1,0,6,3,0,1,0,-1,12.96
2593,2,1,4,9,1,1,-1,2,12.965
2594,2,-4,-7,-4,-3,0,-1,-2,12.97
2595,0,-2,11,6,-1,-1,-2,-2,12.975
2596,-3,1,-3,1,-2,-1,-2,-1,12.98
2597,0,0,-5,-1,2,0,0,-2,12.985
2598,0,-4,4,0,-1,-2,-3,0,12.99
2599,1,2,2,3,1,-2,0,-1,12.995000000000001
2600,0,-4,-10,-8,-1,-2,-2,-1,13.0
2601,0,5,10,5,3,0,0,1,13.005
2602,-3,-3,20,8,-2,0,0,-1,13.01
2603,-4,-13,-79,-33,-4,-2,-2,-1,13.015
2604,-3,-6,-6,-19,-4,-1,-2,-2,13.02
2605,-1,5,16,15,1,0,0,0,13.025
2606,0,0,1,6,-1,0,-2,1,13.030000000000001
2607,1,5,21,9,0,-2,-1,-1,13.035
2608,1,3,-11,12,4,0,3,-1,13.040000000000001
2609,-1,0,11,-2,-1,-1,-3,-1,13.045
2610,-4,-14,-52,-22,-3,-3,-2,-5,13.05
2611,-1,0,23,5,0,0,-1,-1,13.055
2612,-2,-2,11,-5,-2,0,-2,-1,13.06
2613,4,8,-5,5,3,1,2,0,13.065
2614,0,-2,25,1,-1,0,-2,0,13.07
2615,-5,-6,3,3,-6,-4,-3,-3,13.075000000000001
2616,1,1,-6,-2,1,-1,0,1,13.08
2617,0,-1,11,6,0,0,0,1,13.085
2618,1,0,-23,-14,0,0,-1,-1,13.09
2619,1,4,-2,4,2,3,1,1,13.095
2620,-8,9,18,8,-3,-1,-2,0,13.1
2621,-3,-3,-15,-4,-2,-1,-1,-1,13.105
2622,5,2,-4,-11,2,0,0,0,13.11
2623,-4,-1,19,14,0,-1,-2,-2,13.115
2624,3,-1,-4,-10,-2,-3,0,0,13.120000000000001
2625,-5,-11,-29,-18,-2,-1,-1,-2,13.125
2626,-2,-2,-19,10,-2,-2,-1,-2,13.13
2627,0,-5,3,-1,1,0,-1,2,13.135
2628,1,-2,12,-6,-1,0,-1,-1,13.14
2629,-1,3,-1,2,-2,-2,-3,-1,13.145
2630,-1,1,14,8,2,1,-1,0,13.15
2631,0,1,-7,-3,0,-1,-2,-1,13.155000000000001
2632,-1,-4,-12,3,-2,-2,-2,-1,13.16
2633,0,-2,8,5,1,1,0,0,13.165000000000001
2634,-1,2,23,-6,0,0,0,-1,13.17
2635,-4,-5,-20,2,-4,-3,0,-3,13.175
2636,0,1,-11,10,2,0,1,0,13.18
2637,0,-3,9,-3,-3,-2,0,-2,13.185
2638,0,1,7,2,0,0,1,0,13.19
2639,3,3,16,-5,1,1,0,0,13.195
2640,2,-4,10,0,0,0,-1,-1,13.200000000000001
2641,-2,-6,-18,0,-5,-4,-2,-1,13.205
2642,-2,-1,-6,-7,-1,-3,-2,-2,13.21
2643,1,3,4,-3,2,2,-1,1,13.215
2644,-1,-2,9,4,-2,0,0,-2,13.22
2645,3,5,3,-2,3,-1,1,1,13.225
2646,1,2,4,5,2,0,1,0,13.23
2647,0,-1,-4,-8,-1,-1,0,0,13.235
2648,-3,-2,6,7,-3,-5,-2,-3,13.24
2649,-1,3,0,-9,-1,2,-1,-2,13.245000000000001
2650,-1,-6,-5,-3,0,-1,0,-1,13.25
2651,1,-1,15,0,0,1,1,-1,13.255
2652,-10,8,-1,3,-4,-1,0,-1,13.26
2653,-1,-1,5,-1,-1,-1,-1,0,13.265
2654,2,2,5,10,1,0,0,0,13.27
2655,-1,-2,3,-5,-2,-2,-2,0,13.275
2656,3,-1,-5,-10,1,-1,-1,0,13.280000000000001
2657,-3,-7,6,4,-3,0,-2,-1,13.285
2658,-1,2,-23,-14,-3,-1,-2,0,13.290000000000001
2659,-1,-2,1,4,-2,1,0,-1,13.295
2660,0,-3,-9,0,-1,-1,-3,-1,13.3
2661,0,0,-18,2,0,0,1,-1,13.305
2662,1,-1,8,-9,-1,0,-1,-1,13.31
2663,-1,-2,-19,-1,-1,0,0,-1,13.315
2664,3,-3,-14,-15,1,0,0,-1,13.32
2665,-1,1,27,12,-1,0,-2,-1,13.325000000000001
2666,0,1,-1,4,0,1,-2,0,13.33
2667,-2,-2,1,-7,-3,-1,-2,-1,13.335
2668,-1,0,15,5,0,0,0,-1,13.34
2669,-1,-8,-11,-12,-2,-3,-2,-2,13.345
2670,-1,2,18,4,-1,-1,0,0,13.35
2671,-1,2,-3,3,0,-1,0,0,13.355
2672,2,-3,-6,2,0,1,0,0,13.36
2673,0,3,5,1,0,0,0,0,13.365
2674,-2,-2,-5,0,-4,-1,-2,-1,13.370000000000001
2675,0,2,4,2,-1,0,1,-1,13.375
2676,0,1,16,11,-1,0,-1,0,13.38
2677,-4,-8,-19,-10,-3,1,-1,-3,13.385
2678,-2,-11,-38,-14,-6,-5,-3,-2,13.39
2679,-6,14,25,6,3,1,1,1,13.395
2680,-3,1,-19,-4,-2,0,0,-2,13.4
2681,-1,-5,5,7,-1,-1,-1,0,13.405000000000001
2682,2,2,6,8,1,1,1,0,13.41
2683,-1,-6,4,-5,-3,-1,-2,-2,13.415000000000001
2684,-1,-1,3,-2,-1,-2,0,-2,13.42
2685,0,6,-2,0,1,0,2,1,13.425
2686,0,0,9,3,-1,-3,0,-1,13.43
2687,3,1,-11,-2,2,-1,-1,0,13.435
2688,-4,-7,3,1,-3,-2,-3,0,13.44
2689,0,-1,-15,-7,-2,-2,-2,1,13.445
2690,-1,1,-13,-10,0,1,0,0,13.450000000000001
2691,0,-3,2,2,-2,-3,-1,-1,13.455
2692,1,-2,-2,1,0,1,-2,-2,13.46
2693,0,-1,-3,-3,0,1,0,0,13.465
2694,0,5,19,12,0,-1,0,-2,13.47
2695,0,-2,1,0,-3,-2,-1,0,13.475
2696,-2,1,-3,-3,-2,0,0,-1,13.48
2697,0,1,4,-2,1,-1,0,-1,13.485
2698,-1,-2,4,3,-1,-1,0,0,13.49
2699,1,-6,-21,-5,-2,-1,-1,-2,13.495000000000001
2700,0,0,10,-4,0,-2,-1,0,13.5
2701,-3,-7,-20,-5,-1,0,-1,-1,13.505
2702,-2,0,6,2,0,0,-1,-1,13.51
2703,1,-2,0,1,-1,0,-1,-1,13.515
2704,-1,-2,2,1,-1,1,-1,1,13.52
2705,1,5,4,1,0,0,-2,0,13.525
2706,-1,-3,3,6,2,-1,1,-1,13.530000000000001
2707,0,3,-3,-5,-1,-2,-1,1,13.535
2708,-2,-7,-14,-5,-1,0,-1,-1,13.540000000000001
2709,2,-10,12,-2,-6,-3,-2,-2,13.545
2710,-7,6,-4,5,-3,-2,-1,-1,13.55
2711,-2,3,11,8,1,0,1,-2,13.555
2712,0,0,-5,-1,1,1,1,0,13.56
2713,1,2,5,2,0,0,1,-1,13.565
2714,1,-4,5,1,0,0,-1,0,13.57
2715,0,-1,-11,-3,-1,1,0,-1,13.575000000000001
2716,-2,0,0,-3,0,-1,-1,-1,13.58
2717,-2,1,1,1,-1,-1,-1,-1,13.585
2718,1,2,3,-7,-1,0,1,0,13.59
2719,-2,-4,-14,-2,3,2,-1,-1,13.595
2720,3,2,8,9,3,0,0,0,13.6
2721,-4,-1,25,1,-4,-1,-1,-2,13.605
2722,-5,-16,-74,-29,-5,-4,-2,-2,13.61
2723,0,1,21,-4,-4,-2,-2,-2,13.615
2724,-1,2,6,2,0,-2,1,-1,13.620000000000001
2725,3,7,8,11,3,2,1,1,13.625
2726,0,3,19,8,1,0,0,-1,13.63
2727,0,-3,-7,-1,-1,-1,-1,-1,13.635
2728,-3,-2,-16,-5,-2,0,-1,0,13.64
2729,-1,3,-9,-5,-1,-1,-2,-2,13.645
2730,2,0,6,-7,1,1,-1,0,13.65
2731,-2,4,-1,11,0,-2,-2,0,13.655000000000001
2732,-2,-3,17,1,-2,-2,0,-1,13.66
2733,-5,-8,-16,-25,-5,-2,-3,-2,13.665000000000001
2734,-1,-4,-1,-3,-2,1,0,-2,13.67
2735,1,4,6,2,0,1,0,1,13.675
2736,0,3,-2,-4,0,1,-1,0,13.68
2737,0,3,4,6,1,-2,-1,0,13.685
2738,1,2,7,2,1,0,-1,0,13.69
2739,0,-3,1,-2,-1,-1,-1,-1,13.695
2740,-3,-5,-9,-5,-3,-3,-3,-3,13.700000000000001
2741,0,-1,-8,-1,1,0,0,1,13.705
2742,0,5,20,4,-2,-2,0,1,13.71
2743,-2,-7,-15,-4,-1,0,1,-1,13.715
2744,-4,-8,-26,-1,-6,-4,-3,-3,13.72
2745,0,2,-5,-13,0,0,0,-1,13.725
2746,0,-1,5,3,1,1,-1,-1,13.73
2747,-2,0,7,-5,-2,-2,-1,-1,13.735
2748,1,-1,-4,-3,-2,-4,1,-1,13.74
2749,0,0,0,2,1,1,0,0,13.745000000000001
2750,-1,1,6,4,-2,-1,0,-2,13.75
2751,0,-5,-12,-8,-2,-2,0,-1,13.755
2752,-1,-1,-7,-1,-2,-1,-1,-2,13.76
2753,-1,-2,-12,0,0,0,0,-2,13.765
2754,-2,1,9,8,-1,-2,-2,-1,13.77
2755,0,2,4,1,0,-1,-1,1,13.775
2756,-1,-2,1,-4,-2,-1,-1,0,13.780000000000001
2757,0,1,-4,2,0,-1,0,1,13.785
2758,0,-1,4,-4,-2,0,0,-1,13.790000000000001
2759,0,0,-1,4,-1,-1,1,0,13.795
2760,0,-1,-8,-9,-2,-1,-1,-1,13.8
2761,3,-14,22,8,-4,-3,-3,-3,13.805
2762,-4,-2,-10,-13,-1,0,-1,-1,13.81
2763,-1,-2,12,9,-1,0,-1,-1,13.815
2764,2,7,5,2,2,2,1,1,13.82
2765,-1,0,-6,2,-1,-1,1,-1,13.825000000000001
2766,-1,-3,2,4,-3,-1,-2,0,13.83
2767,-2,0,-6,-3,0,0,0,-1,13.835
2768,-1,-2,0,-3,1,1,-1,0,13.84
2769,-3,3,2,2,-1,-2,-1,0,13.845
2770,2,2,16,0,2,-2,1,-1,13.85
2771,-2,0,-12,10,1,0,-1,-2,13.855
2772,-1,-2,7,-19,-2,-1,-1,0,13.86
2773,-5,-7,-38,-7,-4,-1,-1,-2,13.865
2774,-1,0,-6,1,1,-1,0,0,13.870000000000001
2775,0,0,22,-2,-1,-1,-1,0,13.875
2776,-2,2,10,9,1,0,0,0,13.88
2777,0,3,3,1,1,0,0,1,13.885
2778,-1,-2,-2,-4,-3,-1,-2,0,13.89
2779,-2,-4,-17,-3,0,-1,-1,-1,13.895
2780,-1,-4,4,-2,-3,-3,-2,-1,13.9
2781,-3,5,24,-2,-1,-1,-1,0,13.905000000000001
2782,-2,-5,-11,-2,0,2,0,-2,13.91
2783,1,2,20,-5,-1,-2,-2,-2,13.915000000000001
2784,-2,-5,-36,-11,-3,-3,-1,-3,13.92
2785,-1,1,-2,1,1,-1,-1,1,13.925
2786,0,-2,10,3,-2,-1,0,-1,13.93
2787,0,0,4,3,-2,-1,-1,1,13.935
2788,2,1,6,1,1,0,0,0,13.94
2789,0,1,-1,6,-1,0,1,-1,13.945
2790,-1,4,-10,-1,-2,-2,-1,0,13.950000000000001
2791,-3,-7,-5,-16,-2,0,-1,-2,13.955
2792,-1,1,10,9,-1,-1,0,0,13.96
2793,0,0,2,-3,-1,-2,-1,0,13.965
2794,-1,-1,5,13,-3,-2,-2,-2,13.97
2795,-1,0,-11,-16,-1,0,-1,1,13.975
2796,-1,0,6,6,0,0,0,-2,13.98
2797,0,-1,6,2,0,1,-2,0,13.985
2798,0,0,-4,2,1,1,1,0,13.99
2799,-1,0,-18,-6,-2,-2,0,-2,13.995000000000001
2800,-1,-7,-2,-1,-1,0,-1,-1,14.0
2801,-1,0,-3,-6,1,-1,-1,-1,14.005
2802,1,3,1,-6,1,0,2,2,14.01
2803,-3,-7,5,15,-4,-3,0,-4,14.015
2804,-4,-1,11,4,-3,-1,-2,-3,14.02
2805,-1,-2,9,-3,-3,-1,0,-1,14.025
2806,-1,-2,-9,-12,-2,-1,-3,-1,14.030000000000001
2807,2,1,1,-1,2,0,1,-1,14.035
2808,2,1,5,3,1,-1,-1,1,14.040000000000001
2809,-1,-1,1,7,0,1,-1,-1,14.045
2810,-1,0,-7,-4,-2,-1,-1,0,14.05
2811,-2,0,5,1,0,0,0,0,14.055
2812,1,-1,-13,5,-1,0,0,-1,14.06
2813,1,2,-9,3,1,0,-1,-2,14.065
2814,-2,-4,18,-11,-2,-2,-2,-4,14.07
2815,0,0,-16,3,-2,-1,-2,-2,14.075000000000001
2816,-1,4,-1,1,-1,-2,0,0,14.08
2817,-1,-1,5,2,-3,-2,-3,1,14.085
2818,-1,-2,-7,7,0,0,1,1,14.09
2819,-1,3,8,-12,0,-1,-1,1,14.095
2820,0,-5,-6,-2,2,1,-3,1,14.1
2821,1,-1,1,0,-1,-2,0,0,14.105
2822,-2,-1,-7,1,0,0,-1,0,14.11
2823,-1,-1,-4,-2,-1,1,0,-1,14.115
2824,-1,4,-1,-2,0,-1,-1,-1,14.120000000000001
2825,0,-2,-1,-3,-1,0,0,-2,14.125
2826,1,1,13,4,-1,0,0,0,14.13
2827,-5,-10,-38,-3,-4,-3,-2,-1,14.135
2828,-3,-5,6,-7,-3,-1,-1,0,14.14
2829,-2,-2,6,0,1,0,-1,-3,14.145
2830,1,0,4,0,-1,-3,-1,-1,14.15
2831,1,1,7,4,3,1,1,1,14.155000000000001
2832,1,2,3,3,0,0,1,-1,14.16
2833,0,-3,-5,1,-1,-1,-1,-1,14.165000000000001
2834,-2,0,-4,-2,-1,-1,-2,-1,14.17
2835,-3,-8,-31,-10,-3,-1,-1,-2,14.175
2836,0,-3,4,-1,-2,-2,-1,0,14.18
2837,0,1,4,5,-1,-1,0,1,14.185
2838,-1,-2,-18,-1,-1,0,0,-1,14.19
2839,-2,0,9,5,-2,-1,-1,-1,14.195
2840,-1,1,2,-5,0,1,-2,-2,14.200000000000001
2841,-1,-1,-11,-1,-1,0,-1,1,14.205
2842,-1,-1,3,-1,1,-2,-1,-1,14.21
2843,0,3,14,-2,-1,-1,-1,-1,14.215
2844,1,-1,0,3,1,-1,1,0,14.22
2845,-3,-2,-26,-11,-5,-2,0,-1,14.225
2846,-2,-4,3,-3,-2,-1,0,-2,14.23
2847,1,1,16,0,1,1,1,0,14.235
2848,-1,0,0,3,0,0,-1,-1,14.24
2849,0,1,-1,3,-1,-1,-1,-2,14.245000000000001
2850,-2,-4,-8,-8,0,-1,0,2,14.25
2851,-2,-2,-11,2,-3,-2,-2,-1,14.255
2852,-1,-3,3,-8,-4,-3,-3,-1,14.26
2853,0,-3,2,0,0,-1,0,-1,14.265
2854,0,-2,-5,-4,-2,-2,-2,-1,14.27
2855,2,2,25,4,1,-1,0,2,14.275
2856,1,2,-9,1,-1,-1,1,-1,14.280000000000001
2857,-1,-1,3,-2,1,-1,-1,-1,14.285
2858,-1,-6,-14,7,-2,-1,-3,-1,14.290000000000001
2859,0,2,1,-13,-1,0,-2,0,14.295
2860,-2,-1,3,3,-3,-3,1,-1,14.3
2861,-1,4,-2,-2,0,0,-1,-1,14.305
2862,-1,0,6,5,0,-2,2,-2,14.31
2863,0,-1,-7,-4,0,-1,0,-3,14.315
2864,-1,-6,-10,-4,1,0,-1,-1,14.32
2865,1,1,11,0,0,-1,0,0,14.325000000000001
2866,0,1,1,-1,-2,-1,-2,1,14.33
2867,-1,-1,-15,2,-2,-2,-2,-1,14.335
2868,0,0,10,2,0,-1,0,2,14.34
2869,-2,0,1,0,-1,-2,-1,-1,14.345
2870,-2,-5,-26,-6,-2,0,0,0,14.35
2871,1,4,4,5,1,0,-2,0,14.355
2872,0,0,-5,-7,-2,1,1,-2,14.36
2873,0,0,13,8,-2,-1,-2,0,14.365
2874,-1,0,-4,7,-1,0,0,0,14.370000000000001
2875,-2,-2,9,-15,-2,-1,-1,-1,14.375
2876,-3,-3,-21,5,-1,-4,-2,0,14.38
2877,-1,-3,6,-4,-2,1,-1,0,14.385
2878,0,-1,7,0,-1,0,-3,-2,14.39
2879,0,1,10,6,1,0,-1,1,14.395
2880,1,-3,-8,0,-1,0,0,-2,14.4
2881,-3,-5,-2,-6,-3,-4,-1,-2,14.405000000000001
2882,1,0,-11,-1,1,-2,-1,-1,14.41
2883,-1,-5,-2,-2,-2,-2,-1,-1,14.415000000000001
2884,1,5,15,8,0,0,0,0,14.42
2885,-1,2,-6,-14,0,-1,0,0,14.425
2886,-2,-4,-2,-3,-2,-1,-1,0,14.43
2887,1,-1,-8,-6,-1,2,-1,-2,14.435
2888,-2,-1,-1,0,-2,0,-1,-1,14.44
2889,-1,0,-3,3,0,0,0,-1,14.445
2890,-2,-1,15,-1,-2,-2,-2,-1,14.450000000000001
2891,-1,2,2,6,0,-1,0,0,14.455
2892,-2,-3,-6,-2,2,-1,-1,0,14.46
2893,-3,-6,-32,-13,-5,-4,-1,-2,14.465
2894,1,2,11,1,0,1,0,1,14.47
2895,-2,-4,2,6,2,0,0,-2,14.475
2896,-2,1,2,0,-1,-3,-3,-3,14.48
2897,0,1,5,1,1,0,0,0,14.485
2898,-2,-1,-1,-5,0,-1,0,0,14.49
2899,-1,0,-4,3,-1,1,0,0,14.495000000000001
2900,1,2,5,-3,1,0,-1,1,14.5
2901,0,-2,0,4,0,-2,-1,0,14.505
2902,-1,2,5,-4,-1,1,-1,-1,14.51
2903,-2,-1,-10,-1,-2,-2,0,-1,14.515
2904,1,-4,1,-4,-3,-2,-1,-1,14.52
2905,1,9,23,10,2,3,1,0,14.525
2906,-4,-11,-51,-26,-5,-4,-2,-2,14.530000000000001
2907,-3,-3,-2,9,-2,-3,0,-2,14.535
2908,2,3,6,0,-1,1,0,0,14.540000000000001
2909,1,-1,7,3,0,-2,-1,-1,14.545
2910,1,1,10,2,4,2,1,1,14.55
2911,2,1,0,-5,-1,-2,1,0,14.555
2912,-1,-1,-8,3,0,-1,0,0,14.56
2913,3,4,1,-4,1,-1,0,0,14.565
2914,-4,-6,-4,6,-2,-2,-2,-1,14.57
2915,-3,-6,-23,-30,-6,-2,-2,-1,14.575000000000001
2916,-3,0,1,8,-1,0,-1,-2,14.58
2917,-2,-3,2,-1,1,1,-1,-2,14.585
2918,0,2,5,8,-2,-1,-1,-1,14.59
2919,1,1,11,8,1,0,-1,-2,14.595
2920,-1,1,-4,-7,-1,-1,1,0,14.6
2921,-2,-2,-6,1,-2,-2,0,-2,14.605
2922,-1,-1,0,-7,0,0,-1,-1,14.61
2923,-1,1,4,10,1,-1,-1,1,14.615
2924,0,-3,-1,-10,-3,-1,-1,0,14.620000000000001
2925,0,0,-4,10,-1,1,-2,0,14.625
2926,1,0,-2,2,-1,-1,0,0,14.63
2927,0,1,-4,-10,0,1,0,-1,14.635
2928,1,4,10,6,1,0,-1,0,14.64
2929,-1,-3,-3,-12,-1,-1,0,0,14.645
2930,1,5,8,8,1,-1,-1,0,14.65
2931,1,-1,13,8,-1,1,0,0,14.655000000000001
2932,-3,-1,13,-4,-2,-2,-2,-1,14.66
2933,0,0,2,-9,-1,-1,-1,-2,14.665000000000001
2934,-1,-1,3,-3,-2,-2,0,-1,14.67
2935,0,0,-5,4,1,-1,-1,-2,14.675
2936,-1,-2,0,1,0,1,0,0,14.68
2937,-3,-1,4,-9,-3,-1,-1,1,14.685
2938,0,-1,6,4,0,0,1,0,14.69
2939,-1,3,7,0,-2,0,0,-1,14.695
2940,1,-2,-12,2,0,-1,0,-1,14.700000000000001
2941,-1,-5,-13,-3,-3,-1,-3,-1,14.705
2942,-1,2,2,0,0,-2,-1,-1,14.71
2943,-2,0,8,-1,1,-2,0,-1,14.715
2944,-2,0,-3,-3,-3,-1,-1,-2,14.72
2945,0,-1,-5,3,0,1,0,2,14.725
2946,0,0,9,4,0,0,0,0,14.73
2947,-3,-2,-14,-5,-1,0,0,0,14.735
2948,1,-1,-9,-9,1,0,0,0,14.74
2949,-3,-6,8,7,-1,-1,-1,-1,14.745000000000001
2950,-1,0,2,-2,-2,-1,-1,-1,14.75
2951,1,0,0,0,-2,0,-1,-1,14.755
2952,-2,0,0,-1,0,-1,0,0,14.76
2953,-1,0,0,1,-1,0,-1,-1,14.765
2954,-2,0,5,6,0,0,-2,-1,14.77
2955,0,3,-2,2,0,-1,-1,0,14.775
2956,-2,-1,3,-1,0,1,-1,-2,14.780000000000001
2957,-1,-2,-9,-2,-1,-2,-1,-2,14.785
2958,0,0,5,1,1,2,1,-1,14.790000000000001
2959,0,3,5,-1,0,1,0,-1,14.795
2960,-4,-6,-21,-8,-5,0,-2,-2,14.8
2961,-2,-2,10,15,0,-2,0,-2,14.805
2962,-2,-4,-15,-20,-1,-1,-1,-2,14.81
2963,0,-1,8,6,1,0,1,-1,14.815
2964,0,2,3,3,0,-1,0,-1,14.82
2965,1,1,-4,-1,-1,-1,0,-1,14.825000000000001
2966,0,3,5,3,-1,1,-1,0,14.83
2967,-1,-2,-1,1,-1,0,-1,-1,14.835
2968,-2,0,-1,1,-1,0,-2,-1,14.84
2969,-1,-4,-13,-6,-1,0,-2,-1,14.845
2970,-1,0,7,5,-1,-1,-1,0,14.85
2971,-3,-5,2,-4,-2,1,-1,-2,14.855
2972,-1,0,-10,-8,-4,-2,-1,0,14.86
2973,-3,-2,-16,-3,0,-2,-1,-2,14.865
2974,0,1,6,3,0,-2,-1,-2,14.870000000000001
2975,-4,-3,5,-12,-1,-1,-1,0,14.875
2976,0,0,5,5,2,1,0,1,14.88
2977,0,3,5,-2,0,0,0,1,14.885
2978,-2,-3,-2,3,0,-1,-1,1,14.89
2979,-2,0,-8,2,-2,-1,-1,-1,14.895
2980,-1,-2,5,-1,-1,-2,1,-2,14.9
2981,0,1,15,-1,0,0,2,-1,14.905000000000001
2982,-2,-5,-22,-2,-2,-1,0,-2,14.91
2983,0,-3,-7,-3,-4,-3,-1,1,14.915000000000001
2984,-1,-2,-9,-2,0,0,-2,-3,14.92
2985,0,1,7,1,0,-1,0,0,14.925
2986,0,4,16,2,-2,-1,0,-2,14.93
2987,-2,-2,0,-2,0,-1,-1,-1,14.935
2988,0,2,6,4,-2,0,-1,0,14.94
2989,-1,1,-2,-7,1,1,1,-2,14.945
2990,-1,-3,-4,1,-3,-3,-2,0,14.950000000000001
2991,1,2,-8,-5,0,-1,-1,1,14.955
2992,1,0,-1,6,0,-2,0,-1,14.96
2993,2,3,-9,-4,1,2,-1,2,14.965
2994,-2,-1,13,3,-1,-1,-1,-2,14.97
2995,-2,-3,-2,8,-2,-1,-1,-2,14.975
2996,-2,-2,1,-5,0,-2,-1,1,14.98
2997,-1,0,-3,8,-2,0,0,-3,14.985
2998,2,3,6,-2,3,0,0,-1,14.99
2999,-1,1,-1,2,0,1,0,-1,14.995000000000001
3000,-4,-4,8,-5,-3,-1,-1,-2,15.0
3001,-1,-5,-21,-12,-4,-2,-3,-1,15.005
3002,-1,4,6,2,1,2,-1,2,15.01
3003,-1,-1,-1,2,1,0,0,0,15.015
3004,0,1,-10,1,2,0,1,0,15.02
3005,-3,-7,-6,6,-4,-4,-2,-1,15.025
3006,-1,-6,-3,-11,-1,0,0,-2,15.030000000000001
3007,0,0,-3,0,-1,-1,-2,0,15.035
3008,1,0,9,4,-1,1,-1,-1,15.040000000000001
3009,-2,0,16,-5,-2,-2,-2,-2,15.045
3010,0,-2,-21,1,1,-1,-1,-1,15.05
3011,-1,-5,-14,-10,-2,-2,-1,-3,15.055
3012,-1,-2,12,8,-1,-3,-3,-1,15.06
3013,-1,0,8,-5,-2,-2,-1,1,15.065
3014,-1,0,-24,-3,1,1,1,1,15.07
3015,-2,-2,14,-2,-4,-2,-2,-2,15.075000000000001
3016,0,2,-4,-1,0,1,0,-1,15.08
3017,0,0,1,1,2,1,-1,0,15.085
3018,0,3,14,2,-2,-2,0,0,15.09
3019,-2,-4,-20,2,-1,-1,-1,-2,15.095
3020,-3,0,3,-2,0,0,0,-1,15.1
3021,2,3,12,3,1,1,2,0,15.105
3022,-3,-1,-13,5,-2,-2,-1,-1,15.11
3023,-1,0,-2,-12,0,-2,0,-1,15.115
3024,0,-2,-5,-7,-2,-3,-2,0,15.120000000000001
3025,1,0,0,2,0,1,0,-2,15.125
3026,-3,2,-1,2,0,1,0,-1,15.13
3027,2,5,14,20,4,3,0,1,15.135
3028,-4,-9,-3,-7,-7,-3,-1,-4,15.14
3029,-3,-5,-20,-14,-3,-2,0,-2,15.145
3030,1,0,5,-6,-1,-2,0,0,15.15
3031,0,1,9,10,-1,-2,1,0,15.155000000000001
3032,0,0,-18,-9,0,0,0,0,15.16
3033,-1,-1,-7,1,0,-1,-1,0,15.165000000000001
3034,-2,-4,9,-1,-2,-2,-2,-3,15.17
3035,1,4,1,-4,1,2,-1,0,15.175
3036,0,-3,-5,3,0,0,-1,-2,15.18
3037,-2,-5,-8,-6,-2,-2,-2,-2,15.185
3038,0,0,-1,-2,0,-1,-2,-1,15.19
3039,-1,3,2,2,-1,-2,-1,-1,15.195
3040,1,1,2,0,-1,-1,-1,1,15.200000000000001
3041,0,3,10,9,-3,-1,-1,0,15.205
3042,-1,-5,-2,-7,1,0,1,-1,15.21
3043,-1,-3,-1,-1,-1,-1,0,-1,15.215
3044,-1,1,-21,3,0,0,-3,0,15.22
3045,-2,-1,39,-5,1,0,0,-1,15.225
3046,-3,-8,-25,-14,-7,-3,-2,-3,15.23
3047,0,0,13,1,0,-1,-1,-1,15.235
3048,0,2,4,9,2,0,0,1,15.24
3049,0,-1,4,-3,2,2,0,0,15.245000000000001
3050,-1,1,-1,0,0,-1,-1,1,15.25
3051,-2,-3,2,0,-2,-2,0,-2,15.255
3052,0,-1,-11,-17,0,0,0,-1,15.26
3053,0,0,-1,6,0,-2,0,-1,15.265
3054,1,1,6,6,0,-1,0,-1,15.27
3055,-1,-4,-19,-6,-1,-1,1,-2,15.275
3056,-3,-2,19,6,-1,-1,-2,-2,15.280000000000001
3057,-3,-4,-37,-12,-1,-2,-2,-2,15.285
3058,0,2,13,5,0,-1,1,-1,15.290000000000001
3059,0,2,-3,-6,0,-1,0,-1,15.295
3060,-2,-4,-13,-8,-2,-3,0,-1,15.3
3061,0,2,-7,3,0,1,-1,1,15.305
3062,-2,0,6,-2,-2,-1,-1,0,15.31
3063,-4,-5,4,3,-2,-2,-1,-1,15.315
3064,0,2,13,3,-1,0,2,0,15.32
3065,1,-3,-33,-3,0,0,-2,-1,15.325000000000001
3066,-2,-4,6,-6,-1,-1,-2,-2,15.33
3067,-1,0,-21,-5,-1,0,-1,0,15.335
3068,-1,-2,-1,-1,-1,-1,-1,0,15.34
3069,-1,1,8,7,-1,-1,-2,-1,15.345
3070,2,2,8,2,1,1,1,0,15.35
3071,-1,-4,-15,-5,1,-1,-1,-3,15.355
3072,-1,0,9,2,0,-1,-1,0,15.36
3073,0,3,5,1,-1,0,0,0,15.365
3074,-1,0,-3,-1,-1,-2,-2,-1,15.370000000000001
3075,-1,-2,8,6,-3,0,-1,-1,15.375
3076,-1,-2,-2,-10,-1,1,0,0,15.38
3077,-1,0,11,1,-3,-1,0,0,15.385
3078,-1,-1,-7,-3,0,1,0,0,15.39
3079,-2,2,-1,4,-3,1,-1,1,15.395
3080,2,3,16,12,0,0,0,-2,15.4
3081,-3,-4,-3,-10,-3,-2,-1,-2,15.405000000000001
3082,0,0,-11,-4,2,-1,-1,0,15.41
3083,1,1,3,-2,0,-1,-1,0,15.415000000000001
3084,-2,-3,-4,-4,-1,-1,-1,-1,15.42
3085,0,-1,-1,2,-1,-2,0,-2,15.425
3086,0,1,-1,0,0,-1,-1,-1,15.43
3087,-1,0,4,-3,-2,0,-3,0,15.435
3088,-2,2,-6,1,-2,-1,-1,-1,15.44
3089,0,-3,-4,-1,-1,-2,-1,-1,15.445
3090,-1,-1,1,1,-2,-1,-1,-1,15.450000000000001
3091,-2,-1,2,-1,0,1,-1,-1,15.455
3092,1,-1,-6,-9,-5,0,-1,-1,15.46
3093,-2,1,-4,4,3,1,0,-1,15.465
3094,0,-2,1,4,1,-1,0,1,15.47
3095,0,1,1,-7,-1,-2,-1,-1,15.475
3096,-1,-2,4,-1,-1,-1,-3,-2,15.48
3097,-1,-1,-3,-9,-2,-2,-1,-1,15.485000000000001
3098,-2,-3,-7,4,-4,0,-2,-3,15.49
3099,0,-2,1,2,0,1,0,-1,15.495000000000001
3100,0,0,4,0,0,0,1,0,15.5
3101,0,-2,1,4,-1,1,-1,0,15.505
3102,-5,1,-3,-2,-1,-2,-1,-1,15.51
3103,1,-2,1,-2,-1,-2,-2,-1,15.515
3104,0,0,-4,-2,0,2,-1,0,15.52
3105,-2,-4,-2,1,-2,0,-1,-1,15.525
3106,0,1,0,0,-1,-2,0,0,15.530000000000001
3107,-1,-1,3,-3,-1,-1,-1,-1,15.535
3108,-1,0,-4,4,-3,-1,-1,-2,15.540000000000001
3109,-1,1,1,4,-8,-4,0,-1,15.545
3110,1,-1,0,9,10,2,-1,1,15.55
3111,-1,1,2,13,-4,-3,-1,0,15.555
3112,-1,-3,3,-14,9,1,2,1,15.56
3113,-1,-1,-9,-13,-9,-3,-2,1,15.565
3114,-1,0,3,1,4,2,1,1,15.57
3115,-2,1,3,8,-5,-1,2,-6,15.575000000000001
3116,-1,-1,-6,-10,-2,-1,1,4,15.58
3117,2,-3,5,16,4,3,2,-4,15.585
3118,-3,-2,2,26,-7,-6,-7,-7,15.59
3119,-1,2,-19,7,-8,-3,-2,0,15.595
3120,1,2,7,-43,17,3,3,-1,15.6
3121,3,-6,-8,11,-2,-2,-3,2,15.605
3122,1,0,-2,-20,-8,-2,-1,-2,15.610000000000001
3123,-4,-5,8,74,2,1,-2,-7,15.615
3124,1,-6,-9,-40,-10,-8,-14,-11,15.620000000000001
3125,2,8,9,21,9,5,3,-4,15.625
3126,14,9,-13,-23,8,7,9,24,15.63
3127,-14,-19,-28,-48,-9,-1,4,-4,15.635
3128,-3,-12,2,30,-14,-6,-11,-4,15.64
3129,15,72,34,-24,3,-2,5,19,15.645
3130,-27,-20,-30,56,-27,-1,5,-1,15.65
3131,13,23,12,9,36,12,3,-14,15.655000000000001
3132,13,-110,-23,-33,-7,-5,-5,-8,15.66
3133,-28,-28,19,-11,15,-5,-9,-7,15.665000000000001
3134,-10,12,1,98,0,-3,-3,8,15.67
3135,5,3,-35,-128,7,8,21,22,15.675
3136,0,-15,-34,39,-32,-7,-8,-3,15.68
3137,13,12,-21,113,2,1,-7,-37,15.685
3138,5,-30,-11,-102,16,-11,-24,-17,15.69
3139,-26,53,-5,3,12,-8,-28,-4,15.695
3140,19,-26,2,46,16,14,36,33,15.700000000000001
3141,3,73,54,-1,-51,12,50,59,15.705
3142,-15,-29,-14,-4,19,11,-12,-34,15.71
3143,-7,-1,-35,3,-13,-24,-37,-27,15.715
3144,-10,39,28,74,-1,6,7,-9,15.72
3145,-4,-15,-12,-41,-2,-6,-9,12,15.725
3146,4,44,25,46,2,10,37,24,15.73
3147,3,-22,40,57,-46,-18,-25,-13,15.735000000000001
3148,-2,-12,-26,51,-30,-5,-1,-7,15.74
3149,-32,-109,-89,-91,100,9,-29,-26,15.745000000000001
3150,18,50,-11,25,-15,-1,-4,-12,15.75
3151,33,-50,10,69,-63,-4,20,17,15.755
3152,-34,71,30,27,-36,-10,3,32,15.76
3153,22,-10,-39,-53,59,11,22,-1,15.765
3154,-23,-76,63,-76,-4,-15,-25,-17,15.77
3155,-3,-2,35,117,-18,1,26,59,15.775
3156,34,-22,-2,-128,78,17,2,-65,15.780000000000001
3157,-18,36,24,104,-52,-16,-48,-46,15.785
3158,4,-35,-50,54,-10,13,38,46,15.790000000000001
3159,7,-5,-1,-84,53,14,3,11,15.795
3160,-45,45,33,-27,-56,-36,-61,-59,15.8
3161,19,12,27,-128,50,34,67,97,15.805
3162,22,58,67,118,0,-3,25,48,15.81
3163,-29,42,51,-78,-8,-19,-68,-77,15.815
3164,37,47,-107,19,-38,1,21,44,15.82
3165,-79,-68,64,-57,52,10,-19,-70,15.825000000000001
3166,-50,-40,30,87,-116,-41,-68,-43,15.83
3167,31,-13,9,-111,10,26,40,21,15.835
3168,0,-8,45,33,-16,-11,-25,-36,15.84
3169,86,67,-22,127,-117,-8,35,97,15.845
3170,32,91,-2,-128,112,56,88,89,15.85
3171,-14,-54,-10,127,20,-6,-25,1,15.855
3172,59,65,-2,-88,83,1,7,63,15.860000000000001
3173,63,-75,18,-56,-9,-2,1,-42,15.865
3174,-97,40,-28,60,-2,-19,-38,-127,15.870000000000001
3175,33,46,-64,-45,-104,-18,-41,-49,15.875
3176,-32,-41,66,-87,95,28,43,80,15.88
3177,-55,-4,-54,63,-1,-4,-2,-38,15.885
3178,60,-13,-7,-69,-64,-17,-11,27,15.89
3179,19,-64,-16,-26,53,33,44,-4,15.895
3180,14,47,-19,-39,-1,-20,-21,62,15.9
3181,-32,5,-26,56,-112,3,12,-6,15.905000000000001
3182,51,-53,74,-111,78,-7,-35,-69,15.91
3183,-22,-43,-14,87,-4,-3,-6,-73,15.915000000000001
3184,8,8,-26,79,-75,-1,-15,-18,15.92
3185,20,-35,24,31,19,0,22,41,15.925
3186,68,28,-51,-30,71,31,30,125,15.93
3187,18,38,29,78,9,21,31,15,15.935
3188,-94,-81,28,-60,44,-1,7,-14,15.94
3189,0,-32,-10,93,-64,-38,-49,-52,15.945
3190,-1,-23,-17,99,-73,-4,-15,-30,15.950000000000001
3191,48,18,-4,-86,11,2,23,76,15.955
3192,9,-22,7,21,-2,6,-5,-71,15.96
3193,-35,63,-10,71,-60,-27,-30,10,15.965
3194,-59,-14,62,-128,106,8,-5,-77,15.97
3195,-111,-16,-64,126,-117,-29,-17,-29,15.975
3196,-1,11,9,45,65,24,43,76,15.98
3197,25,-13,6,-106,27,-3,-47,-55,15.985000000000001
3198,53,0,24,-48,-10,-2,-5,23,15.99
3199,18,13,-14,-90,21,-7,20,95,15.995000000000001
3200,2,-34,-1,86,-17,-3,-5,-87,16.0
3201,-32,-50,-23,-66,98,19,-25,-29,16.005
3202,84,5,33,55,-35,10,44,93,16.01
3203,-70,-9,0,54,-11,0,-1,-45,16.015
3204,-38,36,-84,121,-108,-18,0,12,16.02
3205,61,-1,37,-62,35,-7,24,38,16.025
3206,-92,-9,12,38,-82,-51,-107,-128,16.03
3207,-23,22,-4,66,-19,-17,-29,-44,16.035
3208,-11,-11,-14,-26,-5,5,-4,37,16.04
3209,-10,54,-16,29,-71,4,30,30,16.045
3210,20,-39,-41,20,88,34,57,81,16.05
3211,22,-59,34,-74,-1,-1,-2,35,16.055
3212,-1,-21,-23,97,-71,-24,-53,-79,16.06
3213,73,25,15,-88,43,15,37,26,16.065
3214,-24,-37,14,-54,-18,-18,-18,-28,16.07
3215,65,43,4,-21,-70,-8,29,85,16.075
3216,-6,8,-1,29,61,42,48,11,16.080000000000002
3217,-92,69,16,125,-93,-43,-94,-53,16.085
3218,75,-64,-28,30,-102,-11,15,92,16.09
3219,-118,-48,-2,1,75,-3,-46,-128,16.095
3220,-51,62,-15,44,0,-11,-6,59,16.1
3221,19,19,-40,80,-18,3,12,58,16.105
3222,-10,51,2,97,-54,-2,18,58,16.11
3223,57,44,-8,50,-13,5,3,-18,16.115000000000002
3224,-2,-103,12,-36,48,18,5,-31,16.12
3225,-19,6,-11,85,-46,-18,-37,-51,16.125
3226,1,66,-3,-106,39,18,42,77,16.13
3227,-12,-9,40,9,23,-2,20,-28,16.135
3228,11,-17,-36,127,-77,-22,-39,-16,16.14
3229,12,-11,54,-125,75,20,17,-55,16.145
3230,-11,-71,-30,108,-119,-12,10,25,16.15
3231,1,-1,75,-63,127,31,-10,-27,16.155
3232,15,43,39,-128,41,-40,-62,-48,16.16
3233,-15,9,-28,57,-66,9,54,79,16.165
3234,-2,44,12,-19,73,15,-5,-20,16.17
3235,-26,19,-16,-87,74,7,3,32,16.175
3236,39,10,-13,92,-43,9,24,-20,16.18
3237,95,-51,-25,-101,112,52,91,123,16.185
3238,-31,41,14,-28,20,-28,-92,-128,16.19
3239,17,37,4,53,-88,-26,0,60,16.195
3240,0,-59,-24,22,-16,37,87,92,16.2
3241,-29,11,52,-5,35,-12,-42,-99,16.205000000000002
3242,-78,-65,-39,-20,50,-9,-25,32,16.21
3243,34,10,21,42,-13,-1,-23,-15,16.215
3244,44,56,16,52,-65,-28,-21,1,16.22
3245,26,-32,-14,-26,-9,21,59,106,16.225
3246,0,-91,17,107,-38,-20,-55,-123,16.23
3247,-22,-6,-37,77,-54,-2,-4,-9,16.235
3248,55,58,8,-112,38,50,83,86,16.240000000000002
3249,-79,-36,37,-85,90,-17,-49,-93,16.245
3250,-13,69,0,58,-43,-41,-46,-37,16.25
3251,28,83,-29,98,-50,8,32,30,16.255
3252,25,-36,57,-31,25,30,37,-5,16.26
3253,8,34,-13,127,-78,-8,-33,30,16.265
3254,13,-29,12,83,-83,-9,16,-24,16.27
3255,23,9,14,-128,100,13,17,47,16.275
3256,1,36,-5,38,-25,-8,-16,-8,16.28
3257,2,-21,-11,58,-81,-28,-30,-36,16.285
3258,1,16,-13,-62,82,33,38,-10,16.29
3259,36,-9,-21,-65,-24,-3,12,55,16.295
3260,-44,-21,-1,50,3,1,-19,-76,16.3
3261,-54,-21,-23,-46,-9,-19,-35,-16,16.305
3262,54,-33,-2,-91,50,16,30,64,16.31
3263,-77,-11,21,-12,27,-19,-34,-47,16.315
3264,-18,-67,-10,2,-9,-6,-12,-22,16.32
3265,22,14,-8,73,-98,-7,3,2,16.325
3266,15,31,-6,-19,25,15,24,8,16.330000000000002
3267,42,-29,8,95,-27,-3,14,61,16.335
3268,15,-21,-10,8,-50,11,21,61,16.34
3269,7,73,12,127,-9,-17,-32,-88,16.345
3270,-34,26,-21,55,-39,-14,-16,-34,16.35
3271,-6,5,-28,38,-88,3,16,3,16.355
3272,-19,72,-9,45,-1,-18,-9,-26,16.36
3273,19,27,-8,22,15,13,7,67,16.365000000000002
3274,-5,11,3,-55,3,2,2,72,16.37
3275,-22,-2,-14,61,-12,-5,-19,-80,16.375
3276,-6,32,1,-34,-2,-21,-38,-44,16.38
3277,35,-11,0,-82,53,22,46,43,16.385
3278,12,-31,-3,32,-46,3,18,22,16.39
3279,17,32,3,93,16,14,18,59,16.395
3280,-11,23,-27,-128,116,-1,-2,13,16.4
3281,-35,-25,7,127,-62,4,-39,-82,16.405
3282,-3,78,-24,127,-84,-23,-26,-92,16.41
3283,-17,-24,-1,-60,63,5,9,20,16.415
3284,-28,-79,7,126,-18,-12,-15,1,16.42
3285,9,33,-10,46,-88,-9,36,54,16.425
3286,24,-40,8,-89,69,32,37,68,16.43
3287,-20,-25,25,10,-20,-11,-53,-95,16.435
3288,-17,-28,5,82,-67,-22,-37,-72,16.44
3289,34,-28,4,-102,75,24,28,40,16.445
3290,-4,-12,-2,72,-2,8,5,15,16.45
3291,14,-18,-8,34,3,4,21,13,16.455000000000002
3292,-2,-2,19,23,11,-3,-19,-10,16.46
3293,9,39,-3,-46,-13,1,13,4,16.465
3294,17,127,-12,-28,85,32,78,86,16.47
3295,5,-21,12,-15,0,-14,-37,15,16.475
3296,-47,-13,-1,-79,-43,-35,-86,-95,16.48
3297,-11,13,12,23,51,-8,-13,-11,16.485
3298,-5,-21,11,76,-31,-5,-8,-21,16.490000000000002
3299,11,-15,-15,113,-65,11,48,46,16.495
3300,54,32,-3,-76,108,17,9,58,16.5
3301,43,-16,-13,109,6,3,11,-10,16.505
3302,-47,-92,16,-101,2,4,-7,-51,16.51
3303,-58,53,12,-8,-9,-9,-16,-35,16.515
3304,15,-54,-5,45,-51,-11,6,34,16.52
3305,-3,-14,6,-48,13,-9,-2,-22,16.525
3306,0,-15,18,97,-16,-1,-2,-10,16.53
3307,56,15,1,-16,-13,15,20,49,16.535
3308,6,51,3,-32,14,22,34,20,16.54
3309,-39,-41,-2,-2,-5,-38,-76,-59,16.545
3310,-2,47,6,30,-28,-13,-23,-19,16.55
3311,-17,-14,1,-33,-17,-4,-6,-29,16.555
3312,-7,-10,7,-10,-19,4,24,34,16.56
3313,39,-76,20,78,33,18,33,59,16.565
3314,-8,4,-3,-94,-32,-17,-18,-33,16.57
3315,7,-25,-2,-92,33,6,9,27,16.575
3316,-3,-11,-5,104,-16,0,-5,-24,16.580000000000002
3317,-33,-26,5,43,-61,-8,-2,2,16.585
3318,30,21,15,-74,27,13,30,38,16.59
3319,-6,-25,10,-41,39,5,-17,-30,16.595
3320,-10,-51,5,27,-20,-22,-30,-20,16.6
3321,-32,18,4,35,-40,-14,-15,-19,16.605
3322,-22,8,2,-63,6,4,-3,-11,16.61
3323,20,15,-8,0,-17,-8,0,2,16.615000000000002
3324,13,55,-3,23,-9,8,16,4,16.62
3325,-15,-1,9,-97,26,10,19,22,16.625
3326,-13,15,-4,82,-15,-11,-25,-23,16.63
3327,-8,6,-3,38,3,-9,-16,-15,16.635
3328,1,5,4,-2,8,1,-1,-12,16.64
3329,-1,-12,-5,-2,-3,1,6,13,16.645
3330,20,10,6,18,0,14,21,23,16.65
3331,4,-14,-4,15,-38,-4,4,6,16.655
3332,14,13,0,-23,53,11,21,56,16.66
3333,-11,0,5,-82,7,-3,-19,-67,16.665
3334,-2,-24,-5,-34,-15,-8,-12,-16,16.67
3335,-4,-12,-4,39,16,1,-1,-4,16.675
3336,15,26,11,1,-23,4,15,21,16.68
3337,3,23,-4,45,12,8,14,12,16.685
3338,-11,-14,-2,29,9,-7,-13,-6,16.69
3339,7,0,-2,-25,-16,-5,1,5,16.695
3340,2,2,3,-50,-2,-2,3,3,16.7
3341,-17,27,32,-40,10,-5,-12,-22,16.705000000000002
3342,-14,3,28,81,-29,-11,-19,-19,16.71
3343,5,-8,17,14,4,7,13,17,16.715
3344,0,-3,5,18,-5,-2,-1,-8,16.72
3345,-6,-2,3,-11,6,1,-1,4,16.725
3346,8,-17,38,-3,-1,1,6,14,16.73
3347,7,7,63,-18,15,2,12,3,16.735
3348,0,16,82,-26,-3,-1,-21,-15,16.740000000000002
3349,5,1,14,-2,-1,-4,-2,5,16.745
3350,4,25,-57,-4,5,2,2,5,16.75
3351,0,-3,-112,9,5,-6,-11,-20,16.755
3352,-3,0,-127,23,-14,0,7,5,16.76
3353,7,-12,-126,-13,1,0,3,10,16.765
3354,-5,-10,-65,10,2,-3,-5,-6,16.77
3355,1,-8,-21,3,5,4,-3,-3,16.775
3356,4,-8,3,-9,-9,-2,3,0,16.78
3357,2,4,40,-19,4,-1,-1,0,16.785
3358,-2,-8,49,-5,8,0,0,-1,16.79
3359,2,-1,83,9,-3,-3,-2,-1,16.795
3360,-1,-14,66,-4,-1,1,4,1,16.8
3361,-3,0,-2,-1,1,-1,-1,-1,16.805
3362,-6,0,-22,13,-7,-1,-1,-2,16.81
3363,1,1,3,-4,2,3,2,2,16.815
3364,1,-2,3,3,-1,-3,-2,-5,16.82
3365,-2,-18,54,2,0,0,1,-1,16.825
3366,-1,-6,-18,1,-3,-1,2,3,16.830000000000002
3367,3,-8,-16,-25,2,-2,-1,-2,16.835
3368,-3,2,-10,0,0,2,2,-1,16.84
3369,-3,0,-8,1,-1,-1,-2,-1,16.845
3370,0,1,-2,-2,-3,1,1,1,16.85
3371,0,4,2,3,-4,-3,-4,-1,16.855
3372,-2,8,-29,11,-5,0,-1,-5,16.86
3373,2,11,-24,-15,6,2,0,2,16.865000000000002
3374,0,-6,0,-5,-1,-1,-7,-1,16.87
3375,1,5,-7,7,0,-2,4,1,16.875
3376,1,3,10,5,2,0,0,1,16.88
3377,-2,2,4,5,0,0,7,3,16.885
3378,-5,-2,10,-2,-3,-2,-3,-5,16.89
3379,-4,-4,1,6,-1,1,-3,-3,16.895
3380,-9,9,0,-19,-4,-2,-2,1,16.9
3381,-2,7,25,3,1,1,1,1,16.905
3382,-3,-4,10,1,-3,-1,-2,2,16.91
3383,-4,30,45,10,4,2,2,-1,16.915
3384,1,-29,27,5,4,1,2,0,16.92
3385,-12,-12,-29,-25,-7,-4,-10,-8,16.925
3386,-1,7,15,4,-2,2,12,1,16.93
3387,-7,-16,4,-4,-3,-3,5,1,16.935
3388,-2,-1,-28,6,1,-3,-5,-2,16.94
3389,1,6,-34,-4,2,2,2,-5,16.945
3390,2,-2,-1,-1,0,1,-5,5,16.95
3391,-2,-4,-33,17,0,-1,8,1,16.955000000000002
3392,1,10,-8,-15,-2,2,-1,-1,16.96
3393,-2,-5,-24,3,-4,-4,-5,-1,16.965
3394,-2,-3,0,-1,0,1,-2,-3,16.97
3395,4,3,17,14,2,2,-3,-1,16.975
3396,-3,2,-5,-12,-1,-1,1,1,16.98
3397,3,10,23,-2,1,1,-4,2,16.985
3398,3,-11,-23,2,-2,-2,0,-1,16.990000000000002
3399,-2,27,7,-11,-2,-1,-8,-7,16.995
3400,-1,5,19,11,-1,-1,8,2,17.0
3401,0,2,-3,4,0,-2,-7,1,17.005
3402,2,6,-4,-5,-1,-2,2,2,17.01
3403,-4,-21,-25,-13,-6,-5,-10,-2,17.015
3404,1,3,-7,7,0,4,-2,-3,17.02
3405,-4,1,-9,-4,-1,-1,4,0,17.025
3406,3,2,-5,16,4,0,1,-1,17.03
