slno,emg1,emg2,emg3,emg4,emg5,emg6,emg7,emg8,Time
0,3,-2,-1,0,-1,0,-1,-2,0.0
1,-10,2,-2,3,-3,-2,-1,-1,0.005
2,-2,-4,-2,1,-1,-1,0,0,0.01
3,-1,1,0,-3,-1,-1,0,0,0.015
4,-2,1,-2,-7,-1,0,1,-1,0.02
5,2,0,1,-4,1,0,1,-5,0.025
6,1,0,0,-1,-1,-2,-2,-3,0.03
7,0,-2,-2,-2,-3,-1,-3,-2,0.035
8,-2,1,0,4,-1,-1,-1,0,0.04
9,-1,-3,-2,-2,-2,1,1,1,0.045
10,-2,0,-1,-2,-2,0,-2,-3,0.05
11,1,-1,0,-1,1,0,1,-2,0.055
12,0,-2,1,1,0,-1,0,-4,0.06
13,4,-1,1,-1,-2,-4,0,4,0.065
14,0,1,1,0,0,-2,1,0,0.07
15,-1,-2,-1,-1,1,-2,-1,0,0.075
16,-1,-4,0,0,2,-2,-4,0,0.08
17,-3,-3,0,-1,-1,1,-3,-4,0.085
18,2,-1,-5,-4,-3,0,-2,0,0.09
19,-2,0,-1,1,-1,-1,-1,0,0.095
20,-3,2,-2,-3,1,0,-1,-1,0.1
21,0,-1,-3,-2,0,2,0,-2,0.105
22,-2,-4,1,-1,0,0,0,-2,0.11
23,-2,-1,1,-2,-4,0,1,-3,0.115
24,7,1,-3,1,1,-3,-1,1,0.12
25,-6,-4,-1,2,1,-3,-1,-2,0.125
26,1,1,-2,-1,-1,0,2,2,0.13
27,-1,1,2,-1,-3,1,0,0,0.135
28,-2,1,0,-1,0,-1,-1,-3,0.14
29,-1,1,-2,0,-1,-3,-2,-1,0.145
30,-1,0,-1,0,-2,0,0,-1,0.15
31,-3,-4,-4,0,0,2,-1,2,0.155
32,-3,-2,-2,-3,-2,-2,-4,-3,0.16
33,2,0,4,5,-1,-1,-3,3,0.165
34,0,-2,1,-1,0,0,-3,-3,0.17
35,-1,-1,0,0,-3,-1,0,0,0.17500000000000002
36,-1,-1,-2,0,-1,-1,-1,2,0.18
37,-2,-6,-2,-1,3,-1,1,-1,0.185
38,-1,0,1,0,1,0,2,0,0.19
39,0,-1,1,-2,0,-1,3,-2,0.195
40,1,1,4,-2,-2,0,2,-4,0.2
41,-8,1,0,-5,-3,1,0,0,0.20500000000000002
42,-1,-3,-4,-3,0,-4,-1,1,0.21
43,-3,-2,-7,-2,0,-2,-1,-3,0.215
44,-1,1,0,3,2,-1,-4,-1,0.22
45,1,-2,-2,-2,-1,0,-2,-2,0.225
46,3,3,2,0,-4,1,-4,-3,0.23
47,1,1,0,0,-1,0,-2,1,0.23500000000000001
48,3,0,-1,-1,0,1,-2,4,0.24
49,1,3,-3,5,-2,1,-2,2,0.245
50,-4,-5,-4,1,0,1,0,-2,0.25
51,1,0,3,-1,-2,-3,1,-2,0.255
52,-2,-1,1,7,1,-1,3,0,0.26
53,3,-1,-3,-5,2,-1,0,-2,0.265
54,-2,2,-3,1,0,1,-1,-2,0.27
55,-1,0,-2,-3,1,0,-3,-1,0.275
56,0,-1,1,-2,-1,2,1,-1,0.28
57,-8,0,3,-2,-3,-1,1,-4,0.28500000000000003
58,-1,0,1,0,0,-2,1,-1,0.29
59,-1,-4,-2,-1,0,-3,-2,0,0.295
60,-1,-1,-4,-2,-4,-1,1,-1,0.3
61,3,1,-2,-5,-4,-1,1,0,0.305
62,1,-2,0,1,0,-1,-1,1,0.31
63,-1,-2,-1,-2,-2,-2,0,-2,0.315
64,-3,-2,-3,-4,-4,-2,-3,-1,0.32
65,1,0,-5,-3,-1,-3,-3,1,0.325
66,2,3,-2,1,0,-2,-1,-4,0.33
67,3,-2,-2,1,-1,-1,0,4,0.335
68,-2,-4,-3,-3,0,-1,-1,-2,0.34
69,-2,-2,1,0,2,1,-3,0,0.34500000000000003
70,-2,-1,3,-2,1,0,-1,-2,0.35000000000000003
71,-2,1,-3,3,0,0,0,-1,0.355
72,-3,-3,2,0,-2,0,2,-2,0.36
73,4,1,-2,-1,-2,-1,1,-2,0.365
74,-10,-1,-3,0,-1,-4,-3,-3,0.37
75,3,1,0,-4,-1,-3,-1,3,0.375
76,-2,-3,-1,1,1,-2,1,2,0.38
77,1,0,1,1,0,-1,5,0,0.385
78,-1,0,-1,-1,-2,1,-3,1,0.39
79,-13,-1,1,1,0,0,-2,-2,0.395
80,23,0,-3,1,0,-4,-4,0,0.4
81,1,0,2,-2,-3,-2,1,0,0.405
82,1,-5,-3,-2,-1,-1,1,-4,0.41000000000000003
83,-4,-2,-1,0,1,1,-1,3,0.41500000000000004
84,-3,-1,0,-2,0,1,1,-3,0.42
85,-1,-2,1,4,0,2,0,-2,0.425
86,15,1,1,-2,-1,1,-1,3,0.43
87,-14,1,1,3,0,1,-1,-3,0.435
88,-8,-2,0,-3,-2,0,-2,-2,0.44
89,0,-3,-3,-3,-1,-2,1,-1,0.445
90,-1,-3,-1,-1,0,-2,0,-3,0.45
91,13,3,1,-1,2,-2,-1,-1,0.455
92,-17,1,-3,0,-2,0,0,0,0.46
93,-2,0,0,-3,-4,2,-2,-1,0.465
94,-3,-1,-3,-2,-2,-1,1,3,0.47000000000000003
95,3,-1,-2,-5,-2,-1,-2,-3,0.47500000000000003
96,3,-1,3,-1,1,-2,-2,-1,0.48
97,0,-3,-2,2,1,-2,-5,0,0.485
98,-3,-3,0,0,0,0,1,-2,0.49
99,2,-1,-4,-1,-3,0,0,-3,0.495
100,-3,3,-1,2,-1,-1,1,-1,0.5
101,0,1,-4,0,-2,-1,0,1,0.505
102,-2,0,-3,-2,-1,-1,1,3,0.51
103,-2,1,-2,0,0,-2,-2,-1,0.515
104,-1,-4,1,-2,-2,0,-3,0,0.52
105,-1,-4,-1,-3,-2,0,-2,-5,0.525
106,-3,-3,4,0,0,-1,-2,3,0.53
107,4,-2,1,-5,-2,0,-1,-3,0.535
108,-1,-2,-2,-4,-2,-2,0,-1,0.54
109,3,-1,-2,0,1,0,-1,-1,0.545
110,-4,3,-2,1,0,0,1,-2,0.55
111,0,-1,0,0,-1,0,0,-1,0.555
112,-2,0,-2,2,2,0,1,3,0.56
113,1,-3,-1,-3,-1,-3,0,-2,0.5650000000000001
114,-1,-1,-4,0,-1,-3,-3,-1,0.5700000000000001
115,7,0,0,3,2,-1,1,-1,0.5750000000000001
116,-2,2,-2,-3,-1,-1,0,-2,0.58
117,3,-3,-5,-3,1,-2,-2,0,0.585
118,-1,0,2,0,-2,-1,0,0,0.59
119,8,-2,-2,-4,-3,-1,0,-4,0.595
120,-18,1,0,1,-1,-1,-1,2,0.6
121,-4,2,0,0,1,1,-2,2,0.605
122,-2,-1,-4,-11,-1,0,0,-1,0.61
123,-1,-1,2,4,-1,1,-3,-3,0.615
124,7,0,-1,-3,-3,1,0,-2,0.62
125,-5,-2,-1,-2,-1,0,1,-4,0.625
126,1,-4,0,0,0,-1,0,1,0.63
127,-3,-4,-3,1,-2,0,0,0,0.635
128,1,-1,-1,-1,0,-2,-2,0,0.64
129,2,-1,0,3,1,-2,2,0,0.645
130,3,-3,-1,1,-2,0,-2,-2,0.65
131,-10,2,2,-2,0,-2,-4,2,0.655
132,14,0,-1,4,3,0,-2,-2,0.66
133,0,0,0,2,-1,-1,-1,1,0.665
134,-5,-1,2,-2,-2,-3,0,-1,0.67
135,-2,-1,0,-1,-1,-1,-2,-1,0.675
136,-1,-1,-2,-2,-3,-1,0,-4,0.68
137,-4,0,0,3,1,1,-1,-2,0.685
138,-1,-1,0,2,-1,2,-2,1,0.6900000000000001
139,-1,-2,-2,0,0,-1,-1,1,0.6950000000000001
140,-3,-2,-2,-2,0,0,-1,0,0.7000000000000001
141,11,-2,-2,-1,-3,1,0,-6,0.705
142,-1,0,0,-1,-2,1,-3,10,0.71
143,6,1,-3,-1,0,1,0,-3,0.715
144,3,1,-3,-6,-2,-1,1,-1,0.72
145,-26,-2,7,6,-1,0,2,1,0.725
146,-5,2,-1,-3,-1,-2,3,-2,0.73
147,8,1,-5,-3,-1,-1,-1,-2,0.735
148,2,-2,1,3,-1,-3,-4,2,0.74
149,-14,-3,3,-4,-5,-3,-2,-2,0.745
150,-7,-2,-5,-3,0,0,-2,-4,0.75
151,1,-4,-2,-5,-1,-3,0,-13,0.755
152,-1,-2,-9,0,0,-1,0,4,0.76
153,0,-3,-3,-6,1,-1,-1,-2,0.765
154,-14,-2,5,7,-3,-1,-1,3,0.77
155,12,4,-7,-3,-2,3,0,-2,0.775
156,-9,0,2,-2,-1,-1,-2,-3,0.78
157,17,8,0,-1,-1,-2,-1,6,0.785
158,5,4,6,4,1,-1,-1,-10,0.79
159,-59,0,5,2,0,0,0,5,0.795
160,7,-6,-7,-4,-2,1,0,-6,0.8
161,31,-2,-1,-4,1,-1,1,1,0.805
162,27,-4,-2,-8,-4,-2,1,-4,0.81
163,15,-1,2,2,-3,-1,-1,6,0.8150000000000001
164,-12,2,5,8,3,3,-2,-5,0.8200000000000001
165,-10,-2,-11,-15,-2,-2,-1,-5,0.8250000000000001
166,6,5,-3,1,2,1,0,1,0.8300000000000001
167,-1,-4,0,-2,1,-1,1,2,0.835
168,-3,1,0,5,-2,-1,0,2,0.84
169,0,-1,2,0,-1,1,-2,1,0.845
170,-8,-4,0,-2,0,-3,-4,-3,0.85
171,-7,-1,1,0,-2,-3,-3,-2,0.855
172,7,-2,1,0,1,-4,-2,-1,0.86
173,-3,2,4,4,2,0,-2,1,0.865
174,-6,0,-3,3,1,-2,2,1,0.87
175,4,0,-2,0,-1,-1,0,0,0.875
176,1,-2,2,-6,-2,-2,0,-1,0.88
177,-8,-4,-3,-10,-7,-3,-3,-1,0.885
178,-2,-1,2,0,0,1,-1,1,0.89
179,6,0,-3,-2,0,1,0,0,0.895
180,-1,1,1,-4,-4,-1,0,-1,0.9
181,-8,-2,-3,0,-2,-2,-1,0,0.905
182,5,-4,-6,-3,-1,-2,-2,-3,0.91
183,-2,-4,-3,4,-2,-1,-3,-3,0.915
184,-1,-3,-3,-7,-1,1,1,-1,0.92
185,1,2,1,-1,2,0,1,-2,0.925
186,-6,0,7,11,0,0,-2,-6,0.93
187,-3,1,-3,-3,-1,-1,-1,4,0.935
188,-4,0,0,2,0,0,-2,5,0.9400000000000001
189,19,0,-4,-1,0,0,-1,-6,0.9450000000000001
190,-4,0,-1,3,1,-2,-5,16,0.9500000000000001
191,20,0,1,-11,-3,-1,-2,-4,0.9550000000000001
192,-36,-3,-4,-4,-2,-1,0,-4,0.96
193,1,-1,0,-1,0,0,1,1,0.965
194,2,0,-1,-3,-2,-1,-1,-4,0.97
195,-3,0,0,1,-1,-4,1,1,0.975
196,4,1,-1,-3,-1,0,-1,4,0.98
197,1,-3,-1,4,-2,-1,0,-6,0.985
198,-2,-1,-4,-6,-3,0,1,-5,0.99
199,-6,-3,0,-4,2,1,-2,1,0.995
200,4,-4,2,0,0,-1,-1,-4,1.0
201,-9,1,2,0,0,-4,1,2,1.0050000000000001
202,3,0,-1,-3,-3,-2,0,1,1.01
203,-6,1,4,8,1,-2,-3,-2,1.0150000000000001
204,9,2,-10,0,3,2,-1,0,1.02
205,-7,2,13,6,0,2,-2,0,1.025
206,1,-4,-6,-5,-3,0,-1,3,1.03
207,-5,0,0,6,0,-1,1,-4,1.035
208,9,-1,5,5,-2,-1,-1,-1,1.04
209,-1,1,-7,-5,1,0,-1,3,1.045
210,-5,1,-1,-5,-1,0,-1,-5,1.05
211,4,-5,-7,-2,-2,0,-1,0,1.055
212,3,-5,-5,0,-1,-2,-1,-3,1.06
213,-8,1,1,-2,-3,0,0,0,1.065
214,8,-3,-1,-1,1,-1,0,5,1.07
215,1,0,-3,-3,-1,0,0,-1,1.075
216,4,0,0,1,1,0,0,-2,1.08
217,0,0,-2,5,-2,1,1,-2,1.085
218,-4,1,-2,-1,-1,-1,-2,-2,1.09
219,1,1,-3,-5,-4,-2,-3,0,1.095
220,8,2,1,-3,-4,-4,0,-1,1.1
221,1,0,1,1,0,0,0,0,1.105
222,-2,2,-3,0,3,-1,1,-4,1.11
223,0,0,4,2,4,1,1,-1,1.115
224,-6,-2,1,2,-1,-1,-4,-1,1.12
225,-2,-8,3,5,0,0,-3,1,1.125
226,3,0,0,-2,-1,-1,-1,-2,1.1300000000000001
227,-1,-1,-2,-3,-2,-2,2,1,1.135
228,0,-2,-4,2,-3,-1,-2,2,1.1400000000000001
229,5,-4,-4,-5,1,1,-1,-2,1.145
230,-1,-4,0,-4,-4,-3,-2,-1,1.1500000000000001
231,-1,-1,0,-1,-2,0,-1,-2,1.155
232,3,4,0,0,2,1,1,-1,1.16
233,-6,1,-7,1,-1,-1,-3,0,1.165
234,-3,-1,1,-3,0,2,0,-5,1.17
235,5,0,2,2,1,-4,-1,0,1.175
236,-3,-2,-1,-1,-1,-1,-1,2,1.18
237,8,-1,-2,-1,2,-2,-2,-1,1.185
238,-15,-5,-2,-3,-2,-2,-1,7,1.19
239,-6,-1,1,6,0,0,0,-3,1.195
240,1,1,-3,2,-2,-3,-2,-1,1.2
241,-5,0,-2,2,-2,-1,0,0,1.205
242,7,1,0,-5,0,0,-2,-1,1.21
243,-2,-5,-3,-4,-3,-1,-1,-2,1.215
244,-4,-1,0,-3,-1,-1,-1,-2,1.22
245,0,-1,4,2,-1,1,0,-5,1.225
246,-3,-1,0,2,-1,2,0,2,1.23
247,9,0,-1,-3,3,0,-2,2,1.235
248,0,0,-1,-6,-2,-1,1,-2,1.24
249,-6,1,-4,-3,0,-2,0,-2,1.245
250,2,2,-5,-3,-2,1,0,-4,1.25
251,-7,-1,5,12,1,-3,-3,0,1.2550000000000001
252,0,-3,-5,-11,-2,-1,0,1,1.26
253,-20,3,1,1,1,-4,0,-1,1.2650000000000001
254,32,0,1,8,0,-3,-1,-4,1.27
255,3,-2,-3,2,1,-1,1,2,1.2750000000000001
256,1,2,9,2,-1,-2,-4,-2,1.28
257,-7,-5,-8,-7,-2,-1,-1,-1,1.285
258,-12,-1,2,-2,1,0,-1,-3,1.29
259,-1,2,0,-2,-1,1,-2,-2,1.295
260,0,-5,-3,2,0,-3,-2,-9,1.3
261,10,3,-5,-4,0,0,-2,25,1.305
262,-16,0,-1,-1,0,-1,-1,-2,1.31
263,17,-4,-4,-4,-2,-2,0,-3,1.315
264,-11,-2,0,4,-3,-1,3,-3,1.32
265,7,-1,-2,0,-2,-1,-1,-7,1.325
266,-10,-2,-3,2,-4,-1,-3,-4,1.33
267,-13,-3,-4,-14,-2,-3,-3,1,1.335
268,-1,-2,1,6,3,2,-2,1,1.34
269,0,-4,1,4,0,-3,0,-4,1.345
270,3,0,-2,-2,-2,2,0,2,1.35
271,-5,1,0,-2,-2,-1,2,-3,1.355
272,5,-1,-5,-5,1,-2,-2,1,1.36
273,-7,-5,2,1,3,-1,3,-2,1.365
274,2,1,6,3,4,-1,-1,0,1.37
275,3,-3,-2,8,-1,0,-2,-1,1.375
276,-2,-2,-2,-7,-3,1,0,3,1.3800000000000001
277,1,6,1,3,-2,1,-1,0,1.385
278,1,0,0,-5,-2,-3,0,-3,1.3900000000000001
279,-1,1,2,-2,-2,-2,0,-3,1.395
280,3,-4,-2,4,-3,-1,-1,-4,1.4000000000000001
281,-10,1,-6,-5,-2,-2,-1,-3,1.405
282,7,0,-12,-5,-1,-2,-1,-1,1.41
283,3,3,1,-2,-1,1,0,-3,1.415
284,-6,0,3,5,3,-1,-3,1,1.42
285,-5,-4,7,-1,0,1,-2,-3,1.425
286,7,-6,-7,1,-1,0,-2,-3,1.43
287,-16,-1,-4,2,-2,-1,-1,1,1.435
288,-3,2,2,-2,0,0,2,1,1.44
289,-6,-1,5,8,0,-1,-3,-2,1.445
290,-5,1,0,-6,-1,0,-1,-3,1.45
291,7,-2,-4,-3,-2,-1,-2,3,1.455
292,2,-1,-1,-5,-3,-1,-1,-3,1.46
293,25,-2,-2,-5,-5,0,3,1,1.465
294,-17,-3,4,5,-1,2,0,-4,1.47
295,-11,2,0,-2,2,4,2,2,1.475
296,9,-2,-4,6,3,0,0,0,1.48
297,-2,-1,-6,-8,-2,-5,-3,-3,1.485
298,13,3,-1,-2,-2,-6,0,-6,1.49
299,-6,1,5,1,0,-1,-1,0,1.495
300,-3,-3,0,7,2,1,-3,-2,1.5
301,7,2,12,1,-1,-2,-2,0,1.5050000000000001
302,-2,-2,-4,2,-1,-2,2,0,1.51
303,-4,2,-2,-5,-1,-2,-2,0,1.5150000000000001
304,-2,0,-6,-11,-4,0,2,0,1.52
305,0,-4,-4,-3,-1,0,-2,-8,1.5250000000000001
306,-9,-1,1,1,0,0,-2,5,1.53
307,3,0,0,0,-2,0,0,0,1.5350000000000001
308,1,-3,0,-1,0,-1,-2,1,1.54
309,-7,1,-6,-2,-3,-1,-1,-2,1.545
310,-2,-2,-1,-3,-3,-1,0,0,1.55
311,7,0,-5,0,0,-2,-1,-4,1.555
312,1,7,-1,-8,-2,-3,-4,-3,1.56
313,-5,-1,-3,-5,-1,-2,-2,-5,1.565
314,4,-2,14,11,6,0,-1,6,1.57
315,-13,-6,0,-2,-1,-2,2,-1,1.575
316,11,0,-3,-4,-1,-2,0,1,1.58
317,-3,-3,-2,3,-2,0,-2,0,1.585
318,11,-2,-5,-3,-3,1,-1,-1,1.59
319,-5,0,6,1,-1,2,-2,-1,1.595
320,-4,-2,3,3,1,1,1,-1,1.6
321,-1,-1,-4,2,-1,0,-2,-1,1.605
322,-2,-2,-6,4,1,-1,-1,-2,1.61
323,8,-2,-3,-9,-2,-1,-1,-1,1.615
324,-22,-2,-6,-3,-4,-2,-1,1,1.62
325,8,7,8,7,2,-2,1,1,1.625
326,-8,-2,-3,-5,-2,-1,0,5,1.6300000000000001
327,2,-2,-5,-2,0,1,1,-1,1.635
328,6,-2,-7,0,-2,0,0,0,1.6400000000000001
329,-6,0,2,-1,-2,1,-2,-4,1.645
330,-5,0,3,1,-1,-2,-6,2,1.6500000000000001
331,3,-1,-5,-2,1,-1,-2,-2,1.655
332,-5,-4,2,-2,-3,0,-2,-1,1.6600000000000001
333,-7,-2,-3,-6,-1,1,1,-1,1.665
334,5,0,-1,-8,-1,-2,0,-5,1.67
335,-6,-2,1,6,0,-1,-1,0,1.675
336,14,1,-4,-4,1,-2,-1,-2,1.68
337,-1,-4,-4,0,-1,0,-2,-1,1.685
338,-4,2,-2,-5,-3,1,0,-5,1.69
339,1,-1,-3,4,0,-2,0,2,1.695
340,2,2,3,4,0,-1,0,-1,1.7
341,0,-6,-5,-1,0,0,0,2,1.705
342,-2,-1,-1,0,0,0,-3,0,1.71
343,12,0,2,-3,0,-3,-4,-2,1.715
344,-22,-4,2,-3,1,0,-1,-1,1.72
345,-3,2,-1,-2,0,-1,1,1,1.725
346,6,-5,-2,5,-1,-2,-1,2,1.73
347,-3,-3,0,2,-1,1,1,4,1.735
348,1,-1,3,1,-1,-1,0,-2,1.74
349,4,-3,-2,-1,2,0,1,-2,1.745
350,-7,-1,-1,-3,-2,0,4,-2,1.75
351,0,-3,-2,-5,-3,-3,-3,-4,1.7550000000000001
352,-1,1,-1,4,-1,0,-1,0,1.76
353,-5,-4,-2,-3,-3,-4,1,1,1.7650000000000001
354,2,-1,-4,-2,-2,1,-1,-3,1.77
355,-1,0,0,-5,-1,3,0,-2,1.7750000000000001
356,-10,-1,-4,-6,0,3,0,-2,1.78
357,23,1,2,5,0,0,-1,-1,1.7850000000000001
358,-16,0,6,3,-2,-3,-2,-3,1.79
359,1,2,3,3,1,-1,-4,0,1.795
360,-15,0,0,-2,-1,-3,0,-1,1.8
361,4,-2,-3,2,-4,-2,-3,2,1.805
362,-3,-3,-6,-3,-3,-1,-1,-2,1.81
363,-15,-3,-5,0,0,1,2,-1,1.815
364,20,1,5,-7,1,-1,-2,-1,1.82
365,-5,1,0,10,-2,-1,0,-4,1.825
366,-11,-1,-4,-5,0,-1,-1,5,1.83
367,-2,1,-6,2,3,0,-1,2,1.835
368,-4,0,5,6,1,-4,1,1,1.84
369,1,-2,-2,-8,-3,-1,0,-1,1.845
370,-5,-3,-2,-5,-3,0,-2,-3,1.85
371,2,-1,-4,-2,-3,0,0,-3,1.855
372,4,-1,-5,-8,-1,-2,-2,2,1.86
373,-1,2,1,-3,1,0,-3,0,1.865
374,-1,2,1,2,-1,0,1,-3,1.87
375,-6,-1,0,3,1,1,-1,0,1.875
376,10,1,1,0,-2,-1,-1,-1,1.8800000000000001
377,-17,-3,1,-3,0,-1,-1,0,1.885
378,3,5,0,-1,1,-1,-2,1,1.8900000000000001
379,-6,-2,2,0,-1,-5,-3,-3,1.895
380,14,-7,-6,3,-1,-3,-2,-1,1.9000000000000001
381,-2,-3,-2,0,0,-5,1,-2,1.905
382,7,-1,1,-1,0,-1,1,-2,1.9100000000000001
383,3,-4,-2,-5,-1,0,0,-1,1.915
384,-10,3,-4,0,0,2,2,1,1.92
385,-3,-1,0,-4,3,0,0,-1,1.925
386,5,-2,1,5,-1,-2,1,-5,1.93
387,-3,-1,3,2,-2,-2,-2,4,1.935
388,-5,0,-6,-3,-5,-2,-3,0,1.94
389,3,-3,0,-1,-1,1,-1,0,1.945
390,2,-2,-2,-3,-1,2,2,-3,1.95
391,12,3,-5,-4,-5,-1,0,-5,1.955
392,-21,2,2,-3,-3,0,0,1,1.96
393,-1,-2,-2,-6,-2,2,-3,1,1.965
394,-12,-2,-2,-6,-1,-4,-2,0,1.97
395,-2,1,-3,-3,-1,-2,-1,-2,1.975
396,6,2,2,2,-3,1,0,-5,1.98
397,-6,-1,-1,0,-1,2,1,0,1.985
398,-5,-4,2,3,5,2,1,1,1.99
399,9,-1,0,5,-1,-3,-2,-3,1.995
400,5,1,-3,-1,-1,-4,-1,-1,2.0
401,-4,-1,-3,0,-1,-1,-2,1,2.005
402,7,-1,-5,-5,-3,0,-1,1,2.0100000000000002
403,-2,4,1,-3,-1,0,-3,-6,2.015
404,2,-5,11,13,1,0,-3,4,2.02
405,4,2,0,1,2,-1,-2,-2,2.025
406,2,-3,-6,1,-3,0,0,1,2.0300000000000002
407,0,-1,0,-3,0,0,2,1,2.035
408,-4,-3,-1,-1,1,-1,3,-2,2.04
409,-1,1,1,0,0,0,1,-1,2.045
410,1,-1,0,-3,0,3,-2,-4,2.05
411,-2,0,-1,0,-2,3,0,-1,2.055
412,-10,-1,-3,-1,1,-1,-1,-3,2.06
413,8,0,-2,1,-2,-3,0,2,2.065
414,-11,-1,-4,-5,0,-4,-1,1,2.07
415,-12,-1,7,4,0,0,-3,2,2.075
416,14,-2,-8,-8,-2,0,-3,-2,2.08
417,7,-2,-8,-6,-3,1,0,-2,2.085
418,3,2,3,3,-1,-1,-1,1,2.09
419,0,1,-1,-1,-1,-4,2,0,2.095
420,-3,-4,4,5,0,0,0,4,2.1
421,-9,-3,0,-4,-5,-2,0,1,2.105
422,6,-2,0,-7,-3,-3,-1,-2,2.11
423,-2,1,-2,-5,1,-2,-2,-3,2.115
424,-6,3,-6,0,1,-1,1,-1,2.12
425,2,-2,4,4,-1,0,-3,-3,2.125
426,-5,-2,-4,1,-1,-1,0,-1,2.13
427,14,-1,-7,-3,-5,-1,-1,0,2.1350000000000002
428,-11,2,3,2,2,0,-1,-2,2.14
429,-2,-1,-3,1,1,1,1,0,2.145
430,4,-3,2,1,0,-1,2,-3,2.15
431,-4,-4,0,1,3,2,-1,0,2.1550000000000002
432,7,-4,1,-6,-3,-2,-1,-2,2.16
433,-3,3,-2,-5,0,-3,-2,-3,2.165
434,3,2,2,4,0,-2,-2,0,2.17
435,-3,-3,0,-7,-2,-1,-1,1,2.1750000000000003
436,-3,0,-1,1,-2,-1,-1,2,2.18
437,3,1,-1,5,1,-1,0,1,2.185
438,2,-3,-2,0,-3,1,-3,1,2.19
439,-19,-2,-6,-3,2,0,-3,-2,2.195
440,14,-1,1,-4,-1,-4,0,-7,2.2
441,-13,-6,-2,-7,-4,-4,1,6,2.205
442,4,0,-5,-1,-3,0,-7,-2,2.21
443,-4,0,1,5,-1,1,-4,0,2.215
444,1,0,-7,-2,2,1,-2,0,2.22
445,0,1,1,2,1,-2,1,-3,2.225
446,-1,1,0,-3,-1,0,3,-2,2.23
447,10,-3,2,-1,-3,-3,2,4,2.235
448,-13,-5,-5,-5,-6,-1,0,-3,2.24
449,0,-1,0,0,0,1,2,-1,2.245
450,-1,2,0,5,2,0,0,-2,2.25
451,3,-2,3,-4,0,0,0,-2,2.255
452,1,-5,-2,-2,2,0,1,0,2.2600000000000002
453,-6,-1,-2,-3,-1,-2,-3,-2,2.265
454,1,-1,2,-3,1,-2,-2,1,2.27
455,-2,0,-3,0,0,-3,-1,-2,2.275
456,2,5,1,0,1,-2,0,0,2.2800000000000002
457,1,1,6,-2,-1,2,-4,2,2.285
458,0,-2,-1,3,-2,-1,0,0,2.29
459,-4,-2,-1,0,-4,-1,1,0,2.295
460,3,-2,3,0,-4,0,-2,2,2.3000000000000003
461,21,0,-7,0,-1,0,-3,-2,2.305
462,-8,-4,-6,0,-1,-2,0,1,2.31
463,1,-1,-4,1,-2,0,-1,-1,2.315
464,-2,-2,-4,-2,-1,0,-1,-2,2.32
465,-6,-1,-1,-1,0,-2,-1,-5,2.325
466,-3,-2,-2,-8,-1,2,-1,0,2.33
467,2,-3,0,1,2,2,-1,-2,2.335
468,-1,0,1,-1,0,1,0,0,2.34
469,-7,1,-1,-2,0,-1,-1,-2,2.345
470,7,2,1,-1,0,0,-1,-1,2.35
471,-11,-2,0,1,-1,-2,1,-3,2.355
472,6,2,0,1,-3,0,1,-2,2.36
473,-12,0,0,2,1,1,-1,1,2.365
474,2,0,-1,-2,0,-3,-2,-3,2.37
475,4,-1,-2,-3,-3,-2,-2,-2,2.375
476,-3,-3,-1,3,1,-1,-1,-2,2.38
477,4,2,2,1,0,-3,0,-3,2.3850000000000002
478,3,-3,0,-4,-3,1,2,0,2.39
479,0,-2,0,-7,0,2,0,1,2.395
480,-1,1,0,-2,-1,-1,0,0,2.4
481,-1,-2,-4,-1,0,-1,-3,0,2.4050000000000002
482,-3,3,-1,2,1,-3,-4,-2,2.41
483,-1,0,-2,0,1,-2,-2,5,2.415
484,2,-7,-4,-2,-1,1,0,-6,2.42
485,4,-4,-3,-6,-4,0,-1,0,2.4250000000000003
486,-1,-2,1,1,-2,2,-2,-4,2.43
487,0,1,3,0,-1,1,1,-4,2.435
488,-5,1,2,0,0,-2,1,2,2.44
489,5,1,-2,-2,-2,-2,0,-2,2.445
490,-8,-1,-2,-2,-3,-3,-2,-1,2.45
491,3,2,-1,-3,-2,-2,-1,1,2.455
492,-4,1,3,4,-1,-3,-4,1,2.46
493,-6,-3,-1,4,0,0,0,0,2.465
494,13,0,-2,-3,0,0,1,-1,2.47
495,-4,-3,1,0,0,4,-1,-1,2.475
496,-1,-2,1,-1,0,-2,-1,1,2.48
497,-2,-2,-3,-2,0,-2,0,0,2.485
498,-3,3,0,5,-1,1,1,1,2.49
499,-4,-3,-3,-6,0,-1,-3,-3,2.495
500,1,-4,-4,0,-2,0,-2,-3,2.5
501,0,-1,2,-1,-3,-1,-1,-2,2.505
502,-3,-1,-2,3,-1,-3,1,2,2.5100000000000002
503,8,1,0,0,-2,-1,0,-4,2.515
504,-7,4,0,-4,-1,1,-2,-2,2.52
505,3,-2,-3,-3,2,1,1,1,2.525
506,-6,-2,0,-1,3,-1,-2,0,2.5300000000000002
507,6,1,-5,-1,-2,-2,-3,-2,2.535
508,-1,-2,1,-6,-3,-4,-3,1,2.54
509,-6,2,-1,0,-1,0,-2,-4,2.545
510,6,1,1,-2,-2,-1,0,0,2.5500000000000003
511,-4,-1,1,7,0,-2,0,0,2.555
512,-3,0,-4,-5,1,-1,-1,-2,2.56
513,1,2,0,-1,-1,2,1,0,2.565
514,-3,-1,0,0,-1,2,0,0,2.57
515,-4,1,-2,-2,-2,1,1,-1,2.575
516,-4,-1,-4,-1,-2,0,-1,-2,2.58
517,2,-1,2,0,-1,-1,-1,-1,2.585
518,-3,-1,0,1,1,-2,0,-3,2.59
519,2,-2,0,3,0,-3,0,3,2.595
520,5,0,1,0,0,0,1,-1,2.6
521,-1,2,-2,-2,-1,1,-1,0,2.605
522,-3,-4,-1,-5,-1,1,-2,-5,2.61
523,-4,-1,1,-6,0,1,-4,0,2.615
524,0,2,2,4,1,0,1,4,2.62
525,-20,-5,-3,2,-2,-3,-1,-3,2.625
526,17,-1,-1,1,-2,-1,-1,-1,2.63
527,-12,-5,-4,-2,-2,-3,1,-5,2.6350000000000002
528,0,-1,0,-3,0,0,-2,-1,2.64
529,2,3,0,-1,-3,-1,-1,1,2.645
530,-23,-1,-3,-1,0,-3,-1,1,2.65
531,6,-1,-1,-3,0,2,0,5,2.6550000000000002
532,-3,-2,-1,-1,-4,2,-1,-3,2.66
533,5,-3,0,-1,-1,0,3,-2,2.665
534,2,0,-1,-1,-1,-4,3,0,2.67
535,3,2,2,1,0,-3,-1,-2,2.6750000000000003
536,-4,-1,1,3,2,-1,-5,-2,2.68
537,4,0,-1,1,-3,0,-3,5,2.685
538,1,-4,0,3,1,0,-2,-1,2.69
539,-7,-2,-1,1,-1,0,-1,-1,2.695
540,5,0,1,3,1,1,3,0,2.7
541,1,0,0,-2,0,0,0,-3,2.705
542,-2,4,1,2,0,0,1,-3,2.71
543,3,-2,3,4,-2,-2,-1,0,2.715
544,-3,-5,-4,-1,0,-2,-3,2,2.72
545,1,-3,-2,0,0,0,0,-2,2.725
546,-4,-5,2,-4,-3,1,1,3,2.73
547,2,-2,-5,-2,-1,1,2,-1,2.735
548,-12,-1,-3,-2,-1,-1,0,-1,2.74
549,-2,-2,-4,-2,-3,-3,0,-1,2.745
550,4,0,2,-2,0,-3,-2,-3,2.75
551,-2,4,6,-3,1,-4,0,-2,2.755
552,-3,-1,3,-1,-1,-1,1,0,2.7600000000000002
553,-5,1,-2,0,0,0,-2,-7,2.765
554,17,-1,-5,-1,-1,-1,-3,4,2.77
555,4,-3,-5,-1,-4,-1,-4,6,2.775
556,-12,0,-3,-4,-3,1,-2,-1,2.7800000000000002
557,2,2,3,2,1,-1,0,0,2.785
558,-4,-2,-2,0,-1,2,1,0,2.79
559,-5,-3,-2,1,0,0,2,-5,2.795
560,12,-4,-2,-3,-2,-4,3,0,2.8000000000000003
561,-1,-3,0,-2,0,-3,0,-1,2.805
562,-5,-2,-2,-4,-2,0,0,-1,2.81
563,3,1,-2,-1,-1,-1,-1,-3,2.815
564,9,0,-2,2,-2,2,-2,-1,2.82
565,-7,-4,-2,-2,-3,-1,-3,-2,2.825
566,-3,0,1,0,0,1,-3,0,2.83
567,0,-3,-4,-3,1,-1,-3,0,2.835
568,4,4,0,-1,-2,-2,-1,1,2.84
569,-5,-3,0,-1,-3,-1,-1,-2,2.845
570,4,0,0,4,1,-1,-2,-6,2.85
571,3,-1,2,6,3,2,0,3,2.855
572,-1,0,1,4,-2,-3,-4,-4,2.86
573,4,2,0,-2,-2,-1,0,-1,2.865
574,-10,0,-1,1,-2,-1,-1,0,2.87
575,-4,2,1,-3,-2,0,1,-2,2.875
576,-1,-4,-1,-2,2,2,0,2,2.88
577,3,-3,-1,-3,-3,-1,-3,1,2.8850000000000002
578,1,-2,-2,-8,-3,-2,1,0,2.89
579,0,1,1,-1,-2,-2,-1,-4,2.895
580,-1,1,1,-4,-2,-1,-1,-2,2.9
581,-9,3,-2,1,2,-1,1,2,2.9050000000000002
582,14,-4,-3,-3,-2,-1,-1,0,2.91
583,-2,-4,-2,-3,-2,1,-2,-4,2.915
584,7,0,0,3,1,-2,0,-1,2.92
585,-10,-2,-2,2,1,0,-3,-4,2.9250000000000003
586,-7,-1,-5,0,0,-1,-1,0,2.93
587,-2,3,-4,0,-1,0,0,2,2.935
588,5,-2,-2,-2,0,1,4,0,2.94
589,1,-5,0,0,0,0,1,-5,2.945
590,1,-1,-1,-2,-2,-1,1,7,2.95
591,-2,-2,2,3,-1,-2,0,-1,2.955
592,-7,1,2,2,-1,1,0,1,2.96
593,3,1,1,1,-1,-1,-1,-1,2.965
594,-7,-2,-1,2,2,-2,-1,-2,2.97
595,0,-2,-3,0,-1,1,-1,1,2.975
596,-1,-1,-8,-1,-3,-1,-1,0,2.98
597,1,0,2,-2,-2,-3,-4,0,2.985
598,-1,2,0,0,-2,0,-3,-4,2.99
599,-2,-1,-1,-1,-1,-2,1,0,2.995
600,-1,-3,-1,-2,-1,2,1,-2,3.0
601,2,-3,-3,-1,0,0,1,0,3.005
602,-1,0,0,-2,1,0,-1,-1,3.0100000000000002
603,-1,0,-3,-3,-3,-2,-4,-2,3.015
604,-3,-2,-3,-4,-3,-3,-3,-1,3.02
605,2,-1,-1,0,0,-1,-3,-2,3.025
606,4,0,3,4,0,-2,0,-2,3.0300000000000002
607,-13,0,0,-2,-2,-1,0,1,3.035
608,0,-1,0,-4,-3,-1,-1,1,3.04
609,0,-3,-5,-3,-2,1,0,4,3.045
610,7,-1,0,-3,3,1,1,0,3.0500000000000003
611,-9,-3,-4,1,0,2,2,-2,3.055
612,-4,-5,1,3,-3,-3,-3,0,3.06
613,0,-1,-1,1,-4,-2,-3,-1,3.065
614,-3,1,0,0,-2,-1,-3,0,3.0700000000000003
615,-8,1,0,-2,1,-1,-1,0,3.075
616,5,-2,-2,-7,1,2,-1,-5,3.08
617,0,-1,-1,-1,2,0,0,-2,3.085
618,-4,-2,0,-6,-5,1,-1,-2,3.09
619,0,-4,0,-3,-3,-4,0,1,3.095
620,-3,2,1,-1,1,-2,1,-1,3.1
621,-2,-2,0,-1,-2,-4,-1,-1,3.105
622,-5,-2,-4,1,-2,-2,-1,-1,3.11
623,5,3,0,-2,-2,0,-6,-3,3.115
624,6,2,-4,1,1,0,-4,1,3.12
625,-4,0,-3,2,3,0,-1,-4,3.125
626,-4,1,-2,1,-2,-4,1,1,3.13
627,6,-2,1,0,2,-3,1,-3,3.1350000000000002
628,-2,-2,5,3,0,1,-1,1,3.14
629,0,-2,0,-3,1,1,1,-1,3.145
630,-1,-2,-2,0,-3,1,-1,-3,3.15
631,-2,-4,1,0,1,1,0,0,3.1550000000000002
632,-3,2,-2,0,-2,-2,1,-2,3.16
633,2,1,-3,6,-1,-2,1,3,3.165
634,-4,-1,1,-1,0,0,-2,0,3.17
635,3,2,-2,-3,-2,-1,0,2,3.1750000000000003
636,-5,-1,1,14,1,0,-2,-1,3.18
637,-2,-2,-5,1,-2,-1,-2,7,3.185
638,15,-1,-2,-4,2,-4,0,0,3.19
639,-5,-2,-1,-12,-1,-1,0,-3,3.1950000000000003
640,-3,-2,0,-12,0,-1,-1,-4,3.2
641,0,-2,4,-4,-2,0,0,-2,3.205
642,-7,-3,0,-1,-1,0,-1,-2,3.21
643,5,-1,-1,2,1,0,-1,-1,3.215
644,0,0,-3,-3,-2,-1,-4,-2,3.22
645,2,-1,0,-3,-3,-1,-2,-3,3.225
646,-7,-2,-5,1,-2,0,1,-4,3.23
647,2,1,3,4,1,-2,-2,-1,3.235
648,2,2,-1,3,-1,-1,0,3,3.24
649,0,0,-3,-4,-1,0,0,0,3.245
650,-2,0,2,-2,-2,0,-1,0,3.25
651,1,-3,-4,-3,-2,-1,-2,-1,3.255
652,-3,-2,-5,-2,-3,-3,1,0,3.2600000000000002
653,1,-4,1,-2,0,-2,-1,-1,3.265
654,-2,-5,1,-3,-1,1,-2,-2,3.27
655,2,0,0,2,-2,-1,-2,1,3.275
656,3,-1,-2,-1,-2,-2,-1,-1,3.2800000000000002
657,-12,2,-3,-1,0,-1,0,-2,3.285
658,0,1,-5,1,-1,-1,-1,-1,3.29
659,0,-1,1,0,-1,0,0,0,3.295
660,-4,0,-1,-1,0,1,-1,0,3.3000000000000003
661,0,1,-1,2,1,-1,0,-1,3.305
662,-4,2,-2,1,1,-2,0,0,3.31
663,1,1,5,4,3,0,1,-2,3.315
664,-4,-2,2,3,4,-1,2,-3,3.3200000000000003
665,3,-3,1,0,1,2,-2,-4,3.325
666,-3,1,-1,0,0,-1,-4,-2,3.33
667,10,-2,-1,0,-2,-1,-2,5,3.335
668,-14,-1,2,-2,-2,-1,-1,-2,3.34
669,1,1,0,-1,0,0,-1,1,3.345
670,2,-4,-2,-2,-3,0,-2,-3,3.35
671,-7,-1,-4,-5,-5,-1,-1,-4,3.355
672,4,0,3,2,3,0,0,-1,3.36
673,0,-2,-2,5,0,-2,3,-2,3.365
674,-3,1,-3,2,0,-1,1,1,3.37
675,2,0,-2,-5,0,-2,-3,0,3.375
676,1,0,-3,-9,-3,-1,-1,-2,3.38
677,2,1,2,-7,0,-1,0,-3,3.3850000000000002
678,-1,-2,2,0,0,-4,2,-1,3.39
679,-3,-1,0,-3,-2,0,0,-1,3.395
680,2,0,-1,-1,-1,1,-4,1,3.4
681,0,3,0,-1,-1,1,-2,3,3.4050000000000002
682,0,-3,-1,-1,-3,-1,-1,3,3.41
683,-3,3,0,-1,-3,1,1,-1,3.415
684,-3,-8,-6,0,-1,-3,2,0,3.42
685,1,-3,-6,-8,-5,-3,1,-4,3.4250000000000003
686,0,-3,0,-4,-1,0,-2,3,3.43
687,-1,-1,0,6,2,2,-3,0,3.435
688,0,0,-1,-4,0,-2,-3,0,3.44
689,2,-1,2,2,-1,-2,-3,0,3.4450000000000003
690,-5,-1,2,2,1,-1,-2,-6,3.45
691,0,-5,-3,1,-3,0,2,-4,3.455
692,-2,0,0,0,-1,-2,1,1,3.46
693,7,0,-2,1,2,-1,-1,1,3.465
694,0,2,-1,1,-2,-1,-3,-3,3.47
695,-1,0,-3,-2,-1,-2,-2,2,3.475
696,-3,-3,-1,-2,-3,0,-1,-2,3.48
697,-4,-1,-1,0,0,0,2,-1,3.485
698,0,0,-1,-1,1,-1,-1,0,3.49
699,1,4,-3,1,1,0,0,0,3.495
700,5,0,-3,-1,0,1,0,1,3.5
701,0,-1,2,0,0,2,-2,-1,3.505
702,-2,-3,2,0,-1,1,0,-3,3.5100000000000002
703,-3,1,2,3,1,0,2,-3,3.515
704,-1,3,1,0,0,-1,0,0,3.52
705,-1,-2,-5,-4,-2,0,0,0,3.525
706,-1,2,-1,-3,0,-1,2,-3,3.5300000000000002
707,9,0,0,1,1,-1,0,2,3.535
708,-30,-1,0,0,-1,-3,-1,2,3.54
709,9,0,-1,2,-2,0,-1,0,3.545
710,1,-2,1,-2,-1,0,-1,0,3.5500000000000003
711,-4,-2,1,-4,-1,-1,0,-2,3.555
712,-1,0,-3,-2,-1,2,-2,-2,3.56
713,10,0,0,0,0,-1,-3,0,3.565
714,-3,-2,-3,-2,-2,0,-2,2,3.5700000000000003
715,3,-4,-5,0,2,-2,0,-3,3.575
716,4,-4,2,2,-1,0,-1,-2,3.58
717,-8,0,5,1,-1,-1,-2,-3,3.585
718,3,1,3,0,-2,-3,-1,0,3.59
719,-5,-3,0,-3,-3,-4,-4,-1,3.595
720,3,-3,-2,-2,1,-1,-1,-1,3.6
721,-5,0,-1,-4,1,0,1,3,3.605
722,3,0,-4,-1,-2,0,2,0,3.61
723,-1,0,-3,-2,-3,0,0,0,3.615
724,2,1,-7,1,-1,0,-1,-4,3.62
725,3,-1,-2,-2,-1,1,-2,-4,3.625
726,-8,-5,-1,-3,1,0,1,-5,3.63
727,-1,0,-3,0,1,1,1,3,3.6350000000000002
728,5,-4,-3,-1,-1,-1,-2,-2,3.64
729,0,2,0,-2,-2,-3,-3,-1,3.645
730,-1,2,2,-1,0,-4,-2,-2,3.65
731,-7,4,4,-3,-2,-1,0,-5,3.6550000000000002
732,13,0,2,-1,-1,-2,0,1,3.66
733,-13,0,-2,2,0,-1,1,-2,3.665
734,-1,-3,-4,-3,0,0,-1,0,3.67
735,-1,0,-2,1,0,-1,-3,-1,3.6750000000000003
736,3,1,-2,0,-2,-2,-1,1,3.68
737,-1,-4,-1,0,-3,-1,1,1,3.685
738,0,0,1,-2,-1,1,-1,0,3.69
739,0,-4,-2,-2,-1,2,-4,1,3.6950000000000003
740,-3,2,0,1,-1,0,0,-3,3.7
741,-2,-1,-1,0,-2,-2,-1,2,3.705
742,-3,2,0,3,2,2,-2,2,3.71
743,-2,-4,-3,-4,-4,-2,0,-1,3.715
744,0,2,0,1,-1,-1,-1,-2,3.72
745,3,0,0,-3,2,0,-3,-1,3.725
746,3,-2,0,-1,1,-2,-1,-1,3.73
747,0,-3,-2,-4,-2,-4,-1,-2,3.735
748,-2,-3,0,-1,-2,-2,0,-4,3.74
749,2,0,1,2,0,-1,-1,-4,3.745
750,-2,-2,-2,1,-1,-2,0,-1,3.75
751,-3,1,-5,-1,-2,-3,-1,-1,3.755
752,1,-1,-3,-5,0,0,0,0,3.7600000000000002
753,-6,-1,-1,-3,0,-1,-2,-1,3.765
754,-2,-3,1,-2,-3,-4,2,0,3.77
755,0,3,4,2,0,-2,2,-1,3.775
756,-2,-1,-2,-1,-2,-1,0,3,3.7800000000000002
757,-2,4,0,0,1,1,-3,1,3.785
758,-1,0,-3,0,1,1,-1,0,3.79
759,3,-1,0,-2,-3,-1,1,-1,3.795
760,1,0,0,-2,-2,-3,0,0,3.8000000000000003
761,1,-6,-1,-2,-1,0,-1,-2,3.805
762,-1,-3,-2,-1,0,-2,-1,-3,3.81
763,-4,-2,-4,-3,-1,-2,-3,0,3.815
764,-5,0,-4,-4,-2,1,-3,-1,3.8200000000000003
765,-3,1,-1,-1,-2,-1,0,-2,3.825
766,0,2,0,1,-3,-2,0,1,3.83
767,0,-2,-2,-2,2,0,0,-1,3.835
768,8,1,3,1,0,-3,-2,5,3.84
769,-8,-4,0,3,-1,2,1,0,3.845
770,-3,-3,1,-1,-2,0,2,-2,3.85
771,0,3,4,4,-1,0,-1,-5,3.855
772,2,8,-1,1,1,1,-2,-2,3.86
773,1,0,-3,-2,1,1,0,-2,3.865
774,0,0,1,-2,-2,1,-3,-2,3.87
775,-2,-3,2,3,1,0,-1,-2,3.875
776,0,0,4,3,3,-1,0,-1,3.88
777,1,-2,-4,-4,-2,-3,0,0,3.8850000000000002
778,0,-1,-2,1,-1,-1,0,1,3.89
779,-1,0,-3,-1,-2,-2,-2,2,3.895
780,-5,-1,1,-9,-3,-1,0,-2,3.9
781,0,-1,1,-2,-3,-1,0,-1,3.9050000000000002
782,-1,-5,-3,0,-1,-1,-1,-1,3.91
783,-1,-7,-2,3,1,-2,-1,1,3.915
784,-3,-4,-1,2,0,0,0,-1,3.92
785,-2,-3,0,-1,0,0,-2,2,3.9250000000000003
786,1,4,-1,-2,-2,-1,0,2,3.93
787,-2,-3,-1,-3,1,0,0,0,3.935
788,1,1,-4,-4,-1,0,0,-3,3.94
789,0,1,-1,-3,-1,-3,2,-3,3.9450000000000003
790,2,1,1,1,-1,0,-3,-3,3.95
791,0,0,0,-1,-1,0,-3,0,3.955
792,3,-5,1,-2,0,0,0,3,3.96
793,-7,-2,0,2,0,-1,-3,-3,3.9650000000000003
794,-2,2,1,3,1,0,0,1,3.97
795,0,0,1,2,-1,0,2,-2,3.975
796,-2,-1,-2,-1,-3,-2,1,0,3.98
797,3,1,-3,-3,1,-2,-1,1,3.985
798,-3,-1,-4,-4,0,0,0,-3,3.99
799,0,9,-2,-3,0,-1,1,1,3.995
800,6,1,-2,2,0,0,-1,0,4.0
801,-34,-3,1,1,1,0,0,-1,4.005
802,15,1,4,4,1,2,-3,2,4.01
803,0,-2,5,3,1,1,-1,-4,4.015
804,-1,-4,-3,18,-2,0,-3,-3,4.0200000000000005
805,8,1,4,64,-1,-1,1,-2,4.025
806,-5,-2,-5,27,0,-3,-1,-3,4.03
807,-2,-2,0,8,-4,-1,1,-4,4.035
808,-4,-1,2,-37,-1,0,0,6,4.04
809,6,-1,0,-78,-1,-1,-2,2,4.045
810,-4,-4,-5,-43,-1,0,-2,-2,4.05
811,4,-1,-6,-31,0,-2,0,1,4.055
812,-15,-5,-4,4,-1,0,-3,-4,4.0600000000000005
813,6,2,-2,8,-5,-3,0,4,4.065
814,6,1,-1,7,-1,-1,0,5,4.07
815,-5,-1,0,4,-1,0,-1,-2,4.075
816,1,-4,0,10,1,1,0,-3,4.08
817,3,-1,-2,7,2,-1,-2,-1,4.085
818,-5,-3,-4,-6,0,-1,-2,-2,4.09
819,2,-1,-2,4,-1,0,1,0,4.095
820,-2,1,2,3,-3,-2,3,0,4.1
821,4,-1,1,-3,-2,-2,0,0,4.105
822,-4,-1,2,5,-1,-3,0,-1,4.11
823,-3,-3,-2,1,-1,-1,0,1,4.115
824,2,-1,3,2,1,1,-1,-1,4.12
825,-13,-2,0,-4,-2,1,-2,-1,4.125
826,17,5,-1,1,-1,0,0,-6,4.13
827,-2,-2,8,7,-1,-2,-1,4,4.135
828,0,-2,0,-3,0,-1,-2,-3,4.14
829,4,-3,-3,1,-2,-1,-2,0,4.1450000000000005
830,-11,-5,-3,-3,-1,0,-1,2,4.15
831,4,-1,-6,-7,-2,-2,-1,-2,4.155
832,2,2,-1,-1,-2,-2,-1,-4,4.16
833,-5,-2,-4,-4,-1,0,-1,4,4.165
834,-2,-2,-1,-2,3,2,-1,-1,4.17
835,-2,-1,-4,1,-3,-2,-3,-2,4.175
836,-3,-3,-2,1,-1,-2,-1,-1,4.18
837,7,2,1,3,0,-1,2,-4,4.1850000000000005
838,-5,1,2,2,-3,-1,-1,2,4.19
839,-3,-2,3,4,1,0,2,0,4.195
840,-1,-1,-2,-6,-4,-5,0,0,4.2
841,6,-9,-2,-2,-1,-1,-2,-3,4.205
842,0,1,0,-2,-1,-3,-2,-2,4.21
843,-1,2,-2,-2,3,2,-2,-3,4.215
844,0,1,-1,0,1,1,0,0,4.22
845,-1,-1,3,4,2,-1,1,0,4.225
846,-5,-4,1,1,-2,0,1,-1,4.23
847,0,-2,-4,-2,-1,-1,-1,-2,4.235
848,0,-2,0,-2,-3,0,0,-1,4.24
849,0,1,-3,-2,-1,-3,-1,1,4.245
850,-3,-2,-3,-3,-3,0,0,-4,4.25
851,1,1,-6,-1,0,-1,-1,4,4.255
852,-3,-1,-4,-1,0,-2,-1,-1,4.26
853,6,2,1,-1,0,1,1,-3,4.265
854,-12,-3,-1,-4,0,0,0,-3,4.2700000000000005
855,-3,1,-4,-3,-2,1,-2,-3,4.275
856,-5,-3,-2,-2,-2,1,-2,0,4.28
857,-3,-3,-1,-1,0,0,0,-8,4.285
858,2,2,2,-4,-1,0,0,1,4.29
859,5,0,3,-1,-3,-1,-3,2,4.295
860,18,-2,-1,2,0,-1,-3,0,4.3
861,-5,1,-4,-2,-2,-2,-3,6,4.305
862,0,0,1,4,0,1,-3,-1,4.3100000000000005
863,-3,-1,0,-2,-1,-1,-1,-1,4.315
864,-2,3,0,3,-1,1,1,-2,4.32
865,3,-3,0,2,-3,-1,2,-3,4.325
866,0,-4,-2,-2,-1,-2,2,-5,4.33
867,4,-1,2,0,-1,-2,1,4,4.335
868,0,0,0,-2,1,-1,0,-2,4.34
869,-2,-2,-2,-3,-1,0,-1,1,4.345
870,2,1,-3,-1,0,0,0,0,4.3500000000000005
871,-4,-2,-1,-3,-1,-3,1,-3,4.355
872,2,0,0,1,0,-1,0,-1,4.36
873,-7,-1,0,-2,-2,-2,-2,-2,4.365
874,-1,1,-3,3,-1,-2,-5,1,4.37
875,-1,3,-2,3,-3,-2,1,-2,4.375
876,-3,0,-4,-4,-3,-2,1,2,4.38
877,-2,1,2,2,0,1,-2,-1,4.385
878,2,0,0,-2,-3,1,3,1,4.39
879,-2,-1,2,-2,1,-3,-2,0,4.3950000000000005
880,-6,-1,-2,-4,-2,-2,0,-1,4.4
881,1,3,-5,-1,1,-2,1,-1,4.405
882,2,-1,0,-3,-1,1,-1,-1,4.41
883,-2,-3,-2,-1,-1,-1,-2,-3,4.415
884,-4,-7,-3,-5,-3,-1,-1,1,4.42
885,4,-4,3,4,0,1,-1,-1,4.425
886,-2,-1,0,2,0,-2,0,2,4.43
887,2,-1,-2,0,-1,-1,1,-2,4.4350000000000005
888,-3,2,0,1,0,-1,-3,-3,4.44
889,1,1,-4,0,-2,1,0,-2,4.445
890,0,-2,3,2,1,-2,-1,-3,4.45
891,-1,-1,1,-4,0,-2,2,1,4.455
892,-1,1,-2,-2,-1,-1,-1,0,4.46
893,5,2,-2,0,-3,-4,0,2,4.465
894,5,-2,1,1,0,0,0,-1,4.47
895,-1,-2,0,4,-1,1,-2,-3,4.4750000000000005
896,3,-2,0,4,0,1,2,6,4.48
897,-2,-1,1,-3,0,1,-2,-2,4.485
898,0,-1,0,-9,0,-1,-2,0,4.49
899,-4,-1,-2,-7,0,4,1,-3,4.495
900,5,-1,-1,-2,2,0,-1,-3,4.5
901,-21,1,-1,2,0,-1,2,2,4.505
902,-3,-3,0,4,1,-2,3,0,4.51
903,1,0,-2,2,-2,0,-1,1,4.515
904,-1,0,2,0,-2,-4,-3,-3,4.5200000000000005
905,1,-1,0,-5,-2,-2,0,-3,4.525
906,-2,-3,-2,0,1,0,-2,2,4.53
907,-4,0,-1,0,-1,-1,-2,-1,4.535
908,-3,-5,-1,2,0,0,-1,-6,4.54
909,5,-3,1,1,1,0,-3,3,4.545
910,-3,0,-4,-5,-3,1,-2,0,4.55
911,-1,-1,-2,4,0,-3,-2,-2,4.555
912,0,1,-2,-2,-1,1,1,1,4.5600000000000005
913,1,1,-1,-1,0,1,1,0,4.565
914,-3,-2,-1,2,-1,-2,1,0,4.57
915,3,-4,-1,-2,2,-4,-3,1,4.575
916,-4,-1,1,-2,-2,-1,-2,-4,4.58
917,-1,-3,-2,-5,-1,-3,0,-2,4.585
918,1,0,-4,-2,-4,-1,-2,-1,4.59
919,-2,-2,-2,-3,-4,-2,-3,0,4.595
920,-7,1,-1,-1,-2,0,0,-1,4.6000000000000005
921,5,-2,-2,0,-1,3,-2,-2,4.605
922,0,-3,2,1,-1,0,0,1,4.61
923,-2,-1,-1,-3,-1,0,1,0,4.615
924,1,-4,-3,-4,1,0,-2,0,4.62
925,-3,-2,-1,0,0,-3,-2,-2,4.625
926,3,4,-3,-1,1,-2,-1,0,4.63
927,-1,2,2,-2,-1,0,0,-3,4.635
928,2,-2,1,1,-1,-2,-1,-1,4.64
929,0,-1,-1,2,-2,2,0,-2,4.6450000000000005
930,6,-3,-3,0,0,-1,-1,-1,4.65
931,-10,1,-1,0,2,2,3,1,4.655
932,-4,-1,-2,1,0,0,0,-1,4.66
933,7,1,3,-1,3,-2,-1,-3,4.665
934,-5,-2,1,-2,-1,-1,-1,-2,4.67
935,2,0,0,1,1,2,0,2,4.675
936,-9,-2,0,-3,-3,-2,0,-3,4.68
937,0,-1,-2,-4,-3,-2,-2,-1,4.6850000000000005
938,5,3,1,2,-1,-1,-3,1,4.69
939,1,-1,2,2,-1,-4,-2,-3,4.695
940,-1,1,2,2,-1,0,-1,-1,4.7
941,-4,-3,-3,-1,-2,-1,1,1,4.705
942,-4,0,-3,2,-1,0,2,-1,4.71
943,0,-1,1,-1,1,0,0,-2,4.715
944,1,3,1,-3,1,1,-1,0,4.72
945,-3,1,0,-1,-1,-1,2,4,4.7250000000000005
946,-4,-3,4,-4,1,-1,-1,-4,4.73
947,2,-4,-4,1,-2,-1,0,3,4.735
948,5,-1,-2,-1,0,-2,-3,1,4.74
949,-1,3,-1,-1,0,0,-1,-2,4.745
950,-3,-4,-3,-1,0,0,0,-2,4.75
951,-1,-2,0,3,0,-1,-2,-1,4.755
952,-1,1,-2,1,0,-1,2,2,4.76
953,-4,-1,2,1,1,2,-1,-2,4.765
954,5,5,-1,1,-1,2,-1,2,4.7700000000000005
955,-2,-3,-1,0,-1,-1,-1,-1,4.775
956,-3,-5,-4,-7,-3,-3,-3,-2,4.78
957,5,-2,2,-1,2,-2,0,4,4.785
958,-3,-2,-1,1,-3,-1,-1,-2,4.79
959,-1,3,-5,2,-1,0,-1,0,4.795
960,1,2,1,1,-1,-1,0,0,4.8
961,-5,-8,-2,1,-2,-3,-2,-1,4.805
962,5,-2,-1,0,-1,-1,-3,1,4.8100000000000005
963,-29,-4,0,-2,-1,2,0,0,4.815
964,-2,-3,-1,-3,-1,1,2,-3,4.82
965,-3,2,1,-3,1,0,2,2,4.825
966,9,0,2,1,0,-4,0,3,4.83
967,2,1,-1,-3,-2,-2,-3,-1,4.835
968,1,6,-2,3,1,1,0,1,4.84
969,-9,-2,-6,0,-2,1,-1,-4,4.845
970,3,-1,2,3,-1,0,-1,-2,4.8500000000000005
971,7,1,1,-1,-2,0,-1,-2,4.855
972,-3,-2,-2,-3,-3,0,-3,-3,4.86
973,5,1,0,-5,-1,1,0,-3,4.865
974,-10,-1,-4,-9,-2,-1,-1,2,4.87
975,3,-4,-2,-2,0,-3,-2,1,4.875
976,3,-3,0,3,0,-4,-2,-1,4.88
977,-6,-2,-2,3,0,-4,-1,-2,4.885
978,2,0,-2,3,0,0,2,-2,4.89
979,3,-1,-1,-3,-2,-1,-2,4,4.8950000000000005
980,-2,-3,1,4,1,0,-3,0,4.9
981,-1,-2,0,-5,-2,1,-3,-3,4.905
982,-8,-1,1,-5,0,1,0,-2,4.91
983,5,5,-2,-7,-1,-3,0,3,4.915
984,14,-2,-5,1,0,1,2,0,4.92
985,0,0,-1,0,-3,-2,0,-1,4.925
986,-2,-1,-2,0,-2,-2,-3,-2,4.93
987,0,0,2,1,1,1,0,-4,4.9350000000000005
988,8,1,2,-2,-1,-2,1,1,4.94
989,-14,1,3,1,1,0,-1,2,4.945
990,0,-2,-1,1,0,0,0,0,4.95
991,-2,1,1,-1,-1,-2,-1,-4,4.955
992,-4,-3,-5,-2,-2,-1,-4,1,4.96
993,4,-2,-5,-7,-3,0,-3,-3,4.965
994,-3,-1,-1,-5,-2,0,0,-1,4.97
995,-1,0,0,1,-1,1,4,-1,4.9750000000000005
996,-4,3,5,3,2,0,0,-1,4.98
997,6,-1,-1,1,0,1,2,-1,4.985
998,-5,-1,-1,-4,-3,1,-1,-1,4.99
999,4,-2,-3,-3,1,0,0,-2,4.995
1000,-4,-2,-4,-4,-1,-1,-1,-1,5.0
1001,1,0,0,3,0,-2,-2,0,5.005
1002,-2,-1,-5,1,-1,-5,1,0,5.01
1003,-3,-2,-1,-1,0,0,-1,-3,5.015
1004,-4,1,2,0,0,1,-1,-1,5.0200000000000005
1005,1,0,4,-2,0,0,-3,0,5.025
1006,-3,1,-1,-4,1,0,-3,0,5.03
1007,4,3,-4,-2,-4,-2,-6,7,5.035
1008,-4,-1,1,-1,-1,0,0,1,5.04
1009,-1,0,-1,3,-1,0,0,-2,5.045
1010,-1,-1,-1,3,-1,-2,2,-2,5.05
1011,-5,-3,0,4,0,0,-1,-4,5.055
1012,-4,-2,-2,-5,1,0,0,-3,5.0600000000000005
1013,2,-1,-2,1,-3,0,-1,-2,5.065
1014,-2,-1,0,1,1,0,-2,4,5.07
1015,3,1,-2,-1,-1,1,-3,-4,5.075
1016,-3,-2,-2,-2,-3,-2,0,-1,5.08
1017,0,-3,-1,-3,2,-4,2,-2,5.085
1018,3,-1,-1,-1,0,-3,-1,-4,5.09
1019,-5,-1,1,0,-2,2,2,0,5.095
1020,-1,-1,-2,-3,-3,0,-3,-2,5.1000000000000005
1021,-2,-1,-2,3,-2,0,-2,-1,5.105
1022,4,-3,0,-1,-2,1,-3,-1,5.11
1023,5,-2,3,1,2,0,-2,-1,5.115
1024,-2,-2,-3,1,1,1,0,0,5.12
1025,3,1,-3,-4,-2,-4,0,1,5.125
1026,-7,2,-1,0,-1,-2,0,-4,5.13
1027,-2,-1,-1,3,-2,-2,0,5,5.135
1028,1,0,3,3,0,-1,2,5,5.14
1029,-7,-2,1,-4,-1,-4,2,-1,5.1450000000000005
1030,10,3,0,-3,-3,0,2,-2,5.15
1031,-5,2,-1,-1,-2,0,0,-7,5.155
1032,-3,-2,-1,0,-2,-1,-3,-2,5.16
1033,4,-2,-2,1,-1,1,-5,0,5.165
1034,-6,-2,-4,1,-2,1,-5,-3,5.17
1035,1,1,-2,1,0,-1,-2,0,5.175
1036,4,4,1,1,0,-1,1,-1,5.18
1037,-2,-1,1,-1,-1,0,1,0,5.1850000000000005
1038,-1,-2,2,0,0,1,2,0,5.19
1039,2,-1,-2,0,1,0,2,-1,5.195
1040,-2,-1,-3,-3,0,-2,-1,-3,5.2
1041,-1,-2,-3,0,-2,-3,-3,-1,5.205
1042,-1,-3,-1,-5,1,1,0,0,5.21
1043,1,0,1,-3,-2,-4,-1,-3,5.215
1044,-8,2,3,2,-2,0,-1,-3,5.22
1045,10,-4,-1,1,1,2,-2,-3,5.2250000000000005
1046,-4,-1,0,-3,-2,0,-3,-4,5.23
1047,1,-3,-3,-2,0,0,-2,1,5.235
1048,-2,-2,-1,1,-2,1,-3,1,5.24
1049,0,-1,-1,0,0,1,-1,1,5.245
1050,1,0,-1,1,-1,-2,1,3,5.25
1051,-6,1,1,-2,-1,-2,1,-2,5.255
1052,12,0,0,0,-1,-1,2,1,5.26
1053,-2,0,-2,-8,-1,-3,0,-2,5.265
1054,-4,-2,-2,-4,2,-1,0,-1,5.2700000000000005
1055,-2,-3,1,-2,-2,1,0,0,5.275
1056,-5,-2,-1,-1,0,-2,-1,-1,5.28
1057,-5,-3,-1,5,1,0,-2,-2,5.285
1058,3,1,2,4,-2,-1,0,0,5.29
1059,3,-3,-1,-2,-1,-1,-1,-1,5.295
1060,-11,1,-1,-2,-5,0,-1,-1,5.3
1061,1,2,0,-4,0,2,-2,3,5.305
1062,2,2,-1,-2,-1,-3,1,1,5.3100000000000005
1063,-2,-5,-4,1,0,0,0,-2,5.315
1064,4,-2,1,6,3,-4,1,-10,5.32
1065,-12,-2,-3,-3,-4,-3,0,7,5.325
1066,11,0,1,4,0,-1,-2,-1,5.33
1067,1,0,-1,-5,-1,-2,-2,-3,5.335
1068,-7,-2,-2,-5,4,1,1,-2,5.34
1069,2,-4,-1,-4,-1,0,1,-2,5.345
1070,-6,-2,1,2,0,-2,0,-2,5.3500000000000005
1071,0,-1,-1,-1,1,-2,0,-2,5.355
1072,11,-3,-3,-1,-2,-1,-5,2,5.36
1073,0,2,2,4,-3,1,2,-3,5.365
1074,-3,-1,-3,-3,-5,0,0,-1,5.37
1075,6,1,-1,2,0,1,-1,-1,5.375
1076,-15,-4,-3,-1,-2,-1,-1,1,5.38
1077,4,4,-4,-6,1,-2,-2,-2,5.385
1078,1,-4,-1,0,0,-1,1,-2,5.39
1079,-3,-1,-5,-2,-3,-1,4,1,5.3950000000000005
1080,1,-6,0,-1,1,-1,1,2,5.4
1081,2,-2,2,-3,1,1,-1,0,5.405
1082,-4,-1,2,-3,0,0,-4,-2,5.41
1083,0,0,0,-1,0,0,-1,-4,5.415
1084,4,1,0,-3,-3,-1,-2,0,5.42
1085,-2,0,2,5,-2,-3,-2,-7,5.425
1086,-2,0,-3,2,-1,-4,1,5,5.43
1087,-5,-3,-4,-3,0,-4,-2,-3,5.4350000000000005
1088,6,1,1,-2,-2,1,-1,2,5.44
1089,-5,-1,1,4,0,2,-1,0,5.445
1090,14,1,1,2,2,1,-1,0,5.45
1091,-2,-4,-5,-4,-4,2,-1,0,5.455
1092,-6,1,-1,0,-2,-2,1,-4,5.46
1093,4,-2,-5,-3,-1,-4,-1,7,5.465
1094,-25,-4,-2,-2,0,0,0,1,5.47
1095,4,0,2,3,-1,-2,0,0,5.4750000000000005
1096,-3,-1,-1,1,-2,-3,0,-3,5.48
1097,-3,-1,-2,2,0,-2,0,-2,5.485
1098,3,0,0,0,0,-1,0,0,5.49
1099,-1,-1,-1,-1,0,0,-1,1,5.495
1100,-4,-1,-1,-2,0,-1,-2,-1,5.5
1101,2,0,2,0,0,0,0,-3,5.505
1102,-4,-2,-4,-6,-3,0,0,-1,5.51
1103,-1,3,1,1,-2,1,1,2,5.515
1104,5,-1,-3,-2,-1,1,1,1,5.5200000000000005
1105,-2,0,-3,-1,-2,0,-1,0,5.525
1106,1,1,-2,-2,-3,0,-4,-2,5.53
1107,-2,-2,2,-3,-2,-1,-4,-1,5.535
1108,-1,0,0,-2,-2,-2,-1,-5,5.54
1109,2,-5,4,-3,-1,-2,0,1,5.545
1110,-2,-3,-2,-1,-2,-3,-2,0,5.55
1111,-1,1,2,-3,-2,-2,1,-2,5.555
1112,0,1,-1,2,4,0,1,3,5.5600000000000005
1113,-5,-4,-2,-1,-1,0,-2,-7,5.565
1114,1,2,1,0,2,0,-1,-1,5.57
1115,-2,1,-2,2,2,-1,-1,1,5.575
1116,-7,-3,-4,-2,-3,0,-1,0,5.58
1117,21,4,1,4,1,-4,2,0,5.585
1118,-5,1,-1,-1,0,1,-1,-4,5.59
1119,-1,-4,-2,-2,0,1,-1,-5,5.595
1120,7,-3,-1,-6,-4,0,-2,6,5.6000000000000005
1121,-8,-1,1,-2,-2,-1,-3,1,5.605
1122,-1,2,2,-3,-1,-1,-3,-3,5.61
1123,2,4,-1,-2,-1,-3,0,2,5.615
1124,2,0,-2,-3,2,-4,-1,-3,5.62
1125,-1,-1,-3,-4,-1,-1,-2,1,5.625
1126,-1,-1,0,4,0,-2,1,1,5.63
1127,-5,-2,-2,2,0,0,-2,-2,5.635
1128,0,1,-3,-3,-2,-2,1,-4,5.64
1129,-2,-2,-2,1,0,-1,3,1,5.6450000000000005
1130,0,-5,3,-1,1,-2,1,-4,5.65
1131,-1,-1,1,1,0,-1,-1,-1,5.655
1132,-3,-2,-3,1,1,0,1,-3,5.66
1133,-1,0,-1,3,0,-2,-2,-2,5.665
1134,1,-2,-1,-3,-2,2,-3,3,5.67
1135,-3,-3,-2,-3,-3,1,-1,1,5.675
1136,1,-1,1,-1,-2,-2,-2,0,5.68
1137,-4,1,-2,0,-4,0,0,-4,5.6850000000000005
1138,2,0,0,0,-2,-3,0,-3,5.69
1139,1,0,1,2,-1,-2,-3,0,5.695
1140,-1,-2,1,5,1,0,1,-1,5.7
1141,-2,0,-4,-6,-2,-1,-4,-1,5.705
1142,-1,2,-2,0,2,0,-1,-1,5.71
1143,18,-1,2,2,3,-1,-1,-1,5.715
1144,-14,-1,0,-3,-1,0,0,5,5.72
1145,0,0,-1,-2,-1,-1,2,-5,5.7250000000000005
1146,6,-3,-8,-6,-2,0,1,4,5.73
1147,0,3,5,0,1,-2,-2,-1,5.735
1148,5,1,1,5,0,1,-2,-4,5.74
1149,-1,-5,-1,0,-1,0,-2,3,5.745
1150,-4,0,1,0,-2,-3,-3,-2,5.75
1151,-4,0,-2,-2,-1,0,-1,0,5.755
1152,0,-1,2,5,-2,0,-1,-1,5.76
1153,-4,-2,0,2,1,0,1,-4,5.765
1154,-6,0,-2,-1,0,-1,3,0,5.7700000000000005
1155,-5,-3,-3,-1,-3,-1,0,1,5.775
1156,0,1,4,-1,-1,-2,0,-3,5.78
1157,0,1,-5,-2,-3,-1,-1,1,5.785
1158,1,-1,-3,-5,-3,-2,-3,-1,5.79
1159,1,1,-5,-3,-3,-3,0,-1,5.795
1160,-2,-1,-7,-6,1,0,-3,1,5.8
1161,-1,-2,2,-1,0,-1,1,0,5.805
1162,-2,-4,3,2,-1,0,1,-2,5.8100000000000005
1163,-8,-8,-2,-5,-2,-3,-1,0,5.815
1164,7,0,-2,-5,-1,-4,-2,0,5.82
1165,-2,4,1,0,1,-2,-1,-2,5.825
1166,0,4,3,5,0,1,-2,3,5.83
1167,-6,-4,-6,-2,0,0,-1,-2,5.835
1168,-5,-3,0,-1,-3,0,-3,-1,5.84
1169,14,-2,0,-1,-1,1,-3,-1,5.845
1170,-5,-5,-2,-3,-3,-2,-1,-3,5.8500000000000005
1171,2,-1,1,6,-2,-1,3,1,5.855
1172,-1,-1,-3,6,2,0,3,-2,5.86
1173,-7,2,0,-3,1,-4,0,3,5.865
1174,3,-1,-3,0,0,-2,-1,-4,5.87
1175,-1,-3,-2,-3,1,-2,-2,-2,5.875
1176,1,-3,-1,-3,-5,0,-2,5,5.88
1177,-1,-3,-1,2,-2,3,-2,-1,5.885
1178,-1,0,-3,-1,-3,0,0,-1,5.89
1179,3,4,7,-1,-2,-1,0,-3,5.8950000000000005
1180,-3,1,1,-1,1,1,2,-1,5.9
1181,-1,2,0,-5,-1,-3,-2,-2,5.905
1182,2,-3,2,0,-1,-2,-1,1,5.91
1183,-5,-2,-1,0,0,0,-1,-2,5.915
1184,3,1,0,2,-1,-2,1,-3,5.92
1185,-3,-4,0,-2,-1,-2,1,1,5.925
1186,0,1,-4,-4,-3,-2,-2,1,5.93
1187,-1,2,1,-1,-1,1,2,2,5.9350000000000005
1188,-6,1,3,-2,0,0,-4,-1,5.94
1189,9,0,-2,0,0,1,-1,0,5.945
1190,0,-1,1,1,-1,-1,0,-2,5.95
1191,4,-2,-4,-2,0,1,-1,-2,5.955
1192,-1,-2,-2,-1,0,0,-3,-2,5.96
1193,-6,-4,1,2,-3,-1,0,-2,5.965
1194,-3,1,-1,-4,-2,-1,1,-1,5.97
1195,12,0,1,-1,-2,1,-1,1,5.9750000000000005
1196,15,-2,-4,-2,-2,-1,-3,-3,5.98
1197,-9,1,1,0,-1,-1,-3,4,5.985
1198,-2,-3,0,3,0,-2,0,-1,5.99
1199,-10,0,-4,-2,0,0,-2,-4,5.995
1200,2,1,-1,-3,1,-1,-1,-3,6.0
1201,-1,-4,-2,-5,1,-2,-1,-4,6.005
1202,1,1,-3,5,-2,-2,-1,1,6.01
1203,-6,-2,-1,3,-3,-4,-1,0,6.015000000000001
1204,-1,-2,-2,2,-1,0,3,1,6.0200000000000005
1205,0,0,-3,2,0,-2,1,-3,6.025
1206,-3,-2,1,-1,0,-2,-1,-4,6.03
1207,-6,-2,-4,-2,-1,0,-2,5,6.035
1208,7,0,0,-2,1,-2,-1,-1,6.04
1209,-3,0,0,-6,0,2,1,-2,6.045
1210,3,-3,5,0,-1,2,0,0,6.05
1211,0,1,1,-1,0,-2,1,-4,6.055
1212,-4,-3,0,-4,-3,-5,1,0,6.0600000000000005
1213,1,-2,-5,0,-2,-2,1,3,6.065
1214,-13,-5,-3,-2,-1,-1,-4,-2,6.07
1215,4,1,-1,1,1,1,-1,2,6.075
1216,-11,-4,-1,-4,-5,0,-1,-1,6.08
1217,7,8,2,5,2,-1,-2,-1,6.085
1218,11,3,2,-1,3,3,-2,1,6.09
1219,5,-2,-5,-2,-3,-1,-3,-1,6.095
1220,-3,-4,-1,3,0,1,-2,0,6.1000000000000005
1221,-2,0,-2,-1,0,1,-1,-2,6.105
1222,0,-1,-2,-4,0,-2,-1,-1,6.11
1223,-2,3,-2,-3,2,-1,2,-1,6.115
1224,2,3,-3,-2,-2,1,1,-4,6.12
1225,2,-3,-2,1,-3,-1,3,1,6.125
1226,-2,0,-2,-2,-4,1,2,-1,6.13
1227,-2,-2,3,1,2,-1,1,-2,6.135
1228,-1,-1,1,2,-1,0,-3,-1,6.140000000000001
1229,-14,-6,3,2,-1,-2,0,-6,6.1450000000000005
1230,0,1,-4,-3,-2,-1,-1,2,6.15
1231,-1,-2,1,3,0,2,-1,-2,6.155
1232,-1,-2,-1,0,-2,-1,-1,0,6.16
1233,-2,0,1,-1,-2,0,-3,-4,6.165
1234,3,5,-3,-2,0,-2,-1,6,6.17
1235,-5,-1,-1,-1,0,-2,-2,-2,6.175
1236,-1,0,2,-1,0,-2,2,-3,6.18
1237,-1,-2,0,-1,1,-2,-2,0,6.1850000000000005
1238,-2,-5,-4,-1,0,-2,-2,-4,6.19
1239,-7,-3,-1,1,-3,-1,0,-2,6.195
1240,-5,-4,-2,-4,-1,0,-1,-1,6.2
1241,0,1,-1,-2,-1,-1,-2,-1,6.205
1242,-2,1,1,2,0,1,0,0,6.21
1243,-1,2,-3,-1,-3,0,-1,2,6.215
1244,0,2,-3,2,-1,-1,0,-2,6.22
1245,-2,-3,-2,-6,-2,1,-1,-1,6.2250000000000005
1246,9,-1,-2,-1,0,-2,-2,-7,6.23
1247,-24,-4,-1,-1,0,-3,-2,1,6.235
1248,6,0,-1,0,-2,-2,0,1,6.24
1249,0,-3,-1,2,0,0,-1,3,6.245
1250,-2,2,1,-1,-1,-1,1,0,6.25
1251,7,2,-1,3,1,-1,-1,-2,6.255
1252,-3,1,3,-5,1,2,-1,-1,6.26
1253,-6,-1,4,2,1,-1,0,-4,6.265000000000001
1254,2,-5,-1,1,0,2,1,-1,6.2700000000000005
1255,-6,0,0,0,-3,-3,1,0,6.275
1256,11,-1,-4,-2,-2,0,2,1,6.28
1257,3,-4,-9,-2,0,-1,1,0,6.285
1258,-4,-3,-4,1,-4,-1,1,0,6.29
1259,0,-3,-1,-3,-3,1,0,-1,6.295
1260,-14,0,-3,-1,1,1,-2,2,6.3
1261,3,2,2,0,-2,1,-3,-4,6.305
1262,-4,-4,0,-4,1,-1,-1,3,6.3100000000000005
1263,3,-2,-3,-1,-1,-2,-3,-4,6.315
1264,-5,0,0,-1,-1,-1,-4,-2,6.32
1265,4,-1,0,-1,-1,-4,1,-2,6.325
1266,-7,0,1,-1,1,-2,-1,-2,6.33
1267,6,1,-1,1,0,0,-1,1,6.335
1268,-1,-2,0,2,3,-1,-1,-3,6.34
1269,1,0,-6,-4,0,-2,0,3,6.345
1270,1,0,3,4,0,1,-2,-1,6.3500000000000005
1271,-1,-4,-3,-8,-2,-1,0,0,6.355
1272,8,-4,-2,1,-1,1,-1,-2,6.36
1273,-27,2,2,4,1,1,-1,2,6.365
1274,5,-2,-5,-2,-1,0,0,-1,6.37
1275,2,0,4,2,-1,0,-2,0,6.375
1276,1,2,2,4,-1,-1,-1,4,6.38
1277,2,-9,-4,-1,-4,-2,-1,1,6.385
1278,0,-2,-3,0,-1,2,-1,-4,6.390000000000001
1279,0,2,1,1,0,0,0,-3,6.3950000000000005
1280,-7,-5,1,-2,-2,-1,2,-1,6.4
1281,1,1,1,-5,1,-1,-2,0,6.405
1282,-6,0,-3,0,-2,-2,-1,0,6.41
1283,5,-1,-1,-2,1,-1,2,-1,6.415
1284,-3,-2,-1,-7,-1,-3,-2,-2,6.42
1285,2,-3,-3,-2,-2,-1,1,1,6.425
1286,-3,-1,-3,-1,0,1,-2,-3,6.43
1287,3,-1,1,-3,-1,0,1,2,6.4350000000000005
1288,-4,-1,1,-5,-3,-1,-1,-1,6.44
1289,3,-1,0,-1,-1,0,-3,-4,6.445
1290,-5,-3,-1,-2,-2,-2,-2,-3,6.45
1291,-1,-2,-1,1,0,-3,0,-1,6.455
1292,-11,-1,0,4,-1,0,0,0,6.46
1293,17,0,2,0,1,0,0,-3,6.465
1294,0,-1,1,1,0,1,-1,1,6.47
1295,-5,-3,-5,2,-2,-2,-2,0,6.4750000000000005
1296,-2,1,3,3,0,-1,-3,-1,6.48
1297,-18,0,4,4,-1,-2,-1,2,6.485
1298,0,0,0,-3,-3,-3,0,2,6.49
1299,2,0,-3,-4,-2,-1,-1,-1,6.495
1300,-2,0,-4,-6,-3,-2,-3,-1,6.5
1301,1,-1,-3,-1,0,1,0,-1,6.505
1302,2,0,0,0,1,-1,-1,1,6.51
1303,-7,0,-3,-3,-1,-1,-3,-2,6.515000000000001
1304,4,-4,-4,-1,-1,0,2,-3,6.5200000000000005
1305,2,-5,-2,-3,0,0,-2,0,6.525
1306,0,-4,-3,-2,-1,0,1,-3,6.53
1307,8,2,0,-5,0,0,0,-4,6.535
1308,-6,1,1,-1,-1,-1,-2,2,6.54
1309,3,2,1,-3,0,1,0,-1,6.545
1310,-5,0,-1,-1,-2,-3,-1,0,6.55
1311,1,-3,0,2,0,-1,-1,0,6.555
1312,2,-3,-4,1,-1,-2,0,-2,6.5600000000000005
1313,1,3,-7,-2,-5,-1,-1,-4,6.565
1314,0,-2,-1,3,0,-1,0,6,6.57
1315,-14,-1,0,4,0,0,-3,-1,6.575
1316,18,0,1,2,1,1,-1,1,6.58
1317,-1,0,-3,-2,-3,-1,1,0,6.585
1318,1,3,3,-3,-3,2,2,0,6.59
1319,1,-3,2,-1,-1,-1,-1,2,6.595
1320,-6,-3,-2,3,2,-2,-3,-2,6.6000000000000005
1321,1,0,-4,-2,0,-2,-1,-2,6.605
1322,-2,0,0,-2,-2,0,1,-4,6.61
1323,1,1,3,3,1,-1,-1,0,6.615
1324,-2,1,-2,1,2,0,1,-2,6.62
1325,1,-2,-2,-2,-3,0,-3,1,6.625
1326,-4,-3,-3,-5,-1,-2,-3,0,6.63
1327,1,-3,1,-4,-2,0,-1,1,6.635
1328,1,1,1,1,0,-1,2,0,6.640000000000001
1329,-2,2,-3,1,-1,-4,0,0,6.6450000000000005
1330,-12,-2,-2,2,-1,-1,1,-5,6.65
1331,0,1,-1,4,2,0,2,4,6.655
1332,-1,-2,2,-2,-2,-1,-1,0,6.66
1333,-1,-4,4,4,2,2,-1,-1,6.665
1334,10,-2,1,3,0,0,-4,-6,6.67
1335,-15,-3,-4,-1,-1,-1,-1,0,6.675
1336,-15,-2,-3,-4,0,0,2,0,6.68
1337,0,4,1,-3,-2,-1,2,2,6.6850000000000005
1338,-8,1,2,-1,1,-3,0,-4,6.69
1339,5,-3,-10,-5,-2,0,-2,-3,6.695
1340,3,-4,-6,-5,-2,1,-1,-2,6.7
1341,-5,-1,2,-1,-1,0,-1,-1,6.705
1342,-1,1,-1,-1,0,-2,-1,-1,6.71
1343,3,0,3,-3,-2,-2,2,-2,6.715
1344,-3,7,5,2,2,-3,1,1,6.72
1345,2,-9,0,4,3,1,-1,0,6.7250000000000005
1346,5,-1,-5,2,-2,0,-2,2,6.73
1347,2,-1,-2,2,-1,0,-2,-1,6.735
1348,6,-1,-3,-1,0,1,-4,-3,6.74
1349,0,2,-1,0,0,-3,0,-1,6.745
1350,3,2,5,-1,0,-2,2,-1,6.75
1351,-2,-3,-1,-2,-2,-2,1,-3,6.755
1352,3,-1,1,-1,-1,-1,2,0,6.76
1353,-12,-1,-2,1,-3,-1,0,-3,6.765000000000001
1354,-7,-2,-4,-3,-2,-2,0,2,6.7700000000000005
1355,6,-1,2,-4,-4,0,-3,-4,6.775
1356,-1,-8,-1,-4,-2,-1,-3,2,6.78
1357,6,3,-6,0,-2,-2,-1,-1,6.785
1358,-17,-1,2,3,0,1,3,1,6.79
1359,-1,0,-3,-2,-1,0,-1,-1,6.795
1360,-1,-6,-5,-5,-2,-1,-2,-1,6.8
1361,-3,-1,1,0,0,0,-2,1,6.805
1362,5,-2,0,-4,2,0,-1,-1,6.8100000000000005
1363,1,1,1,-3,4,-1,0,1,6.815
1364,-2,3,-7,-5,0,0,-1,-2,6.82
1365,-14,-1,10,-7,1,0,-1,-4,6.825
1366,8,1,-10,1,-3,-2,-1,2,6.83
1367,0,-2,2,0,-3,0,-4,-6,6.835
1368,-9,0,0,8,-3,-2,-1,10,6.84
1369,53,4,-1,6,-1,0,1,7,6.845
1370,-13,1,14,-10,-3,-1,-3,3,6.8500000000000005
1371,-1,-9,-26,0,0,1,1,-7,6.855
1372,-33,1,3,1,-2,-1,1,-4,6.86
1373,5,-3,0,-12,-2,-3,-1,-6,6.865
1374,-6,6,4,-1,-3,-1,-6,2,6.87
1375,11,-11,-23,-11,-1,0,0,-2,6.875
1376,35,-13,-3,-5,-3,-4,-3,-21,6.88
1377,-6,0,3,6,1,0,-4,-7,6.885
1378,-5,-1,4,1,1,-2,-6,-25,6.890000000000001
1379,-10,2,-3,1,-3,-2,5,12,6.8950000000000005
1380,0,1,-13,-6,-1,1,2,7,6.9
1381,-6,-1,11,3,-2,-2,3,13,6.905
1382,24,5,-14,-1,0,-1,1,-7,6.91
1383,11,0,18,24,4,-1,-3,3,6.915
1384,-4,7,0,-14,0,3,0,1,6.92
1385,10,38,-9,-9,-3,2,1,-7,6.925
1386,6,-23,7,0,0,-1,3,7,6.93
1387,-18,-49,-27,-9,-7,-8,-7,-6,6.9350000000000005
1388,-11,5,-14,4,-2,-1,1,6,6.94
1389,-34,-13,1,-13,0,4,4,-2,6.945
1390,1,-2,7,16,5,4,2,6,6.95
1391,51,53,37,4,0,0,-1,10,6.955
1392,72,23,-26,-5,-3,-3,-4,1,6.96
1393,25,5,-20,6,8,4,0,2,6.965
1394,-33,28,41,31,-8,-1,1,-12,6.97
1395,-116,-94,-50,-32,-5,-2,-3,-12,6.9750000000000005
1396,24,99,-46,-13,-10,-10,-18,-15,6.98
1397,-84,-52,-35,-5,-11,-15,-4,-10,6.985
1398,75,8,5,8,12,5,-7,47,6.99
1399,-36,-22,56,-7,-3,-2,14,-20,6.995
1400,73,-78,3,2,-21,0,8,12,7.0
1401,15,-19,-3,-26,2,4,-15,26,7.005
1402,-59,-3,63,96,51,-8,9,-68,7.01
1403,-78,12,28,-59,-28,-18,-25,-59,7.015000000000001
1404,54,-103,28,30,17,15,31,78,7.0200000000000005
1405,127,127,40,58,-71,6,52,-67,7.025
1406,-104,-26,-106,-23,82,5,-37,86,7.03
1407,127,-54,17,-72,-58,5,46,-76,7.035
1408,-127,123,-54,103,56,-20,21,33,7.04
1409,-117,-109,25,18,78,20,-10,-20,7.045
1410,127,-50,95,10,-122,-12,-46,-93,7.05
1411,-60,82,-9,127,127,49,18,-72,7.055
1412,55,-99,-5,-128,-128,-18,-18,62,7.0600000000000005
1413,71,84,42,127,96,-8,46,12,7.065
1414,78,100,20,-54,54,-6,-60,-43,7.07
1415,-68,107,-2,-71,-20,-13,28,127,7.075
1416,-13,-17,26,-73,-75,5,-50,-128,7.08
1417,29,55,37,4,65,-8,68,118,7.085
1418,-36,-27,-120,-117,-124,-25,-84,-73,7.09
1419,127,-11,-66,-42,-17,-16,5,127,7.095
1420,-26,19,24,79,78,8,45,33,7.1000000000000005
1421,-40,-128,40,-123,-67,17,-16,-1,7.105
1422,41,20,-48,6,-54,-24,32,-30,7.11
1423,6,-29,7,100,-3,-3,-103,-46,7.115
1424,-93,64,-9,57,-44,-6,19,52,7.12
1425,76,9,110,-51,-74,-31,-116,66,7.125
1426,-54,-128,-81,-85,23,18,103,82,7.13
1427,51,39,61,-99,-125,-12,22,-3,7.135
1428,73,-97,58,90,125,41,8,27,7.140000000000001
1429,6,28,-65,66,67,15,-71,-61,7.1450000000000005
1430,-62,123,44,-54,-11,-12,23,111,7.15
1431,-44,-108,16,29,17,-1,11,-114,7.155
1432,78,66,113,-118,40,-10,-15,-46,7.16
1433,-60,-123,-113,63,-15,-20,66,28,7.165
1434,-45,88,71,-43,-49,-10,-108,11,7.17
1435,104,16,-94,80,95,61,99,-21,7.175
1436,-91,19,-3,-32,-40,-27,-39,17,7.18
1437,-66,-33,38,-120,-74,-7,76,34,7.1850000000000005
1438,28,-6,-25,47,33,9,-31,-98,7.19
1439,71,91,-31,-100,-26,-22,45,-91,7.195
1440,-95,-83,-67,-95,-18,-2,-46,95,7.2
1441,124,127,60,-85,-84,6,19,-128,7.205
1442,-5,39,-75,62,41,7,48,-33,7.21
1443,9,14,33,58,-10,12,-29,127,7.215
1444,29,-41,-31,43,19,11,-40,-96,7.22
1445,-24,-63,-91,-128,-22,-10,-48,-53,7.2250000000000005
1446,61,-53,127,-1,-23,15,82,80,7.23
1447,-84,-22,26,60,-54,-20,-90,-119,7.235
1448,72,111,-85,8,96,-7,10,59,7.24
1449,4,-118,-82,-51,-18,2,-25,123,7.245
1450,-16,101,3,96,-52,-8,-7,32,7.25
1451,31,-34,-120,77,36,-21,-56,-46,7.255
1452,-22,101,73,-66,-90,49,90,126,7.26
1453,-58,14,0,-4,0,-61,-54,-110,7.265000000000001
1454,52,-49,-39,11,-89,13,49,116,7.2700000000000005
1455,-41,114,103,-46,19,8,2,26,7.275
1456,34,-128,39,-37,-58,-15,-54,42,7.28
1457,56,127,77,127,33,33,41,21,7.285
1458,-128,-23,-35,-75,-1,-36,8,-123,7.29
1459,102,39,39,-84,-29,8,65,127,7.295
1460,-64,67,74,82,101,-1,-24,-16,7.3
1461,-30,-93,-21,103,-22,38,9,-76,7.305
1462,22,-53,43,1,44,-7,-63,127,7.3100000000000005
1463,2,42,38,-48,-40,0,-41,-128,7.315
1464,11,-81,-40,-94,-75,-14,41,14,7.32
1465,-66,-52,-87,63,72,7,39,-25,7.325
1466,59,127,13,-52,32,16,9,-53,7.33
1467,-109,-64,66,-102,-104,-19,21,66,7.335
1468,-25,5,-45,117,56,24,-6,77,7.34
1469,9,63,-11,24,-4,-24,-104,-92,7.345
1470,-2,-7,-21,-39,1,34,33,-10,7.3500000000000005
1471,-63,76,23,45,-31,-14,-19,99,7.355
1472,-41,-89,-20,-85,15,-15,30,-67,7.36
1473,28,28,-75,-92,-19,10,77,127,7.365
1474,-56,-74,18,-38,-15,-23,-27,-128,7.37
1475,41,-52,-125,-7,108,34,75,-49,7.375
1476,-36,105,14,127,53,56,-70,-128,7.38
1477,-6,-82,10,-21,-67,-78,-76,127,7.385
1478,95,-13,-68,-78,-7,13,4,-50,7.390000000000001
1479,-57,-128,14,-29,13,4,-18,4,7.3950000000000005
1480,102,37,47,-124,-29,19,17,33,7.4
1481,-92,-31,26,62,22,61,79,-115,7.405
1482,73,42,-3,99,102,-25,69,-4,7.41
1483,90,49,33,-41,-54,7,-69,60,7.415
1484,-122,-11,-61,-3,-47,-42,16,-88,7.42
1485,115,100,89,-109,-86,-43,-108,77,7.425
1486,-66,-123,-62,-69,-106,-29,-45,-84,7.43
1487,94,127,111,127,127,39,95,115,7.4350000000000005
1488,-22,14,-64,-99,-88,17,-7,-30,7.44
1489,15,-25,0,-102,-38,-41,54,-77,7.445
1490,-126,-18,21,120,90,-4,-49,-7,7.45
1491,38,-71,-67,27,25,47,-60,65,7.455
1492,18,-14,28,14,-77,-101,-8,-68,7.46
1493,34,42,57,-39,24,69,55,-105,7.465
1494,34,-115,-36,-6,10,41,-16,57,7.47
1495,-113,40,43,-26,-68,-75,-26,99,7.4750000000000005
1496,1,-61,-65,52,-10,31,8,-109,7.48
1497,12,-88,-24,91,64,12,20,80,7.485
1498,-67,110,113,-35,-77,-45,9,-51,7.49
1499,-27,46,36,-1,10,13,12,-82,7.495
1500,85,-45,14,-35,-10,-9,60,-46,7.5
1501,14,67,-13,-128,-16,4,-76,112,7.505
1502,127,86,11,105,21,-5,-34,-41,7.51
1503,-102,-94,-38,-74,-79,28,10,29,7.515000000000001
1504,114,57,126,-105,-10,-32,5,-78,7.5200000000000005
1505,-112,35,-16,60,70,60,11,-77,7.525
1506,127,47,73,92,124,26,70,127,7.53
1507,-59,-75,23,-108,-41,-28,-12,-128,7.535
1508,-110,-39,-80,-26,-76,-44,-83,-76,7.54
1509,52,-70,2,119,-93,12,108,45,7.545
1510,11,56,40,27,5,82,-91,31,7.55
1511,15,8,52,-93,-69,-77,102,-56,7.555
1512,65,-42,-69,-30,-60,36,-44,1,7.5600000000000005
1513,-35,99,48,7,7,-79,-71,-70,7.565
1514,70,-41,-18,-68,-7,16,82,-78,7.57
1515,-42,-82,-28,66,0,13,-31,44,7.575
1516,85,127,-13,-1,48,46,101,121,7.58
1517,-81,-79,71,-36,-46,-52,-125,30,7.585
1518,-4,32,-26,-75,-110,-22,70,-59,7.59
1519,-22,-76,-23,83,105,38,-22,83,7.595
1520,-6,-39,35,106,69,-1,-1,-50,7.6000000000000005
1521,127,61,-16,74,22,32,64,57,7.605
1522,-81,-80,0,35,-1,27,5,93,7.61
1523,82,74,-51,-8,-32,-48,-19,33,7.615
1524,-97,8,16,-10,71,81,19,-54,7.62
1525,-23,-119,74,-20,-15,-86,45,68,7.625
1526,-115,-41,29,-128,-71,42,-1,-114,7.63
1527,121,127,-2,80,84,-4,-48,57,7.635
1528,-97,-112,61,50,31,-36,-25,64,7.640000000000001
1529,37,127,-29,-113,-27,78,50,-128,7.6450000000000005
1530,43,-68,-88,101,11,-100,52,127,7.65
1531,-51,88,-27,-128,-38,-28,-101,-128,7.655
1532,120,-35,44,16,-14,1,49,123,7.66
1533,10,51,15,-14,12,32,-41,-37,7.665
1534,21,-35,7,-28,-10,-2,9,-1,7.67
1535,31,-18,17,47,-4,37,48,-21,7.675
1536,-17,-37,64,33,-12,-21,-63,-25,7.68
1537,-51,-1,-95,-82,-52,-11,-21,24,7.6850000000000005
1538,60,81,61,37,26,9,-21,-20,7.69
1539,58,-28,27,-79,3,-5,28,35,7.695
1540,-111,-60,-5,25,-4,-7,18,-23,7.7
1541,74,-80,-71,-58,-23,49,-16,-58,7.705
1542,-116,-9,54,72,72,-27,-32,-38,7.71
1543,-53,4,9,-22,-87,-26,-37,65,7.715
1544,59,94,-21,-51,46,-29,11,-128,7.72
1545,-72,-29,35,-9,-8,-31,25,48,7.7250000000000005
1546,-1,127,-41,-30,-48,63,-65,29,7.73
1547,25,-51,34,-10,1,-38,17,-94,7.735
1548,3,108,-8,63,50,46,52,32,7.74
1549,55,-51,-18,12,29,-36,-111,-97,7.745
1550,-19,55,-60,-85,-3,18,-53,-117,7.75
1551,7,-21,-115,3,-71,-67,25,94,7.755
1552,12,-69,51,-18,15,4,-51,-72,7.76
1553,-96,-60,-48,29,0,36,32,-68,7.765000000000001
1554,54,-31,-40,-15,-39,-9,51,42,7.7700000000000005
1555,-119,116,14,-16,39,27,-46,59,7.775
1556,13,15,32,-32,-26,-32,-41,89,7.78
1557,28,54,93,90,33,17,66,12,7.785
1558,-99,-86,22,-80,-89,-18,80,-35,7.79
1559,100,34,-119,9,38,-21,-43,-105,7.795
1560,-69,-17,71,18,-29,-4,-9,127,7.8
1561,-11,59,-39,-40,27,37,-36,-56,7.805000000000001
1562,-5,-16,33,-44,-9,-51,24,127,7.8100000000000005
1563,7,-3,41,23,-20,-12,-55,-123,7.815
1564,-57,-9,-11,8,-35,66,38,-55,7.82
1565,40,14,-14,2,-21,-66,-15,2,7.825
1566,-104,-54,-105,-6,48,28,-56,-106,7.83
1567,88,-42,83,6,13,79,127,-19,7.835
1568,103,80,23,21,15,-43,-102,89,7.84
1569,-115,-13,10,-6,-23,9,-64,-45,7.845
1570,21,6,-37,-20,26,-24,55,126,7.8500000000000005
1571,-127,-64,98,23,16,-26,43,-3,7.855
1572,16,37,-99,-28,-57,-9,127,-48,7.86
1573,16,38,89,-9,13,88,-54,51,7.865
1574,33,-63,127,-15,8,3,-109,-85,7.87
1575,74,-38,52,-14,1,108,72,-128,7.875
1576,-56,-5,-106,-26,-4,-74,-38,83,7.88
1577,-2,-33,-68,35,-3,-90,-59,16,7.885
1578,-104,-42,-20,-13,10,-46,-7,20,7.890000000000001
1579,-2,-27,-53,-23,-19,-18,-22,27,7.8950000000000005
1580,67,-23,-32,-9,-3,60,17,-24,7.9
1581,36,-29,61,63,26,35,71,57,7.905
1582,74,52,102,-52,-20,12,27,67,7.91
1583,-101,71,115,34,-2,-49,-39,1,7.915
1584,-20,82,83,-20,-13,-26,-53,16,7.92
1585,-12,51,-9,-12,3,0,16,71,7.925
1586,34,62,98,41,12,-4,2,9,7.930000000000001
1587,-16,-43,-104,-40,-17,-11,-37,59,7.9350000000000005
1588,-101,-26,-15,-15,-3,25,7,-7,7.94
1589,106,-25,-12,-13,1,-20,33,5,7.945
1590,34,-18,25,49,2,1,4,5,7.95
1591,14,16,-87,-33,1,14,-13,60,7.955
1592,5,-22,110,-28,1,7,10,-31,7.96
1593,-90,33,59,35,-3,-35,22,-27,7.965
1594,109,-8,-128,-39,-2,11,20,24,7.97
1595,-60,-27,23,31,4,28,-69,-58,7.9750000000000005
1596,127,-6,29,30,-2,35,56,5,7.98
1597,-74,6,-122,-40,12,-26,18,18,7.985
1598,14,-14,-40,33,7,25,1,-48,7.99
1599,-11,-9,-37,17,0,-18,22,59,7.995
1600,-43,0,-35,-14,-10,-27,-48,-2,8.0
1601,50,10,11,22,0,6,-12,-26,8.005
1602,-46,-3,68,-13,-9,-3,4,-5,8.01
1603,10,-25,-9,-3,0,-5,-5,-2,8.015
1604,44,9,13,11,-7,-12,-8,25,8.02
1605,30,5,31,10,-3,12,20,-20,8.025
1606,-47,0,-94,-14,2,-2,-10,-26,8.03
1607,6,47,34,8,6,9,10,-11,8.035
1608,15,32,-56,-11,-4,-10,1,-6,8.040000000000001
1609,-5,22,18,4,-1,1,8,22,8.045
1610,-16,-3,-96,14,-2,2,-24,-5,8.05
1611,62,-21,-30,9,2,6,49,49,8.055
1612,-30,-74,46,0,-4,-7,-25,-50,8.06
1613,7,-49,-37,-21,1,-1,-7,1,8.065
1614,-17,-2,90,5,-2,-3,-5,-22,8.07
1615,-12,15,94,9,3,3,6,19,8.075
1616,-41,-52,-17,2,-1,-8,-3,-9,8.08
1617,13,-4,30,-11,0,7,6,20,8.085
1618,44,-4,26,0,-2,2,4,-6,8.09
1619,-13,-11,42,12,3,-1,3,-9,8.095
1620,-33,-5,-12,18,3,-2,-2,-3,8.1
1621,43,4,-76,7,2,3,1,1,8.105
1622,9,-17,52,-2,-3,-1,10,22,8.11
1623,8,-11,86,1,-1,-3,-9,-24,8.115
1624,4,1,83,-2,-3,-5,-1,6,8.120000000000001
1625,-18,-3,80,-3,-3,4,6,21,8.125
1626,0,9,-29,-13,-1,-1,-4,-9,8.13
1627,-21,-14,-89,1,-1,3,-3,-7,8.135
1628,18,-1,-39,4,-2,-3,2,-1,8.14
1629,-17,-3,-48,-3,-3,-2,0,9,8.145
1630,10,1,-19,0,1,-1,-1,-7,8.15
1631,-9,-4,-24,-1,1,2,-2,-5,8.155
1632,9,1,-33,7,2,-1,4,4,8.16
1633,-3,2,-9,-13,0,-2,-5,-4,8.165000000000001
1634,-9,0,-19,7,-2,-2,-2,-9,8.17
1635,6,7,-41,-11,-4,-3,0,1,8.175
1636,-2,6,-13,-12,2,-3,1,-5,8.18
1637,-22,-9,-10,7,-3,-2,1,4,8.185
1638,3,-7,44,-2,-3,-3,-2,-5,8.19
1639,0,0,-27,-3,-1,0,-2,-13,8.195
1640,4,-1,-21,-7,-3,-4,-2,2,8.2
1641,-11,-3,13,0,0,0,-5,2,8.205
1642,-22,6,7,7,4,5,3,-10,8.21
1643,11,11,-16,2,0,-4,-4,-4,8.215
1644,-7,-7,-33,-7,-1,12,22,1,8.22
1645,26,2,22,-10,3,-5,-8,-12,8.225
1646,-37,3,-6,8,2,2,19,40,8.23
1647,-11,8,-1,-5,-1,-3,-11,-35,8.235
1648,3,22,2,16,-2,-10,-10,16,8.24
1649,4,1,1,-1,1,1,0,4,8.245000000000001
1650,-2,-6,-15,-10,-2,-3,-7,1,8.25
1651,-13,-4,3,-9,0,1,0,3,8.255
1652,4,2,7,-1,-6,-5,-1,-4,8.26
1653,-9,7,21,-1,0,0,4,6,8.265
1654,13,6,7,3,-2,-4,-6,-17,8.27
1655,2,-1,-2,-1,-2,2,6,5,8.275
1656,6,-17,0,-7,-2,0,-6,-9,8.28
1657,-3,-36,-5,2,0,0,-1,-4,8.285
1658,7,-27,3,7,0,-1,-3,-7,8.290000000000001
1659,9,-17,-14,2,-1,0,1,6,8.295
1660,-8,-41,-1,-2,-1,1,-3,1,8.3
1661,-14,-14,-5,-3,1,-1,1,-1,8.305
1662,3,8,-2,-5,-2,0,-1,-3,8.31
1663,11,9,5,-2,-3,-2,-1,4,8.315
1664,6,29,15,0,2,-1,-1,-8,8.32
1665,-9,21,0,-6,-2,3,0,0,8.325
1666,4,20,-9,1,-1,-3,-3,-4,8.33
1667,-5,6,-11,-1,0,-5,-4,2,8.335
1668,9,6,-7,-3,-1,0,3,-3,8.34
1669,-8,4,5,2,-1,5,7,3,8.345
1670,13,-1,-12,-1,0,-4,-2,1,8.35
1671,-5,-11,-6,-9,-1,6,2,2,8.355
1672,-1,5,-1,-3,-1,-3,-5,-2,8.36
1673,-7,9,-28,1,-1,-2,0,0,8.365
1674,-2,-3,2,-3,-2,-2,-1,-4,8.370000000000001
1675,0,-4,7,2,1,-3,-1,-3,8.375
1676,-10,1,8,-3,0,-1,-3,-9,8.38
1677,13,9,28,-7,-4,-2,-2,6,8.385
1678,-2,-4,5,-3,-4,-3,0,-1,8.39
1679,3,2,9,-3,0,-1,2,-1,8.395
1680,-8,5,6,11,0,-1,1,1,8.4
1681,-4,2,-2,5,1,0,0,-3,8.405
1682,1,3,-2,-4,-2,-3,0,-1,8.41
1683,-3,3,-1,-2,-4,2,1,3,8.415000000000001
1684,0,3,-7,-8,-1,1,-4,-3,8.42
1685,0,4,3,-1,-2,-2,-3,-2,8.425
1686,2,2,-10,2,1,3,-1,0,8.43
1687,-1,3,3,6,1,-1,1,-1,8.435
1688,4,0,-11,3,-1,-2,3,1,8.44
1689,-10,-3,-13,-6,1,-9,-6,-14,8.445
1690,-22,-3,-18,-3,-5,4,-4,1,8.45
1691,2,-3,3,2,-1,-1,-8,-3,8.455
1692,42,3,8,1,-2,5,3,4,8.46
1693,-33,-5,6,4,3,10,14,-5,8.465
1694,-5,-3,17,3,0,-4,-2,12,8.47
1695,3,-2,-3,-6,-1,-6,0,0,8.475
1696,-22,-11,3,1,-1,-3,-7,-4,8.48
1697,20,1,8,-2,-1,-3,-3,-1,8.485
1698,1,-9,-8,-3,-2,-1,-4,-5,8.49
1699,-5,-5,1,6,0,3,3,1,8.495000000000001
1700,2,-1,-5,-19,-1,-2,-3,7,8.5
1701,1,5,-3,-1,1,-2,-3,5,8.505
1702,0,-6,19,0,1,0,2,-8,8.51
1703,8,-15,-21,9,1,-2,-2,4,8.515
1704,-17,-7,-5,-1,0,-2,1,-5,8.52
1705,-1,-5,2,-1,-4,-3,-3,4,8.525
1706,12,13,-3,-4,-2,-2,2,0,8.53
1707,-7,14,-11,2,1,-2,3,-1,8.535
1708,0,8,9,1,-2,-1,-1,-4,8.540000000000001
1709,-2,4,-5,3,-1,0,2,4,8.545
1710,-3,-3,16,6,-2,-4,-5,-4,8.55
1711,15,-1,-2,4,-1,3,2,-1,8.555
1712,-15,5,-6,-1,-1,1,3,3,8.56
1713,18,2,4,-1,-1,0,-5,-3,8.565
1714,-3,5,-8,-4,2,3,2,-1,8.57
1715,2,-4,7,-3,1,-2,-4,-3,8.575000000000001
1716,-26,1,-4,-3,0,1,-2,0,8.58
1717,14,-5,-6,-4,-4,-2,0,0,8.585
1718,2,2,2,9,5,3,-1,-11,8.59
1719,-1,0,-6,-6,-2,-1,-1,12,8.595
1720,-6,4,4,6,1,0,-1,-8,8.6
1721,12,-1,-6,-15,0,1,-1,7,8.605
1722,-37,-8,-3,-3,-1,-1,-3,-8,8.61
1723,0,-6,-1,-8,-4,-1,0,4,8.615
1724,1,-6,4,6,-1,-2,2,-3,8.620000000000001
1725,-13,-2,5,6,-2,0,-1,-1,8.625
1726,8,6,-3,-7,-4,-2,0,7,8.63
1727,-26,-1,-6,-3,-1,0,-1,-6,8.635
1728,49,-3,3,2,2,-3,-1,1,8.64
1729,5,-7,-6,0,0,-3,-2,-3,8.645
1730,11,-3,-4,-3,-1,0,-1,1,8.65
1731,-22,2,2,9,0,3,2,0,8.655
1732,-1,-1,19,4,-1,1,0,0,8.66
1733,-7,2,-18,6,4,-1,1,0,8.665000000000001
1734,0,-3,-12,-11,-3,-1,1,3,8.67
1735,5,0,-2,0,2,0,0,-2,8.675
1736,1,1,-9,-9,-1,-2,0,-4,8.68
1737,-28,0,8,-2,0,-1,1,-1,8.685
1738,1,1,1,-1,-1,-1,0,-1,8.69
1739,4,-1,-3,-4,-4,1,5,-3,8.695
1740,-10,-7,2,0,-4,-3,-5,-2,8.700000000000001
1741,0,-5,8,2,-2,0,-3,1,8.705
1742,10,-6,-5,3,2,-6,-6,-4,8.71
1743,-5,-4,0,-8,-3,-4,0,2,8.715
1744,12,-1,3,11,0,9,0,-1,8.72
1745,-1,0,3,-11,-2,-3,-2,-2,8.725
1746,1,3,6,5,0,0,-1,6,8.73
1747,2,-2,2,-1,-1,-3,-2,-8,8.735
1748,-7,1,-11,-12,-1,-2,0,0,8.74
1749,3,0,1,0,0,3,1,-1,8.745000000000001
1750,3,3,-6,12,-2,1,2,-6,8.75
1751,-3,-1,4,-4,0,0,-1,-1,8.755
1752,-15,-3,-13,-2,-2,-2,-2,-11,8.76
1753,-7,1,-1,-2,0,-2,-4,7,8.765
1754,22,-2,-4,-11,-1,-3,1,0,8.77
1755,4,1,-10,-5,-1,-2,0,0,8.775
1756,-1,0,26,11,-1,0,1,1,8.78
1757,-8,-2,-2,4,-2,0,4,-2,8.785
1758,-8,-6,1,-1,-2,-1,2,1,8.790000000000001
1759,6,1,3,2,2,3,-3,2,8.795
1760,10,1,6,-8,-1,-4,0,1,8.8
1761,-17,-4,-30,1,-2,-1,-3,-9,8.805
1762,35,-2,-10,1,-2,-1,-2,13,8.81
1763,-12,-4,6,-1,3,-1,-1,2,8.815
1764,23,-4,-19,-10,-2,-2,-3,-4,8.82
1765,8,4,17,6,0,-1,-2,-4,8.825000000000001
1766,-11,3,4,-1,1,-1,0,-10,8.83
1767,-7,-1,2,-2,-2,-2,-4,-3,8.835
1768,-3,-2,-6,-2,0,-2,-4,3,8.84
1769,8,-3,-1,4,-1,1,1,-1,8.845
1770,-14,-1,4,-1,0,1,3,0,8.85
1771,3,1,9,0,-2,-2,-1,-1,8.855
1772,-14,0,-5,8,-2,-3,-1,0,8.86
1773,4,-2,1,-4,-2,0,-1,-2,8.865
1774,-8,-7,-2,-7,-3,-2,-2,-1,8.870000000000001
1775,5,0,1,0,-2,2,1,0,8.875
1776,-3,-1,-9,-3,-3,0,-1,-1,8.88
1777,8,5,4,0,-3,-2,-1,1,8.885
1778,-10,1,4,8,2,-1,-3,-1,8.89
1779,3,-2,1,0,-1,-3,-3,-4,8.895
1780,-4,1,-6,-2,-2,1,2,2,8.9
1781,-1,1,5,-2,-1,2,1,3,8.905
1782,-3,-1,4,-1,-2,1,-1,-4,8.91
1783,3,0,-1,-1,1,0,-2,0,8.915000000000001
1784,-9,1,0,-1,1,2,0,2,8.92
1785,2,-1,-3,-1,0,-3,0,-1,8.925
1786,-1,0,-2,-3,2,-2,-1,-1,8.93
1787,1,-2,-4,-2,-1,-1,-3,-2,8.935
1788,-1,-2,-2,-2,-3,-2,1,-1,8.94
1789,1,-1,0,-1,-4,-1,-2,-2,8.945
1790,2,1,-1,0,-2,1,0,0,8.950000000000001
1791,-2,1,-2,0,-2,-2,-1,-1,8.955
1792,-6,-1,-2,-3,0,-1,-2,0,8.96
1793,-3,-3,-2,1,0,0,-3,-2,8.965
1794,-6,-2,1,2,-2,-1,1,0,8.97
1795,1,5,-2,0,-4,0,0,0,8.975
1796,-1,-3,-9,-10,-4,-3,-1,0,8.98
1797,-1,-1,0,-3,2,-2,-2,0,8.985
1798,5,2,7,0,2,-2,-1,-2,8.99
1799,-3,-7,-4,-1,-1,-4,0,-1,8.995000000000001
1800,-2,-2,-2,3,0,0,0,0,9.0
1801,1,-2,-2,4,-1,1,-3,-1,9.005
1802,-2,-3,-3,1,-5,1,-2,-3,9.01
1803,2,3,1,-5,-3,2,-2,-1,9.015
1804,-2,1,3,3,-1,0,-2,0,9.02
1805,1,0,4,-6,0,0,0,-3,9.025
1806,-3,1,1,-3,-8,-2,2,0,9.03
1807,1,0,1,3,-39,1,2,0,9.035
1808,-15,2,-3,-3,-11,-1,-2,-3,9.040000000000001
1809,7,1,-3,0,4,1,-3,4,9.045
1810,-2,0,1,1,25,1,-3,-3,9.05
1811,-5,-3,-1,3,23,-2,-1,-3,9.055
1812,4,-2,0,-1,8,-1,0,-1,9.06
1813,-7,-1,1,-2,8,0,0,-1,9.065
1814,-4,-2,-3,-5,3,-1,-1,0,9.07
1815,5,-5,-2,-2,3,0,2,-1,9.075000000000001
1816,-4,-2,2,2,-1,-3,-2,0,9.08
1817,-1,0,-1,0,0,-2,-1,-2,9.085
1818,4,3,-1,-4,-5,-1,-3,1,9.09
1819,-3,2,2,2,-1,1,-2,-1,9.095
1820,3,0,-1,-10,3,0,1,1,9.1
1821,-1,0,2,2,-7,-2,0,1,9.105
1822,0,-6,2,8,-7,-2,-1,-1,9.11
1823,-1,6,-4,-1,5,-2,-1,-3,9.115
1824,-2,-1,-1,3,0,-1,-2,-3,9.120000000000001
1825,3,0,0,-4,-1,1,-1,-3,9.125
1826,-2,2,2,-3,-3,2,-1,0,9.13
1827,1,1,0,1,0,3,0,0,9.135
1828,3,1,-3,1,-3,2,-2,-2,9.14
1829,-4,-5,-4,-1,-4,0,-1,0,9.145
1830,-2,-2,-9,-5,-2,-4,2,0,9.15
1831,-1,4,3,-1,0,-1,2,1,9.155
1832,2,-3,-3,5,1,2,2,0,9.16
1833,-1,-4,4,1,-2,-1,-1,-3,9.165000000000001
1834,-1,-1,0,0,-2,0,-1,-2,9.17
1835,-1,-1,-1,-5,0,-2,-1,-1,9.175
1836,-2,4,-2,2,-3,-3,-3,0,9.18
1837,-2,1,-1,-9,-3,-5,-5,0,9.185
1838,-2,1,0,2,-4,0,-5,-1,9.19
1839,-1,-1,-1,0,-1,1,0,-1,9.195
1840,0,4,1,0,-1,0,1,0,9.200000000000001
1841,0,0,0,3,0,-1,4,0,9.205
1842,-1,2,-1,0,0,-2,-1,-1,9.21
1843,-2,-6,0,1,0,-2,-3,-1,9.215
1844,1,-2,-1,2,1,-1,0,0,9.22
1845,0,-4,-4,1,-4,-1,4,-1,9.225
1846,-1,-4,-4,-3,-2,2,-1,0,9.23
1847,-1,-6,-3,-5,-1,1,-3,-3,9.235
1848,1,-1,1,-2,1,0,-3,-1,9.24
1849,-2,-2,-3,-6,-2,-1,-2,-4,9.245000000000001
1850,2,-2,-2,0,1,0,3,0,9.25
1851,-2,-2,-2,-1,-1,-2,0,2,9.255
1852,-1,-2,-1,-4,0,-1,-3,-2,9.26
1853,-1,4,-5,-1,0,-2,-2,-1,9.265
1854,0,1,-1,-2,-1,0,-1,-1,9.27
1855,-2,-3,0,-2,1,-1,-2,-1,9.275
1856,-3,0,5,0,0,1,1,-1,9.28
1857,-2,-4,-2,0,-2,1,-2,-3,9.285
1858,0,-2,0,-10,0,-1,0,0,9.290000000000001
1859,-1,4,4,0,-2,0,-2,0,9.295
1860,1,3,-3,7,-2,-2,3,-2,9.3
1861,1,1,-6,-1,-2,0,0,-1,9.305
1862,0,-2,-7,7,-4,0,1,-4,9.31
1863,1,-1,-3,-2,0,-2,2,-1,9.315
1864,-2,0,0,-5,-3,-2,-1,-1,9.32
1865,-2,-1,1,3,-1,-1,-1,0,9.325000000000001
1866,-4,0,-5,-7,-5,-3,-1,-2,9.33
1867,0,-3,5,0,-1,-1,-2,0,9.335
1868,1,-1,-1,7,3,1,1,2,9.34
1869,0,-3,1,-3,0,1,0,1,9.345
1870,-3,1,2,1,2,-3,-2,-2,9.35
1871,-2,3,-4,-1,-1,0,-3,1,9.355
1872,6,17,-4,-6,-4,-2,0,0,9.36
1873,-10,13,-1,-3,0,0,2,-1,9.365
1874,-1,5,-1,-8,1,1,1,1,9.370000000000001
1875,-4,-7,2,8,-1,-3,0,-8,9.375
1876,-14,-11,-3,2,0,-3,-1,4,9.38
1877,3,-7,3,4,0,-1,-1,-5,9.385
1878,6,-7,6,1,2,-2,0,8,9.39
1879,4,-11,-9,2,-2,-3,1,-1,9.395
1880,-7,-9,1,-9,-4,2,-2,-4,9.4
1881,0,-8,-3,9,1,1,-1,3,9.405
1882,-18,-5,-1,-2,-2,0,-1,-12,9.41
1883,19,-6,-3,-9,-3,-2,-3,6,9.415000000000001
1884,2,-7,-2,-2,1,-1,-3,-5,9.42
1885,15,-1,2,-1,1,-1,0,0,9.425
1886,-4,-2,1,5,0,0,-4,-7,9.43
1887,-17,2,3,4,0,1,1,4,9.435
1888,11,-9,-5,-4,-2,0,1,-3,9.44
1889,-1,-3,0,-7,-2,-1,-4,0,9.445
1890,8,-3,-3,-3,-2,1,2,2,9.450000000000001
1891,1,3,-1,3,2,-1,3,-4,9.455
1892,-4,3,-1,10,3,-2,0,1,9.46
1893,-8,-2,7,-2,-1,2,-1,-1,9.465
1894,18,0,-2,6,1,0,-3,-2,9.47
1895,-1,-1,-5,-1,-1,3,-1,-2,9.475
1896,-4,-5,-6,-9,-4,-2,-3,-3,9.48
1897,-3,-4,-2,2,-1,-5,0,-2,9.485
1898,-3,2,2,-3,0,-2,0,0,9.49
1899,-3,3,6,1,3,-3,3,-1,9.495000000000001
1900,2,0,-3,0,-1,-3,1,1,9.5
1901,-5,0,0,-1,0,-1,-1,-1,9.505
1902,1,-3,-4,-2,-4,-2,-1,0,9.51
1903,-3,2,2,26,-3,-4,-1,2,9.515
1904,-6,-2,-4,-13,-2,-1,-1,-1,9.52
1905,2,4,-3,-14,-1,-2,0,-1,9.525
1906,-3,0,-4,-27,-4,-2,-1,1,9.53
1907,-7,0,-1,-19,-1,2,-2,-5,9.535
1908,6,3,2,0,-2,2,-2,0,9.540000000000001
1909,-3,-3,-4,-6,-2,1,0,1,9.545
1910,0,0,0,6,0,0,-4,-3,9.55
1911,3,2,-2,-2,0,-1,-4,-1,9.555
1912,0,-2,-3,10,5,-2,0,2,9.56
1913,-2,0,-8,-10,-2,1,-1,-4,9.565
1914,-9,2,5,18,-2,0,0,-1,9.57
1915,6,-2,-11,-5,-5,-1,-1,-1,9.575000000000001
1916,7,3,2,-5,-1,0,1,-4,9.58
1917,7,1,-3,2,0,-3,2,12,9.585
1918,-7,0,1,4,-2,-2,1,2,9.59
1919,-7,-6,0,-14,0,1,0,0,9.595
1920,12,-2,-1,2,-2,-2,-2,-2,9.6
1921,-10,-6,0,6,0,0,-2,-10,9.605
1922,-4,-9,-2,-2,-1,0,-1,1,9.61
1923,3,-1,2,5,-4,0,0,3,9.615
1924,-5,-1,0,-8,-4,1,-3,-2,9.620000000000001
1925,-3,3,-4,-4,-4,-2,-1,0,9.625
1926,2,4,4,12,7,-2,-4,-1,9.63
1927,-1,2,-9,-9,0,-2,0,-3,9.635
1928,-7,2,-1,-3,3,-3,-1,-1,9.64
1929,1,3,0,-5,3,-2,-2,-2,9.645
1930,0,1,-2,-1,-1,0,-2,0,9.65
1931,1,4,1,2,3,-1,-1,-2,9.655
1932,-1,2,4,1,0,0,0,-1,9.66
1933,0,0,-1,1,-1,0,3,-1,9.665000000000001
1934,3,0,-6,-12,-3,-1,2,-1,9.67
1935,-2,-1,0,3,-2,-2,-3,0,9.675
1936,-7,-6,-1,1,-4,0,0,1,9.68
1937,-3,-5,-2,8,1,2,0,-4,9.685
1938,2,-3,3,1,0,0,1,4,9.69
1939,-2,-4,-3,-3,0,2,1,-1,9.695
1940,0,-1,-1,4,-1,0,2,-2,9.700000000000001
1941,-2,-2,3,3,-4,-2,-3,-2,9.705
1942,11,7,-4,-5,-3,-2,-1,-5,9.71
1943,0,2,1,6,0,-2,-3,-4,9.715
1944,-3,2,-5,-17,1,0,-3,0,9.72
1945,6,-6,-2,2,1,-1,-2,-1,9.725
1946,0,-1,-6,4,1,1,-1,-2,9.73
1947,-4,-4,7,0,0,-3,2,-4,9.735
1948,-15,-3,1,2,-4,-1,0,5,9.74
1949,32,-2,-2,-7,-4,-2,-1,0,9.745000000000001
1950,-7,-3,-2,-1,-5,0,0,0,9.75
1951,10,3,-4,-4,-4,-1,-1,-1,9.755
1952,-12,1,-2,5,-1,-4,-3,-1,9.76
1953,-8,1,-1,1,-3,-2,-2,1,9.765
1954,-2,-2,0,1,-1,-1,-2,0,9.77
1955,-5,-2,-2,0,0,1,0,-1,9.775
1956,6,-3,2,6,3,1,2,0,9.78
1957,-5,-2,-2,-2,-2,1,-2,-1,9.785
1958,-6,-3,-2,1,-2,-1,1,2,9.790000000000001
1959,5,-2,-1,1,-2,-1,-3,-2,9.795
1960,7,3,3,0,-2,-2,-1,-2,9.8
1961,-6,1,1,-2,-2,1,1,-1,9.805
1962,-5,3,-2,-6,0,1,2,-2,9.81
1963,4,-1,-8,1,1,-1,-2,1,9.815
1964,0,-2,-7,-2,0,0,-3,-1,9.82
1965,-5,-2,-2,0,3,-1,-2,0,9.825000000000001
1966,-2,-2,3,8,1,-1,-1,1,9.83
1967,-1,0,6,-10,-2,-3,2,-1,9.835
1968,2,-3,-1,-3,-3,-4,3,-5,9.84
1969,-5,5,4,6,3,1,2,-2,9.845
1970,-7,-2,-3,-5,0,-2,0,-3,9.85
1971,0,-1,3,1,1,0,-1,1,9.855
1972,-5,-6,-4,-3,-3,1,-3,0,9.86
1973,-1,0,0,-6,-1,-2,-1,2,9.865
1974,1,0,-3,0,-1,0,1,-2,9.870000000000001
1975,-10,1,-6,0,-4,1,2,-5,9.875
1976,9,3,3,-4,-1,1,-1,4,9.88
1977,6,1,1,15,2,-1,0,3,9.885
1978,-6,-2,1,1,-4,-4,-3,-2,9.89
1979,15,-2,0,-1,-3,-1,-1,3,9.895
1980,4,-2,-1,2,-1,2,-1,-1,9.9
1981,-2,6,-2,-3,-1,3,-1,-2,9.905
1982,-1,-3,-1,-4,-2,-2,-2,-2,9.91
1983,-8,-2,-2,-1,-1,-2,-1,-1,9.915000000000001
1984,-8,-2,2,-2,-2,-2,1,0,9.92
1985,-10,1,-2,1,0,-5,1,-2,9.925
1986,-4,1,-3,-3,-1,-1,0,-2,9.93
1987,-1,-1,-2,-4,-2,-2,-5,-4,9.935
1988,7,2,1,4,0,0,0,-11,9.94
1989,-3,-2,1,0,-4,-2,-2,18,9.945
1990,5,0,7,7,-2,1,0,0,9.950000000000001
1991,-4,0,-3,-13,-2,-2,-1,3,9.955
1992,-2,0,-2,2,0,1,0,-1,9.96
1993,-1,-5,-6,-2,1,1,2,-7,9.965
1994,1,1,-5,-3,1,1,3,1,9.97
1995,0,-1,-1,1,2,5,-1,2,9.975
1996,9,1,3,-4,2,0,-4,2,9.98
1997,-3,-5,-2,0,0,-1,-3,-4,9.985
1998,5,-3,-7,1,1,-3,-4,0,9.99
1999,2,0,-3,4,-1,-3,-2,-10,9.995000000000001
2000,-16,-1,-5,-3,0,-4,-3,3,10.0
2001,14,1,1,-2,-1,-2,-1,2,10.005
2002,2,3,-1,-11,-5,-3,-1,-1,10.01
2003,-8,-4,-2,1,0,-1,0,0,10.015
2004,0,1,13,1,-2,0,-1,-4,10.02
2005,-1,-5,-9,4,-2,1,2,-3,10.025
2006,-1,-1,-1,-7,-1,1,1,-1,10.03
2007,-2,3,-2,-1,-1,-1,1,-2,10.035
2008,3,-2,-1,-1,-5,-2,0,0,10.040000000000001
2009,-3,2,4,3,-2,0,-2,-5,10.045
2010,2,-1,1,0,1,-2,-5,2,10.05
2011,-1,2,-1,1,0,-3,0,2,10.055
2012,-1,-2,-4,0,1,-1,2,-2,10.06
2013,-4,1,3,-3,-1,-2,0,0,10.065
2014,-6,-3,-8,0,-4,0,0,-1,10.07
2015,-2,0,3,3,2,-1,0,-1,10.075000000000001
2016,-4,-2,-2,0,-3,0,1,1,10.08
2017,0,2,2,-2,-2,-1,-1,-2,10.085
2018,-1,-2,2,-6,-1,-1,-1,-2,10.09
2019,-3,-2,-1,2,-1,1,-2,-1,10.095
2020,4,5,-4,2,0,0,-2,5,10.1
2021,-5,-8,-3,-3,-1,-2,-2,-5,10.105
2022,3,-2,1,-3,0,2,-1,-2,10.11
2023,-14,-2,-2,-2,-2,-3,-1,-4,10.115
2024,1,0,-6,3,-2,0,0,-2,10.120000000000001
2025,-6,3,-1,-6,-2,-5,1,-2,10.125
2026,18,0,1,-1,3,-1,2,-6,10.13
2027,11,-2,-3,0,2,0,1,-1,10.135
2028,-1,1,1,-5,1,-1,-1,2,10.14
2029,5,1,1,1,-1,1,-5,0,10.145
2030,-10,1,1,0,-1,1,-2,1,10.15
2031,-3,0,2,-1,2,3,0,5,10.155
2032,1,-1,-1,1,0,0,1,-2,10.16
2033,-2,-4,3,-2,-2,0,1,-2,10.165000000000001
2034,-4,0,7,4,-3,-2,-2,0,10.17
2035,0,-6,-15,-5,-3,-2,-3,1,10.175
2036,-6,-2,1,-4,2,-2,-2,-5,10.18
2037,-5,-1,-4,-2,1,-2,0,-3,10.185
2038,3,0,-3,3,-1,0,3,7,10.19
2039,3,-1,5,3,-1,-1,2,2,10.195
2040,0,-3,-2,-9,-3,-4,1,-2,10.200000000000001
2041,-4,0,-3,-3,-2,-6,-1,-2,10.205
2042,-1,1,-2,-5,-4,-3,-2,-1,10.21
2043,-1,3,6,-1,-5,0,0,-2,10.215
2044,-6,-1,2,5,-2,2,-1,0,10.22
2045,1,-1,4,-4,-2,0,0,0,10.225
2046,-17,-3,-2,1,0,0,0,1,10.23
2047,5,-5,-2,3,0,0,-2,-3,10.235
2048,-1,-2,2,6,0,0,-1,0,10.24
2049,1,-1,3,7,2,1,-1,1,10.245000000000001
2050,-2,-2,-6,1,0,-1,-3,-2,10.25
2051,5,4,-2,-10,-2,-3,-1,-4,10.255
2052,-8,-5,-6,-1,1,-3,1,13,10.26
2053,2,0,0,0,-3,-1,-1,0,10.265
2054,3,-1,0,-2,-3,3,-4,-2,10.27
2055,2,0,2,6,-1,3,1,4,10.275
2056,5,3,0,-5,-2,0,-2,-10,10.28
2057,-3,-1,-2,6,2,2,-1,3,10.285
2058,-1,2,-3,-9,-1,-2,-2,1,10.290000000000001
2059,11,-5,-4,4,-1,-3,-1,-8,10.295
2060,-22,-1,-3,3,-1,0,3,1,10.3
2061,28,-2,2,-5,-3,-1,0,-2,10.305
2062,0,1,1,-2,-1,0,1,-4,10.31
2063,-10,3,1,-11,-3,-4,-4,-3,10.315
2064,2,1,3,-5,2,-1,-4,-2,10.32
2065,-13,-1,-2,-2,2,-3,-1,-1,10.325000000000001
2066,11,-2,-1,6,2,0,0,-1,10.33
2067,-6,-3,-2,-6,-3,-1,0,2,10.335
2068,6,-5,-3,3,-1,-2,1,1,10.34
2069,-4,-2,-2,-3,0,-3,0,-2,10.345
2070,-1,3,2,1,-2,0,3,-3,10.35
2071,-9,-5,-4,0,-1,-2,1,3,10.355
2072,3,-5,0,3,0,-2,-6,-4,10.36
2073,-5,-5,-5,-3,-2,-1,0,-3,10.365
2074,-18,-3,-3,3,1,-2,-1,-3,10.370000000000001
2075,7,7,6,-4,0,0,-3,5,10.375
2076,-1,-1,-4,-7,1,2,-1,-6,10.38
2077,-2,-3,1,0,1,1,-1,-3,10.385
2078,-2,-5,0,3,0,-2,-2,0,10.39
2079,2,0,3,-3,1,-1,1,-4,10.395
2080,4,-1,-6,-2,-5,0,0,3,10.4
2081,-20,3,0,1,1,1,0,1,10.405
2082,5,-1,-2,-4,0,-2,-1,-2,10.41
2083,-2,-1,-6,2,0,0,2,-2,10.415000000000001
2084,4,6,3,3,-2,-2,-2,-3,10.42
2085,1,1,0,0,-4,1,-2,-2,10.425
2086,-1,3,1,5,0,-2,0,1,10.43
2087,7,-1,-2,7,4,0,-2,-2,10.435
2088,2,-1,0,1,0,-1,1,2,10.44
2089,2,0,-3,0,-1,0,-1,4,10.445
2090,-1,-2,3,0,0,-1,0,1,10.450000000000001
2091,-5,-3,-4,-1,0,0,1,0,10.455
2092,-7,-2,-2,-5,-1,-3,-2,-4,10.46
2093,12,2,-4,-3,-2,-1,-4,-3,10.465
2094,10,1,-6,-1,-2,-2,-3,-1,10.47
2095,-7,-5,1,2,1,0,-2,0,10.475
2096,4,2,3,-1,0,-1,0,3,10.48
2097,-13,-3,2,-4,0,-3,0,-1,10.485
2098,-15,-4,-1,9,-6,0,2,2,10.49
2099,16,1,5,-4,-2,0,0,1,10.495000000000001
2100,-4,-10,-15,-5,-2,-1,-2,-1,10.5
2101,4,-1,-4,-5,0,-2,-2,1,10.505
2102,-5,-3,-2,-6,1,-1,-2,-1,10.51
2103,-11,0,2,-1,-1,-2,0,-4,10.515
2104,5,2,4,-1,0,-2,-1,6,10.52
2105,6,4,2,1,-2,-1,2,-4,10.525
2106,5,0,-4,-4,-3,0,-2,-3,10.53
2107,-6,-4,-2,1,-2,0,-1,1,10.535
2108,4,-3,-4,1,-2,1,0,-3,10.540000000000001
2109,-5,-6,-4,1,-1,-3,-5,-3,10.545
2110,6,0,3,0,0,-3,-3,-3,10.55
2111,1,1,-2,3,-3,-1,1,-1,10.555
2112,-7,-1,2,3,-1,-1,1,-2,10.56
2113,-1,-6,-3,-2,1,0,1,1,10.565
2114,5,1,-4,-8,2,1,-3,-2,10.57
2115,-13,3,2,-1,1,-2,-5,3,10.575000000000001
2116,-3,-1,-2,3,0,-5,-1,-9,10.58
2117,5,4,4,7,-2,-3,0,7,10.585
2118,3,-4,-3,-6,-1,2,-1,-2,10.59
2119,-6,-7,-2,-5,-2,0,-2,-4,10.595
2120,3,-3,2,-4,-2,1,0,-1,10.6
2121,-5,0,-5,-2,-3,-1,0,-2,10.605
2122,-5,-2,-1,3,-1,-1,-3,-4,10.61
2123,3,6,-1,4,2,3,-3,-2,10.615
2124,-4,1,-1,3,2,3,-1,-3,10.620000000000001
2125,4,1,-1,0,0,2,2,-2,10.625
2126,-2,0,4,-3,-1,-3,2,4,10.63
2127,-2,-9,-4,-3,-2,-5,-1,-1,10.635
2128,-1,0,8,0,-4,-3,-2,2,10.64
2129,-7,-2,-9,-2,0,-2,0,-2,10.645
2130,2,-5,-2,0,2,0,2,1,10.65
2131,-1,4,2,1,-1,1,-1,-2,10.655
2132,-2,0,-4,-4,-1,2,-1,-3,10.66
2133,4,-4,-3,-5,-1,-2,-2,-2,10.665000000000001
2134,-8,-2,4,-2,0,-2,0,5,10.67
2135,4,-1,-9,-5,-2,-2,-2,-3,10.675
2136,1,2,2,2,1,0,-2,0,10.68
2137,11,-2,-4,-2,-3,2,-1,-3,10.685
2138,-26,-8,-2,-2,-1,-1,-1,-2,10.69
2139,-8,3,4,2,2,0,1,1,10.695
2140,9,3,2,3,2,1,-1,5,10.700000000000001
2141,0,-1,0,0,0,-2,-2,-1,10.705
2142,10,2,0,-3,-5,-3,-6,-4,10.71
2143,-10,2,-3,2,-2,-1,-1,0,10.715
2144,1,1,-3,-2,-3,-7,-1,-1,10.72
2145,-2,-1,-4,-9,0,-1,0,2,10.725
2146,-9,0,-3,0,0,2,-1,-3,10.73
2147,3,-1,1,3,1,1,1,-3,10.735
2148,-4,0,-2,-3,0,0,0,-2,10.74
2149,-3,0,4,4,-1,-4,-1,2,10.745000000000001
2150,4,1,-1,-2,-1,-3,1,2,10.75
2151,-2,3,-4,-2,-2,-3,-1,1,10.755
2152,-2,-2,7,3,0,2,-1,0,10.76
2153,-5,-1,5,7,1,-1,-1,-2,10.765
2154,3,0,-3,3,1,-2,1,0,10.77
2155,8,-5,-2,-11,0,-1,2,3,10.775
2156,4,-4,-9,-3,-2,0,-5,-4,10.78
2157,-12,4,5,-2,-2,4,-2,0,10.785
2158,2,2,-2,3,0,1,1,-5,10.790000000000001
2159,-2,-5,-3,1,-1,1,1,1,10.795
2160,-11,1,4,-2,-2,-4,-1,0,10.8
2161,11,-8,-14,-4,-2,-1,-1,-6,10.805
2162,-3,-4,1,-2,-2,-2,2,0,10.81
2163,7,-6,-2,3,0,-4,0,-2,10.815
2164,-14,-5,-5,-1,0,-2,1,-2,10.82
2165,5,0,8,10,0,-1,1,0,10.825000000000001
2166,6,1,-8,3,-2,-1,-1,2,10.83
2167,-5,1,2,-1,-1,2,-1,-2,10.835
2168,4,0,-2,0,1,1,0,0,10.84
2169,-17,1,0,-6,0,-2,-1,3,10.845
2170,29,2,5,0,0,0,-3,-5,10.85
2171,-3,-3,1,4,0,0,-4,0,10.855
2172,0,-5,-4,3,0,0,-2,0,10.86
2173,1,0,0,-4,0,-1,0,-2,10.865
2174,-20,-4,-6,-1,1,1,1,0,10.870000000000001
2175,2,2,2,-9,-3,-3,-1,1,10.875
2176,-4,-1,-1,-2,-4,-4,0,-5,10.88
2177,-1,0,-3,-1,-4,-4,-2,-6,10.885
2178,3,3,8,-2,0,-2,-1,1,10.89
2179,1,-3,-5,-3,-2,-2,0,-1,10.895
2180,-1,-3,-6,-7,-4,-1,0,0,10.9
2181,2,-4,-3,1,1,1,-1,1,10.905
2182,3,3,0,0,0,0,-1,0,10.91
2183,-2,0,2,1,0,-1,-2,-1,10.915000000000001
2184,2,-3,3,-5,-1,1,-1,3,10.92
2185,0,-1,-8,-1,-1,1,-1,1,10.925
2186,-2,-1,-1,-6,0,-1,-2,-4,10.93
2187,0,0,-1,-3,2,-2,-1,6,10.935
2188,0,1,3,1,-2,-2,-1,-3,10.94
2189,-2,1,3,-5,-2,2,0,-3,10.945
2190,-3,-7,-3,1,1,2,-1,-4,10.950000000000001
2191,-4,4,7,6,-1,1,1,-4,10.955
2192,13,-4,0,6,0,3,0,-2,10.96
2193,-24,-2,-3,-1,-3,-4,0,0,10.965
2194,4,-4,-10,2,-4,-7,-3,4,10.97
2195,-1,4,3,4,1,-3,0,-1,10.975
2196,-3,-1,-1,-2,2,-3,-2,1,10.98
2197,8,0,3,-1,1,0,1,-1,10.985
2198,-4,1,2,-6,-2,0,1,-1,10.99
2199,-1,-4,-14,-10,-3,2,2,0,10.995000000000001
2200,-1,4,1,5,-1,-1,2,-3,11.0
2201,3,3,1,3,2,1,0,1,11.005
2202,-3,-1,2,-3,-3,2,-3,1,11.01
2203,1,-5,1,-2,-4,0,-2,0,11.015
2204,-2,-2,-2,-6,-1,-2,-2,1,11.02
2205,-1,-2,2,-1,0,-5,-1,0,11.025
2206,-1,4,2,2,3,-3,-2,-3,11.03
2207,1,-5,2,3,-1,-1,-3,-4,11.035
2208,-10,4,-6,-3,-3,1,-3,4,11.040000000000001
2209,1,1,4,-3,-1,2,-1,-3,11.045
2210,-18,0,1,2,0,1,1,10,11.05
2211,27,-2,-17,-2,-2,-3,-3,-9,11.055
2212,-4,6,6,0,1,-1,1,-1,11.06
2213,12,1,-3,-1,-2,-3,-3,-1,11.065
2214,-5,3,0,0,0,-1,1,-5,11.07
2215,-14,0,-7,1,-2,-1,1,-1,11.075000000000001
2216,3,1,-9,0,-3,2,0,0,11.08
2217,-3,0,8,-4,-3,0,2,-4,11.085
2218,8,-4,2,3,-2,0,0,0,11.09
2219,-2,6,4,7,1,2,-2,2,11.095
2220,5,-6,0,-2,2,2,-2,-5,11.1
2221,-1,1,-3,-2,1,0,-1,1,11.105
2222,2,-5,-2,-6,-3,-3,-3,-2,11.11
2223,0,0,0,0,-9,-2,0,3,11.115
2224,-5,2,-2,0,-5,2,-2,-2,11.120000000000001
2225,-4,-2,-4,2,-3,-1,1,-1,11.125
2226,-1,-2,1,4,1,1,-1,-1,11.13
2227,1,0,6,-10,1,-3,-1,-4,11.135
2228,4,-6,3,0,1,-2,2,0,11.14
2229,-1,-6,-6,-2,3,-4,-2,0,11.145
2230,7,-2,0,-1,2,0,0,-7,11.15
2231,-9,0,3,4,2,2,1,4,11.155
2232,1,-4,-4,2,1,-2,0,-1,11.16
2233,1,-3,-4,-7,-2,0,0,1,11.165000000000001
2234,-1,-2,2,-4,1,-2,-1,-2,11.17
2235,-10,8,-1,-2,0,-2,-1,-4,11.175
2236,18,-2,2,0,0,-1,-1,0,11.18
2237,-1,3,5,3,-1,0,-1,-1,11.185
2238,2,-3,1,-1,0,1,-2,0,11.19
2239,4,-3,-2,1,0,1,-2,-2,11.195
2240,-7,-1,-1,-3,0,-1,0,0,11.200000000000001
2241,-4,4,-1,2,1,-2,0,0,11.205
2242,-9,-2,4,0,-3,-3,-4,-1,11.21
2243,12,-3,-6,-1,-1,-3,1,6,11.215
2244,-10,-5,18,3,-1,-2,-2,-6,11.22
2245,-4,-3,-48,3,0,2,0,3,11.225
2246,2,4,9,0,0,-3,-1,-2,11.23
2247,-12,-4,17,-6,-3,-1,1,-2,11.235
2248,2,0,-25,-3,1,1,1,-1,11.24
2249,3,-2,32,4,-4,0,0,-2,11.245000000000001
2250,-5,2,-9,-3,-1,-1,-3,-4,11.25
2251,-8,-7,-2,-1,1,-2,-1,3,11.255
2252,-1,5,6,-7,-1,-1,-1,1,11.26
2253,2,1,1,-3,-2,-1,-2,-1,11.265
2254,6,3,-3,3,0,3,2,1,11.27
2255,2,-1,4,1,2,1,0,-4,11.275
2256,-5,-1,-5,-2,1,-1,1,-2,11.28
2257,-2,-5,0,-2,0,-3,1,-1,11.285
2258,3,-2,5,0,-4,-2,-1,-1,11.290000000000001
2259,-1,0,-9,2,-1,-1,-2,-2,11.295
2260,-8,0,-7,-1,-4,-3,-2,-1,11.3
2261,6,1,-4,-5,-6,0,-3,-2,11.305
2262,-2,0,-1,1,-1,0,-3,-1,11.31
2263,-3,-5,-8,-6,-4,-2,-2,-1,11.315
2264,5,-2,2,-1,-1,-2,3,4,11.32
2265,-15,-1,6,3,2,-1,-1,1,11.325000000000001
2266,29,18,-15,0,0,1,3,-8,11.33
2267,17,9,-10,-2,-1,-5,-3,-4,11.335
2268,-30,-16,-18,0,1,-1,2,8,11.34
2269,-2,-35,16,-5,-3,-3,-3,1,11.345
2270,-11,-5,1,1,1,2,-4,-1,11.35
2271,39,46,16,1,0,5,1,-12,11.355
2272,-74,-1,-15,8,-3,2,-1,-7,11.36
2273,32,-33,9,0,-8,-7,2,13,11.365
2274,-35,-35,-13,-11,1,2,4,12,11.370000000000001
2275,21,-19,3,8,-16,-8,-5,-7,11.375
2276,95,125,39,-17,9,-3,-6,-1,11.38
2277,-4,-85,3,24,12,9,5,-1,11.385
2278,-37,-49,-78,-44,-17,-4,4,-3,11.39
2279,-6,-53,-19,-32,-17,3,13,-1,11.395
2280,-27,-65,72,34,-2,-4,4,-8,11.4
2281,63,127,5,11,-24,-21,-34,27,11.405
2282,38,-92,2,24,18,-11,-11,-13,11.41
2283,-86,53,12,-51,10,9,-1,-9,11.415000000000001
2284,99,73,37,-9,-19,5,2,-4,11.42
2285,5,-92,-105,6,24,8,16,-23,11.425
2286,-52,98,58,-13,-30,-5,3,12,11.43
2287,-76,-126,-86,-33,-2,1,-28,-55,11.435
2288,56,89,38,34,-36,18,49,18,11.44
2289,-120,-53,27,-47,-19,-26,-35,-63,11.445
2290,125,-78,-8,99,77,19,15,89,11.450000000000001
2291,-84,65,-33,39,19,-35,-26,39,11.455
2292,-36,-128,-35,115,33,29,-8,-51,11.46
2293,61,24,11,-111,-56,37,67,-62,11.465
2294,-128,-28,29,-1,-77,-3,78,69,11.47
2295,67,85,22,14,-32,-53,-61,70,11.475
2296,-35,-128,-66,-3,-26,-43,-84,54,11.48
2297,23,127,-84,111,98,26,-23,-86,11.485
2298,-24,-29,10,-76,-10,-16,-54,33,11.49
2299,127,-5,9,118,93,70,107,-14,11.495000000000001
2300,-58,117,-23,-121,-33,-6,-44,27,11.5
2301,31,-128,99,127,-20,-1,55,74,11.505
2302,18,127,-50,14,5,25,79,39,11.51
2303,84,-21,14,-64,-41,-14,8,115,11.515
2304,-93,-118,-1,-52,-6,-17,-58,-104,11.52
2305,16,-75,-29,-98,-28,-13,-20,127,11.525
2306,-32,-128,43,-52,-10,-7,40,-102,11.53
2307,5,-5,1,68,-12,20,-3,-78,11.535
2308,-24,84,120,-27,-14,-9,15,-23,11.540000000000001
2309,-16,1,-59,-39,-54,-29,-46,-21,11.545
2310,115,-47,32,43,23,10,35,-90,11.55
2311,-91,-88,-17,-47,66,-22,-68,88,11.555
2312,127,29,36,28,50,39,95,-110,11.56
2313,-67,-64,71,122,-18,-14,19,127,11.565
2314,11,127,20,-15,-6,-31,-128,67,11.57
2315,13,-48,-61,-19,-55,7,-15,-128,11.575000000000001
2316,74,-21,-38,-2,38,18,27,127,11.58
2317,-8,49,-17,-128,-91,-18,2,58,11.585
2318,127,116,-26,109,101,40,80,-73,11.59
2319,-39,-10,103,66,-7,-14,-37,-32,11.595
2320,-81,44,-105,-83,-34,-6,-22,-94,11.6
2321,-14,-56,58,117,56,12,34,57,11.605
2322,2,92,-32,-95,-128,36,-56,-32,11.61
2323,-92,-14,-26,90,-12,-48,15,-69,11.615
2324,95,-23,46,-16,20,4,-37,-7,11.620000000000001
2325,-102,15,60,-72,38,-49,-7,-113,11.625
2326,-71,-128,-88,-108,-15,34,37,86,11.63
2327,-24,25,75,-17,-7,0,11,102,11.635
2328,78,-3,35,-67,-86,-43,19,-45,11.64
2329,-23,-7,-95,57,103,63,58,-123,11.645
2330,-67,3,83,-43,-83,-58,-74,54,11.65
2331,-64,-30,-22,-21,-14,20,-3,-68,11.655
2332,-43,-10,-37,105,20,1,34,127,11.66
2333,74,80,35,39,-101,-19,-23,104,11.665000000000001
2334,82,-1,-24,108,116,27,-9,-112,11.67
2335,65,65,74,59,52,-20,54,-51,11.675
2336,-21,21,-97,13,-81,-30,-4,106,11.68
2337,127,127,25,-103,-74,-3,-23,-36,11.685
2338,-31,-128,12,54,68,11,37,-43,11.69
2339,17,50,28,-80,-112,-8,16,-66,11.695
2340,102,24,127,33,45,42,6,14,11.700000000000001
2341,-18,-1,-114,-128,-63,-11,23,-88,11.705
2342,109,127,80,48,-6,-3,-5,93,11.71
2343,-80,-108,-2,9,45,36,-42,-31,11.715
2344,-28,58,-53,-21,-35,-62,-16,54,11.72
2345,-25,-102,-70,-44,15,4,21,-38,11.725
2346,9,66,-2,-57,-33,-36,-82,37,11.73
2347,51,-55,46,1,-2,24,13,-52,11.735
2348,-21,34,-61,-84,10,-5,68,58,11.74
2349,-63,61,70,125,64,17,-61,19,11.745000000000001
2350,3,-88,-40,37,-82,-25,5,-128,11.75
2351,77,-40,-2,-128,-25,35,49,2,11.755
2352,42,-1,-34,117,107,39,-38,59,11.76
2353,47,-60,113,26,6,-2,-21,-128,11.765
2354,-126,-47,-19,109,-58,-53,-83,-92,11.77
2355,46,85,62,-83,37,37,5,127,11.775
2356,0,-128,-54,-75,-5,17,88,-115,11.78
2357,-44,-56,-5,-112,-66,-58,-97,127,11.785
2358,67,34,44,47,80,-33,70,42,11.790000000000001
2359,52,-87,-91,-116,-43,-34,-90,124,11.795
2360,-43,10,14,40,-3,6,23,60,11.8
2361,58,60,48,-67,81,99,55,-65,11.805
2362,-109,-67,-78,-81,-106,-29,36,30,11.81
2363,3,111,72,29,-14,34,-91,-30,11.815
2364,-9,-128,-49,34,-54,-57,-32,-48,11.82
2365,47,125,8,-6,10,-23,1,-57,11.825000000000001
2366,-47,-23,51,-61,-24,-14,-4,37,11.83
2367,10,21,0,92,27,74,-26,122,11.835
2368,61,46,-41,-82,-31,8,-46,-128,11.84
2369,-107,-97,-80,9,-34,-11,4,-6,11.845
2370,-48,-41,21,-31,-24,-26,-24,-128,11.85
2371,99,-31,-79,-72,-115,49,72,72,11.855
2372,-57,99,82,57,59,-24,23,-15,11.86
2373,47,-11,12,-72,-52,-18,-27,127,11.865
2374,-20,-3,-3,-26,48,55,9,10,11.870000000000001
2375,-35,-73,-34,-73,-35,-10,111,-49,11.875
2376,97,81,24,-73,17,-55,-69,-36,11.88
2377,-36,-41,40,127,53,57,22,25,11.885
2378,-80,-89,-14,-73,-13,66,20,-61,11.89
2379,61,127,-36,63,57,22,87,117,11.895
2380,-125,-106,4,82,93,13,18,-60,11.9
2381,72,-29,3,-66,-27,-7,-38,59,11.905
2382,93,18,27,-38,-71,-62,-22,-56,11.91
2383,-111,4,-8,-16,42,11,13,-128,11.915000000000001
2384,30,84,1,49,-51,4,2,127,11.92
2385,42,-86,30,35,99,-13,16,-61,11.925
2386,14,127,-58,31,-4,71,2,-57,11.93
2387,111,-17,53,54,10,-39,-40,-91,11.935
2388,-65,-50,51,-38,-123,-17,34,20,11.94
2389,48,42,-69,110,-14,41,-4,-12,11.945
2390,50,-21,53,-66,54,-114,7,64,11.950000000000001
2391,28,26,-8,100,41,6,-33,72,11.955
2392,-13,-80,-24,-31,-4,59,-8,26,11.96
2393,21,-10,4,-25,11,-79,29,-41,11.965
2394,7,30,48,-39,3,56,-13,-14,11.97
2395,85,-51,-34,64,-94,-32,-7,69,11.975
2396,-103,29,31,-128,18,-4,-25,-124,11.98
2397,3,2,6,6,-89,-64,36,-50,11.985
2398,23,-21,-67,1,103,46,-34,127,11.99
2399,-99,-84,107,-77,-110,-83,102,-74,11.995000000000001
2400,27,38,-113,-69,21,28,-73,-69,12.0
2401,-71,-2,-26,-49,-116,-33,20,81,12.005
2402,-1,35,-83,-38,82,80,-2,-64,12.01
2403,50,-77,4,23,4,-75,50,110,12.015
2404,-92,-36,127,19,-53,-83,1,-6,12.02
2405,7,111,-44,-128,-85,50,0,-128,12.025
2406,-48,-87,62,120,-53,3,-48,127,12.030000000000001
2407,-16,84,18,-107,34,-2,35,-128,12.035
2408,99,-5,-52,-36,1,48,1,7,12.040000000000001
2409,81,125,-13,-99,-53,-36,44,-43,12.045
2410,-18,-72,-18,102,46,-49,-7,98,12.05
2411,-11,58,-7,-86,-74,8,-67,-79,12.055
2412,-3,-42,-34,-92,13,-60,-19,-58,12.06
2413,14,-36,27,57,79,127,71,90,12.065
2414,54,56,67,-50,-36,-68,-16,-105,12.07
2415,-30,-25,-118,54,46,-32,-61,114,12.075000000000001
2416,121,-3,-5,23,-31,-14,47,54,12.08
2417,-102,-8,-51,10,-34,-69,-22,-91,12.085
2418,22,11,-1,-6,50,29,95,85,12.09
2419,32,104,-4,24,29,35,-70,73,12.095
2420,100,125,72,43,38,54,52,-79,12.1
2421,-102,-95,39,29,-26,2,-44,-6,12.105
2422,-19,-37,-17,1,-81,-71,100,23,12.11
2423,58,97,52,-47,91,53,-61,-36,12.115
2424,-128,20,59,50,-45,27,-9,52,12.120000000000001
2425,77,69,-62,-91,2,37,-23,-101,12.125
2426,-30,-32,52,58,9,18,-40,27,12.13
2427,-63,-83,-59,60,33,54,91,-69,12.135
2428,57,7,15,-21,-106,-70,-39,106,12.14
2429,127,66,14,-54,47,-50,-32,-41,12.145
2430,-57,-69,-33,-126,-85,25,4,-9,12.15
2431,89,22,5,46,53,-3,1,-47,12.155000000000001
2432,-20,-10,104,13,-70,-54,-48,127,12.16
2433,9,-17,-61,16,117,71,9,-68,12.165000000000001
2434,55,-28,20,-51,-113,52,89,57,12.17
2435,-8,76,93,31,68,-55,-38,71,12.175
2436,-114,-116,-83,-33,-6,73,-14,-82,12.18
2437,-18,-22,7,127,42,-18,56,127,12.185
2438,111,125,30,-91,-32,34,8,-128,12.19
2439,-77,-115,10,-72,41,-4,60,-84,12.195
2440,127,90,8,110,-11,-15,-50,78,12.200000000000001
2441,-17,9,5,-11,46,-17,63,-2,12.205
2442,-71,-63,13,62,37,-71,-127,-23,12.21
2443,-13,76,-27,-57,-121,2,74,-109,12.215
2444,43,-128,5,0,71,32,6,51,12.22
2445,-48,38,9,-79,-88,-13,-15,-90,12.225
2446,39,66,-105,111,84,-53,7,94,12.23
2447,-25,26,-22,-37,-54,4,-56,-18,12.235
2448,3,68,29,-3,-39,48,111,-128,12.24
2449,-38,-88,120,127,88,12,-7,105,12.245000000000001
2450,82,38,-17,-51,-81,-24,-66,-3,12.25
2451,21,-9,-2,-33,-8,57,30,-59,12.255
2452,-97,-47,-41,43,-78,-73,-11,78,12.26
2453,32,-21,-59,-35,49,74,54,95,12.265
2454,-64,28,0,-44,17,-24,-26,-90,12.27
2455,-5,-124,-47,7,-23,-40,14,-80,12.275
2456,13,51,-37,-93,-19,72,-4,45,12.280000000000001
2457,-8,-67,7,8,-10,-16,43,-62,12.285
2458,-74,16,-17,25,47,11,-28,5,12.290000000000001
2459,0,-78,17,-27,-58,64,31,127,12.295
2460,94,-6,-79,-1,105,-74,-66,-68,12.3
2461,14,107,84,-52,-126,-51,-25,-78,12.305
2462,16,-1,-33,25,120,126,-3,95,12.31
2463,-57,28,40,46,-126,-128,-35,-27,12.315
2464,3,-70,16,-45,-24,35,41,1,12.32
2465,5,-71,20,-72,-77,-3,-53,-11,12.325000000000001
2466,42,-99,29,27,-11,-36,23,-46,12.33
2467,-13,98,47,-86,-76,-37,-2,12,12.335
2468,-44,1,5,105,127,114,23,67,12.34
2469,114,-58,-44,34,-10,-122,-16,90,12.345
2470,-116,-1,4,-92,-75,9,-10,6,12.35
2471,85,-88,-77,16,-34,-23,-13,84,12.355
2472,23,68,75,-50,16,49,-43,-49,12.36
2473,-50,66,-26,5,-3,-28,47,46,12.365
2474,127,4,-13,45,-62,-24,4,-60,12.370000000000001
2475,-110,-13,-5,-59,3,-5,69,54,12.375
2476,71,100,3,43,27,54,25,-66,12.38
2477,-89,-47,-62,-19,99,25,-74,127,12.385
2478,36,6,-79,-51,4,-40,-39,18,12.39
2479,-68,-1,79,29,22,20,-1,-116,12.395
2480,-1,-37,-66,-21,-28,-5,5,-28,12.4
2481,16,57,39,23,-3,34,-2,-39,12.405000000000001
2482,11,10,31,-87,-16,-41,40,-39,12.41
2483,23,2,-13,71,-7,7,-73,-70,12.415000000000001
2484,-52,-60,-43,-68,32,-34,41,56,12.42
2485,-18,22,50,17,-17,69,-39,-108,12.425
2486,20,9,-73,-94,-74,-63,39,-39,12.43
2487,6,-57,38,67,59,111,-1,127,12.435
2488,95,61,-21,-55,-118,-128,-41,-23,12.44
2489,-99,-82,-13,-55,68,7,-35,-95,12.445
2490,83,-15,26,55,-33,67,0,-6,12.450000000000001
2491,44,67,-5,-71,45,6,-59,-83,12.455
2492,60,78,41,19,-40,-8,-2,-50,12.46
2493,-14,-88,76,-4,-16,-98,-21,52,12.465
2494,21,22,-59,-18,44,87,107,-51,12.47
2495,-103,52,20,41,-67,-118,-8,126,12.475
2496,-38,-16,-35,-40,96,78,-37,-89,12.48
2497,16,-34,6,-112,-128,32,27,-21,12.485
2498,73,-16,56,44,89,31,-25,5,12.49
2499,62,12,4,-32,-38,-11,44,69,12.495000000000001
2500,-65,52,25,-25,-30,-42,-14,77,12.5
2501,-17,99,38,-14,-48,-6,7,-98,12.505
2502,-16,0,47,2,-17,-11,18,-14,12.51
2503,15,-7,-68,6,24,12,-31,-59,12.515
2504,-81,-81,20,10,7,-35,1,-1,12.52
2505,126,0,-24,57,33,72,-23,26,12.525
2506,-9,4,30,1,-45,-29,-15,25,12.530000000000001
2507,-72,3,-40,17,64,17,27,-17,12.535
2508,77,-53,-43,-11,-18,95,15,-27,12.540000000000001
2509,-39,-5,-49,27,4,-66,-17,-5,12.545
2510,45,21,63,20,33,-52,-100,92,12.55
2511,39,9,59,-19,-12,-88,53,12,12.555
2512,-14,-58,-36,-5,-28,-9,-27,-78,12.56
2513,86,103,40,25,29,1,-34,25,12.565
2514,-71,-3,-5,-16,-17,-90,-95,26,12.57
2515,-19,-91,-117,-14,19,68,106,-98,12.575000000000001
2516,25,-13,76,15,9,73,-57,-67,12.58
2517,-23,-28,40,27,1,-67,-39,-68,12.585
2518,-104,-68,127,-18,-4,90,50,-33,12.59
2519,41,-122,9,-25,4,6,18,81,12.595
2520,-128,-128,114,45,-22,-30,-2,-34,12.6
2521,-58,6,24,-26,19,5,-15,-49,12.605
2522,56,119,-127,1,-6,12,74,-67,12.61
2523,-65,127,58,-16,5,23,-35,-43,12.615
2524,94,127,-44,-67,-28,-3,34,74,12.620000000000001
2525,-4,117,11,34,26,-26,0,84,12.625
2526,-83,77,84,28,-8,-25,-45,-12,12.63
2527,-10,127,-104,-39,10,7,-42,16,12.635
2528,20,97,-84,31,-8,-25,44,65,12.64
2529,-5,-6,-23,-19,-12,29,-61,38,12.645
2530,-63,-92,-33,7,11,11,15,1,12.65
2531,63,-111,-75,1,-8,-4,-53,-39,12.655000000000001
2532,67,-64,28,47,11,-6,85,39,12.66
2533,7,-114,-113,-47,-22,45,66,68,12.665000000000001
2534,-18,-30,73,-7,-3,19,16,1,12.67
2535,-13,-36,94,30,11,26,-8,-57,12.675
2536,-52,-45,27,-10,-3,-46,-19,0,12.68
2537,25,-10,-25,26,3,11,8,8,12.685
2538,14,-13,53,-24,-2,-5,-2,19,12.69
2539,-54,-40,-89,6,-5,-56,-66,31,12.695
2540,-8,-25,-13,-13,4,13,45,17,12.700000000000001
2541,-25,-31,54,33,8,28,11,-35,12.705
2542,-52,-13,28,-20,-4,-22,-29,15,12.71
2543,-7,-1,65,1,-6,-7,-23,-19,12.715
2544,-59,-14,-37,25,15,-4,6,18,12.72
2545,-82,-18,-9,7,-7,-5,20,-29,12.725
2546,51,1,-48,24,-11,-1,58,-8,12.73
2547,21,2,-36,-27,21,19,-17,20,12.735
2548,-4,1,-24,-9,-13,-29,-29,-12,12.74
2549,67,19,-26,-9,-6,-17,3,13,12.745000000000001
2550,-42,-27,-59,-1,-5,6,-24,9,12.75
2551,97,-9,65,1,2,26,22,9,12.755
2552,-16,-13,-92,-13,1,-22,-19,-7,12.76
2553,-37,5,41,12,-1,27,21,16,12.765
2554,55,8,-63,-25,-3,-1,27,-3,12.77
2555,3,17,-21,14,0,-19,-30,5,12.775
2556,8,-8,20,-4,4,-6,-3,-26,12.780000000000001
2557,-45,-15,22,5,-6,-5,9,9,12.785
2558,34,19,-34,-8,1,1,-6,-5,12.790000000000001
2559,-20,26,61,14,1,-7,-7,0,12.795
2560,-16,-8,46,7,-1,6,-1,-2,12.8
2561,21,0,-33,-2,-6,-6,2,7,12.805
2562,-37,-20,-57,6,2,1,-10,-11,12.81
2563,8,-8,96,13,-1,-5,1,0,12.815
2564,-41,18,91,-34,-2,-1,5,-2,12.82
2565,39,-19,7,21,2,0,-15,-6,12.825000000000001
2566,-6,15,8,8,5,6,10,6,12.83
2567,-2,-10,-114,-9,-9,-8,-1,-22,12.835
2568,5,-8,-16,-12,1,-1,-6,-9,12.84
2569,-5,5,19,-18,0,-1,0,5,12.845
2570,-4,0,-11,-3,-1,4,1,-3,12.85
2571,-6,-5,-21,22,0,-3,-1,-5,12.855
2572,-7,-5,18,-4,1,1,-6,14,12.86
2573,5,16,-61,10,-4,-5,1,1,12.865
2574,5,5,-3,11,1,3,10,3,12.870000000000001
2575,-4,-5,-12,-3,-4,-7,-7,1,12.875
2576,-3,-1,-41,-7,-1,1,0,-13,12.88
2577,12,11,10,4,-1,-4,-2,6,12.885
2578,6,-3,4,0,0,-4,-5,-7,12.89
2579,-2,1,-55,-14,-1,-4,-11,12,12.895
2580,-10,4,-1,1,-1,4,9,-6,12.9
2581,6,-1,-5,-8,-1,-3,-1,-3,12.905000000000001
2582,-9,-1,38,3,-1,-7,-12,-14,12.91
2583,6,11,14,-2,0,13,12,8,12.915000000000001
2584,-29,-30,-21,1,-2,-5,-7,-9,12.92
2585,5,8,18,-7,0,-5,1,-9,12.925
2586,18,-5,9,14,3,1,7,-24,12.93
2587,-30,-4,-12,-7,-1,-7,-4,40,12.935
2588,33,8,11,5,-3,3,-4,-3,12.94
2589,-6,-5,-13,5,7,3,4,21,12.945
2590,-15,12,-4,-14,0,1,-4,-32,12.950000000000001
2591,39,-2,-11,-3,-3,-4,2,24,12.955
2592,13,-18,8,1,2,-1,2,1,12.96
2593,-21,0,2,-23,-8,-4,-3,8,12.965
2594,34,-22,-5,16,0,1,4,13,12.97
2595,-18,-16,28,-8,-2,-3,-1,-19,12.975
2596,-7,2,4,-3,1,-1,-2,-2,12.98
2597,0,-15,-11,-7,-2,2,-1,-16,12.985
2598,-8,-15,10,4,2,2,2,8,12.99
2599,4,0,7,6,-2,0,2,-9,12.995000000000001
2600,-1,7,4,5,-1,-3,-6,-4,13.0
2601,9,-8,-18,-6,-1,-2,-1,3,13.005
2602,-12,16,-5,-1,1,-1,1,10,13.01
2603,4,4,6,8,-2,-4,-3,-8,13.015
2604,-8,10,-12,-8,-3,-2,0,-2,13.02
2605,8,14,4,-2,1,3,0,-3,13.025
2606,-3,14,-22,-4,-1,-1,2,6,13.030000000000001
2607,-11,12,-5,-7,-2,-6,-2,-10,13.035
2608,19,5,5,5,2,1,3,-1,13.040000000000001
2609,0,3,-8,-3,-2,-1,1,-5,13.045
2610,-2,3,10,1,-1,2,-2,1,13.05
2611,0,1,10,-3,-1,-2,-1,-8,13.055
2612,-11,2,-14,3,2,-2,-1,-6,13.06
2613,0,-13,-3,4,1,-1,-1,11,13.065
2614,-2,3,1,-4,-5,-2,-4,4,13.07
2615,7,0,5,7,1,2,-4,-1,13.075000000000001
2616,-11,0,-4,-4,-2,-1,-2,1,13.08
2617,9,-2,2,-4,-3,-1,-4,-8,13.085
2618,-5,-3,4,4,3,-1,4,11,13.09
2619,2,-2,-2,-16,0,1,3,-4,13.095
2620,5,-1,2,3,1,0,-2,-6,13.1
2621,-8,3,-6,-6,-2,2,0,1,13.105
2622,-4,4,-2,-3,-3,-3,0,-1,13.11
2623,7,1,4,6,-1,-6,0,-1,13.115
2624,-10,2,-5,1,-2,-1,-1,5,13.120000000000001
2625,-1,1,-4,2,-2,-3,1,-1,13.125
2626,1,2,-3,1,3,2,-1,-4,13.13
2627,-3,1,4,-3,-1,-1,-1,-3,13.135
2628,-2,1,0,-5,1,-1,0,0,13.14
2629,2,1,1,2,-1,-2,-1,-3,13.145
2630,4,-1,5,11,-1,-1,-1,-3,13.15
2631,-1,3,3,1,0,0,-1,1,13.155000000000001
2632,0,-2,-3,3,0,0,-1,-2,13.16
2633,5,1,6,1,-1,1,-2,-2,13.165000000000001
2634,-7,-3,1,3,-3,0,-1,0,13.17
2635,-2,-5,3,4,-2,0,-1,1,13.175
2636,-3,-4,1,-1,0,-1,-1,-1,13.18
2637,10,-3,-2,-1,-1,-4,2,-4,13.185
2638,-9,-2,1,-2,0,2,1,-1,13.19
2639,17,-3,-3,-2,0,-1,-1,0,13.195
2640,1,-3,-3,-1,-2,0,-1,0,13.200000000000001
2641,-4,-9,-8,-14,-1,-3,-4,-1,13.205
2642,-6,0,15,15,-1,0,-2,0,13.21
2643,1,1,-2,-6,0,0,-1,0,13.215
2644,-1,-5,0,-2,0,-1,-1,3,13.22
2645,0,-1,-3,4,0,2,5,0,13.225
2646,9,-1,-5,-10,-1,-1,0,-5,13.23
2647,-22,-1,1,1,1,-1,2,1,13.235
2648,-4,2,-3,1,-2,-3,0,3,13.24
2649,-3,-2,-5,4,-1,-2,-5,-2,13.245000000000001
2650,1,-2,-4,-10,-2,-3,-1,-4,13.25
2651,0,-8,0,3,-1,-1,-1,-5,13.255
2652,6,-4,-2,-4,-1,0,0,-3,13.26
2653,-3,4,4,1,1,0,-1,-2,13.265
2654,-2,4,-1,-4,-2,2,0,3,13.27
2655,-2,6,2,2,-2,-2,0,0,13.275
2656,-1,5,1,-1,-5,-4,0,0,13.280000000000001
2657,1,1,-9,-3,-2,0,0,-1,13.285
2658,2,1,-9,-4,0,-2,0,0,13.290000000000001
2659,-1,2,-3,-2,-1,-2,1,0,13.295
2660,-1,4,5,1,3,-1,0,-1,13.3
2661,-2,2,2,0,-1,-1,-1,1,13.305
2662,-3,0,2,-8,-4,0,1,2,13.31
2663,-5,-11,1,0,0,2,1,1,13.315
2664,4,-11,-4,3,-2,-1,-3,-4,13.32
2665,-1,-2,0,-1,-1,0,-3,1,13.325000000000001
2666,-6,-7,-11,-8,-2,-1,-2,1,13.33
2667,11,7,10,8,2,1,0,-2,13.335
2668,2,7,1,-4,0,0,0,0,13.34
2669,-3,1,3,3,0,-1,-1,0,13.345
2670,-8,-3,-6,-5,-3,0,-2,-1,13.35
2671,-1,3,-5,-1,1,-2,-1,-3,13.355
2672,-17,-3,-3,1,-1,-2,2,-12,13.36
2673,22,0,2,4,2,-2,-1,6,13.365
2674,10,-2,4,3,1,-2,-1,-6,13.370000000000001
2675,-10,-3,-2,-2,-3,-2,-2,4,13.375
2676,3,-2,-7,-5,-3,-1,-1,-4,13.38
2677,-10,0,3,1,-2,0,-1,-3,13.385
2678,-1,-4,-3,-3,-1,-3,-2,-3,13.39
2679,5,-5,-2,-3,0,-1,-3,-1,13.395
2680,-3,-2,0,-3,-3,1,-3,4,13.4
2681,-7,-2,-2,-5,-2,1,-1,-4,13.405000000000001
2682,4,3,-1,5,-1,-2,-2,1,13.41
2683,0,-1,-3,-9,-4,-3,0,0,13.415000000000001
2684,-2,2,8,7,1,-1,0,3,13.42
2685,-3,0,-5,0,2,-4,2,-1,13.425
2686,0,4,5,3,2,0,1,0,13.43
2687,-1,-2,1,6,0,-1,-2,0,13.435
2688,1,-13,5,-6,0,2,1,1,13.44
2689,1,-10,-5,-6,-3,-2,2,-1,13.445
2690,-3,-3,-3,-6,-2,-1,0,1,13.450000000000001
2691,4,3,-7,-7,-2,-1,0,-3,13.455
2692,3,9,-3,2,-2,-2,-2,1,13.46
2693,10,5,5,3,0,-2,-1,-4,13.465
2694,-6,0,-2,0,1,-1,-1,-1,13.47
2695,-4,-1,-2,3,0,-1,-2,0,13.475
2696,1,-1,-6,-3,0,-1,-3,-1,13.48
2697,-16,2,-8,-2,-4,2,-3,0,13.485
2698,10,1,5,-3,-2,0,-2,-1,13.49
2699,11,0,2,-5,-2,0,0,-7,13.495000000000001
2700,-11,-1,-1,6,0,-2,-1,3,13.5
2701,-13,-2,0,0,1,-2,1,-3,13.505
2702,1,-3,1,-2,-1,-2,2,-1,13.51
2703,-2,-1,-2,-2,-1,-3,0,-6,13.515
2704,3,5,-2,-3,-1,-1,1,0,13.52
2705,-7,-4,-6,-3,1,1,1,1,13.525
2706,-1,0,-1,2,1,-2,-3,-1,13.530000000000001
2707,1,-2,7,9,0,-2,-4,-3,13.535
2708,2,3,1,-3,0,-1,0,0,13.540000000000001
2709,-13,0,6,2,-1,0,-3,0,13.545
2710,1,-3,-7,-2,1,0,-2,-1,13.55
2711,-3,-15,-7,-3,-1,0,0,3,13.555
2712,0,-11,-3,1,0,-1,1,-1,13.56
2713,4,-4,2,1,-1,-2,-1,-2,13.565
2714,-2,3,-2,-4,-4,-2,3,1,13.57
2715,-7,9,1,6,-2,0,1,3,13.575000000000001
2716,0,2,0,-10,-3,-1,-4,-5,13.58
2717,6,4,0,0,-3,2,-1,-3,13.585
2718,-4,-1,-1,3,0,-2,-2,0,13.59
2719,-23,-3,-6,-3,-2,0,-1,-6,13.595
2720,5,-1,0,-1,-1,-1,1,2,13.6
2721,3,3,0,-6,-3,-3,-2,-1,13.605
2722,2,1,-2,-2,0,0,-1,3,13.61
2723,-2,2,-5,1,-1,-3,-2,0,13.615
2724,0,0,-1,5,1,-1,-6,-1,13.620000000000001
2725,-2,-2,-5,-3,-1,-1,-7,0,13.625
2726,2,-4,4,4,-2,1,-11,-1,13.63
2727,7,0,-3,-6,0,3,-9,1,13.635
2728,-4,1,-9,-11,-3,1,-7,0,13.64
2729,20,-2,6,3,0,0,-1,-3,13.645
2730,-62,-1,-1,-2,-2,2,6,-13,13.65
2731,16,-2,-2,5,-3,0,1,10,13.655000000000001
2732,4,-1,6,-4,0,0,5,-2,13.66
2733,-5,-1,-1,1,-2,1,3,0,13.665000000000001
2734,3,-4,1,7,3,-2,-2,-1,13.67
2735,-16,0,-4,-9,-3,-4,5,-1,13.675
2736,3,-3,-12,-9,-2,0,5,-1,13.68
2737,-1,-3,3,-5,-2,-3,7,0,13.685
2738,10,-1,3,0,-3,-1,5,0,13.69
2739,4,-2,0,1,1,-1,3,-4,13.695
2740,2,0,2,7,0,-3,0,1,13.700000000000001
2741,-4,-6,-3,0,1,-1,-1,-1,13.705
2742,8,1,-4,-3,1,1,-2,3,13.71
2743,-4,-4,4,3,0,1,-2,2,13.715
2744,-5,3,-2,3,1,1,-3,-4,13.72
2745,-4,2,-2,2,1,1,-7,-2,13.725
2746,7,-4,-3,-1,0,-5,-1,3,13.73
2747,6,2,1,-5,-1,-1,-1,-2,13.735
2748,-4,-2,5,-3,-2,-2,-1,0,13.74
2749,0,-2,-3,-6,-3,-1,0,0,13.745000000000001
2750,6,-1,-2,-10,-4,-1,0,3,13.75
2751,2,-2,2,-1,-3,0,1,3,13.755
2752,0,-1,-5,1,-6,0,1,0,13.76
2753,-1,-1,-1,2,-1,3,0,3,13.765
2754,2,-2,-6,3,1,-2,0,-4,13.77
2755,0,-1,3,0,-2,0,2,-1,13.775
2756,1,-4,4,2,2,-3,0,-6,13.780000000000001
2757,-22,-2,2,6,1,-2,0,-2,13.785
2758,-8,-5,1,0,-1,1,1,-4,13.790000000000001
2759,10,1,-11,-14,2,-1,-1,-3,13.795
2760,-1,-5,-2,-3,0,1,2,0,13.8
2761,11,3,4,-7,0,-1,1,-3,13.805
2762,-5,3,9,9,-2,-4,-3,-1,13.81
2763,2,-2,-2,4,1,-2,-2,-7,13.815
2764,-2,-2,0,3,-2,-1,-2,2,13.82
2765,-9,-3,1,6,2,0,1,-1,13.825000000000001
2766,21,3,-4,-10,-1,-1,0,-6,13.83
2767,10,0,-3,1,-1,0,-3,-2,13.835
2768,-19,-2,0,-8,-1,0,-5,2,13.84
2769,0,3,-3,-3,-3,0,-2,3,13.845
2770,-6,0,-4,1,-3,1,-4,-1,13.85
2771,-10,0,0,4,-1,-1,0,0,13.855
2772,10,1,1,4,0,-4,-1,-3,13.86
2773,-3,-1,-1,4,0,-1,0,-1,13.865
2774,-4,-3,-4,-6,0,0,1,2,13.870000000000001
2775,1,-3,-5,-11,-4,1,-1,1,13.875
2776,0,-2,7,4,-3,3,0,0,13.88
2777,3,-5,-9,-10,-5,-1,0,-3,13.885
2778,5,1,6,14,1,-1,-1,1,13.89
2779,-5,-2,4,0,1,-2,-4,1,13.895
2780,1,-3,-7,-4,1,2,-1,-3,13.9
2781,9,0,5,0,1,-1,1,0,13.905000000000001
2782,0,-3,-4,-3,-1,2,-1,-1,13.91
2783,-10,3,3,-4,2,-2,0,1,13.915000000000001
2784,1,4,-4,-4,-2,-3,-4,0,13.92
2785,4,2,4,1,0,-1,-2,3,13.925
2786,-3,-1,-6,2,-2,-1,-2,1,13.93
2787,-1,-2,1,2,-2,-4,-4,0,13.935
2788,3,3,1,1,1,-3,-2,-1,13.94
2789,-2,-2,-7,-2,0,0,-4,-1,13.945
2790,-1,-1,2,-3,-2,0,-1,-2,13.950000000000001
2791,-18,0,5,5,-3,0,1,1,13.955
2792,30,2,-3,6,-1,-1,0,-2,13.96
2793,-5,2,0,-3,-1,-1,2,-2,13.965
2794,-2,-3,-6,-8,0,-4,2,0,13.97
2795,-1,-6,5,4,2,2,1,-2,13.975
2796,-13,-1,-3,-1,-2,0,1,1,13.98
2797,6,1,0,-1,-1,-2,-1,0,13.985
2798,-2,0,-1,-5,-1,0,-3,2,13.99
2799,-1,2,-4,0,-2,1,2,-1,13.995000000000001
2800,-2,-4,2,3,2,1,1,-17,14.0
2801,-8,3,-2,-2,-1,-2,-5,1,14.005
2802,-3,3,11,1,2,1,1,-2,14.01
2803,0,-11,-10,-9,-1,-3,0,-3,14.015
2804,-5,-5,1,2,-1,-2,2,-2,14.02
2805,1,-3,-5,1,1,0,0,-6,14.025
2806,-4,4,-1,2,-2,0,-3,-4,14.030000000000001
2807,0,6,2,-2,-2,-2,-5,4,14.035
2808,-8,-1,-5,-1,-2,-4,-5,4,14.040000000000001
2809,1,-5,6,-4,-1,-3,-3,0,14.045
2810,3,-2,1,0,-2,-3,-2,3,14.05
2811,1,1,-2,-4,2,3,0,-4,14.055
2812,-3,-2,0,-1,0,1,1,1,14.06
2813,0,1,-6,1,-1,1,3,1,14.065
2814,-1,-9,-7,-1,-2,-2,0,-4,14.07
2815,1,3,-6,0,-2,-3,0,-3,14.075000000000001
2816,-8,4,4,7,0,-2,-2,3,14.08
2817,11,4,7,-10,1,-2,-2,-2,14.085
2818,-11,-2,-10,-1,-4,-2,-4,-1,14.09
2819,16,1,5,12,0,2,-2,2,14.095
2820,-8,1,-7,-2,-1,2,1,2,14.1
2821,-1,-6,2,8,-1,0,-1,-1,14.105
2822,-7,-2,-1,-3,1,2,4,-2,14.11
2823,-5,-2,-2,-6,0,0,1,1,14.115
2824,-3,-2,0,-3,1,1,-1,-1,14.120000000000001
2825,5,-2,-6,0,-1,-1,-2,-6,14.125
2826,-18,4,4,-6,0,-1,-2,10,14.13
2827,9,2,2,7,-1,-2,2,0,14.135
2828,1,-2,0,-9,-4,-4,1,0,14.14
2829,-1,0,3,4,-2,0,0,-2,14.145
2830,7,-1,0,0,3,0,1,-1,14.15
2831,-4,3,-3,3,-3,-1,0,-4,14.155000000000001
2832,4,0,2,0,-1,2,1,-1,14.16
2833,1,-4,-5,-1,-3,1,2,0,14.165000000000001
2834,6,-1,-5,-3,-2,-1,-1,-1,14.17
2835,-3,-2,3,-4,0,-3,-2,0,14.175
2836,3,-3,1,-6,0,-2,0,0,14.18
2837,-7,1,1,0,0,-1,-1,2,14.185
2838,4,3,0,5,0,2,0,-1,14.19
2839,-3,-2,-3,-3,-3,0,1,0,14.195
2840,-4,0,0,-2,0,0,-1,1,14.200000000000001
2841,-3,-8,-1,2,0,1,1,0,14.205
2842,7,-3,-6,-3,-2,-3,-3,-2,14.21
2843,-2,-2,3,1,0,-7,-1,-3,14.215
2844,-2,0,-3,-2,-1,-1,-4,1,14.22
2845,-3,-3,-2,2,0,1,-1,0,14.225
2846,9,3,2,4,0,2,-1,0,14.23
2847,-2,0,-1,-4,-1,3,-1,1,14.235
2848,-16,3,3,0,0,0,0,6,14.24
2849,19,-4,-4,-5,-3,-2,-3,-2,14.245000000000001
2850,0,-3,1,-4,-1,-5,-1,-17,14.25
2851,-19,1,2,2,1,-3,-2,18,14.255
2852,-2,-5,-19,-3,-1,0,-2,-2,14.26
2853,-6,4,-1,-3,-4,0,-1,0,14.265
2854,-17,-1,3,1,-3,3,-2,1,14.27
2855,5,0,1,49,1,2,0,-9,14.275
2856,-4,83,2,-5,0,2,2,0,14.280000000000001
2857,4,16,-8,-11,-2,0,0,2,14.285
2858,3,-9,21,-13,2,-1,3,2,14.290000000000001
2859,-8,-48,-33,-28,-2,-3,-2,-7,14.295
2860,5,-49,5,1,1,-4,-1,-3,14.3
2861,-10,-18,2,2,0,-5,-2,-3,14.305
2862,1,-11,-4,-4,-1,-1,-1,0,14.31
2863,4,-1,3,1,3,0,-3,-1,14.315
2864,7,-12,1,-1,-2,0,-2,-7,14.32
2865,-6,0,-5,-6,-1,0,-1,5,14.325000000000001
2866,10,-2,-2,8,-2,-1,-2,2,14.33
2867,6,9,0,-4,-2,0,-3,-1,14.335
2868,1,-3,-4,-2,-2,-4,-3,0,14.34
2869,-6,-3,6,4,0,-3,3,-6,14.345
2870,-2,2,-7,7,2,2,2,4,14.35
2871,10,15,5,-1,0,-1,0,-5,14.355
2872,2,-4,3,-2,-2,-3,-1,1,14.36
2873,-2,0,2,2,-1,-2,-2,1,14.365
2874,1,8,-6,5,-1,-3,0,1,14.370000000000001
2875,-2,9,-2,-12,-3,0,2,-2,14.375
2876,-4,-7,4,1,1,4,1,0,14.38
2877,0,10,3,5,3,2,-4,-1,14.385
2878,3,5,-8,-7,-3,0,-2,-1,14.39
2879,-1,1,6,-7,-2,-2,1,-4,14.395
2880,2,-3,-19,-7,-5,-3,1,-4,14.4
2881,-8,2,20,26,1,1,0,2,14.405000000000001
2882,32,-4,-8,4,0,0,-3,-3,14.41
2883,-5,0,7,-2,-2,2,0,-7,14.415000000000001
2884,15,2,-2,-1,0,0,-3,3,14.42
2885,-13,-2,-10,-11,0,-2,-2,7,14.425
2886,-12,3,3,-3,0,-6,0,0,14.43
2887,6,2,6,4,2,-3,1,1,14.435
2888,-5,-2,4,1,-1,2,-1,4,14.44
2889,5,-5,-4,-8,-4,4,0,-5,14.445
2890,-5,-5,0,-2,-2,0,-1,0,14.450000000000001
2891,-3,-3,-6,-6,-1,-1,-1,1,14.455
2892,-10,-4,4,3,-2,-4,3,-7,14.46
2893,2,-1,-6,-4,-2,-1,0,-3,14.465
2894,-1,2,-4,1,-1,1,0,0,14.47
2895,-1,-1,2,-2,-3,0,-4,3,14.475
2896,-5,-6,-3,4,0,1,-1,-1,14.48
2897,1,-5,4,3,0,0,-2,-4,14.485
2898,-3,2,3,2,2,0,-2,-1,14.49
2899,-1,-3,-1,0,-1,-1,-2,-2,14.495000000000001
2900,3,-3,-1,-2,0,0,-1,1,14.5
2901,0,-1,-5,-5,-2,-4,-2,-1,14.505
2902,-3,-1,0,-6,-2,0,1,-1,14.51
2903,-4,2,3,-4,-1,-1,0,-2,14.515
2904,2,-1,0,-2,-1,-1,-6,-2,14.52
2905,0,2,-4,-5,2,0,0,-3,14.525
2906,-8,-2,1,11,3,0,-5,-5,14.530000000000001
2907,2,1,-2,-1,1,-1,1,5,14.535
2908,-4,-6,-3,0,-2,1,1,2,14.540000000000001
2909,9,-3,-5,0,0,0,0,0,14.545
2910,-14,-3,0,0,-6,0,-2,-3,14.55
2911,-12,-3,-5,3,1,-3,-3,-1,14.555
2912,9,-1,2,1,1,-3,-3,-5,14.56
2913,-4,-2,-7,2,-1,-2,0,-3,14.565
2914,3,-4,2,-9,-3,-1,2,0,14.57
2915,-3,1,-3,-7,-1,-2,2,-2,14.575000000000001
2916,-3,-1,2,-1,-1,-4,2,-2,14.58
2917,9,-3,3,-5,-1,-4,-3,-4,14.585
2918,3,1,-4,-3,1,1,-1,2,14.59
2919,-3,-1,-2,0,-1,4,-3,2,14.595
2920,-2,3,0,1,1,3,0,0,14.6
2921,-20,-1,-6,-4,-1,0,2,-15,14.605
2922,27,3,15,9,-5,-5,-4,4,14.61
2923,4,1,3,4,-1,0,0,1,14.615
2924,7,-3,-3,-2,-2,-3,0,2,14.620000000000001
2925,-7,7,0,0,-2,-2,-2,0,14.625
2926,-10,-1,7,0,0,1,2,-4,14.63
2927,3,-2,-6,4,0,-2,-2,-2,14.635
2928,-1,-3,-14,-1,-1,-2,-1,-2,14.64
2929,5,1,2,-5,-1,-2,-2,4,14.645
2930,-4,-2,-6,-3,4,-4,1,-4,14.65
2931,-1,-2,8,-5,1,-1,1,1,14.655000000000001
2932,2,0,4,0,0,0,-2,-2,14.66
2933,1,-3,-8,-3,1,-1,-2,3,14.665000000000001
2934,1,4,-2,-11,-2,3,-2,2,14.67
2935,-2,0,-3,-3,-4,-2,-4,-4,14.675
2936,6,-1,4,2,-3,0,-4,-3,14.68
2937,-12,2,-4,2,-2,-1,-2,3,14.685
2938,-2,2,-8,1,-1,-1,3,-3,14.69
2939,-1,-10,-5,-9,0,-1,3,-2,14.695
2940,-1,2,-4,1,-4,0,-2,1,14.700000000000001
2941,9,-3,7,6,-3,2,-1,3,14.705
2942,-7,-3,-6,0,-2,2,-2,0,14.71
2943,1,3,-2,-2,0,-3,0,2,14.715
2944,-4,-1,5,0,4,-1,1,-1,14.72
2945,1,-5,-4,-1,1,1,2,2,14.725
2946,-5,-3,-7,-5,-1,-1,0,-3,14.73
2947,6,4,5,6,-3,1,1,0,14.735
2948,-15,0,-7,-4,-1,-2,-1,-3,14.74
2949,7,-1,0,-1,0,1,1,1,14.745000000000001
2950,2,0,0,3,1,-1,0,2,14.75
2951,-5,3,2,-3,-1,-1,-1,-1,14.755
2952,-4,2,4,1,-1,0,2,1,14.76
2953,-4,-2,-4,-1,-3,-2,-1,-4,14.765
2954,-2,-4,-9,-7,-3,-3,-1,-8,14.77
2955,-14,-3,2,5,1,-1,-5,0,14.775
2956,11,-4,-6,4,-1,-1,0,-4,14.780000000000001
2957,4,3,5,-3,0,-3,-3,2,14.785
2958,2,-3,-1,-2,0,0,1,-1,14.790000000000001
2959,-10,2,-2,-2,-2,0,-1,-3,14.795
2960,2,-3,-11,-7,-3,0,0,0,14.8
2961,-1,-3,0,-5,-1,0,1,0,14.805
2962,-7,2,3,5,-1,-1,-1,5,14.81
2963,9,-1,-1,-3,1,0,-1,-6,14.815
2964,-8,0,4,-1,2,-3,-2,7,14.82
2965,8,-1,-2,3,0,2,-3,-3,14.825000000000001
2966,-1,2,-4,-3,-2,1,-3,0,14.83
2967,6,-1,-2,3,-3,3,0,-1,14.835
2968,1,-3,-1,-5,-5,0,0,-4,14.84
2969,-3,2,5,5,1,-2,-3,-2,14.845
2970,-2,-4,-1,-5,-1,0,-1,1,14.85
2971,-8,-1,-2,1,2,-1,0,0,14.855
2972,4,-3,2,-3,-1,2,1,0,14.86
2973,-7,0,-2,-8,-2,-3,1,1,14.865
2974,8,-6,1,-1,2,-4,0,-3,14.870000000000001
2975,5,-2,-4,-2,-1,-2,1,0,14.875
2976,4,2,2,-6,1,1,2,-2,14.88
2977,-18,-7,-3,7,-2,-2,-2,-2,14.885
2978,-4,2,-1,-5,-2,-1,-2,-2,14.89
2979,22,-1,-1,-1,-1,0,-3,1,14.895
2980,-4,-1,2,-1,-4,-1,-4,0,14.9
2981,3,2,0,6,0,3,-2,-3,14.905000000000001
2982,-2,-4,-5,-1,-3,-4,-1,0,14.91
2983,-3,1,1,-1,-4,-4,-3,-4,14.915000000000001
2984,-5,3,-2,-3,-2,0,2,-3,14.92
2985,6,-3,-7,-9,0,-2,4,-3,14.925
2986,-6,0,0,2,-2,0,-1,7,14.93
2987,0,-1,-1,-3,-1,1,1,3,14.935
2988,5,3,2,10,2,-3,-4,1,14.94
2989,-13,-2,-1,0,1,0,2,-7,14.945
2990,-3,-3,0,-6,0,-1,-2,20,14.950000000000001
2991,16,-3,-2,0,2,-1,1,-4,14.955
2992,-7,-1,-12,-10,0,-1,1,0,14.96
2993,-4,1,13,3,-2,-1,-1,-5,14.965
2994,11,1,5,1,-3,2,-1,-5,14.97
2995,-7,-1,1,-2,2,1,2,0,14.975
2996,-1,-4,-2,3,0,2,-1,-1,14.98
2997,4,0,-4,-3,1,-2,-1,-1,14.985
2998,-2,2,-13,2,-4,-4,0,-6,14.99
2999,-7,-5,-1,2,-4,-5,-1,0,14.995000000000001
3000,-10,-1,-7,-3,-2,-2,1,-4,15.0
3001,17,2,2,3,-2,0,-2,5,15.005
3002,5,3,4,-3,0,-1,0,-2,15.01
3003,-2,-3,-5,1,1,2,-3,-1,15.015
3004,-8,0,2,3,-2,1,-2,-2,15.02
3005,-6,1,0,-7,-2,-2,-1,-2,15.025
3006,-10,2,2,3,1,0,1,3,15.030000000000001
3007,6,0,-7,-4,0,1,-1,-1,15.035
3008,0,-3,6,1,0,1,-2,1,15.040000000000001
3009,3,2,-3,2,2,4,-2,0,15.045
3010,0,-2,-3,-6,-2,0,-2,-6,15.05
3011,-9,0,0,-1,-2,-4,1,0,15.055
3012,-14,-3,5,1,-1,-4,1,1,15.06
3013,-5,-7,-7,-6,-3,-3,1,3,15.065
3014,1,1,0,3,0,-1,1,-2,15.07
3015,-6,2,-1,-4,-1,2,-4,1,15.075000000000001
3016,10,3,1,-1,0,-2,-4,-1,15.08
3017,14,-1,-11,-7,-2,-2,0,-2,15.085
3018,-3,-4,-5,-1,3,-1,-2,-4,15.09
3019,-6,0,7,-3,-5,1,3,-10,15.095
3020,9,-3,-2,1,1,1,0,1,15.1
3021,10,0,8,-7,-4,2,1,2,15.105
3022,3,-6,-6,5,-3,1,-1,6,15.11
3023,-5,0,-4,5,0,-1,-3,-4,15.115
3024,-9,1,4,0,1,-1,0,-3,15.120000000000001
3025,-10,-2,-6,-4,2,-2,-1,1,15.125
3026,0,-1,3,1,-3,-1,1,-6,15.13
3027,0,-4,1,1,0,-1,-2,4,15.135
3028,1,-3,-1,-3,-3,-4,-3,-2,15.14
3029,1,0,4,1,0,0,-2,2,15.145
3030,-3,0,-2,-2,0,-1,1,-2,15.15
3031,-4,4,4,-4,-2,2,1,0,15.155000000000001
3032,4,-4,-1,-2,1,-1,0,-3,15.16
3033,-5,-5,-2,9,-4,-2,1,1,15.165000000000001
3034,-7,0,0,-4,0,-2,-2,0,15.17
3035,4,5,-1,0,1,1,0,2,15.175
3036,3,4,7,0,-1,3,1,-2,15.18
3037,-3,4,-8,-4,0,-4,-3,0,15.185
3038,-1,2,-12,4,-1,1,-1,-4,15.19
3039,2,-5,17,-2,-2,-1,-3,0,15.195
3040,-9,-4,-9,1,-1,-1,0,1,15.200000000000001
3041,4,1,0,2,0,-3,0,3,15.205
3042,21,-4,-6,-7,-1,-4,1,-5,15.21
3043,-3,-1,-9,3,-3,-5,-3,-7,15.215
3044,-3,0,2,-1,1,-2,-3,3,15.22
3045,-4,-2,-1,4,1,3,-2,-1,15.225
3046,-7,1,5,-4,2,2,2,-1,15.23
3047,13,6,-1,3,0,1,3,8,15.235
3048,-3,0,-4,-2,-6,-1,0,-1,15.24
3049,-3,-5,7,0,-4,0,0,-4,15.245000000000001
3050,-4,2,7,-1,-1,0,1,-1,15.25
3051,-15,-7,-5,15,2,0,-5,-1,15.255
3052,15,1,-8,7,-1,1,-1,2,15.26
3053,-10,1,-1,-11,1,1,0,-3,15.265
3054,-1,2,1,-11,-1,-2,1,0,15.27
3055,-7,1,2,-8,-1,-4,1,2,15.275
3056,4,-4,-9,-6,1,-2,-2,-3,15.280000000000001
3057,1,-4,0,-2,-1,1,-2,4,15.285
3058,-5,-4,2,-2,-2,3,0,0,15.290000000000001
3059,1,-3,-4,0,-1,1,-4,-1,15.295
3060,-5,-2,4,-1,-5,-2,-5,-2,15.3
3061,-3,0,-8,-7,-1,-5,0,-4,15.305
3062,-8,-1,-5,2,0,-2,-1,-1,15.31
3063,7,-2,-5,-5,0,-3,3,2,15.315
3064,-6,0,1,-1,-2,0,4,-7,15.32
3065,1,-2,-1,3,-3,-1,-1,1,15.325000000000001
3066,0,0,-2,14,0,1,-3,-1,15.33
3067,-1,-2,1,-13,-2,-2,0,-5,15.335
3068,-4,0,-9,-1,3,0,-1,0,15.34
3069,9,2,3,8,3,5,-2,-3,15.345
3070,-12,1,9,-2,-2,0,-2,1,15.35
3071,-24,-4,-4,1,0,-3,1,7,15.355
3072,50,-1,-11,-1,-2,-2,1,-1,15.36
3073,-1,3,11,3,-3,-1,0,2,15.365
3074,6,-4,-4,-2,-1,-1,0,-2,15.370000000000001
3075,1,-3,1,2,1,0,-1,-2,15.375
3076,-18,-1,2,-10,0,1,-1,1,15.38
3077,-3,-8,-5,0,-1,-1,-2,-3,15.385
3078,4,0,1,9,-1,1,-3,-1,15.39
3079,0,0,-2,-7,-3,-2,-1,-2,15.395
3080,-3,-2,7,5,-1,-3,-1,0,15.4
3081,1,0,-12,-4,-1,0,-1,-3,15.405000000000001
3082,-12,-4,5,-3,-4,-4,2,-5,15.41
3083,-1,4,-2,2,4,1,2,3,15.415000000000001
3084,-4,2,3,-1,1,2,-4,-1,15.42
3085,-5,2,6,-1,-1,-1,-3,1,15.425
3086,9,-1,-7,-2,1,0,-4,-2,15.43
3087,-2,0,-2,-3,-5,2,-2,-8,15.435
3088,4,-1,8,0,-1,1,1,-11,15.44
3089,-4,-8,14,2,-1,-2,1,0,15.445
3090,-4,-9,-24,-1,0,-3,0,1,15.450000000000001
3091,4,-4,-9,2,-2,-3,-3,1,15.455
3092,-7,1,-4,2,1,-1,-4,2,15.46
3093,0,2,-1,-5,-1,-2,1,0,15.465
3094,-2,3,19,2,0,-1,2,3,15.47
3095,2,-2,-2,-5,-2,1,0,-8,15.475
3096,-8,-2,1,-1,-1,-4,2,3,15.48
3097,-6,1,-8,3,3,-2,1,0,15.485000000000001
3098,17,-3,-2,-3,-2,-4,-2,1,15.49
3099,1,2,-2,3,3,-1,0,-3,15.495000000000001
3100,-5,2,7,-2,1,0,0,6,15.5
3101,-5,3,-4,5,-4,2,-2,-2,15.505
3102,-4,-6,-5,-6,-3,-2,0,-2,15.51
3103,4,-6,-11,-5,-5,-2,-3,1,15.515
3104,-27,7,9,-1,0,0,-3,-4,15.52
3105,36,3,1,4,4,-1,-1,-4,15.525
3106,-12,-12,-10,-5,-1,-1,-1,-4,15.530000000000001
3107,4,-5,-33,-5,-2,-1,-1,1,15.535
3108,-5,-6,1,-3,1,1,-1,-2,15.540000000000001
3109,-10,5,1,-2,-2,-1,-3,-1,15.545
3110,1,7,14,2,-1,3,-3,3,15.55
3111,9,-4,15,2,0,-3,2,0,15.555
3112,-5,-2,1,-3,-3,-3,-3,-3,15.56
3113,-6,-4,-1,0,-1,-3,-3,-2,15.565
3114,-7,-4,-20,-6,-3,-1,-2,20,15.57
3115,9,18,8,2,0,1,-2,-4,15.575000000000001
3116,0,7,-6,1,-1,2,3,-7,15.58
3117,10,9,-14,-8,-3,-3,-3,7,15.585
3118,-14,4,14,-6,1,0,1,-5,15.59
3119,-17,-13,-3,-1,-4,0,1,6,15.595
3120,2,-8,-8,0,-5,-2,-1,-1,15.6
3121,-1,-11,2,-1,-3,-3,-1,-6,15.605
3122,-4,-7,-9,-3,4,-1,-2,-3,15.610000000000001
3123,-1,-8,11,-2,0,-2,-1,1,15.615
3124,12,10,7,13,0,0,1,1,15.620000000000001
3125,-26,-7,4,-4,0,3,1,0,15.625
3126,14,1,-14,13,0,2,1,-2,15.63
3127,-10,-16,-2,-15,-2,1,-4,-4,15.635
3128,4,-6,3,-1,2,-2,-1,2,15.64
3129,-5,24,8,-1,3,0,2,1,15.645
3130,28,9,11,-2,-2,-5,-4,-12,15.65
3131,13,7,6,3,2,2,1,10,15.655000000000001
3132,9,-13,-19,-1,-2,1,0,6,15.66
3133,-21,-1,-1,-3,-5,1,-4,1,15.665000000000001
3134,4,14,13,-2,-1,-2,2,0,15.67
3135,15,8,0,-3,-4,-4,1,-19,15.675
3136,-5,-2,3,-3,2,-1,-3,18,15.68
3137,13,-31,11,12,0,2,-2,-11,15.685
3138,-61,-40,13,5,-3,2,-3,-2,15.69
3139,2,38,48,7,7,2,-4,-4,15.695
3140,10,17,13,11,-4,-3,0,-3,15.700000000000001
3141,-13,8,-58,-36,-4,-3,7,9,15.705
3142,73,-6,7,17,7,5,5,7,15.71
3143,-61,84,61,0,4,4,1,4,15.715
3144,52,-97,-20,-11,-6,-2,-1,-3,15.72
3145,-35,-14,18,2,13,3,-5,-12,15.725
3146,-48,-2,-86,-70,-23,-6,-4,17,15.73
3147,79,-39,3,54,16,-2,4,-13,15.735000000000001
3148,75,127,64,-93,-41,-12,4,36,15.74
3149,63,-118,24,90,86,10,27,-10,15.745000000000001
3150,-107,73,17,-65,-1,-3,-27,-17,15.75
3151,-68,46,-65,20,-30,0,-7,-76,15.755
3152,31,-95,65,95,-17,4,3,88,15.76
3153,106,123,-48,-110,-54,18,-4,18,15.765
3154,45,-128,-35,104,85,-52,-7,21,15.77
3155,53,-57,-46,-66,-6,-13,-24,-49,15.775
3156,-53,-99,-48,-8,-68,-37,48,-56,15.780000000000001
3157,-52,-50,12,-57,-2,27,-13,-97,15.785
3158,78,-103,29,-31,-94,43,102,102,15.790000000000001
3159,-4,-48,-62,38,75,18,13,28,15.795
3160,-44,60,10,76,54,16,-13,-82,15.8
3161,-82,-58,20,-98,-80,-41,-60,-59,15.805
3162,5,109,30,-63,-24,-44,-9,-3,15.81
3163,86,-64,-3,-7,-81,-11,-38,112,15.815
3164,-68,100,26,-1,-25,-8,-20,8,15.82
3165,28,-68,-29,127,127,7,-8,-76,15.825000000000001
3166,-71,2,2,20,-11,7,-39,26,15.83
3167,90,-60,-22,-124,-100,32,56,-70,15.835
3168,-81,17,-108,51,69,-6,-107,-45,15.84
3169,110,-6,4,127,-25,31,120,73,15.845
3170,-36,60,26,50,73,-19,-50,73,15.85
3171,-75,-78,25,-24,3,11,-57,-50,15.855
3172,99,-61,-11,-86,28,84,92,127,15.860000000000001
3173,43,36,73,-122,-96,-93,-44,-75,15.865
3174,3,-14,46,41,37,27,-37,-47,15.870000000000001
3175,-32,127,97,-86,-7,-32,4,4,15.875
3176,70,24,-48,84,82,0,-61,-128,15.88
3177,-103,44,54,-62,-27,1,80,127,15.885
3178,40,96,3,-56,-44,-8,-46,-86,15.89
3179,-58,18,-22,127,86,18,-26,112,15.895
3180,21,-112,127,-44,-39,-58,34,46,15.9
3181,105,106,-58,-38,28,117,23,71,15.905000000000001
3182,-62,-7,-44,-58,-6,-17,60,-104,15.91
3183,6,-99,-48,-6,9,-25,40,59,15.915000000000001
3184,-110,65,-41,-100,-60,-28,-13,-110,15.92
3185,74,-5,-50,103,60,-30,9,49,15.925
3186,-62,-74,-3,-1,-54,24,58,-96,15.93
3187,59,16,15,68,63,28,-2,-128,15.935
3188,30,-36,-15,-11,-95,-5,48,120,15.94
3189,-128,10,46,40,48,-7,-68,-106,15.945
3190,124,-16,-52,57,2,-19,30,41,15.950000000000001
3191,4,9,85,-7,-73,-4,9,34,15.955
3192,-84,121,3,-45,66,22,-2,-47,15.96
3193,93,-75,85,12,54,13,13,104,15.965
3194,58,80,25,54,26,89,-17,-55,15.97
3195,-90,-54,24,-31,-102,-102,7,-48,15.975
3196,32,105,67,-6,58,77,27,81,15.98
3197,-73,121,42,-48,-102,-14,-24,-52,15.985000000000001
3198,84,-70,-86,79,67,-61,-48,-4,15.99
3199,-101,-27,-4,-51,-62,37,3,-25,15.995000000000001
3200,79,-43,-128,-34,81,26,69,7,16.0
3201,-102,-105,76,-73,-57,-7,-65,-27,16.005
3202,123,109,-44,-128,-115,-14,100,61,16.01
3203,-53,-61,-67,105,122,20,-10,-33,16.015
3204,15,31,-25,61,-62,-10,-117,31,16.02
3205,-10,-25,-54,-83,64,-53,80,-39,16.025
3206,22,-62,-3,-70,-53,-48,22,78,16.03
3207,25,127,58,58,-16,-10,-61,-63,16.035
3208,11,-105,5,-24,-27,-8,7,98,16.04
3209,-19,-6,11,-83,-53,4,-5,52,16.045
3210,-103,-114,-10,127,114,82,-21,-43,16.05
3211,99,25,87,-21,-30,-46,-8,69,16.055
3212,-20,-49,-52,-65,-96,17,14,-37,16.06
3213,39,72,36,58,12,-2,-71,-81,16.065
3214,32,-98,28,69,4,11,19,-22,16.07
3215,-118,-52,-82,-100,-96,-45,-18,127,16.075
3216,123,114,127,-38,114,-33,-6,-41,16.080000000000002
3217,-14,-115,-92,127,-27,-4,66,31,16.085
3218,50,127,127,-128,-113,-64,24,127,16.09
3219,73,-73,-41,96,123,-52,21,72,16.095
3220,0,52,-11,-20,-75,68,10,-113,16.1
3221,-108,2,-31,-87,10,-44,59,55,16.105
3222,-105,-29,-6,85,19,-13,-128,57,16.11
3223,58,34,-55,-128,-20,91,72,-96,16.115000000000002
3224,29,-128,16,127,8,37,-15,126,16.12
3225,81,113,-128,-68,-9,-51,-1,-117,16.125
3226,-89,121,57,62,92,100,19,58,16.13
3227,-32,15,58,-67,-107,-128,7,-48,16.135
3228,-11,72,-56,-69,77,17,-25,15,16.14
3229,-22,-71,0,87,-72,110,39,-39,16.145
3230,9,22,63,-123,38,-80,-96,43,16.15
3231,115,52,15,30,41,127,-11,-64,16.155
3232,38,23,127,81,-52,-27,67,-34,16.16
3233,-53,29,-68,-35,90,-85,-42,-18,16.165
3234,39,-128,5,-128,-109,-18,127,-128,16.17
3235,69,-13,-13,-33,87,63,-1,96,16.175
3236,-24,41,40,43,-72,-61,-38,-24,16.18
3237,-41,-125,22,-7,12,11,-54,16,16.185
3238,52,80,-22,-2,-65,13,-52,-128,16.19
3239,-49,-66,-43,64,96,5,117,94,16.195
3240,-41,-37,-73,-79,-102,-86,-93,-117,16.2
3241,127,55,40,69,-33,-92,-8,-51,16.205000000000002
3242,-128,23,80,-80,47,-61,-81,-126,16.21
3243,9,58,23,-21,-104,79,81,-31,16.215
3244,-86,-111,3,-121,120,-112,-26,68,16.22
3245,98,127,-48,-117,-128,51,4,-92,16.225
3246,-12,49,-47,99,102,-6,27,121,16.23
3247,-128,-5,-19,-65,-111,30,-113,-101,16.235
3248,-51,-95,78,-31,-66,4,57,-106,16.240000000000002
3249,92,68,-4,-60,-23,13,34,81,16.245
3250,75,-22,73,15,-57,8,-11,-5,16.25
3251,15,-9,46,-39,15,-27,97,66,16.255
3252,34,77,-63,65,58,50,17,9,16.26
3253,-16,-93,-47,69,49,-4,-98,14,16.265
3254,-128,1,-56,-90,-62,59,-23,-63,16.27
3255,61,62,32,70,1,-128,-27,-35,16.275
3256,11,-54,-20,74,73,38,54,-128,16.28
3257,9,27,84,-41,-17,29,-2,127,16.285
3258,8,-29,20,-85,-107,68,9,-89,16.29
3259,14,13,-71,7,83,59,-58,59,16.295
3260,25,-27,4,93,-57,-60,86,-66,16.3
3261,-60,-46,127,107,37,73,-63,-52,16.305
3262,34,-104,-126,-35,56,42,-45,79,16.31
3263,43,108,85,41,43,-99,26,-51,16.315
3264,-15,71,-15,-96,49,100,-68,127,16.32
3265,-77,-72,27,-9,-118,-128,49,-27,16.325
3266,102,73,-20,-27,0,93,-62,-81,16.330000000000002
3267,24,-47,4,-85,-119,-11,69,-8,16.335
3268,14,-83,-18,-3,83,-41,-81,-33,16.34
3269,87,43,-17,-53,-17,50,56,-105,16.345
3270,-60,-9,-55,64,-40,-83,33,-75,16.35
3271,-25,28,23,10,5,-20,-45,59,16.355
3272,-75,-17,-83,-12,-128,-51,-21,-33,16.36
3273,-26,20,36,15,17,106,14,127,16.365000000000002
3274,127,63,30,-38,50,-128,82,-81,16.37
3275,-117,-32,6,27,78,124,-47,-43,16.375
3276,27,83,71,-64,-56,-41,1,49,16.38
3277,-66,-79,-43,-6,102,14,-48,-124,16.385
3278,-7,-30,-33,-93,-78,70,-1,127,16.39
3279,0,37,52,57,20,-41,-22,38,16.395
3280,13,-51,-2,-55,61,-31,-32,-74,16.4
3281,-25,28,42,-29,-11,-2,68,92,16.405
3282,-81,-57,-34,17,-37,-53,-22,-75,16.41
3283,69,-29,9,-55,-8,7,20,-73,16.415
3284,-2,-13,-41,-12,-76,42,-27,-14,16.42
3285,105,48,49,33,-10,-92,72,2,16.425
3286,-51,-26,-33,70,118,89,-100,11,16.43
3287,-16,-17,63,-6,-82,-53,94,107,16.435
3288,78,78,84,0,-18,-22,-56,-10,16.44
3289,-76,-83,-111,-31,-41,27,-19,9,16.445
3290,54,42,119,54,97,15,26,-9,16.45
3291,28,4,-34,-17,21,15,-64,-69,16.455000000000002
3292,-56,8,97,16,-23,-65,69,-40,16.46
3293,6,-8,-43,-59,-47,-60,-57,32,16.465
3294,17,24,52,43,-54,28,97,-105,16.47
3295,-75,-45,-45,8,11,52,8,-106,16.475
3296,-12,60,-5,6,18,49,22,2,16.48
3297,101,3,127,11,12,12,-16,-84,16.485
3298,-107,-69,-4,-28,-6,-4,127,46,16.490000000000002
3299,68,-100,44,-36,13,-38,-128,-51,16.495
3300,-14,-85,-46,-5,16,22,127,127,16.5
3301,-47,87,-121,1,12,-47,3,59,16.505
3302,51,103,-108,-39,-39,-72,-115,69,16.51
3303,-4,117,-60,15,-3,-24,-39,13,16.515
3304,-15,119,83,8,14,38,-72,-6,16.52
3305,-54,70,-16,0,14,26,-43,82,16.525
3306,76,56,-27,-2,-14,-60,-16,23,16.53
3307,-80,77,-101,17,-67,23,1,4,16.535
3308,15,97,-44,-16,63,28,-11,16,16.54
3309,-23,68,71,-23,-31,7,-78,-21,16.545
3310,-38,-49,127,9,0,50,104,-3,16.55
3311,-119,-55,13,-4,-2,-14,28,-49,16.555
3312,27,-31,56,-26,-37,0,-11,-1,16.56
3313,-41,-79,86,42,12,38,7,4,16.565
3314,-116,-81,-15,-43,-41,-59,-113,-13,16.57
3315,-23,-48,20,-40,10,-5,-32,26,16.575
3316,35,-75,-53,43,-6,51,85,9,16.580000000000002
3317,-108,-11,20,-26,21,-23,12,35,16.585
3318,62,-42,-79,60,-16,-11,1,30,16.59
3319,27,-23,5,2,-10,-11,0,-34,16.595
3320,-28,-41,-79,-64,-4,-37,-35,41,16.6
3321,19,-27,-84,14,9,22,39,-16,16.605
3322,33,3,-27,30,3,0,-30,11,16.61
3323,26,-44,-26,-7,-1,-17,-2,21,16.615000000000002
3324,-12,-15,22,17,-4,22,53,6,16.62
3325,30,-5,43,-7,3,0,10,-3,16.625
3326,-65,-50,52,13,5,-25,26,-8,16.63
3327,60,-17,-46,-66,-1,-1,-41,13,16.635
3328,5,-25,25,25,-5,33,9,-15,16.64
3329,6,-15,-67,27,-6,-11,13,-21,16.645
3330,-47,11,-41,-13,5,-7,5,-23,16.65
3331,56,2,52,0,0,12,20,24,16.655
3332,-33,-13,-4,-34,-6,-32,-3,9,16.66
3333,34,7,30,22,0,3,-18,-27,16.665
3334,8,4,-42,-22,-3,14,6,36,16.67
3335,7,13,-51,-18,1,-1,26,26,16.675
3336,-9,-7,-33,-8,-9,-18,-21,-23,16.68
3337,35,-10,-44,-22,-1,0,0,-19,16.685
3338,27,6,22,12,6,11,19,14,16.69
3339,-8,35,-36,7,2,0,15,15,16.695
3340,-33,5,-31,16,-6,-9,-19,-13,16.7
3341,1,1,26,-28,2,10,-1,-11,16.705000000000002
3342,11,-2,36,6,-2,2,14,20,16.71
3343,-2,12,78,11,2,3,-2,-55,16.715
3344,-19,-6,86,6,-3,-5,-11,-1,16.72
3345,9,-10,-51,-22,-1,-4,3,-28,16.725
3346,-10,8,102,1,-2,-2,1,-5,16.73
3347,-7,0,40,-3,6,7,14,-4,16.735
3348,27,8,51,22,-3,-8,-3,12,16.740000000000002
3349,-25,7,-29,-16,-3,-5,2,-25,16.745
3350,22,12,-51,3,2,7,4,2,16.75
3351,-28,-33,15,15,-1,5,3,5,16.755
3352,-6,-2,-57,-12,-5,-5,-2,-5,16.76
3353,-9,-12,1,7,7,1,-5,10,16.765
3354,6,-6,-37,8,3,-1,-4,-6,16.77
3355,2,1,-5,2,0,-1,3,22,16.775
3356,-18,4,-31,-14,-1,-1,-5,-6,16.78
3357,8,-8,-14,15,0,-1,0,3,16.785
3358,0,1,31,0,2,1,6,-1,16.79
3359,8,4,-29,5,5,-2,6,10,16.795
3360,-10,-4,-22,-9,-1,-4,-5,-3,16.8
3361,9,-2,38,-1,-2,2,-1,-8,16.805
3362,3,7,13,-1,-3,-1,1,0,16.81
3363,-8,3,-18,-7,-6,0,-2,12,16.815
3364,3,1,1,-5,0,0,-2,-4,16.82
3365,-2,-7,7,16,-4,-3,1,-2,16.825
3366,-7,-9,7,-2,4,-1,-1,-4,16.830000000000002
3367,3,-10,-9,-2,0,-1,0,2,16.835
3368,-5,-11,-49,-6,-1,-3,-2,-4,16.84
3369,-5,-24,-29,8,2,-2,-1,-13,16.845
3370,10,-1,9,-4,0,0,1,22,16.85
3371,-11,0,22,0,0,-3,0,-23,16.855
3372,3,-6,19,-12,-1,0,3,10,16.86
3373,-2,6,3,-3,-3,-1,-6,9,16.865000000000002
3374,-11,3,13,10,2,-1,0,-8,16.87
3375,19,-3,-2,-4,0,-1,-1,-29,16.875
3376,4,5,10,-3,0,-2,-6,-5,16.88
