slno,emg1,emg2,emg3,emg4,emg5,emg6,emg7,emg8,Time
0,-2,-2,-3,-3,-4,-4,-3,-2,0.0
1,-7,-7,-3,-4,-4,-2,-3,-8,0.005
2,-1,0,1,0,-1,1,1,5,0.01
3,3,3,2,0,2,5,4,-12,0.015
4,-1,-2,-3,-1,-2,-2,-4,2,0.02
5,0,-2,-4,-3,-3,-5,-4,-1,0.025
6,-1,-2,-1,0,1,-4,2,-3,0.03
7,2,1,2,3,2,-1,-4,5,0.035
8,-1,0,0,-1,-3,3,2,-3,0.04
9,-3,-3,-3,-3,-4,-2,0,-9,0.045
10,-4,-2,-1,0,-2,-2,-1,1,0.05
11,3,3,0,2,2,1,2,8,0.055
12,-1,-2,-1,-1,-1,-1,-2,-5,0.06
13,-3,-5,-2,-3,-4,-5,-11,4,0.065
14,0,0,-3,-1,1,1,0,-7,0.07
15,1,0,1,1,1,1,1,8,0.075
16,-2,-2,-2,-2,-1,-4,-2,-2,0.08
17,-1,-2,-2,-2,-3,-2,2,-1,0.085
18,-2,0,0,-2,-1,-1,-3,-4,0.09
19,-1,1,0,1,1,2,1,-1,0.095
20,0,0,-4,-2,-1,0,4,1,0.1
21,-2,0,-2,-2,-1,0,0,-3,0.105
22,0,0,0,-1,-2,0,-4,0,0.11
23,-1,-1,1,-1,1,0,-1,-1,0.115
24,0,2,-1,0,1,-1,0,-1,0.12
25,1,1,2,3,3,3,-5,0,0.125
26,-1,-1,-3,0,-1,-4,-4,-2,0.13
27,-4,-4,-3,-4,-6,-3,-1,-1,0.135
28,-2,0,-2,-2,-2,1,0,-5,0.14
29,1,2,1,1,0,0,2,2,0.145
30,4,2,-1,1,-2,0,4,4,0.15
31,-4,-3,-5,-2,-3,-6,-12,-11,0.155
32,-1,-1,0,-1,-2,0,-1,-5,0.16
33,1,0,1,2,2,2,4,-1,0.165
34,-2,0,1,-1,1,2,1,-4,0.17
35,-3,-5,-4,-4,-2,-3,-2,2,0.17500000000000002
36,1,0,-2,-1,1,-4,-2,5,0.18
37,-1,2,1,1,3,2,1,1,0.185
38,-3,-2,-1,-1,0,-1,-2,-3,0.19
39,-2,-2,-4,-5,-5,-5,-5,-5,0.195
40,-2,-2,0,0,-3,-1,2,-1,0.2
41,-2,1,-1,0,-2,-2,2,-8,0.20500000000000002
42,3,1,0,0,0,-2,-3,8,0.21
43,-2,-3,-3,-3,-2,-1,3,-2,0.215
44,-1,-2,-1,0,2,-1,-8,4,0.22
45,0,0,0,-2,-1,-1,7,1,0.225
46,-4,-1,-2,0,-2,1,4,-2,0.23
47,-1,-1,-2,-1,-3,-3,-4,-5,0.23500000000000001
48,4,-1,-1,-2,-2,-1,-1,3,0.24
49,-2,-2,1,-1,0,-2,-2,-1,0.245
50,-2,-1,-1,-2,-2,-1,-2,-4,0.25
51,0,-1,0,-1,0,-1,1,7,0.255
52,-4,-2,-1,0,-2,0,-2,-7,0.26
53,0,0,-1,1,1,-3,-2,3,0.265
54,-1,0,-1,-3,1,-2,-2,9,0.27
55,-1,-2,-2,0,-1,-2,0,-3,0.275
56,-2,-2,0,-3,0,-1,-1,-3,0.28
57,2,-1,-1,1,-3,-1,0,0,0.28500000000000003
58,0,-1,0,2,-1,1,0,-3,0.29
59,-4,-3,-4,-2,-4,-4,-6,-5,0.295
60,-2,-1,0,-1,-1,-1,0,-2,0.3
61,-2,1,-1,-1,0,2,2,2,0.305
62,0,0,1,0,-1,-1,2,-1,0.31
63,-2,-3,-3,-4,-2,-2,-13,-5,0.315
64,-1,-2,-1,0,0,-1,1,3,0.32
65,1,-2,0,1,0,1,-4,0,0.325
66,0,1,0,-1,-2,-2,-1,-3,0.33
67,-3,-3,-3,-3,-1,0,3,-1,0.335
68,-1,0,-1,0,0,-3,-4,1,0.34
69,1,-1,-1,-1,1,0,1,1,0.34500000000000003
70,-2,-1,-2,-2,1,0,0,-4,0.35000000000000003
71,-2,-1,-1,-2,-4,-2,3,-1,0.355
72,-4,-1,-1,0,-2,-1,-3,-5,0.36
73,0,-1,1,0,-1,1,2,4,0.365
74,4,-2,-2,-1,2,-1,-3,0,0.37
75,-1,-2,-3,-2,-1,-2,0,2,0.375
76,0,0,-2,-2,-2,-1,-2,2,0.38
77,1,3,2,1,2,-2,-2,0,0.385
78,-3,0,0,0,0,2,3,-2,0.39
79,0,-2,0,-1,0,-4,-2,0,0.395
80,0,-2,0,1,-1,1,2,-4,0.4
81,-3,-1,0,0,1,0,0,-1,0.405
82,0,-2,-2,0,-2,-2,-3,-2,0.41000000000000003
83,-1,1,0,0,-2,-2,-3,-3,0.41500000000000004
84,0,0,-2,-1,-2,-2,2,0,0.42
85,0,0,-1,-2,-3,-2,-1,-1,0.425
86,-1,-2,0,0,-1,0,3,0,0.43
87,-1,-1,-2,-2,-1,-1,0,-3,0.435
88,0,0,0,-2,0,-1,-1,2,0.44
89,1,1,-2,0,1,1,1,1,0.445
90,-1,-1,-1,-2,-1,0,-6,-3,0.45
91,-1,0,-1,0,-3,2,3,0,0.455
92,-2,0,-1,0,1,0,-4,-4,0.46
93,2,-1,0,-1,-3,-1,-3,-1,0.465
94,0,-1,-2,-2,0,1,1,2,0.47000000000000003
95,-2,-3,-2,1,1,-1,-2,-1,0.47500000000000003
96,-1,-2,-1,0,-3,-1,3,-4,0.48
97,-1,0,-2,0,-2,0,-2,7,0.485
98,3,-1,-1,-2,-1,-5,-4,-5,0.49
99,-1,-1,-1,-2,0,1,0,3,0.495
100,0,0,0,-1,-1,2,3,-2,0.5
101,-2,0,0,1,0,-3,-2,-4,0.505
102,-1,-2,-3,-1,-2,-2,-5,-1,0.51
103,-2,-1,0,0,-1,0,2,-2,0.515
104,-1,-2,0,0,0,0,-2,-1,0.52
105,1,-1,0,-2,1,1,1,-4,0.525
106,-3,-2,-1,-1,0,-4,-2,7,0.53
107,1,0,1,-1,1,0,-3,-1,0.535
108,-1,1,-1,1,0,-1,-1,0,0.54
109,2,-1,-2,0,-3,2,5,1,0.545
110,-3,-1,-2,-3,-4,-5,-7,-6,0.55
111,0,-1,-1,1,-2,-1,0,-2,0.555
112,0,-1,-1,-1,-1,-1,3,3,0.56
113,-1,0,0,1,0,0,-3,-5,0.5650000000000001
114,-4,0,0,1,-1,1,2,-3,0.5700000000000001
115,0,0,1,0,0,0,1,2,0.5750000000000001
116,-1,0,0,1,0,-2,-2,1,0.58
117,-1,0,0,0,0,-1,0,-1,0.585
118,0,-3,1,-1,-2,-1,-1,-1,0.59
119,1,1,-2,-2,-2,-1,-2,0,0.595
120,-1,-1,-1,-3,-2,-1,0,1,0.6
121,-2,-1,-5,-2,-2,-1,-1,-1,0.605
122,-1,-1,0,-2,-3,-1,0,-1,0.61
123,0,-2,-2,1,3,-1,0,-2,0.615
124,1,0,8,3,2,-2,-1,0,0.62
125,-1,0,1,-4,-2,-1,-1,2,0.625
126,-2,-2,-3,-1,-1,1,0,-1,0.63
127,0,-2,-8,-4,-1,-1,0,-2,0.635
128,1,0,1,3,1,0,-1,0,0.64
129,-2,-2,-2,-1,0,-2,-2,0,0.645
130,-4,-2,-1,1,-4,-1,-1,-4,0.65
131,-1,-1,1,-3,-2,0,-1,-1,0.655
132,0,-1,-9,1,-1,-1,0,0,0.66
133,1,-1,-1,-2,2,1,0,-1,0.665
134,-2,4,23,0,-1,-2,0,-2,0.67
135,-1,-1,-22,1,-2,-2,0,0,0.675
136,-1,-1,1,-3,-4,-1,-3,1,0.68
137,0,0,-4,1,-2,-1,-2,-1,0.685
138,0,-2,-7,-2,-1,-1,0,0,0.6900000000000001
139,-2,0,8,-2,-1,0,1,0,0.6950000000000001
140,-1,-1,-1,0,2,0,0,-9,0.7000000000000001
141,-2,-2,0,0,-1,-2,0,1,0.705
142,1,-2,-6,-1,-2,-1,0,5,0.71
143,1,1,7,0,-1,0,-1,3,0.715
144,-1,-2,-6,-1,0,0,1,2,0.72
145,-2,-1,3,1,-1,-1,-1,-4,0.725
146,-2,-1,-7,-2,-2,1,-1,-4,0.73
147,-2,0,-4,-2,-1,0,-1,-4,0.735
148,-1,3,13,1,-1,-2,-1,4,0.74
149,0,2,-1,1,1,-1,-2,-8,0.745
150,-6,-1,-4,-2,0,-3,-2,5,0.75
151,6,-4,-16,-1,1,0,-1,5,0.755
152,0,2,12,-2,-2,0,-1,-2,0.76
153,0,1,-1,1,-2,0,0,3,0.765
154,-3,0,2,2,0,0,-1,-3,0.77
155,-4,0,5,-1,-4,-2,-2,-5,0.775
156,-2,-2,-11,-4,-1,0,0,0,0.78
157,1,2,6,4,-4,-1,1,3,0.785
158,-2,-4,-12,-17,-10,-4,-3,-5,0.79
159,-3,2,15,15,12,4,1,2,0.795
160,1,1,1,-6,1,-1,0,0,0.8
161,-2,-1,-10,11,1,0,0,1,0.805
162,0,-2,-4,-1,34,14,4,0,0.81
163,0,1,-1,-15,-20,-5,-3,-1,0.8150000000000001
164,-2,-3,17,5,-5,-2,0,-1,0.8200000000000001
165,1,-2,-30,-25,-15,-6,-4,-2,0.8250000000000001
166,0,-5,14,40,8,-3,-2,-1,0.8300000000000001
167,0,-1,0,-10,13,4,0,-1,0.835
168,0,2,-4,20,0,-1,0,0,0.84
169,1,1,12,-17,0,3,2,2,0.845
170,1,-2,-15,-7,-17,-8,-4,-1,0.85
171,0,3,-18,-4,5,1,-1,-1,0.855
172,-3,-4,11,13,-8,-5,-4,-3,0.86
173,-1,-1,26,-5,7,1,-2,0,0.865
174,1,5,12,19,0,-2,-2,-4,0.87
175,0,1,11,8,9,2,0,-1,0.875
176,0,-2,-21,-22,-10,-2,0,0,0.88
177,1,-2,-12,0,10,2,3,2,0.885
178,-1,-3,-30,-21,-13,2,-1,-1,0.89
179,-3,-2,11,4,-7,-7,-4,-2,0.895
180,-1,0,-4,2,7,-3,-3,-2,0.9
181,-2,1,0,13,4,3,1,-1,0.905
182,1,0,-5,-15,-5,-2,-2,-1,0.91
183,1,5,9,18,-7,-6,-1,0,0.915
184,-5,-11,-15,-33,-18,-6,-1,-1,0.92
185,2,3,15,12,19,9,5,4,0.925
186,-3,-3,0,3,9,5,2,0,0.93
187,-2,-6,2,6,2,0,-1,0,0.935
188,1,7,-7,8,-9,-6,-4,-2,0.9400000000000001
189,1,-2,12,7,24,6,-1,-1,0.9450000000000001
190,-2,-2,-17,-17,-19,1,-1,0,0.9500000000000001
191,2,1,3,1,6,-3,-2,-2,0.9550000000000001
192,1,0,13,-2,-13,-5,-3,1,0.96
193,0,1,3,16,6,3,2,0,0.965
194,1,-1,-2,-2,2,3,1,0,0.97
195,-1,-3,1,-12,-14,-5,-1,-1,0.975
196,1,0,-7,-4,10,3,-1,-2,0.98
197,-3,-4,1,0,6,-6,-3,-3,0.985
198,0,1,2,8,4,-1,-1,0,0.99
199,-1,0,0,17,-2,3,3,1,0.995
200,-1,-3,-6,-13,11,7,2,-1,1.0
201,-4,-2,-9,-4,-3,-2,-4,-3,1.0050000000000001
202,0,1,6,-2,-4,-7,0,-1,1.01
203,3,2,-4,-11,-11,0,-1,-1,1.0150000000000001
204,-1,-1,-3,15,29,8,1,1,1.02
205,-6,-5,-8,-7,-13,-6,-6,-5,1.025
206,1,0,9,-2,-16,-7,0,0,1.03
207,1,1,-3,-4,10,1,3,1,1.035
208,-3,-3,1,-8,-13,-7,-4,-1,1.04
209,-5,-4,-10,-1,-20,-12,-5,-6,1.045
210,1,4,17,5,23,12,3,-1,1.05
211,0,-1,-20,-3,-4,5,4,1,1.055
212,-1,0,-3,4,8,6,2,0,1.06
213,-3,-4,-9,-4,-15,-10,-3,-1,1.065
214,-1,-2,3,8,-4,-3,-3,-4,1.07
215,1,1,2,-15,3,-2,-1,1,1.075
216,0,2,-2,-4,-3,-4,-3,-2,1.08
217,-3,-4,-9,-2,-12,-5,-5,-3,1.085
218,1,-1,6,1,4,-2,1,1,1.09
219,1,1,1,2,2,4,1,2,1.095
220,-5,-5,-9,-1,-4,0,1,-1,1.1
221,1,-3,2,-5,5,4,-6,-3,1.105
222,10,5,14,-2,-16,-10,-1,1,1.11
223,-21,-1,0,5,7,-2,-1,-2,1.115
224,6,1,0,4,-16,-4,-1,0,1.12
225,1,-2,-4,-8,-1,6,3,0,1.125
226,1,-2,-8,-1,18,7,2,3,1.1300000000000001
227,10,-1,2,5,4,3,1,3,1.135
228,-8,0,-3,-1,-1,-4,-3,-2,1.1400000000000001
229,-15,-9,-4,-2,-7,-10,-4,-5,1.145
230,9,0,-1,0,4,1,-1,1,1.1500000000000001
231,-2,3,4,3,2,7,2,1,1.155
232,1,-1,0,1,2,1,-1,-1,1.16
233,-7,-5,-2,-6,-6,-2,-4,-1,1.165
234,-2,3,3,-3,-13,-9,-2,-2,1.17
235,3,-6,-2,1,2,-6,0,-1,1.175
236,3,-2,4,2,9,6,1,0,1.18
237,1,1,-1,-3,-11,-5,-3,-1,1.185
238,-4,-3,-7,-9,-8,-1,-2,-1,1.19
239,3,0,3,7,4,6,0,0,1.195
240,0,-2,-2,-8,-3,-8,1,1,1.2
241,1,-3,-4,0,3,-2,-2,0,1.205
242,-7,0,-1,5,2,4,2,-1,1.21
243,12,5,2,-4,-4,-2,-2,-2,1.215
244,-4,-6,-6,-3,3,4,-1,-1,1.22
245,-9,-3,-2,-8,-21,-15,-3,-4,1.225
246,-7,-4,1,-1,0,-9,-8,-5,1.23
247,4,5,3,4,-9,0,2,1,1.235
248,3,-1,5,-2,18,13,1,1,1.24
249,3,1,-5,0,9,5,0,-3,1.245
250,-14,-6,-5,-2,-15,-9,-2,-1,1.25
251,2,-3,-2,-1,1,0,-1,0,1.2550000000000001
252,2,-2,-1,1,-5,0,2,1,1.26
253,12,11,6,-4,-7,0,2,2,1.2650000000000001
254,-6,-1,0,5,16,3,-3,-2,1.27
255,-4,0,-7,-11,-4,0,6,-2,1.2750000000000001
256,-3,2,0,0,-3,0,-6,-3,1.28
257,0,-5,0,3,-11,-6,-3,-3,1.285
258,1,1,-8,-3,8,4,5,-1,1.29
259,-6,-2,-2,-1,-2,-4,-1,1,1.295
260,0,3,13,7,-3,-2,5,0,1.3
261,-3,-3,-18,-13,6,0,-4,-2,1.305
262,7,4,3,-4,-7,2,3,1,1.31
263,-4,-4,12,6,-4,0,-8,-1,1.315
264,-9,-8,-8,-1,-3,-3,1,-1,1.32
265,1,10,2,8,6,6,-2,-4,1.325
266,-2,-4,-12,-6,1,-5,7,-5,1.33
267,4,1,-7,-7,0,-5,-15,4,1.335
268,4,4,5,0,0,-3,-4,1,1.34
269,-1,-1,2,2,-9,-5,3,1,1.345
270,-2,1,-1,1,2,6,3,-1,1.35
271,-1,-5,0,2,9,2,4,-4,1.355
272,-1,-3,-1,0,-7,-1,-5,-13,1.36
273,-5,-2,1,-2,5,-1,-5,3,1.365
274,4,3,-2,-5,-6,-8,-11,11,1.37
275,0,-1,2,-3,-2,-4,3,-2,1.375
276,1,1,-3,1,-7,-3,1,2,1.3800000000000001
277,-2,-4,3,0,6,2,5,-8,1.385
278,1,3,4,3,6,8,2,-3,1.3900000000000001
279,-5,-5,-5,-3,2,3,-6,2,1.395
280,-1,-1,-4,-3,5,3,1,-3,1.4000000000000001
281,1,1,2,0,-15,-11,-1,0,1.405
282,-3,-5,-3,-6,-14,-8,-4,-1,1.41
283,1,1,-1,0,1,0,3,-3,1.415
284,0,5,5,8,15,4,5,0,1.42
285,-3,-1,-1,0,3,5,-13,1,1.425
286,-1,-3,-3,-3,5,3,2,-1,1.43
287,-2,-2,-1,-2,-14,-8,2,-3,1.435
288,2,-4,-4,-3,-9,-8,1,1,1.44
289,-7,-2,1,1,13,5,1,2,1.445
290,6,1,-11,-4,-2,1,-2,-2,1.45
291,0,0,5,1,-1,2,-1,-1,1.455
292,-9,-6,5,-1,-6,-7,-8,1,1.46
293,4,1,-3,-1,-9,-3,3,-1,1.465
294,-1,3,2,3,7,1,-3,-2,1.47
295,3,5,-6,2,4,1,1,0,1.475
296,-2,-1,-8,-4,-9,-2,-2,-1,1.48
297,2,-1,1,-3,-3,-3,1,-2,1.485
298,2,-2,3,-1,3,-1,-3,-2,1.49
299,2,1,0,-1,-4,1,0,-1,1.495
300,-3,2,-2,0,9,2,-3,-1,1.5
301,-8,-3,-3,-2,5,5,0,-2,1.5050000000000001
302,2,10,5,0,-8,-6,-2,0,1.51
303,2,7,1,2,3,-2,0,1,1.5150000000000001
304,3,8,-2,-2,-4,0,-1,-3,1.52
305,4,2,-1,0,-2,-3,0,-2,1.5250000000000001
306,-3,-8,-3,3,5,4,-1,0,1.53
307,-4,1,-4,-3,-5,0,0,-2,1.5350000000000001
308,1,-5,-1,-2,-8,-3,1,1,1.54
309,1,-5,0,-1,0,-7,-1,1,1.545
310,-5,-13,3,-2,-17,-6,-3,-2,1.55
311,-7,-17,-3,0,11,1,2,1,1.555
312,5,-17,-2,3,5,5,3,2,1.56
313,-4,-15,-2,-2,-1,2,-2,-2,1.565
314,7,-18,-4,-1,-3,-5,-2,-1,1.57
315,-13,-18,-2,-4,-9,-3,-2,-3,1.575
316,5,-11,-2,-2,9,-2,0,-2,1.58
317,0,2,5,4,4,6,2,2,1.585
318,-3,5,0,-3,-2,2,0,0,1.59
319,8,14,3,0,3,1,-1,-2,1.595
320,-7,14,3,-1,-2,-3,-3,0,1.6
321,1,7,-5,-6,1,0,-3,-1,1.605
322,-3,13,5,0,-18,-6,0,-1,1.61
323,5,10,-2,-1,5,-5,0,0,1.615
324,-2,13,5,1,-8,-7,-1,-3,1.62
325,0,4,1,2,8,10,3,-1,1.625
326,2,8,-7,1,18,8,0,-1,1.6300000000000001
327,-4,6,-12,0,-2,10,4,-3,1.635
328,3,5,10,3,3,1,0,-1,1.6400000000000001
329,13,3,12,4,-11,-7,-2,0,1.645
330,-36,-7,-4,-5,-3,-5,-5,-3,1.6500000000000001
331,11,-3,0,-1,-9,-6,-4,-1,1.655
332,-12,-1,-12,-3,3,-2,-1,-4,1.6600000000000001
333,10,-3,-6,-1,-5,-2,1,1,1.665
334,19,3,-1,-4,0,1,-9,2,1.67
335,-14,-1,-3,-4,-5,-6,3,-8,1.675
336,-20,-12,0,2,3,2,-5,4,1.68
337,7,-2,5,4,1,0,4,7,1.685
338,-3,-6,1,3,5,2,1,-5,1.69
339,4,1,0,-2,-5,-2,-5,3,1.695
340,14,7,-2,-3,-1,-2,3,-3,1.7
341,-12,-7,-5,-3,-1,-2,-4,-3,1.705
342,5,-4,-1,0,7,2,2,3,1.71
343,2,-6,2,0,1,-3,-4,-2,1.715
344,0,-7,-2,-2,-5,-3,-2,-1,1.72
345,-5,1,-4,-1,3,-4,-1,-2,1.725
346,2,-1,-2,1,-3,5,5,-2,1.73
347,0,-1,0,0,-3,3,6,0,1.735
348,1,-1,-1,-1,-2,-4,-12,-2,1.74
349,-1,-4,-4,-2,0,-2,0,-2,1.745
350,1,1,7,2,-7,-8,-11,-1,1.75
351,-4,-6,-2,-2,4,0,-1,-1,1.7550000000000001
352,-2,0,-5,-3,0,0,-1,-1,1.76
353,-2,5,-2,-2,-2,3,-1,-4,1.7650000000000001
354,-3,-1,-1,0,0,-6,1,-1,1.77
355,-1,-2,-3,0,1,1,-3,2,1.7750000000000001
356,3,-1,1,-3,-1,1,1,1,1.78
357,-5,2,6,1,-4,-5,-1,-4,1.7850000000000001
358,1,1,0,-2,-6,-3,2,-4,1.79
359,0,1,1,-2,3,1,-4,8,1.795
360,-1,-2,-3,1,5,0,-2,2,1.8
361,-4,-2,-4,0,1,5,3,-1,1.805
362,0,3,-1,2,-2,-3,4,1,1.81
363,-2,5,3,-1,1,3,1,-5,1.815
364,4,4,-5,0,7,1,1,0,1.82
365,2,5,0,-3,-14,-5,-5,1,1.825
366,-2,1,-3,-3,2,1,-2,-3,1.83
367,-1,8,-2,-3,-4,-8,-4,1,1.835
368,-1,7,1,-3,-10,0,5,1,1.84
369,-2,5,-3,-3,21,0,-5,-1,1.845
370,2,7,-2,3,-5,6,5,1,1.85
371,-4,4,1,0,1,-5,-2,1,1.855
372,-1,3,-2,-2,-4,-1,-3,-2,1.86
373,-1,2,-2,-1,-6,0,-2,-1,1.865
374,-1,4,-1,1,-5,-1,-2,-1,1.87
375,1,1,-2,-4,4,1,3,-1,1.875
376,3,1,-1,3,-4,-1,2,0,1.8800000000000001
377,-4,0,0,-7,-1,-2,-4,0,1.885
378,4,1,-2,-6,2,-3,-1,3,1.8900000000000001
379,1,-6,0,4,-14,3,-2,-2,1.895
380,-9,-10,1,4,14,0,3,-1,1.9000000000000001
381,1,-9,0,4,2,0,2,1,1.905
382,0,-8,0,1,2,1,-4,-1,1.9100000000000001
383,-1,-12,0,-2,-5,-2,1,-1,1.915
384,0,-8,-4,-5,-10,-4,-2,-1,1.92
385,-2,-7,1,4,-1,-4,-1,-1,1.925
386,-4,-11,-7,-6,2,1,0,-1,1.93
387,1,-14,-1,-5,3,-6,-6,-1,1.935
388,-3,-11,4,4,0,7,5,-2,1.94
389,-7,-9,-2,0,0,0,0,-3,1.945
390,-1,-7,0,3,-1,2,6,-1,1.95
391,1,0,1,-3,7,2,-3,0,1.955
392,4,3,-4,-2,-7,-6,-8,-9,1.96
393,-4,-1,-5,-3,-25,-8,-2,4,1.965
394,-1,3,-2,0,14,3,0,3,1.97
395,-3,5,0,2,1,0,2,-2,1.975
396,9,8,-2,-2,3,4,1,8,1.98
397,-12,-4,0,-1,4,3,1,-6,1.985
398,0,1,1,0,-5,-3,-1,-2,1.99
399,-1,-1,-3,2,2,-3,1,1,1.995
400,-5,-1,-7,-6,-5,-2,-2,-16,2.0
401,1,5,-4,-6,-3,-1,-2,2,2.005
402,-4,-2,26,13,1,-2,-5,9,2.0100000000000002
403,1,1,-1,2,1,1,2,10,2.015
404,4,0,-3,-3,-6,-5,2,11,2.02
405,10,3,-13,-4,2,5,2,-7,2.025
406,-13,-3,-6,-5,2,-1,1,-9,2.0300000000000002
407,-4,2,4,3,-3,2,-4,-8,2.035
408,-3,-6,-3,-2,-1,-5,-4,-2,2.04
409,3,-1,-2,-1,2,4,1,-1,2.045
410,6,4,2,1,0,-2,0,1,2.05
411,-1,-3,-4,-3,-3,-2,-1,-2,2.055
412,-11,1,1,0,1,-6,-3,-2,2.06
413,10,8,2,-2,-2,1,1,2,2.065
414,1,1,-4,-2,0,3,-1,0,2.07
415,-1,4,-2,1,0,1,0,-2,2.075
416,2,6,1,0,0,0,-2,1,2.08
417,0,2,4,-1,0,-4,-1,0,2.085
418,-3,-2,-8,-4,-5,-6,-2,-3,2.09
419,1,-5,3,0,0,3,4,-1,2.095
420,-1,-3,2,-1,-2,0,0,0,2.1
421,-7,-6,3,8,2,-1,-1,0,2.105
422,-1,-4,-4,-6,-3,-2,-5,-3,2.11
423,-1,-6,-2,1,2,-4,-5,-4,2.115
424,-9,-12,-1,-2,0,3,3,0,2.12
425,-4,-9,0,1,1,1,0,-11,2.125
426,0,-6,-4,-2,0,-1,-3,3,2.13
427,0,-8,-1,-2,-3,1,0,8,2.1350000000000002
428,2,-11,0,-1,-2,-1,5,-8,2.14
429,-1,-11,-3,-3,2,-9,-16,5,2.145
430,2,1,0,-1,2,4,8,1,2.15
431,0,15,2,-2,-4,-2,-3,-2,2.1550000000000002
432,6,7,1,1,2,2,0,10,2.16
433,-2,9,1,-1,-3,-6,1,-10,2.165
434,3,9,-3,-6,-4,-1,-4,-2,2.17
435,-6,-9,8,10,6,6,3,0,2.1750000000000003
436,-3,-2,-2,1,-1,-2,-1,0,2.18
437,-3,-8,-1,-1,-3,0,8,0,2.185
438,3,-7,-4,-3,-4,-6,-10,-3,2.19
439,2,-2,-6,-6,-6,-4,0,-5,2.195
440,-4,-4,4,1,-2,-1,-4,-4,2.2
441,1,-2,2,3,1,1,0,4,2.205
442,-3,-3,0,0,1,0,2,1,2.21
443,3,-2,-2,0,0,-1,-1,-3,2.215
444,1,0,-1,0,1,-5,-3,0,2.22
445,5,3,-1,-2,-2,0,0,5,2.225
446,-5,-4,-3,-2,-4,1,2,-4,2.23
447,-7,-5,1,2,2,-2,-1,-3,2.235
448,2,2,-2,-1,1,2,1,1,2.24
449,-1,0,-3,-1,1,-2,-1,-1,2.245
450,5,3,-3,-1,-1,1,1,-2,2.25
451,-2,2,3,-1,1,1,0,1,2.255
452,-5,0,0,1,-1,0,2,0,2.2600000000000002
453,-1,1,-1,-1,2,-2,-8,-1,2.265
454,-5,-1,3,1,1,-2,0,-1,2.27
455,-1,1,-4,-3,-1,-1,-4,-4,2.275
456,0,4,0,0,0,1,-1,0,2.2800000000000002
457,3,7,1,0,-3,2,3,0,2.285
458,-5,-1,1,4,0,-2,-1,-2,2.29
459,-7,-13,-4,-3,-1,-2,-1,-3,2.295
460,5,-15,-4,-3,-1,1,-1,6,2.3000000000000003
461,2,-5,2,0,-2,-3,-2,1,2.305
462,5,-1,-1,-3,0,2,6,3,2.31
463,3,9,-5,-4,-2,-3,-7,-6,2.315
464,-3,7,-1,-1,0,-1,-2,-1,2.32
465,-5,0,-3,-2,-1,-2,-1,-1,2.325
466,6,9,1,0,0,-2,-3,-1,2.33
467,4,7,2,0,-2,-2,0,-1,2.335
468,2,5,0,-1,-2,2,-1,-2,2.34
469,-1,1,-2,-1,1,1,1,-2,2.345
470,-6,-4,-3,-2,0,-3,-2,-4,2.35
471,3,4,4,4,1,4,2,2,2.355
472,-3,-1,-1,-2,-3,-6,-4,-4,2.36
473,-1,1,0,2,-1,0,-1,-3,2.365
474,3,1,1,2,1,0,7,2,2.37
475,-1,-4,-4,-3,-2,-4,-3,2,2.375
476,-3,0,-2,-1,2,-1,0,-2,2.38
477,1,-1,-2,-2,-2,-1,0,-1,2.3850000000000002
478,-1,1,3,1,-1,0,-3,-2,2.39
479,-2,-1,-1,-2,-2,0,4,1,2.395
480,4,8,1,1,-2,1,1,-1,2.4
481,-6,-8,-4,-3,-2,-1,0,-1,2.4050000000000002
482,-1,-2,-1,2,-2,1,-3,2,2.41
483,0,-4,0,-3,1,-1,-1,0,2.415
484,-5,-3,-1,0,0,-2,-3,-3,2.42
485,1,0,-1,0,0,-1,-1,1,2.4250000000000003
486,-3,-4,-5,0,-2,-3,-3,-1,2.43
487,-1,-1,-1,0,-1,-1,0,-1,2.435
488,2,0,3,0,-1,-2,0,-1,2.44
489,0,-2,-1,-1,0,0,3,-1,2.445
490,-2,-2,0,-2,-1,0,-6,-3,2.45
491,-3,-2,-4,-2,-4,-2,-1,0,2.455
492,0,-1,-3,-1,1,0,-2,0,2.46
493,2,2,1,-1,-2,0,2,2,2.465
494,-5,-6,-1,0,-2,2,3,-2,2.47
495,2,3,1,0,-1,-1,-2,-1,2.475
496,-1,0,0,1,-1,1,1,-1,2.48
497,-2,5,-1,-2,0,-4,-3,0,2.485
498,1,6,-3,-5,-3,2,0,-2,2.49
499,-1,4,1,1,0,2,-1,-1,2.495
500,-1,0,-2,-1,-1,-1,-2,-2,2.5
501,0,1,-2,1,-3,0,2,-1,2.505
502,0,4,-2,-2,-2,1,-2,0,2.5100000000000002
503,-2,3,-1,-1,-2,-5,-3,-3,2.515
504,-1,-3,1,1,1,0,0,2,2.52
505,1,0,2,0,0,0,-3,-1,2.525
506,0,-1,0,-1,0,-1,0,1,2.5300000000000002
507,-1,2,-1,1,1,2,1,-1,2.535
508,0,2,-1,-1,2,-4,-1,-1,2.54
509,-3,-3,-1,-1,1,0,2,0,2.545
510,1,-2,0,1,2,-3,0,-2,2.5500000000000003
511,1,-3,-4,-4,-3,0,1,0,2.555
512,-1,-1,1,0,-5,-3,-5,-2,2.56
513,-2,-4,0,2,0,2,-1,0,2.565
514,-2,-1,-1,-1,-3,-1,0,-2,2.57
515,-5,-5,-2,1,-2,-1,-1,0,2.575
516,1,1,-1,0,-2,0,2,-1,2.58
517,-1,0,-1,-3,-1,-1,-2,-1,2.585
518,2,0,-1,-1,-1,-4,-4,0,2.59
519,-3,-5,-3,-1,2,0,0,-1,2.595
520,-3,-4,-2,-2,-1,-4,-1,-1,2.6
521,0,0,0,0,-1,-1,-2,0,2.605
522,0,0,0,0,3,3,2,0,2.61
523,-2,-4,-2,-1,0,0,1,0,2.615
524,-1,1,-2,0,1,2,5,0,2.62
525,-3,-4,-1,-1,-4,-1,-1,-1,2.625
526,-2,-1,-1,0,-1,-6,-7,-1,2.63
527,0,0,0,-2,-3,-2,-1,0,2.6350000000000002
528,2,-2,0,-1,-1,2,0,1,2.64
529,0,-2,-3,-2,-1,5,5,-1,2.645
530,-2,0,-2,0,1,1,-1,-1,2.65
531,1,0,-1,-3,0,-3,-2,0,2.6550000000000002
532,-2,0,-3,-1,-2,-1,-1,-2,2.66
533,-1,-1,-1,-2,-1,-2,2,-1,2.665
534,0,-1,-1,-3,-2,1,-1,-1,2.67
535,1,-1,0,0,-1,-1,-1,-2,2.6750000000000003
536,-3,-2,-1,-1,-1,1,1,-1,2.68
537,1,1,0,0,1,-1,-4,-1,2.685
538,-2,-1,0,2,0,-3,-1,0,2.69
539,0,1,0,-1,-2,-3,1,0,2.695
540,-2,-2,-3,-1,-2,-6,-5,-3,2.7
541,-1,-2,0,-1,-1,5,1,0,2.705
542,-2,-5,-3,-3,0,-1,2,1,2.71
543,-4,-1,3,-1,-1,0,1,-2,2.715
544,1,-9,-2,-1,-2,2,-2,1,2.72
545,0,-8,0,1,-1,-4,-3,-1,2.725
546,4,-1,-1,0,-1,-3,-2,-1,2.73
547,0,-2,0,0,-1,3,2,-1,2.735
548,-1,5,2,-1,-1,-2,-2,-1,2.74
549,1,3,-1,-1,-1,-2,-1,-2,2.745
550,3,4,-3,-2,-2,2,3,0,2.75
551,-5,-3,1,-1,0,-1,1,-1,2.755
552,1,-4,0,0,-2,-3,-6,-2,2.7600000000000002
553,0,-5,-1,-1,1,0,-3,0,2.765
554,-3,-7,-1,-1,0,-1,-1,-1,2.77
555,-2,-4,-4,-1,-1,-2,-3,-1,2.775
556,-2,-2,-1,-1,0,0,3,-1,2.7800000000000002
557,1,4,0,2,-1,-2,1,1,2.785
558,-4,-4,-3,-1,-1,-2,-2,-1,2.79
559,0,-1,1,-1,-2,-1,-1,1,2.795
560,-4,-1,-4,-3,0,0,0,-1,2.8000000000000003
561,-1,-1,0,0,-1,-3,-2,-2,2.805
562,0,0,-1,2,0,2,1,0,2.81
563,-1,0,-2,1,-2,-2,-3,-2,2.815
564,-1,2,-1,1,1,7,2,-1,2.82
565,-1,0,-2,-3,-3,-2,-3,-1,2.825
566,-1,0,1,0,-2,-3,-1,0,2.83
567,-1,-2,-5,-2,-2,-1,-2,-1,2.835
568,-4,-2,1,2,-1,-1,0,-1,2.84
569,-1,1,-2,1,1,-4,-2,-1,2.845
570,-1,6,2,0,1,0,0,0,2.85
571,1,6,0,0,2,1,1,-1,2.855
572,1,3,-2,-3,-2,-5,-1,1,2.86
573,-3,-1,0,-2,-2,3,1,-2,2.865
574,0,-1,0,-1,1,-1,3,0,2.87
575,-2,-1,-1,-2,-1,-4,-9,-1,2.875
576,4,3,0,1,1,1,1,1,2.88
577,-4,-2,-2,-2,-2,-2,-3,0,2.8850000000000002
578,1,-3,-2,1,-1,1,-1,-2,2.89
579,-4,0,4,0,-2,2,3,-2,2.895
580,-5,-8,1,1,-2,2,0,-1,2.9
581,6,-5,-4,-4,-2,-6,-3,3,2.9050000000000002
582,2,-5,3,1,1,8,2,-1,2.91
583,-7,-1,-3,-1,-1,1,0,-2,2.915
584,0,4,-1,-2,-2,-1,-1,0,2.92
585,-1,-5,1,2,-2,-2,0,-3,2.9250000000000003
586,-6,-3,-1,-3,-2,0,-3,-2,2.93
587,4,-1,-3,-2,0,-2,1,-1,2.935
588,2,3,0,-3,1,0,1,-1,2.94
589,-1,4,-2,-1,1,2,1,-1,2.945
590,2,3,-2,0,0,-3,-2,0,2.95
591,-3,-1,-4,-2,-3,-2,-1,1,2.955
592,0,1,-1,-2,-1,-3,0,0,2.96
593,1,0,-1,-2,1,-1,1,-1,2.965
594,-1,-2,2,0,-1,-4,-5,-1,2.97
595,2,-1,0,-1,0,2,0,-1,2.975
596,1,-2,0,-1,-2,-1,2,0,2.98
597,-2,1,2,1,1,2,0,0,2.985
598,-1,3,-1,-2,-1,-4,-2,0,2.99
599,-1,-2,0,-2,-3,-1,3,0,2.995
600,0,1,-3,-1,0,-1,-5,-1,3.0
601,4,7,1,-1,-1,0,-2,0,3.005
602,-5,0,0,1,0,-1,0,-1,3.0100000000000002
603,-2,-6,-5,-2,-1,-1,0,-2,3.015
604,-1,-7,-1,-1,-2,-1,-2,-2,3.02
605,-2,-3,-1,-2,0,-1,-1,0,3.025
606,7,-8,0,0,-2,-3,0,-1,3.0300000000000002
607,-8,-5,3,3,0,-4,-5,-1,3.035
608,-2,-7,0,1,2,4,2,2,3.04
609,-1,-3,-2,0,-3,0,-1,-2,3.045
610,0,0,0,-3,1,2,0,0,3.0500000000000003
611,4,2,0,0,1,0,0,1,3.055
612,-1,1,-1,0,-2,-4,-1,-1,3.06
613,-3,-3,-2,-2,-3,-1,-1,-3,3.065
614,-3,0,-2,-1,-2,0,0,-2,3.0700000000000003
615,3,1,-1,-1,1,3,3,0,3.075
616,-3,0,-4,-4,-2,-5,-6,-2,3.08
617,-2,2,1,1,3,-2,-1,-1,3.085
618,-5,-1,-5,-2,-1,-2,1,-2,3.09
619,1,3,1,0,2,-1,-2,0,3.095
620,2,1,1,-3,1,-1,3,-1,3.1
621,-3,-2,-1,0,-2,0,-1,0,3.105
622,-3,-3,0,-2,-3,-2,-2,0,3.11
623,2,-3,-4,-1,-3,0,-1,1,3.115
624,-3,0,-1,0,-1,0,-2,1,3.12
625,2,1,-1,1,-1,0,-1,-2,3.125
626,-1,-1,0,-2,-2,1,-2,0,3.13
627,0,-2,-3,-3,-2,-4,-3,0,3.1350000000000002
628,2,-2,0,0,-3,5,1,-3,3.14
629,-3,-1,1,-2,-1,-1,-2,1,3.145
630,0,0,-4,-1,0,0,-1,-2,3.15
631,0,1,5,0,0,-5,-2,-2,3.1550000000000002
632,-4,-2,-5,-3,-1,2,3,-2,3.16
633,0,-2,0,-1,-3,-4,-1,-1,3.165
634,-1,1,-1,0,2,0,0,-2,3.17
635,-1,1,-1,1,0,1,0,-1,3.1750000000000003
636,0,0,4,2,1,-1,-1,1,3.18
637,1,-2,-1,-2,0,2,2,-1,3.185
638,-1,-2,-1,-2,-2,-7,-2,2,3.19
639,-3,-1,-2,-3,0,1,-4,-2,3.1950000000000003
640,-1,2,-1,-1,-1,-2,-2,-1,3.2
641,-3,-2,1,1,1,-1,-2,-1,3.205
642,1,-1,0,1,-2,-1,1,-1,3.21
643,0,3,0,-1,0,1,2,0,3.215
644,2,1,0,1,-1,-2,-3,-1,3.22
645,-2,1,-1,-1,0,0,1,0,3.225
646,1,-2,0,0,-2,-3,-3,-2,3.23
647,-1,-2,-1,-1,-5,1,1,0,3.235
648,-1,-2,-2,-1,1,4,1,-1,3.24
649,0,-1,-2,-1,2,-1,-2,0,3.245
650,0,-4,-1,-3,1,3,0,2,3.25
651,1,-2,-2,1,0,-6,-4,1,3.255
652,0,-3,-1,-1,0,-2,-1,-1,3.2600000000000002
653,-1,-2,-3,-1,-2,0,0,-1,3.265
654,-3,-1,-2,-3,0,-4,-2,-2,3.27
655,2,-2,-1,0,0,0,1,1,3.275
656,-3,-1,-1,-2,-3,-4,-4,0,3.2800000000000002
657,-2,0,-1,0,0,-1,1,-1,3.285
658,1,0,-1,0,-2,-2,-1,-2,3.29
659,-2,-3,0,0,0,-1,1,-1,3.295
660,1,-4,-1,-2,1,-1,-2,-1,3.3000000000000003
661,0,-1,0,-1,0,0,1,0,3.305
662,-1,-1,-3,-2,-1,-4,-5,0,3.31
663,-1,-1,-1,-2,-2,3,4,-2,3.315
664,0,-1,0,0,1,-1,-1,-1,3.3200000000000003
665,0,-1,1,0,-3,3,2,-1,3.325
666,1,1,-3,-2,-2,1,3,-1,3.33
667,-1,0,-1,-1,-1,-6,-4,-2,3.335
668,-4,-4,-3,-2,-2,2,2,-3,3.34
669,0,-1,-1,-2,0,3,0,-2,3.345
670,0,2,0,0,2,-1,0,-1,3.35
671,2,2,-1,-1,-1,0,0,0,3.355
672,-3,0,-1,0,-1,-3,0,-1,3.36
673,-3,-3,-3,-2,0,-3,-5,-1,3.365
674,-2,-4,1,0,0,3,1,-1,3.37
675,3,0,-1,0,0,-1,0,0,3.375
676,2,-2,-2,-2,-2,-3,-2,-1,3.38
677,-2,0,0,1,-1,1,1,0,3.3850000000000002
678,-1,0,0,0,0,1,-2,-1,3.39
679,-2,-1,-1,0,2,-1,-1,-2,3.395
680,2,0,-1,0,-2,0,0,1,3.4
681,-2,-3,-2,-4,-1,-4,-3,-1,3.4050000000000002
682,-1,0,0,-1,-1,1,0,-1,3.41
683,-3,-6,-2,-1,-2,0,-1,-3,3.415
684,1,-3,0,1,1,2,2,0,3.42
685,-1,-3,-1,-1,-4,-4,-5,-1,3.4250000000000003
686,1,1,1,0,-3,-4,-1,0,3.43
687,1,2,-1,0,1,0,1,0,3.435
688,1,3,-1,-1,1,0,-2,-2,3.44
689,-1,-2,-2,1,-1,4,3,-2,3.4450000000000003
690,-1,-4,-1,0,-1,-3,-1,-1,3.45
691,0,0,-2,-1,0,0,-3,0,3.455
692,-2,-1,-1,-1,-1,-1,1,0,3.46
693,-1,3,0,0,0,1,1,0,3.465
694,-3,0,0,0,-2,-1,-3,-2,3.47
695,1,1,-2,-2,-2,-2,1,0,3.475
696,-3,-1,0,-2,0,-3,-3,0,3.48
697,1,-2,-1,-1,0,-3,-3,-2,3.485
698,-2,-2,-3,-2,-1,0,4,0,3.49
699,-1,-3,2,0,-2,1,-5,-2,3.495
700,0,-1,0,2,-3,0,-1,1,3.5
701,1,0,-1,-2,0,-4,-4,0,3.505
702,-2,-2,-4,-1,0,-1,1,-2,3.5100000000000002
703,-2,1,0,1,0,1,0,0,3.515
704,0,-1,-1,-1,0,-2,-1,-1,3.52
705,0,-1,-1,0,-2,-2,-3,0,3.525
706,1,1,-2,0,-1,0,0,0,3.5300000000000002
707,-1,-1,0,-1,0,-2,-2,1,3.535
708,-1,-1,-1,0,-1,-4,-1,-2,3.54
709,-1,-1,-2,-1,0,0,1,-1,3.545
710,-3,-2,2,-1,-1,-1,-2,-1,3.5500000000000003
711,-3,-2,-1,0,-1,-3,-1,-1,3.555
712,0,1,1,-2,-1,3,1,1,3.56
713,0,-1,-1,0,-1,-3,-2,0,3.565
714,0,1,2,1,-1,4,3,1,3.5700000000000003
715,-1,-2,-2,-1,-1,0,-3,-1,3.575
716,1,1,0,0,1,-3,-3,-1,3.58
717,-3,-1,-3,-2,0,1,-1,-1,3.585
718,1,-2,-1,-1,-2,-3,-3,-2,3.59
719,-2,-3,-3,-1,-2,-3,1,0,3.595
720,-2,0,-1,-2,-3,0,-3,-2,3.6
721,-1,-1,1,1,1,1,0,1,3.605
722,-1,-2,-1,-1,1,-2,-3,-1,3.61
723,0,1,-1,0,-2,-2,-1,-2,3.615
724,-1,-1,-2,-3,-3,2,1,0,3.62
725,1,1,1,0,1,0,-1,-1,3.625
726,-1,1,1,1,0,2,0,-1,3.63
727,-1,1,0,-2,0,-3,-1,0,3.6350000000000002
728,0,0,-1,0,0,1,3,-1,3.64
729,-1,-1,-3,-1,-3,-4,-2,1,3.645
730,-1,-2,-2,-2,2,0,-1,0,3.65
731,1,0,0,0,0,2,0,1,3.6550000000000002
732,-4,-4,0,-1,-3,-6,-4,-1,3.66
733,-1,0,0,-2,2,4,5,1,3.665
734,3,-2,-3,-1,-1,-2,-2,-1,3.67
735,-1,-2,-2,1,1,-1,-1,-2,3.6750000000000003
736,-3,-2,-2,-2,-3,0,-1,0,3.68
737,0,-1,0,0,-2,-2,0,-2,3.685
738,-2,0,-2,-2,-4,-2,-1,0,3.69
739,-1,-1,-1,-2,-2,0,1,0,3.6950000000000003
740,2,0,-1,-1,1,1,1,-1,3.7
741,-1,0,-3,-1,2,-1,-1,-2,3.705
742,-1,-1,-1,0,2,0,-1,-2,3.71
743,-1,0,0,-2,0,-2,-2,-2,3.715
744,1,1,-2,-1,-1,-3,-2,0,3.72
745,-1,-1,-1,0,1,-1,-2,1,3.725
746,-1,0,-1,-1,0,2,-2,1,3.73
747,0,-2,-1,1,1,5,1,0,3.735
748,-6,-2,-1,-1,-1,-1,-2,0,3.74
749,-1,-1,-1,0,-3,-2,1,-1,3.745
750,-1,-2,-1,-1,-3,-2,0,0,3.75
751,1,1,1,0,1,-3,-6,-2,3.755
752,2,0,-1,0,1,1,0,-1,3.7600000000000002
753,-3,-4,-2,-2,-1,-2,-2,-1,3.765
754,-1,1,0,-1,1,0,0,-2,3.77
755,-2,1,-1,-1,-4,-2,1,-1,3.775
756,-2,-4,-3,0,0,-2,-2,-2,3.7800000000000002
757,1,0,1,1,-1,1,-1,-2,3.785
758,0,-1,0,-1,-2,-6,-1,1,3.79
759,0,-1,0,-1,0,0,-1,0,3.795
760,-1,-1,-1,-1,1,-1,-2,1,3.8000000000000003
761,1,0,-1,-1,-1,-1,0,0,3.805
762,-1,0,2,-1,-2,1,3,-2,3.81
763,-2,-1,-4,0,-3,-2,1,0,3.815
764,-2,-2,-1,-2,-2,-1,-2,-2,3.8200000000000003
765,-2,-2,-2,-1,-2,-2,-4,-1,3.825
766,1,1,-2,0,0,3,-1,-1,3.83
767,-3,-1,-2,-2,-1,1,4,0,3.835
768,2,1,0,-1,0,-3,1,0,3.84
769,0,0,0,-1,-3,-4,1,0,3.845
770,-1,-2,-3,-3,-2,-1,-6,-2,3.85
771,1,-2,0,0,-1,-1,-2,-1,3.855
772,0,0,0,-1,-1,0,0,-2,3.86
773,1,3,0,-1,-3,0,0,-1,3.865
774,-1,-3,-3,1,-2,-4,-1,-2,3.87
775,-4,-3,-1,-2,-2,1,1,-1,3.875
776,-1,-1,0,1,-1,-1,-2,0,3.88
777,-1,0,-2,-1,1,-1,-2,-2,3.8850000000000002
778,2,1,-1,0,0,-5,-4,0,3.89
779,-4,-1,-1,-3,0,1,-1,0,3.895
780,-1,0,0,2,0,-3,1,1,3.9
781,-2,-5,0,-1,-1,-2,-2,-1,3.9050000000000002
782,-2,-2,-2,-1,1,4,3,1,3.91
783,-1,-2,-2,-1,0,-3,-1,-1,3.915
784,-1,0,2,1,-1,0,-1,-2,3.92
785,0,0,1,-1,-1,-2,-3,0,3.9250000000000003
786,-3,-3,-2,-1,-1,1,2,-3,3.93
787,-2,-2,-1,0,1,-2,-3,0,3.935
788,2,1,-2,0,-2,-2,-1,-1,3.94
789,-1,1,-2,0,2,0,-1,-1,3.9450000000000003
790,0,-1,-1,-2,-2,-4,-1,0,3.95
791,2,0,1,0,-1,2,4,0,3.955
792,-2,-1,-2,-1,-1,-1,-5,-2,3.96
793,-3,-4,-2,-2,-4,-4,-3,-1,3.9650000000000003
794,-1,0,0,0,-1,2,1,0,3.97
795,-2,0,-1,-1,-1,-2,-5,-2,3.975
796,1,0,1,-3,-1,0,-1,0,3.98
797,-1,-4,-2,0,-1,3,6,-2,3.985
798,-2,-1,2,-1,1,-1,0,-3,3.99
799,1,-2,-2,0,1,-3,0,0,3.995
800,0,-1,0,-1,-3,-3,-4,-1,4.0
801,-2,-2,0,0,1,9,4,1,4.005
802,-1,-2,0,-1,-2,-3,-1,-2,4.01
803,-3,-2,0,-1,2,0,0,2,4.015
804,2,2,-1,-2,2,-2,1,-5,4.0200000000000005
805,1,0,-1,-1,0,-2,1,9,4.025
806,1,1,1,0,0,1,0,0,4.03
807,-2,1,-1,1,-3,0,-1,-4,4.035
808,-2,-2,-1,-1,-2,3,3,-1,4.04
809,-1,2,0,1,-2,-5,-4,-4,4.045
810,-3,-4,-4,-3,-1,-2,0,0,4.05
811,2,1,1,-1,-4,-2,-2,1,4.055
812,-2,-2,0,-1,-2,4,5,0,4.0600000000000005
813,1,1,-1,0,0,-1,-4,-3,4.065
814,0,-1,-5,-2,-1,-3,-3,-1,4.07
815,0,1,0,-1,1,4,3,-5,4.075
816,-2,-1,0,2,0,0,0,2,4.08
817,-5,-3,0,-1,-2,-2,-1,3,4.085
818,1,-2,0,-1,0,-2,-3,-3,4.09
819,-1,1,-2,-2,-1,-2,-2,-1,4.095
820,1,1,-1,1,-1,-2,0,-1,4.1
821,0,1,1,-2,-1,-1,-1,-3,4.105
822,-5,-3,0,0,-1,-1,-1,1,4.11
823,0,-1,-3,-3,-2,-2,-3,-9,4.115
824,-2,1,-1,-2,-2,-2,-2,-6,4.12
825,-2,-3,-4,-2,0,-5,-3,5,4.125
826,2,1,0,-1,0,3,5,5,4.13
827,-2,-2,1,1,-1,0,1,4,4.135
828,-2,-2,-3,-1,-1,-4,-4,-1,4.14
829,2,-1,-1,-1,-2,-1,-3,-4,4.1450000000000005
830,0,1,0,1,-1,0,0,-3,4.15
831,-1,-1,-1,-3,-1,0,-1,1,4.155
832,-1,-1,-1,0,0,-4,-2,1,4.16
833,-1,-2,-2,-1,-2,1,2,-3,4.165
834,-3,2,-1,1,-1,1,3,1,4.17
835,-1,2,-1,1,0,-3,-7,-1,4.175
836,-2,-3,-2,-3,-1,1,-1,0,4.18
837,1,1,3,0,-1,-1,1,0,4.1850000000000005
838,-1,-3,0,0,0,1,2,-2,4.19
839,-2,-4,-4,-1,-2,-2,-3,0,4.195
840,1,1,0,-1,-2,-2,-3,-3,4.2
841,-1,0,-1,0,-1,1,-1,-1,4.205
842,-1,0,1,-2,-1,3,1,5,4.21
843,0,-1,-1,-1,2,-1,2,3,4.215
844,-2,-2,-2,-2,0,1,-1,-1,4.22
845,-1,0,0,0,-1,-6,-3,-4,4.225
846,0,-1,-1,0,-3,1,-1,-5,4.23
847,1,1,-1,0,-1,-3,0,4,4.235
848,1,0,-2,-2,-3,1,2,1,4.24
849,-2,-4,-2,-1,0,0,-1,-5,4.245
850,2,1,-1,-1,-2,-7,-7,-1,4.25
851,-1,-1,-3,-1,-1,-1,2,0,4.255
852,-4,-3,-4,-2,-2,-1,0,-1,4.26
853,3,3,0,0,-3,2,0,1,4.265
854,-2,-1,-1,-2,-3,-3,-2,0,4.2700000000000005
855,1,1,0,2,-1,0,0,-1,4.275
856,-4,-2,0,1,3,2,3,0,4.28
857,-1,-2,-3,-1,-1,-2,-5,0,4.285
858,-2,-3,-1,-1,0,-3,-1,-3,4.29
859,0,-3,0,0,-1,0,-1,-2,4.295
860,-2,-4,1,0,-1,0,3,0,4.3
861,0,-1,-1,0,1,2,-2,-2,4.305
862,-1,0,-1,0,2,0,-2,-1,4.3100000000000005
863,-2,-1,-1,-4,-1,-1,-1,-1,4.315
864,0,1,0,0,-2,-1,-2,0,4.32
865,-3,0,0,0,-1,1,2,-2,4.325
866,-1,-3,-4,-2,-2,1,0,-1,4.33
867,-2,-3,-3,-1,-4,-5,-2,-2,4.335
868,2,-1,1,0,0,-2,-3,1,4.34
869,-1,-3,-4,-4,-1,1,3,4,4.345
870,1,1,0,0,2,-1,-2,-4,4.3500000000000005
871,-2,0,0,-1,0,1,2,-1,4.355
872,-2,0,-2,0,0,-4,-2,-3,4.36
873,-2,0,-1,0,-2,-2,-1,-1,4.365
874,1,2,0,-1,-2,-1,-1,0,4.37
875,1,1,1,0,1,4,1,0,4.375
876,-3,-1,-3,-3,-1,2,-2,-1,4.38
877,-2,0,0,0,0,-1,0,-1,4.385
878,-1,-1,-3,-1,-2,-1,3,-2,4.39
879,-3,1,1,0,1,-1,-2,0,4.3950000000000005
880,0,0,-2,0,0,-1,-3,-2,4.4
881,0,0,0,-1,1,0,1,0,4.405
882,-1,1,0,1,-1,-1,-4,0,4.41
883,-1,0,-2,-2,-5,0,-1,-3,4.415
884,3,0,0,1,-1,2,4,2,4.42
885,-2,-2,-1,0,-2,-5,-4,-2,4.425
886,0,-2,-1,0,-1,-4,-2,-3,4.43
887,3,2,-1,-1,-2,0,2,1,4.4350000000000005
888,-2,-3,-3,0,0,-3,-1,0,4.44
889,1,1,-2,-1,-2,1,2,-2,4.445
890,-3,-3,0,-1,0,0,0,0,4.45
891,0,0,0,0,-2,0,-3,-1,4.455
892,0,-1,2,-2,0,1,1,-1,4.46
893,-3,-1,-1,-2,0,-1,-1,-1,4.465
894,-1,1,0,0,1,-3,-5,1,4.47
895,1,-1,0,2,0,2,0,0,4.4750000000000005
896,-3,0,1,0,-1,-2,-4,-2,4.48
897,-3,1,0,0,0,2,1,0,4.485
898,-2,-2,-1,-1,-3,0,-1,-2,4.49
899,-3,-2,-2,-2,-3,-6,0,-7,4.495
900,1,0,0,-1,-4,0,-1,4,4.5
901,0,1,1,2,1,1,1,4,4.505
902,3,1,-1,-1,1,-4,-1,0,4.51
903,-2,-3,-2,-1,3,-2,-2,-1,4.515
904,-3,-2,0,0,2,-2,-2,-4,4.5200000000000005
905,0,-2,-2,-3,-2,3,2,-2,4.525
906,-1,-2,-1,-1,-2,1,3,-1,4.53
907,0,-2,0,-3,3,-1,-3,0,4.535
908,0,2,0,-1,0,-2,-3,-4,4.54
909,1,-3,-1,-1,0,3,4,3,4.545
910,-1,0,-3,-2,-2,-3,-7,0,4.55
911,1,-2,-1,-1,0,-3,-2,1,4.555
912,2,0,3,-2,1,0,-1,-1,4.5600000000000005
913,-2,-2,0,-1,-1,-1,-2,-3,4.565
914,-1,-2,0,0,1,1,3,-2,4.57
915,0,2,1,0,2,2,1,2,4.575
916,-1,-1,-2,0,-2,-3,-3,-1,4.58
917,0,1,-2,-1,-2,-3,-3,-4,4.585
918,-6,-3,2,-2,-1,0,-2,-3,4.59
919,-1,0,-1,-1,-3,-2,0,0,4.595
920,0,1,-1,1,0,2,1,0,4.6000000000000005
921,-1,-3,0,1,0,-3,-1,-1,4.605
922,-1,-1,-2,0,0,0,-2,-1,4.61
923,-2,-3,-3,-2,-2,-1,-1,-2,4.615
924,-2,-1,1,-1,-2,-1,0,1,4.62
925,1,1,-3,-3,-3,-6,-4,-3,4.625
926,0,1,1,0,0,2,2,-1,4.63
927,0,-2,-2,0,1,4,3,-1,4.635
928,1,-2,-2,-1,-2,-1,-1,-1,4.64
929,-2,1,-2,0,-2,0,-2,0,4.6450000000000005
930,0,-2,-1,0,-1,0,2,1,4.65
931,1,1,0,-2,-1,-2,0,0,4.655
932,1,-2,-2,-2,-2,-1,-3,-1,4.66
933,1,1,3,3,0,-1,-2,0,4.665
934,3,1,-1,-1,0,1,-2,0,4.67
935,-3,-3,1,-1,0,0,0,-6,4.675
936,-1,-1,-2,-2,0,-1,-1,2,4.68
937,-1,-3,-2,-1,2,-1,0,3,4.6850000000000005
938,-2,-1,0,0,0,0,-1,-1,4.69
939,0,0,0,1,-2,-1,1,2,4.695
940,0,-1,-2,-1,-1,-4,-6,-3,4.7
941,0,0,0,-2,0,3,3,-4,4.705
942,-2,-2,-2,-1,-2,-3,-1,-1,4.71
943,-2,2,-2,0,-1,1,0,-1,4.715
944,0,0,-2,-1,1,-2,0,-2,4.72
945,-2,-2,-1,0,0,-2,-2,0,4.7250000000000005
946,2,1,-1,-2,1,-1,-2,0,4.73
947,-3,-2,0,-1,-2,-2,-2,-1,4.735
948,0,-2,1,2,0,2,1,0,4.74
949,-1,1,-2,0,-1,-1,-2,-1,4.745
950,0,1,-2,-2,-2,-1,-2,-1,4.75
951,-1,0,-1,0,-1,-3,-1,1,4.755
952,2,2,0,-2,-1,-1,1,1,4.76
953,-2,-3,-3,-2,-1,0,-1,-3,4.765
954,-3,-2,-1,-2,-1,-1,-1,0,4.7700000000000005
955,0,0,1,1,0,0,-3,2,4.775
956,-2,-2,-4,-1,0,4,2,-2,4.78
957,0,0,-1,0,-2,-5,-7,-5,4.785
958,0,2,1,1,1,-1,1,-2,4.79
959,1,0,-1,-1,-1,-4,-1,-1,4.795
960,-3,-6,0,-1,-2,-2,1,0,4.8
961,0,-2,-1,-2,0,0,-1,-3,4.805
962,-1,-3,-1,-1,0,0,-1,0,4.8100000000000005
963,0,-4,-3,-3,-2,-2,-1,-1,4.815
964,0,0,1,-2,-3,-2,-3,0,4.82
965,1,-2,0,-1,0,-1,6,-6,4.825
966,1,-2,-2,-1,-1,-4,-3,0,4.83
967,1,1,1,2,1,-1,3,4,4.835
968,0,1,0,-2,0,0,-2,-2,4.84
969,-1,-2,-3,-1,-1,-4,-5,0,4.845
970,-2,0,0,1,-2,2,2,-5,4.8500000000000005
971,-1,-2,-1,-1,-1,1,-1,-1,4.855
972,-3,-2,-2,0,-1,2,1,0,4.86
973,-1,1,0,-2,1,2,-1,1,4.865
974,2,-1,-2,0,1,-2,-3,-1,4.87
975,-3,-1,-1,-2,-1,-2,0,0,4.875
976,-2,-3,-1,0,1,1,0,-2,4.88
977,2,1,-2,-3,-1,-2,-1,1,4.885
978,-4,-2,-2,0,1,0,-1,-2,4.89
979,0,0,-1,0,0,-1,-1,-1,4.8950000000000005
980,2,-1,-1,0,-1,-2,0,-1,4.9
981,-2,0,-4,-3,-3,-1,-1,0,4.905
982,0,-1,0,-3,-1,1,2,-1,4.91
983,1,2,-2,-3,-2,-2,-3,-2,4.915
984,-5,-1,0,0,-2,3,2,0,4.92
985,-2,-2,0,0,0,-2,-2,0,4.925
986,-1,-3,-1,1,-1,-3,0,-1,4.93
987,-1,-2,0,0,-1,3,2,-9,4.9350000000000005
988,0,1,-2,-2,-1,-2,-6,4,4.94
989,1,0,2,0,-1,-1,1,2,4.945
990,-1,-1,0,0,0,0,0,2,4.95
991,1,-2,-1,-3,-1,-3,-1,-1,4.955
992,0,0,-1,-1,-1,-2,1,-1,4.96
993,-1,-1,-2,0,-2,1,-2,-1,4.965
994,-2,-1,0,-2,-1,0,0,0,4.97
995,-1,0,1,0,-1,-1,-2,-1,4.9750000000000005
996,2,-1,-1,-2,-1,1,3,-3,4.98
997,-1,-1,-1,-1,-1,0,1,-1,4.985
998,-1,-1,-3,-2,-4,-5,-3,0,4.99
999,-2,-2,-1,0,0,2,-2,1,4.995
1000,-1,1,-2,0,1,0,-2,-3,5.0
1001,-4,-1,1,1,0,-3,0,-2,5.005
1002,-2,-1,-2,0,0,1,1,-2,5.01
1003,-3,-3,-1,-2,-1,0,-1,1,5.015
1004,0,-1,-2,-1,-1,0,0,1,5.0200000000000005
1005,1,-1,-1,-3,-1,0,-2,-2,5.025
1006,0,0,-1,-1,-1,3,2,0,5.03
1007,-3,0,0,-2,0,-2,-4,0,5.035
1008,-2,-1,-1,-2,-3,-2,2,-1,5.04
1009,4,0,0,-1,-1,-1,1,-1,5.045
1010,2,3,2,0,-1,-1,-2,0,5.05
1011,-1,-2,0,0,2,2,2,-2,5.055
1012,-3,0,-1,-1,-1,-2,-2,-1,5.0600000000000005
1013,-1,1,0,1,-1,2,2,1,5.065
1014,0,0,-1,-1,-2,-5,-6,-1,5.07
1015,1,2,-3,0,-3,0,0,-3,5.075
1016,-3,-5,-1,-1,-1,-4,-1,-1,5.08
1017,-2,-2,-1,-1,0,-1,-1,1,5.085
1018,-2,0,-1,-1,0,0,1,-1,5.09
1019,0,2,0,1,0,2,-1,0,5.095
1020,-1,-2,-3,-2,-1,-2,1,-2,5.1000000000000005
1021,-1,-1,0,-1,1,2,0,-2,5.105
1022,-4,-3,1,1,0,-3,-1,-2,5.11
1023,-1,-1,0,0,-2,-3,-1,-5,5.115
1024,-2,-1,-2,-1,-1,-3,-3,1,5.12
1025,-3,-1,0,0,-2,5,4,5,5.125
1026,0,-1,-2,-1,-1,-1,0,1,5.13
1027,-1,-2,-1,-2,-2,1,3,2,5.135
1028,1,1,0,1,0,0,-1,-3,5.14
1029,2,0,-3,-1,0,-5,-1,-3,5.1450000000000005
1030,-1,0,0,-2,-1,0,1,1,5.15
1031,-3,-2,0,2,0,0,-1,-2,5.155
1032,-1,-2,-2,-1,0,-2,-2,0,5.16
1033,-1,-1,1,-1,-2,-3,-4,-2,5.165
1034,-2,0,-3,-2,-3,1,2,-3,5.17
1035,2,2,-2,-2,-1,-4,-3,0,5.175
1036,1,-2,0,0,0,2,1,-2,5.18
1037,-3,-2,-2,0,0,-1,-3,-1,5.1850000000000005
1038,-2,0,0,-1,-1,0,-2,-2,5.19
1039,-3,-1,-1,-1,-1,-1,0,-1,5.195
1040,0,-1,-3,-3,-2,0,2,4,5.2
1041,-2,0,-1,0,-4,1,1,-5,5.205
1042,-2,-3,-1,-1,-2,-1,-2,-1,5.21
1043,-2,0,-1,0,0,2,0,0,5.215
1044,-2,1,0,0,0,2,0,-1,5.22
1045,-1,-2,-2,-1,2,-2,-2,-4,5.2250000000000005
1046,-2,-1,0,-2,-1,-4,-3,4,5.23
1047,1,0,-1,0,-3,-3,1,0,5.235
1048,-2,-2,0,-1,-1,-3,-2,-1,5.24
1049,4,2,-2,-1,0,-3,-3,1,5.245
1050,3,0,-1,-1,1,4,2,-5,5.25
1051,-1,-2,-1,0,1,-1,0,1,5.255
1052,0,0,0,0,-1,1,0,-1,5.26
1053,-2,1,-2,-1,-3,-3,-1,-2,5.265
1054,0,-2,0,-1,-1,0,-1,0,5.2700000000000005
1055,1,0,0,-1,1,-3,-1,0,5.275
1056,1,1,-1,-1,0,-2,-2,-1,5.28
1057,-1,-2,1,-1,0,0,-1,2,5.285
1058,-1,-2,-1,0,-1,-2,0,0,5.29
1059,-1,-2,-1,0,-2,1,0,-1,5.295
1060,-1,1,1,1,-1,0,-3,0,5.3
1061,-1,-1,0,0,1,-2,-2,0,5.305
1062,0,-1,-3,-2,-1,1,0,0,5.3100000000000005
1063,0,0,0,0,0,-1,-2,-4,5.315
1064,-2,-2,-4,-2,-1,-1,0,-2,5.32
1065,2,0,-2,0,1,-1,-1,1,5.325
1066,-2,1,1,1,-2,0,0,-1,5.33
1067,-3,-3,0,-2,-1,-1,-1,2,5.335
1068,-1,1,1,-1,0,-1,0,-3,5.34
1069,0,1,-1,-2,-1,-1,1,-1,5.345
1070,0,-1,-3,0,-2,1,1,0,5.3500000000000005
1071,-1,-2,-1,-1,-1,-4,-1,1,5.355
1072,1,0,-2,-1,-4,-1,-2,-1,5.36
1073,-2,-1,-1,-2,-2,1,0,-1,5.365
1074,0,-1,-1,0,1,-2,-3,0,5.37
1075,0,0,-4,1,-1,0,1,-1,5.375
1076,0,-1,0,0,1,2,-3,-4,5.38
1077,-2,-1,-1,-1,-2,-3,0,6,5.385
1078,-1,1,-2,-1,-1,-1,-1,-1,5.39
1079,1,-2,0,-1,0,-1,-3,1,5.3950000000000005
1080,-2,-3,-1,-3,1,2,2,0,5.4
1081,-2,-2,0,-2,0,-1,-2,-8,5.405
1082,-4,-1,-1,-1,1,0,0,0,5.41
1083,1,-3,0,-2,-2,-3,0,1,5.415
1084,0,1,-1,-2,-1,2,0,-2,5.42
1085,-2,0,-1,-3,-2,-1,0,1,5.425
1086,1,-1,-2,-2,-1,-4,-1,0,5.43
1087,1,0,-1,-1,0,3,0,0,5.4350000000000005
1088,0,-1,-1,1,-1,-3,-1,-2,5.44
1089,-2,-1,0,1,-1,-1,0,-2,5.445
1090,3,-2,-2,-1,-2,-1,0,-1,5.45
1091,-2,0,-2,-1,-2,-2,-3,-1,5.455
1092,0,0,1,1,0,-3,-2,-1,5.46
1093,0,-2,-1,0,0,0,3,-1,5.465
1094,-2,-2,-2,-2,0,-2,1,0,5.47
1095,0,-1,-1,0,-3,-1,-1,-3,5.4750000000000005
1096,0,-3,-1,-1,-1,-2,-2,0,5.48
1097,0,0,3,1,1,2,1,2,5.485
1098,-1,-3,1,-1,-1,2,-1,0,5.49
1099,-2,-2,-2,-2,-1,0,3,-1,5.495
1100,-1,-3,-2,-2,-1,-3,-6,1,5.5
1101,2,-2,1,1,0,-2,-2,1,5.505
1102,-2,0,-1,-2,0,1,2,-2,5.51
1103,-2,1,-2,-1,0,1,3,0,5.515
1104,0,0,0,0,-1,-1,2,-3,5.5200000000000005
1105,-2,-3,-5,-3,-3,-4,-5,-1,5.525
1106,1,0,0,1,-2,4,5,5,5.53
1107,1,1,-1,-2,-3,-2,-1,-1,5.535
1108,0,1,-1,0,1,-1,1,2,5.54
1109,0,1,-1,0,0,-3,-4,-3,5.545
1110,-4,-2,-1,-1,-1,-5,-4,-6,5.55
1111,2,1,-1,-2,1,-3,-2,0,5.555
1112,-1,-2,-1,-1,0,-1,1,-1,5.5600000000000005
1113,1,1,2,2,-1,1,1,-1,5.565
1114,-3,-2,-1,-3,-4,1,-2,-2,5.57
1115,-1,-1,1,-1,-3,0,-1,1,5.575
1116,-1,-2,-3,-1,-1,-2,-1,-1,5.58
1117,-1,-2,-2,-1,-1,1,-1,0,5.585
1118,-1,-1,0,2,0,-1,0,-2,5.59
1119,1,-2,-3,-1,-2,-2,-2,-1,5.595
1120,0,-1,-1,-1,-1,-1,-1,-1,5.6000000000000005
1121,-1,-2,-3,0,-1,1,-1,-1,5.605
1122,-1,-1,1,0,1,-2,-2,0,5.61
1123,-2,-2,-1,-2,1,-2,0,-1,5.615
1124,-1,-1,-1,-1,-1,-1,-1,-2,5.62
1125,-2,1,-1,-3,-4,0,-1,-1,5.625
1126,1,2,-1,1,-1,-1,-1,-2,5.63
1127,-2,-2,-1,-1,0,0,-2,-2,5.635
1128,-1,2,-1,0,-3,-1,1,2,5.64
1129,0,-2,-1,-2,0,-2,0,-1,5.6450000000000005
1130,0,0,-1,0,0,-2,-3,-2,5.65
1131,-1,0,0,0,-2,-2,-2,-1,5.655
1132,-1,-1,-2,-2,0,0,0,0,5.66
1133,1,0,1,-1,1,-1,0,0,5.665
1134,-1,-2,-1,0,0,-1,-2,-2,5.67
1135,0,0,0,-1,0,0,-1,-1,5.675
1136,-2,-1,-1,0,0,0,0,0,5.68
1137,-1,-2,-2,-1,-1,-2,-1,-1,5.6850000000000005
1138,0,-1,1,-1,-1,0,1,-1,5.69
1139,-1,-3,-2,0,-1,1,-1,-2,5.695
1140,-1,-2,-1,-3,-2,-1,0,-2,5.7
1141,-2,-1,-2,-1,-3,-1,-2,-1,5.705
1142,-1,0,-1,1,-1,-1,0,-2,5.71
1143,-2,-1,-1,-2,-2,-1,-2,-1,5.715
1144,1,0,0,1,2,1,1,-1,5.72
1145,-2,-1,-4,0,-1,1,2,1,5.7250000000000005
1146,2,1,0,-1,0,-3,2,1,5.73
1147,-1,1,1,-1,0,0,-4,-4,5.735
1148,-2,-1,0,0,0,-4,-5,-1,5.74
1149,-3,-1,1,-2,2,-1,-3,-2,5.745
1150,0,-4,-1,-1,-1,2,3,0,5.75
1151,-1,-3,-2,0,-2,1,4,1,5.755
1152,-1,-2,1,1,-1,-5,-5,-4,5.76
1153,-2,-2,-1,1,1,0,0,-4,5.765
1154,2,-1,0,0,-2,-5,-2,6,5.7700000000000005
1155,-1,-1,0,1,0,3,1,0,5.775
1156,-1,-2,-1,-2,-2,2,1,0,5.78
1157,2,1,0,-1,-2,-4,-1,-4,5.785
1158,-1,2,0,-2,1,0,-3,-4,5.79
1159,-2,-1,-4,-1,-1,-3,1,0,5.795
1160,-1,-1,0,0,-1,-1,1,0,5.8
1161,0,-1,0,-1,1,-1,-1,-1,5.805
1162,0,0,-1,-1,0,1,0,-2,5.8100000000000005
1163,-1,-2,-1,-2,0,-4,-2,0,5.815
1164,-3,-3,-2,-1,-3,1,1,-2,5.82
1165,0,-2,-1,0,-2,-2,-5,2,5.825
1166,-2,-1,-1,0,0,-1,-1,-2,5.83
1167,-3,-1,0,0,1,0,0,-3,5.835
1168,2,1,0,0,-3,0,0,-1,5.84
1169,-2,-3,0,-2,-2,-1,0,1,5.845
1170,-6,0,0,-2,-5,-1,-1,-2,5.8500000000000005
1171,0,0,-4,0,-1,2,-2,0,5.855
1172,-1,-1,-1,-2,1,0,0,1,5.86
1173,-1,0,0,-1,-1,1,-2,0,5.865
1174,-1,0,0,-2,0,-3,-1,-2,5.87
1175,-1,0,0,-2,0,-1,0,-3,5.875
1176,-2,1,1,-1,1,-1,-2,0,5.88
1177,-1,-1,-1,0,-1,2,2,2,5.885
1178,0,-2,-3,-3,-1,1,-1,-4,5.89
1179,-1,-2,-2,-1,-1,-5,-1,0,5.8950000000000005
1180,0,1,1,2,0,4,4,0,5.9
1181,0,0,0,-1,-1,-3,-3,-2,5.905
1182,0,-1,-3,-1,-1,-1,-4,0,5.91
1183,1,0,2,0,-2,2,0,0,5.915
1184,-1,-4,0,0,-3,-2,-1,-2,5.92
1185,-1,0,-3,-2,-2,-1,0,-1,5.925
1186,-3,-6,2,0,1,-3,-2,-2,5.93
1187,1,-3,0,-3,-1,-2,-2,0,5.9350000000000005
1188,1,0,-1,-1,0,0,-2,-1,5.94
1189,0,0,0,0,0,0,1,-1,5.945
1190,0,0,-4,-2,-1,1,0,0,5.95
1191,-1,3,-2,0,-1,-1,-1,0,5.955
1192,1,0,-3,-1,-1,0,-1,1,5.96
1193,0,0,-1,0,-1,-1,-1,-1,5.965
1194,-3,-1,0,-1,0,0,2,-1,5.97
1195,1,-2,2,3,-1,-1,0,-1,5.9750000000000005
1196,-2,0,-1,-2,0,-1,-3,-1,5.98
1197,0,0,-2,-1,-1,-1,-1,0,5.985
1198,-1,0,-3,1,-1,-2,-2,0,5.99
1199,-1,-1,-3,-3,-4,-2,3,0,5.995
1200,1,-6,-2,-2,-1,-2,-3,-1,6.0
1201,0,-3,1,0,1,2,0,-3,6.005
1202,2,-1,0,-1,0,-1,-3,1,6.01
1203,-1,0,0,0,-1,0,-1,-3,6.015000000000001
1204,0,0,-1,-1,-1,0,0,3,6.0200000000000005
1205,1,1,-1,-1,0,1,3,1,6.025
1206,-1,-1,0,-1,-1,0,1,1,6.03
1207,-1,0,-1,0,2,-1,-3,-1,6.035
1208,-1,1,-2,-1,0,-1,-1,0,6.04
1209,-2,-1,-1,-2,-2,0,-1,1,6.045
1210,0,-2,1,1,-1,-1,-1,-2,6.05
1211,-2,0,-1,-1,0,-1,-1,0,6.055
1212,-1,-2,-2,-1,-2,0,2,-3,6.0600000000000005
1213,-1,0,0,0,-2,-3,-2,1,6.065
1214,2,0,0,-1,1,1,0,-1,6.07
1215,1,-2,1,-2,0,0,-1,0,6.075
1216,-5,0,-1,-1,-2,-2,-1,0,6.08
1217,-5,-2,-2,-2,0,-2,-1,-2,6.085
1218,0,-2,-2,-1,-4,0,-1,-2,6.09
1219,-1,-1,0,-2,-1,1,-1,-2,6.095
1220,1,-1,-3,-2,-3,-2,-1,-1,6.1000000000000005
1221,-1,-2,1,1,0,-1,3,-1,6.105
1222,-2,-1,-3,0,1,-2,-2,-1,6.11
1223,-1,-2,-1,0,-1,-3,-2,-2,6.115
1224,0,-1,-1,0,-2,0,0,-2,6.12
1225,0,-2,0,0,-1,0,-2,-2,6.125
1226,-1,0,0,1,-1,-1,-1,-1,6.13
1227,-1,1,-2,-1,-3,-1,0,1,6.135
1228,1,1,1,0,0,-3,-3,-2,6.140000000000001
1229,-3,-1,-1,-2,0,0,0,0,6.1450000000000005
1230,1,-1,-3,-1,-1,0,2,-1,6.15
1231,-2,-2,-3,-1,0,0,0,0,6.155
1232,-1,-2,-1,-2,0,1,-1,0,6.16
1233,2,1,-1,-1,-1,-2,-3,0,6.165
1234,0,1,1,0,0,-1,2,2,6.17
1235,-2,-3,-2,-1,-1,-2,-1,1,6.175
1236,-2,-2,-1,0,-1,-2,-2,-6,6.18
1237,0,-1,-2,0,-1,-1,-1,2,6.1850000000000005
1238,-2,-2,-2,-2,-3,-3,-3,0,6.19
1239,0,-2,0,-1,-1,1,3,1,6.195
1240,2,2,0,-2,1,2,2,-3,6.2
1241,-2,0,-1,-1,1,-3,-7,3,6.205
1242,1,1,-1,0,-1,-1,-1,2,6.21
1243,-2,0,-3,-1,-4,-3,0,0,6.215
1244,-2,-1,0,0,0,0,1,0,6.22
1245,-3,-3,-2,0,-1,-2,0,-4,6.2250000000000005
1246,-2,-1,-3,-2,0,0,-2,-1,6.23
1247,0,0,1,1,3,2,0,-2,6.235
1248,0,1,1,-1,-1,-3,-1,1,6.24
1249,0,1,0,1,-4,-2,1,0,6.245
1250,-3,0,0,-1,0,-1,0,0,6.25
1251,0,0,1,-1,-3,1,-2,-4,6.255
1252,-1,-2,-2,1,-2,0,0,2,6.26
1253,1,0,-3,-4,-1,-2,0,0,6.265000000000001
1254,2,1,-1,-1,-1,-1,-1,-2,6.2700000000000005
1255,-2,-2,-2,-2,-2,-1,-3,-2,6.275
1256,0,0,-2,1,-1,-1,2,1,6.28
1257,-1,0,-1,-2,-2,0,-2,-1,6.285
1258,-1,-1,-2,0,2,-1,0,-3,6.29
1259,-1,0,-1,-1,-3,-1,-2,-1,6.295
1260,-2,-1,-2,-1,-2,-2,-3,1,6.3
1261,-4,-1,-2,-1,-1,1,2,-3,6.305
1262,-1,0,1,-1,0,-1,-2,0,6.3100000000000005
1263,1,0,2,0,2,-3,1,2,6.315
1264,-5,-3,-1,-1,-2,1,-3,-2,6.32
1265,4,-2,2,-2,-1,0,1,-1,6.325
1266,-3,-1,-3,-1,-1,-2,-1,0,6.33
1267,1,0,-1,-1,0,0,-1,-8,6.335
1268,0,1,0,-2,-2,1,2,3,6.34
1269,-1,-1,-1,-1,2,2,-2,1,6.345
1270,0,-1,-2,-1,-3,-4,-1,0,6.3500000000000005
1271,0,1,0,2,1,1,-1,4,6.355
1272,0,-1,-1,0,-2,-4,-2,-5,6.36
1273,-3,-2,1,0,-3,-2,1,-3,6.365
1274,0,0,0,-1,-1,-1,-3,-1,6.37
1275,-1,-1,-3,-2,-1,0,-3,-3,6.375
1276,-1,-2,0,0,-1,0,-1,0,6.38
1277,0,0,-3,0,0,0,1,-1,6.385
1278,2,-1,-1,-1,-3,0,1,-2,6.390000000000001
1279,0,0,-1,-2,0,-1,0,0,6.3950000000000005
1280,-1,-3,-1,-1,-2,0,-2,1,6.4
1281,0,-1,2,-1,-3,-2,0,1,6.405
1282,-3,-4,-2,1,-1,0,0,0,6.41
1283,-1,-2,-1,0,1,-3,0,-1,6.415
1284,1,-2,0,-1,2,3,2,-2,6.42
1285,-2,-2,-4,-1,1,1,1,-4,6.425
1286,-1,-3,-1,0,-1,-3,-4,-1,6.43
1287,-3,-2,-1,-1,-2,0,0,1,6.4350000000000005
1288,5,0,0,-2,-3,-3,-3,1,6.44
1289,0,0,0,-2,0,-1,0,-2,6.445
1290,-1,0,-1,-3,0,2,1,-2,6.45
1291,-2,-1,0,0,1,1,-1,0,6.455
1292,-1,1,-1,1,2,-2,0,-1,6.46
1293,-2,-3,-1,-2,0,-2,-2,-5,6.465
1294,0,-1,1,0,-2,0,1,4,6.47
1295,-1,-3,0,1,-2,-1,-1,1,6.4750000000000005
1296,-3,0,-2,-1,0,-1,-3,1,6.48
1297,0,-2,0,1,0,-2,-1,-1,6.485
1298,-2,-1,-1,-2,-1,-3,1,-2,6.49
1299,1,1,-1,-1,-2,0,0,-1,6.495
1300,-2,0,1,1,-1,-2,-1,-1,6.5
1301,-1,0,1,2,-1,-2,-2,0,6.505
1302,0,1,1,1,-1,-1,-2,-2,6.51
1303,-1,-3,-1,-1,-2,-1,-1,1,6.515000000000001
1304,-1,-2,-2,-1,-3,-1,0,-1,6.5200000000000005
1305,-1,0,-2,0,0,1,0,0,6.525
1306,3,0,-1,1,1,0,-2,2,6.53
1307,0,-2,-3,-1,-1,-1,2,-1,6.535
1308,-2,0,-1,-2,-1,0,3,-2,6.54
1309,-1,-2,-2,0,-2,-2,-9,0,6.545
1310,-1,-1,0,0,-1,0,-1,-2,6.55
1311,-1,1,1,-2,0,-2,-3,-2,6.555
1312,-2,-1,-1,-2,-1,0,0,-2,6.5600000000000005
1313,-2,0,-1,-2,-1,-1,1,2,6.565
1314,-2,-2,0,-1,-1,1,1,0,6.57
1315,-2,0,-4,0,0,-3,-2,-4,6.575
1316,0,-1,-1,-1,0,-2,-1,0,6.58
1317,-1,0,-1,-1,-1,2,3,0,6.585
1318,-2,-1,-1,-2,-1,-4,0,-1,6.59
1319,1,0,2,0,-1,0,-2,-1,6.595
1320,2,-1,-1,-2,-2,1,-1,-1,6.6000000000000005
1321,-1,0,-1,1,0,-2,1,0,6.605
1322,0,0,-3,-2,0,-1,-2,-1,6.61
1323,0,0,0,-1,1,0,3,1,6.615
1324,-2,-3,-1,-2,-1,-4,-6,-4,6.62
1325,-1,-1,-2,-2,-3,-2,1,1,6.625
1326,-2,0,-1,-3,-2,2,1,-1,6.63
1327,-1,-1,-2,-1,-1,0,-2,1,6.635
1328,-1,1,-2,-1,-2,-2,-2,0,6.640000000000001
1329,-2,1,-1,-3,-1,0,-1,0,6.6450000000000005
1330,-1,-1,0,0,-2,-1,-3,-1,6.65
1331,0,2,-2,0,-1,-1,1,-1,6.655
1332,-1,1,-1,0,-1,-2,0,0,6.66
1333,2,1,0,-1,0,0,-2,-2,6.665
1334,-3,-3,-2,-1,0,-4,0,3,6.67
1335,0,-2,1,0,-2,-2,0,-1,6.675
1336,0,-4,-3,-2,-3,-2,-3,-4,6.68
1337,-1,-2,1,0,0,-1,-1,-4,6.6850000000000005
1338,2,0,-2,-2,-2,-1,0,-1,6.69
1339,-2,-2,-1,0,-1,-1,1,2,6.695
1340,0,1,2,0,3,-1,2,1,6.7
1341,0,0,-1,1,1,0,-1,-2,6.705
1342,-1,-2,1,-1,-1,1,-2,-1,6.71
1343,-1,-2,0,-2,-3,-2,-4,-2,6.715
1344,-2,-2,-2,0,-2,-1,8,1,6.72
1345,0,-2,-1,-2,-3,-3,-5,-1,6.7250000000000005
1346,0,0,0,3,0,0,2,-2,6.73
1347,0,0,-2,-2,-1,1,-1,1,6.735
1348,1,0,0,0,1,1,1,0,6.74
1349,-1,1,-1,0,1,-1,0,1,6.745
1350,-2,0,-2,-1,-1,-3,-1,-2,6.75
1351,-3,-1,-3,-5,-1,-2,-2,-3,6.755
1352,-1,-4,0,-1,1,0,-3,0,6.76
1353,-2,-1,-2,-1,-4,-1,0,0,6.765000000000001
1354,0,0,0,-2,-3,1,-1,-1,6.7700000000000005
1355,2,2,0,0,-3,-3,-2,-1,6.775
1356,-1,1,0,1,-1,-1,-1,-2,6.78
1357,-2,0,-3,-1,2,1,-2,0,6.785
1358,1,-1,0,0,0,-1,-1,-1,6.79
1359,-1,-2,-2,-1,0,-1,0,-2,6.795
1360,-2,-1,-1,-1,0,-2,-6,0,6.8
1361,0,-2,-1,-2,-2,0,5,0,6.805
1362,0,-1,1,-1,1,0,2,-1,6.8100000000000005
1363,-3,-5,-3,-1,0,1,-1,-2,6.815
1364,1,-1,-1,-1,0,-2,-4,-3,6.82
1365,-1,-3,0,0,-2,-1,-2,0,6.825
1366,-1,-1,-2,-2,-1,-1,-1,1,6.83
1367,0,-1,2,2,-2,-1,-1,-1,6.835
1368,-2,3,-2,0,0,0,1,0,6.84
1369,-1,0,-1,-1,1,0,1,0,6.845
1370,0,1,-1,-1,-1,0,0,0,6.8500000000000005
1371,0,1,-1,0,-1,-1,-2,0,6.855
1372,-1,-1,2,-1,-1,-1,-1,0,6.86
1373,1,-3,-3,1,0,-2,-3,-1,6.865
1374,-2,-2,2,1,0,0,-1,0,6.87
1375,0,-2,-2,-3,1,-2,-1,-1,6.875
1376,0,-5,-1,-1,-1,2,-1,-2,6.88
1377,0,1,1,0,-2,0,0,-2,6.885
1378,-1,-2,0,0,-3,0,1,-1,6.890000000000001
1379,-3,-2,-1,-2,-2,-1,1,-1,6.8950000000000005
1380,-3,0,-3,0,-1,-2,-1,2,6.9
1381,-1,-4,-2,0,-1,-2,-3,1,6.905
1382,-1,0,-1,-1,0,-1,-1,-1,6.91
1383,0,0,-1,0,1,-1,0,-2,6.915
1384,-2,-2,-3,-3,-2,-2,3,-1,6.92
1385,1,0,1,-1,0,-2,-3,-2,6.925
1386,-1,0,-1,-2,0,2,2,-2,6.93
1387,-1,-2,-1,0,-1,-1,-1,0,6.9350000000000005
1388,-1,-2,0,-2,-1,0,-4,-1,6.94
1389,0,-2,-1,-1,-1,-1,-1,1,6.945
1390,-1,-2,-2,0,-3,-2,-1,-1,6.95
1391,1,0,1,-1,0,-2,-4,-1,6.955
1392,1,1,0,0,1,1,-3,-1,6.96
1393,-4,-1,-3,-2,-1,1,3,-1,6.965
1394,-1,0,-2,-3,-2,-2,-1,0,6.97
1395,-1,-1,-1,-1,0,-1,-2,-1,6.9750000000000005
1396,0,0,0,-1,-1,1,3,0,6.98
1397,-1,-1,-2,-1,1,-2,-1,1,6.985
1398,-1,-1,0,1,1,-4,-3,-3,6.99
1399,0,-2,0,-1,0,2,0,0,6.995
1400,0,-1,0,-1,-1,0,-1,-1,7.0
1401,0,-3,-2,-3,-3,-1,-1,-1,7.005
1402,1,0,-1,-1,0,-1,0,1,7.01
1403,-3,-4,-1,-1,-2,5,1,0,7.015000000000001
1404,1,-1,0,1,1,-2,-1,-2,7.0200000000000005
1405,1,-1,-2,1,0,0,0,-1,7.025
1406,0,0,2,-1,1,-2,-1,-3,7.03
1407,-1,1,0,1,-1,-1,1,-1,7.035
1408,-1,1,-3,-2,-2,-1,-4,-1,7.04
1409,-1,-1,-1,0,-2,-1,0,0,7.045
1410,-2,0,-1,-1,3,0,0,0,7.05
1411,0,3,-2,-2,-1,0,2,-2,7.055
1412,-2,-1,0,0,-1,-4,-4,-1,7.0600000000000005
1413,-3,0,2,-1,0,-4,-6,0,7.065
1414,-2,-3,-3,-2,-3,-1,-2,-1,7.07
1415,-1,-3,-1,-1,-2,-1,0,-1,7.075
1416,1,-1,-1,0,-1,-2,0,-1,7.08
1417,1,1,0,-2,0,0,0,-1,7.085
1418,-3,-3,-4,-1,-3,1,-2,-1,7.09
1419,-1,1,0,0,-2,-2,-2,-2,7.095
1420,-2,0,-2,-2,-1,0,-1,-2,7.1000000000000005
1421,-2,0,-3,-1,-3,1,1,0,7.105
1422,0,-1,0,2,-1,-1,-1,-1,7.11
1423,0,-1,-3,-1,1,-1,-3,0,7.115
1424,-1,-2,-2,-2,1,2,2,-1,7.12
1425,-2,0,0,-3,1,-2,-1,-2,7.125
1426,-1,0,-1,-1,-3,-1,1,1,7.13
1427,0,-2,-1,-2,-2,-2,-3,-3,7.135
1428,-2,-2,-3,-1,-2,-2,-1,0,7.140000000000001
1429,0,-1,-1,1,-1,0,2,5,7.1450000000000005
1430,-1,-1,0,-2,-1,-2,2,-2,7.15
1431,-1,-1,-2,0,-1,-1,-11,-4,7.155
1432,2,0,-1,-1,1,-1,4,-3,7.16
1433,1,0,-2,-2,-3,1,2,0,7.165
1434,0,0,-1,-2,-1,-3,-8,-3,7.17
1435,-1,-3,-3,-3,-2,0,3,0,7.175
1436,-1,-1,-1,-2,-4,0,-1,-1,7.18
1437,0,-2,-2,-2,-1,-2,-1,-2,7.1850000000000005
1438,1,-4,-8,-3,0,2,2,3,7.19
1439,0,3,-1,-1,0,-4,5,4,7.195
1440,-1,6,23,7,0,1,-2,-1,7.2
1441,-2,-2,0,-2,-2,-3,-8,-9,7.205
1442,5,0,3,3,1,-3,-4,1,7.21
1443,-4,-4,-8,-2,0,3,11,9,7.215
1444,-8,-17,-34,-13,-2,0,-7,-14,7.22
1445,-3,-14,-48,-11,-1,2,15,16,7.2250000000000005
1446,-4,24,58,7,-5,-1,-1,-13,7.23
1447,5,11,45,16,0,-12,-32,-15,7.235
1448,-4,-3,-12,1,1,3,11,4,7.24
1449,4,-8,-37,-12,0,1,-12,2,7.245
1450,-11,-11,-10,-6,-2,-5,17,-8,7.25
1451,3,4,1,6,2,-5,-29,-7,7.255
1452,-5,-35,-66,-18,-1,1,24,1,7.26
1453,3,31,69,20,-2,-5,22,1,7.265000000000001
1454,2,29,36,10,-2,1,-30,-3,7.2700000000000005
1455,3,10,25,8,-2,13,61,15,7.275
1456,2,-18,-41,-14,-3,-10,-52,24,7.28
1457,0,-18,-35,-14,2,3,35,9,7.285
1458,0,-49,-112,-24,0,-2,-10,17,7.29
1459,-13,47,104,25,-3,12,3,-50,7.295
1460,-4,45,95,49,5,-10,-14,-3,7.3
1461,13,-20,-63,-23,0,4,-40,-7,7.305
1462,-3,-27,-11,-10,-3,-12,9,31,7.3100000000000005
1463,-2,15,1,10,-4,-6,-27,-15,7.315
1464,8,17,51,2,-4,-1,47,-6,7.32
1465,-3,17,79,30,1,-3,-33,-12,7.325
1466,0,-94,-121,-44,6,6,13,3,7.33
1467,-5,-60,-37,-27,-6,-4,13,16,7.335
1468,9,2,73,36,1,-4,-7,-8,7.34
1469,-11,-47,7,3,-2,-4,-7,0,7.345
1470,1,1,76,17,-1,7,16,-1,7.3500000000000005
1471,-1,-128,-128,-58,5,-4,3,3,7.355
1472,7,27,90,30,-5,-6,-35,-17,7.36
1473,1,-43,-76,-16,0,5,4,1,7.365
1474,1,7,12,15,0,-2,-17,0,7.37
1475,-2,30,-35,-22,-3,3,26,14,7.375
1476,-1,22,-18,13,4,3,-4,-8,7.38
1477,-7,6,-80,-32,-1,-3,-7,-7,7.385
1478,7,112,127,45,-6,8,32,43,7.390000000000001
1479,1,26,-46,-11,-2,-10,-8,-2,7.3950000000000005
1480,-9,15,-90,-39,-12,5,-6,-6,7.4
1481,1,97,127,47,8,3,7,3,7.405
1482,-4,15,-23,-4,1,-2,-12,-64,7.41
1483,6,26,11,6,5,3,5,42,7.415
1484,-6,-25,-66,-30,-1,2,8,-4,7.42
1485,-4,-1,-6,-2,-5,-12,-11,-14,7.425
1486,-6,-16,-36,-15,-2,4,16,10,7.43
1487,-7,-10,4,2,-2,-4,-4,-20,7.4350000000000005
1488,4,-8,-23,-5,1,-2,-24,-11,7.44
1489,-5,-21,-12,-2,-6,-3,2,-8,7.445
1490,0,-13,42,22,4,-2,-11,1,7.45
1491,1,-42,-12,0,-2,-4,-1,1,7.455
1492,-3,-23,37,7,2,8,18,21,7.46
1493,-1,-32,-25,-16,-3,-3,8,6,7.465
1494,-4,-17,-15,-5,-2,2,11,-17,7.47
1495,5,-18,-46,-16,0,-10,-34,20,7.4750000000000005
1496,4,2,7,6,3,7,35,9,7.48
1497,0,24,41,3,1,10,-26,-3,7.485
1498,-3,25,-13,8,3,-2,40,-16,7.49
1499,6,50,17,12,-5,-6,-4,-10,7.495
1500,-4,8,-19,-15,-1,-9,-43,4,7.5
1501,1,3,-18,1,3,7,32,15,7.505
1502,-3,32,19,3,-2,-8,-31,-2,7.51
1503,-11,-6,-38,-13,0,10,-2,0,7.515000000000001
1504,5,38,29,18,4,-4,-1,10,7.5200000000000005
1505,1,46,66,17,-2,-5,1,-11,7.525
1506,-3,-18,-58,-29,-3,3,-8,-5,7.53
1507,6,-5,-13,-2,1,1,3,8,7.535
1508,-6,2,38,-4,-3,-1,16,-2,7.54
1509,4,12,8,16,2,-3,-8,-8,7.545
1510,8,18,29,12,-1,-5,-8,3,7.55
1511,-3,-10,-2,4,3,4,-13,-11,7.555
1512,-3,2,31,-2,0,10,46,4,7.5600000000000005
1513,0,-12,-27,-3,-2,0,12,10,7.565
1514,7,6,-9,-8,-2,-7,-22,16,7.57
1515,-10,23,34,21,-2,-1,-24,-28,7.575
1516,3,-14,-19,-13,3,-5,-13,-21,7.58
1517,-4,9,17,5,-5,-5,-7,4,7.585
1518,-6,-15,-27,-7,2,11,28,5,7.59
1519,-3,-9,-36,-13,2,-1,9,0,7.595
1520,4,15,11,1,-5,1,9,27,7.6000000000000005
1521,-9,-5,4,-1,-1,-1,1,-11,7.605
1522,-1,-29,-64,-21,-6,-4,-29,-13,7.61
1523,-6,50,127,38,1,-1,-7,-9,7.615
1524,0,-11,-48,-11,-3,5,3,-15,7.62
1525,6,-9,-20,-14,1,-8,-11,-2,7.625
1526,-8,-3,17,8,0,-5,-8,3,7.63
1527,7,-9,-23,-6,4,9,22,23,7.635
1528,-8,-15,-14,1,-5,-5,10,12,7.640000000000001
1529,1,-1,30,4,-6,0,-2,-15,7.6450000000000005
1530,3,-30,-60,-26,-7,-2,-5,-15,7.65
1531,1,23,61,22,-1,-9,4,-5,7.655
1532,-1,-31,-17,-9,0,2,-4,11,7.66
1533,-5,4,3,2,-1,-5,-17,2,7.665
1534,0,11,15,7,-2,4,20,2,7.67
1535,7,-7,-21,-11,0,-4,-22,-6,7.675
1536,-3,1,12,7,1,-2,17,-7,7.68
1537,-3,-8,-24,-4,2,0,5,-3,7.6850000000000005
1538,-2,-2,4,3,2,3,2,-12,7.69
1539,-6,1,13,-3,-4,0,1,-11,7.695
1540,-3,-24,-52,-13,-3,2,-28,-4,7.7
1541,7,-4,12,5,-2,-9,-5,-10,7.705
1542,-2,29,27,19,1,0,11,23,7.71
1543,-4,-20,-46,-19,-4,9,24,5,7.715
1544,1,15,62,12,1,-5,-5,-11,7.72
1545,-5,-24,-22,0,-2,-2,-5,2,7.7250000000000005
1546,-2,15,35,9,-2,-5,-21,3,7.73
1547,-1,-25,-37,-12,1,-2,14,-7,7.735
1548,1,0,-23,-5,-3,-5,-14,14,7.74
1549,5,8,21,1,0,8,23,-3,7.745
1550,7,-1,11,1,4,-5,-6,-6,7.75
1551,7,11,19,8,0,0,-19,2,7.755
1552,-2,-13,-40,-15,-1,4,19,-4,7.76
1553,4,0,-14,-12,-2,0,-12,6,7.765000000000001
1554,-1,-8,0,-1,-2,1,8,1,7.7700000000000005
1555,-3,0,14,4,-1,-1,11,-4,7.775
1556,8,-8,-26,3,1,1,-13,-4,7.78
1557,-7,-5,-15,-5,-1,3,1,1,7.785
1558,7,6,14,-1,-2,-6,-34,-4,7.79
1559,-3,-5,27,8,-1,-1,8,7,7.795
1560,-1,-4,-42,-4,-3,0,5,-1,7.8
1561,0,-12,5,2,0,1,16,6,7.805000000000001
1562,-1,-11,-19,-13,-1,2,-5,0,7.8100000000000005
1563,2,-2,13,1,2,-2,-12,8,7.815
1564,-4,10,10,2,-2,-7,-5,-11,7.82
1565,-4,-4,-25,-9,-2,-2,1,-12,7.825
1566,2,5,-2,3,2,-2,-12,3,7.83
1567,2,-7,-7,-4,-2,3,15,19,7.835
1568,-1,5,8,3,2,0,-2,-4,7.84
1569,-1,6,12,1,-1,-4,-1,-3,7.845
1570,-5,-6,-11,-8,-5,-1,7,-6,7.8500000000000005
1571,3,10,-8,-2,-3,6,14,11,7.855
1572,-4,-2,6,0,-1,-4,-18,-14,7.86
1573,-11,-5,1,-1,-2,-3,-21,-10,7.865
1574,-3,-4,1,2,3,4,13,-3,7.87
1575,-2,-12,-35,-8,-2,-3,1,-7,7.875
1576,-2,0,36,1,-1,0,0,7,7.88
1577,1,26,26,10,-4,-5,-15,-10,7.885
1578,0,-3,4,1,1,0,3,-3,7.890000000000001
1579,0,0,-12,0,1,-2,3,1,7.8950000000000005
1580,0,-8,-7,-7,-1,2,-1,3,7.9
1581,0,-7,-7,-4,1,1,6,2,7.905
1582,1,8,14,2,-1,0,2,7,7.91
1583,-5,-9,1,3,-2,1,-7,-9,7.915
1584,-1,8,2,-5,-3,-4,-7,-7,7.92
1585,3,-9,-9,0,-1,2,3,13,7.925
1586,-2,-6,-1,-3,-5,0,6,-3,7.930000000000001
1587,2,8,11,1,-2,-9,-22,-7,7.9350000000000005
1588,-1,1,-2,1,2,-1,12,-2,7.94
1589,0,-1,-3,-2,0,4,6,8,7.945
1590,1,-2,-3,-2,0,-2,-1,-3,7.95
1591,-3,6,9,2,-3,-1,1,-6,7.955
1592,1,-5,1,-1,-1,-2,-10,4,7.96
1593,2,-3,-3,-1,0,2,7,3,7.965
1594,-2,-5,-7,-4,-3,-1,-2,-4,7.97
1595,-1,3,4,1,1,-1,-10,-1,7.9750000000000005
1596,2,-1,15,0,-2,-2,1,2,7.98
1597,2,-2,-22,-4,0,1,5,4,7.985
1598,-3,-4,4,0,-1,-2,-7,-2,7.99
1599,-6,-2,-3,-1,-3,-2,2,0,7.995
1600,-5,-2,-3,-1,0,0,2,-5,8.0
1601,5,0,2,1,-2,-2,2,0,8.005
1602,-2,3,-1,2,-1,-2,-3,2,8.01
1603,-2,0,0,-2,0,-2,-5,0,8.015
1604,-2,-3,-8,-3,0,-3,-1,0,8.02
1605,-1,4,3,0,1,-1,-2,0,8.025
1606,0,-3,-7,1,-2,-1,-6,-1,8.03
1607,-1,2,5,1,-1,2,8,-1,8.035
1608,-2,0,-6,-2,-4,2,6,-1,8.040000000000001
1609,-2,-1,5,0,2,0,1,1,8.045
1610,-3,-4,0,0,1,-1,-2,-1,8.05
1611,2,-1,1,-1,-1,-5,-4,-2,8.055
1612,-4,-4,-11,-4,-1,0,-18,-6,8.06
1613,-1,-1,9,0,-2,6,23,8,8.065
1614,2,-1,-2,1,-2,-1,-1,0,8.07
1615,1,-2,-1,-1,-3,-2,-2,0,8.075
1616,1,-3,-6,0,-1,-2,-1,-1,8.08
1617,-2,-5,-8,-3,-3,-2,-13,-18,8.085
1618,-8,-5,-3,-5,-3,1,6,12,8.09
1619,0,1,-1,-1,0,-1,-3,2,8.095
1620,0,-2,2,0,-1,-2,3,3,8.1
1621,-2,-2,0,-2,1,-2,-9,-3,8.105
1622,-1,-3,-1,0,-1,1,3,-11,8.11
1623,-1,1,-1,-1,0,-3,-4,-1,8.115
1624,2,1,0,-1,-1,2,3,3,8.120000000000001
1625,0,0,0,2,2,-1,0,2,8.125
1626,2,-1,-6,-3,-1,-6,-17,-6,8.13
1627,-1,1,4,1,0,3,13,1,8.135
1628,0,1,1,0,-1,1,4,-7,8.14
1629,-3,-3,-4,-3,-4,3,-2,8,8.145
1630,1,0,-1,0,-1,-2,1,1,8.15
1631,-1,-1,1,0,0,-2,-9,-3,8.155
1632,0,-1,0,0,-1,-1,-1,0,8.16
1633,-1,-2,-1,-2,0,0,-3,-1,8.165000000000001
1634,0,-2,0,-2,-2,-2,0,-1,8.17
1635,1,-2,-2,-2,-2,3,0,-2,8.175
1636,-2,-2,-1,-3,-3,-4,1,0,8.18
1637,-1,-2,0,0,-2,-12,-12,0,8.185
1638,-5,-2,-2,-1,0,6,4,-2,8.19
1639,0,-2,0,1,0,0,-3,-2,8.195
1640,2,-1,-3,0,1,-1,0,0,8.2
1641,-1,-1,-2,-2,1,3,1,1,8.205
1642,1,0,-1,0,-1,-2,-1,0,8.21
1643,-2,0,-1,-2,-1,0,1,0,8.215
1644,-1,-4,-2,-1,-2,0,-1,-1,8.22
1645,-2,-1,0,2,-2,-2,-3,0,8.225
1646,-1,-2,-3,-3,-2,-3,4,-1,8.23
1647,-3,-2,0,1,1,0,-18,-7,8.235
1648,1,2,-1,0,1,-1,9,-23,8.24
1649,-1,-3,-3,-2,-1,-2,2,18,8.245000000000001
1650,2,-1,0,1,1,-1,3,10,8.25
1651,1,-2,-1,-1,-1,-1,1,0,8.255
1652,-3,-1,-3,-2,-3,-2,-4,0,8.26
1653,0,-1,-1,1,0,0,0,-12,8.265
1654,-2,-1,0,0,1,0,-3,-1,8.27
1655,-1,0,0,-2,-3,-5,-5,0,8.275
1656,-3,0,-2,-2,0,4,5,2,8.28
1657,1,-2,0,-2,-1,0,-2,-3,8.285
1658,-1,1,0,-2,-2,-1,0,1,8.290000000000001
1659,1,-1,-2,-1,-2,-1,10,-2,8.295
1660,-1,-1,0,-1,-2,-1,-6,5,8.3
1661,-2,-1,-2,-1,1,-1,0,1,8.305
1662,-1,-2,-1,0,0,-2,-1,-7,8.31
1663,-1,2,0,1,1,0,0,-1,8.315
1664,-1,-1,0,0,2,2,-1,7,8.32
1665,-3,-3,-3,-3,-5,-5,-2,-2,8.325
1666,-1,0,1,-1,1,-1,1,-4,8.33
1667,-5,-4,-2,0,0,-4,1,-2,8.335
1668,0,0,1,1,0,1,-7,6,8.34
1669,0,0,-2,0,0,-2,1,-1,8.345
1670,0,2,-1,-1,-3,-1,-2,-3,8.35
1671,-2,-1,0,-1,-3,-1,-6,-4,8.355
1672,1,0,0,-1,1,-2,4,2,8.36
1673,1,-1,0,1,2,-1,-1,0,8.365
1674,1,0,1,0,-1,5,8,0,8.370000000000001
1675,-2,-4,-2,-2,1,-2,-4,0,8.375
1676,-2,-1,-2,1,-4,-1,-8,-2,8.38
1677,2,1,0,-2,-2,1,11,2,8.385
1678,-2,-1,-1,0,-2,-3,-1,-3,8.39
1679,0,2,0,-1,-1,6,1,-1,8.395
1680,-3,-3,-4,-3,-1,-3,-7,-2,8.4
1681,-2,0,0,0,-2,-1,-3,0,8.405
1682,1,-3,-2,-1,0,-3,-2,-1,8.41
1683,-2,-2,-1,-1,-2,-5,-3,-1,8.415000000000001
1684,-1,-2,-1,-1,-2,1,3,-1,8.42
1685,-1,-1,-1,1,-1,0,1,-8,8.425
1686,-1,-1,0,-1,0,-1,-2,5,8.43
1687,3,0,-1,-2,-1,-1,0,8,8.435
1688,-1,-1,3,1,1,-1,-2,1,8.44
1689,-1,-3,-2,-2,0,-1,0,-1,8.445
1690,-3,-1,-2,-1,-2,1,-1,-6,8.45
1691,1,-3,-1,0,2,2,2,-2,8.455
1692,-1,-1,-3,-2,-5,-2,1,-3,8.46
1693,0,-1,0,1,-2,-2,-5,2,8.465
1694,2,-2,1,1,1,-1,-2,1,8.47
1695,-4,-2,-2,0,-3,-2,1,2,8.475
1696,3,0,-1,-1,1,-2,-2,1,8.48
1697,0,0,1,-2,0,-2,-4,-4,8.485
1698,0,1,0,0,0,6,5,-1,8.49
1699,-1,1,0,-2,0,2,1,-2,8.495000000000001
1700,-2,0,0,1,-1,-5,-8,-3,8.5
1701,1,1,-2,-1,-2,-2,-4,-4,8.505
1702,0,0,-2,-2,-1,-3,5,5,8.51
1703,0,-1,0,-2,-3,-2,-5,-3,8.515
1704,-2,-1,0,0,-2,3,5,1,8.52
1705,0,-2,-1,0,-1,-1,0,1,8.525
1706,0,-1,-2,-1,-1,4,-1,-2,8.53
1707,-3,-3,-2,-1,-1,-5,1,-5,8.535
1708,-3,-2,-3,-4,-1,-3,4,0,8.540000000000001
1709,-1,0,1,-1,-2,-1,-3,0,8.545
1710,-2,0,0,-1,-2,-2,-3,-2,8.55
1711,0,-1,1,2,0,-2,-1,2,8.555
1712,0,-2,-1,0,0,0,-1,1,8.56
1713,-4,-1,-2,0,0,2,3,-4,8.565
1714,-3,-2,-1,-2,-3,-2,-7,-6,8.57
1715,1,0,-1,-1,-2,-1,3,3,8.575000000000001
1716,0,1,1,0,-1,2,-2,5,8.58
1717,0,-1,-1,-3,-2,1,6,0,8.585
1718,0,-1,-1,-1,0,-3,-5,0,8.59
1719,1,1,1,1,1,-1,-4,-5,8.595
1720,-1,-1,-1,0,0,2,3,-1,8.6
1721,-1,-2,-1,0,0,-2,-2,1,8.605
1722,-2,-3,-2,-2,-4,-5,1,-3,8.61
1723,2,1,-1,0,1,4,4,-3,8.615
1724,0,0,0,0,-1,-7,-7,11,8.620000000000001
1725,-1,-1,-2,0,1,1,-1,-1,8.625
1726,-1,-2,-1,0,0,-3,-4,1,8.63
1727,0,-1,-2,-3,-1,-2,-1,-3,8.635
1728,-1,0,-3,-1,-1,2,4,-7,8.64
1729,-4,0,-1,0,-1,1,0,0,8.645
1730,-1,0,1,-1,-1,-1,-6,-2,8.65
1731,-1,-2,-1,-1,-1,-1,3,1,8.655
1732,0,0,-2,0,0,-4,-3,-2,8.66
1733,0,0,-1,-1,-1,-2,-5,-1,8.665000000000001
1734,-3,-1,-1,1,-1,0,5,-2,8.67
1735,0,-2,0,0,-1,-4,-7,2,8.675
1736,-1,-1,-1,-2,0,-2,4,1,8.68
1737,0,-1,-3,-3,-3,0,-5,-3,8.685
1738,-4,0,0,0,-3,-1,-5,-3,8.69
1739,-1,-3,-2,-2,-2,-1,0,6,8.695
1740,0,-1,1,1,0,1,0,-2,8.700000000000001
1741,-2,-1,-1,0,-2,0,-2,-1,8.705
1742,0,1,-2,-1,0,-1,0,-3,8.71
1743,-3,-1,-3,-2,-2,0,-1,-2,8.715
1744,1,1,-1,-1,0,0,-3,-2,8.72
1745,-1,-2,1,-1,-1,-2,0,0,8.725
1746,-2,1,-1,-1,0,0,2,0,8.73
1747,0,-1,-1,0,-1,0,2,2,8.735
1748,0,-1,-2,0,0,-5,-2,-1,8.74
1749,0,0,-2,-2,-3,-1,-2,1,8.745000000000001
1750,0,0,-3,-1,1,1,1,-1,8.75
1751,-2,0,0,-1,-2,1,-2,-3,8.755
1752,0,-1,-1,-1,-3,-4,-3,-3,8.76
1753,0,1,2,3,1,-1,4,-1,8.765
1754,-1,-4,-5,-3,-1,1,2,1,8.77
1755,2,2,0,0,0,-3,-7,-1,8.775
1756,0,0,0,-1,-1,-3,-3,-2,8.78
1757,-5,-3,0,-1,0,1,11,-1,8.785
1758,-1,0,1,1,-1,-2,-3,-5,8.790000000000001
1759,0,-2,-3,-1,-2,-3,-1,8,8.795
1760,-2,-2,0,-2,0,6,1,-14,8.8
1761,0,0,-1,-3,-4,-6,-4,15,8.805
1762,-1,-3,-2,-1,-3,-2,-1,-1,8.81
1763,-1,-1,0,2,1,0,0,-6,8.815
1764,-2,1,-1,1,-2,0,-2,2,8.82
1765,-2,-2,-1,-1,1,1,1,-9,8.825000000000001
1766,1,-1,1,0,0,-1,-2,0,8.83
1767,-1,0,0,1,0,-1,-1,-3,8.835
1768,-2,-2,-2,0,-2,2,3,-1,8.84
1769,1,-1,-2,0,0,-1,-1,1,8.845
1770,-1,-2,-2,-1,-1,-2,-6,3,8.85
1771,0,-1,-2,-4,-2,0,0,-2,8.855
1772,-2,-2,0,0,-1,0,2,0,8.86
1773,0,-1,-1,1,0,-1,-4,-3,8.865
1774,2,1,0,0,-3,0,0,2,8.870000000000001
1775,-1,-2,0,0,1,2,3,-2,8.875
1776,-1,-3,-2,-2,-3,-3,-4,4,8.88
1777,-4,0,-2,-1,-2,-2,-1,-6,8.885
1778,2,0,-2,1,1,0,-1,0,8.89
1779,-1,-1,1,-1,-3,-1,0,-2,8.895
1780,2,1,0,-1,0,-1,-3,2,8.9
1781,1,-1,-1,-1,0,0,0,-1,8.905
1782,-4,-2,1,-2,0,-1,4,-3,8.91
1783,-2,-1,1,-1,-3,-1,-2,0,8.915000000000001
1784,1,0,0,-1,-3,-6,-4,5,8.92
1785,1,-2,0,-1,-1,1,1,-2,8.925
1786,0,2,1,2,1,4,0,0,8.93
1787,-1,0,-2,0,0,0,3,-4,8.935
1788,-1,-3,-4,-2,-1,-1,-3,-2,8.94
1789,0,1,0,0,2,-2,-2,1,8.945
1790,1,-2,-2,-1,-2,-4,1,-2,8.950000000000001
1791,0,-2,-1,0,-1,-1,-3,-2,8.955
1792,0,0,1,0,0,1,3,0,8.96
1793,0,-1,-2,0,-2,-2,-4,-1,8.965
1794,-2,-1,-1,-2,-2,-4,-3,-1,8.97
1795,-2,0,1,-2,-1,1,2,-1,8.975
1796,-2,-2,0,-1,1,0,2,-3,8.98
1797,3,-1,1,-1,0,1,-5,0,8.985
1798,-1,0,1,-1,-1,0,-1,-1,8.99
1799,-3,-1,-3,-1,-1,-3,-1,1,8.995000000000001
1800,-1,0,-1,0,1,-2,0,0,9.0
1801,1,1,-2,-1,1,4,-1,-3,9.005
1802,-1,-1,-1,0,-1,-2,-3,1,9.01
1803,-3,-3,-2,-1,-2,3,0,-3,9.015
1804,-5,-1,-3,0,-1,-2,0,-3,9.02
1805,2,-3,-2,-2,-1,-6,-2,4,9.025
1806,4,-2,0,-1,1,0,3,5,9.03
1807,1,0,-3,-4,-1,-4,-2,-8,9.035
1808,-2,-1,-1,-2,-2,0,6,6,9.040000000000001
1809,-4,0,1,1,-1,4,0,-3,9.045
1810,-2,-1,-2,-2,0,-2,-4,1,9.05
1811,-1,-1,0,-1,-1,-1,-2,-1,9.055
1812,2,0,0,0,0,-1,-3,-3,9.06
1813,-1,-2,-1,-2,-2,-1,0,-1,9.065
1814,-2,-2,-1,0,-1,2,0,-2,9.07
1815,0,0,1,-2,-1,-1,-1,2,9.075000000000001
1816,0,1,-1,-3,0,0,-4,-2,9.08
1817,1,0,-5,-2,0,-4,-8,-15,9.085
1818,-2,-2,-1,-1,0,3,14,10,9.09
1819,-2,-1,-1,0,-2,0,1,3,9.095
1820,1,-1,-3,-3,-1,0,1,3,9.1
1821,-1,0,2,-1,1,-1,-2,1,9.105
1822,-1,-2,-1,-2,-2,-4,-8,-11,9.11
1823,2,1,1,3,-1,-2,-2,0,9.115
1824,-3,-3,1,1,-1,1,6,0,9.120000000000001
1825,-1,-3,-1,0,-1,2,2,1,9.125
1826,-3,0,-2,-1,-4,0,3,-8,9.13
1827,0,-1,0,-2,0,-4,-12,4,9.135
1828,1,1,2,2,1,-4,-6,-2,9.14
1829,-1,-2,-5,-3,-2,-1,3,0,9.145
1830,3,0,-1,-1,-2,2,0,4,9.15
1831,-4,-1,1,-1,-1,0,0,-3,9.155
1832,-1,-1,-3,-2,-3,0,-5,-3,9.16
1833,0,0,2,-1,-1,2,1,1,9.165000000000001
1834,0,1,2,1,2,-3,-4,0,9.17
1835,1,-3,-4,-1,-1,-1,-1,-1,9.175
1836,-3,-2,-3,-2,0,-1,0,-1,9.18
1837,3,4,0,-1,-2,0,2,6,9.185
1838,-4,-1,0,2,-1,-2,-4,-3,9.19
1839,3,-2,0,2,-1,0,1,-1,9.195
1840,-6,-3,-2,-1,0,0,-1,-3,9.200000000000001
1841,0,-2,-1,-4,0,-4,-4,-1,9.205
1842,1,0,-1,-1,1,3,1,-1,9.21
1843,-2,0,-3,-1,-2,-6,-6,-3,9.215
1844,0,-1,-1,-2,0,-1,-2,1,9.22
1845,-5,-2,0,1,-3,-3,-1,4,9.225
1846,-2,-1,-2,-3,-4,-5,-4,0,9.23
1847,1,0,1,0,0,3,8,1,9.235
1848,-1,-4,-3,-1,-2,7,1,-13,9.24
1849,-7,-9,-3,0,2,-4,-1,1,9.245000000000001
1850,1,-2,-2,-1,-1,-2,1,11,9.25
1851,1,1,0,0,1,2,5,-2,9.255
1852,-3,0,-2,-2,-1,-6,-6,0,9.26
1853,4,2,1,-2,-2,1,0,-2,9.265
1854,-3,-2,-3,-2,0,-1,-5,-5,9.27
1855,-2,1,-1,-1,0,-1,-1,3,9.275
1856,3,3,3,3,0,0,2,0,9.28
1857,-2,-1,-2,0,-2,-2,-2,-2,9.285
1858,-2,-1,0,-1,1,-1,-1,-3,9.290000000000001
1859,2,-1,-4,-4,-3,-1,-2,0,9.295
1860,-2,-1,1,0,0,0,0,0,9.3
1861,0,0,-1,1,1,-1,1,0,9.305
1862,-1,-2,-1,-3,-3,-3,-2,-4,9.31
1863,-4,0,0,0,2,-1,1,-3,9.315
1864,1,0,-1,-2,-2,-1,-2,2,9.32
1865,2,-1,0,-1,-2,-1,2,1,9.325000000000001
1866,1,0,-2,-2,-1,2,1,-8,9.33
1867,-3,-5,-1,0,0,0,-3,5,9.335
1868,-1,-23,0,0,-1,-2,0,4,9.34
1869,-3,-22,-4,-3,-2,-3,-1,-3,9.345
1870,0,-7,1,1,0,0,-1,-1,9.35
1871,0,4,-1,-1,-4,-2,-3,-2,9.355
1872,-2,12,0,1,1,3,-1,-6,9.36
1873,-5,11,-1,0,0,-1,1,-2,9.365
1874,5,4,-2,-1,0,-3,-2,4,9.370000000000001
1875,-2,4,0,0,1,5,2,0,9.375
1876,-1,6,-2,1,-1,0,-3,2,9.38
1877,-2,4,1,0,-1,0,-2,-2,9.385
1878,-4,0,-3,-2,1,-2,-5,-4,9.39
1879,-1,2,1,1,0,-2,0,1,9.395
1880,0,-1,-2,-3,-2,-3,2,-1,9.4
1881,1,1,-1,-2,0,1,-2,-1,9.405
1882,-1,2,2,0,-2,-1,1,2,9.41
1883,-2,-5,-1,-3,-2,-2,-3,-1,9.415000000000001
1884,1,-2,-2,-2,0,-1,0,0,9.42
1885,-2,1,0,-1,-1,0,1,2,9.425
1886,-2,-4,-3,0,0,-1,-2,-6,9.43
1887,1,-3,-1,-1,-1,-4,-1,0,9.435
1888,1,0,0,1,0,3,1,5,9.44
1889,0,-1,-2,-1,0,-1,-2,-1,9.445
1890,-1,-1,-2,-2,0,0,1,0,9.450000000000001
1891,-2,1,-1,0,0,-2,2,-4,9.455
1892,0,3,1,-1,2,-2,-3,-3,9.46
1893,-3,-2,-3,-1,-1,-1,-6,1,9.465
1894,-2,-1,1,-3,-1,-5,-1,1,9.47
1895,2,-2,-1,-1,-2,2,4,-2,9.475
1896,3,2,0,-1,0,3,3,-1,9.48
1897,0,2,3,1,0,-2,-2,-2,9.485
1898,0,2,-1,1,-2,-2,-3,1,9.49
1899,-2,-5,-1,-3,-2,-2,-4,0,9.495000000000001
1900,-3,0,-2,-4,-1,4,-5,-2,9.5
1901,2,3,-1,-1,-1,0,6,-1,9.505
1902,-5,-5,1,0,0,0,0,1,9.51
1903,-1,-1,-2,-2,-1,-3,-3,0,9.515
1904,-2,-1,-2,-1,-1,0,0,-2,9.52
1905,0,-2,0,-2,0,-3,-3,-1,9.525
1906,2,1,0,-1,0,-1,-3,1,9.53
1907,-2,-2,0,0,2,1,-1,-5,9.535
1908,-6,-3,-2,-1,0,-2,-1,-3,9.540000000000001
1909,0,1,-4,-1,-1,0,0,0,9.545
1910,3,-1,-1,-3,-2,-1,1,-10,9.55
1911,-1,-2,-5,-3,-4,0,-2,4,9.555
1912,1,1,1,0,-2,-3,1,7,9.56
1913,0,0,1,2,-1,-3,-3,2,9.565
1914,1,-2,-2,-2,-1,-2,-2,1,9.57
1915,-1,-3,-1,-1,0,0,3,-3,9.575000000000001
1916,3,-1,-1,-1,-1,-5,0,-3,9.58
1917,-1,-4,1,0,1,2,1,-2,9.585
1918,-2,-1,0,-2,-1,5,0,-4,9.59
1919,0,-2,-1,0,-3,-1,-5,-3,9.595
1920,-3,-7,-2,-1,-2,-3,2,3,9.6
1921,-3,-7,-3,-2,-1,0,-3,-5,9.605
1922,0,1,1,2,1,-2,0,1,9.61
1923,1,1,-1,0,2,2,1,2,9.615
1924,2,1,0,1,-2,-5,-6,-2,9.620000000000001
1925,-1,1,-2,-2,0,1,-1,-1,9.625
1926,-1,-1,0,1,0,-3,-1,2,9.63
1927,0,3,-1,-1,1,-3,-5,1,9.635
1928,-1,1,0,-2,0,0,2,-6,9.64
1929,-2,0,-3,-4,-2,-2,2,-2,9.645
1930,-2,0,0,-1,-2,-3,1,5,9.65
1931,0,0,2,0,0,0,3,-1,9.655
1932,1,2,-1,0,4,-1,-3,1,9.66
1933,0,0,2,2,0,1,-3,-3,9.665000000000001
1934,-3,-3,-4,-2,-2,-2,-2,-3,9.67
1935,-3,3,0,-2,-2,-1,0,2,9.675
1936,-3,-1,1,-2,-3,2,-2,-2,9.68
1937,0,0,-2,-2,-2,-1,1,-2,9.685
1938,1,3,0,-2,-1,-2,-2,-1,9.69
1939,-2,-2,-1,0,-1,-2,-2,-4,9.695
1940,0,-1,1,0,-2,1,-2,0,9.700000000000001
1941,-1,-2,0,0,-1,-4,-1,1,9.705
1942,-1,-1,-1,0,0,2,0,-16,9.71
1943,-2,-3,-2,-1,0,-2,4,9,9.715
1944,0,0,-3,-4,-2,1,2,2,9.72
1945,1,-2,-2,0,0,0,-3,2,9.725
1946,0,1,-1,1,0,1,2,4,9.73
1947,1,1,-5,-3,-1,-3,-9,-9,9.735
1948,-4,0,-1,-2,0,-1,0,-2,9.74
1949,0,3,1,0,-2,-2,-2,0,9.745000000000001
1950,0,0,-2,-3,-2,1,1,1,9.75
1951,0,-1,0,0,-1,2,1,-3,9.755
1952,1,1,0,0,-3,-4,-5,0,9.76
1953,-3,-3,1,1,-2,1,2,2,9.765
1954,2,0,-2,-1,-2,1,-3,0,9.77
1955,2,0,2,-1,-1,0,0,1,9.775
1956,0,0,0,-1,0,-3,0,0,9.78
1957,-1,-1,0,0,-2,-2,-4,-4,9.785
1958,1,3,-4,-4,-3,-2,1,4,9.790000000000001
1959,-3,0,2,2,-1,0,3,-3,9.795
1960,2,-3,-2,-1,-2,1,-2,-3,9.8
1961,3,2,-1,-1,0,-1,-3,2,9.805
1962,-5,-6,-3,-1,-2,-4,-2,1,9.81
1963,2,-1,-2,-1,2,0,-1,0,9.815
1964,-2,-3,-1,2,1,2,-4,-3,9.82
1965,0,-2,-1,0,-1,-2,-5,-9,9.825000000000001
1966,1,-1,-2,0,-2,2,9,15,9.83
1967,3,2,-4,-5,-2,0,2,-3,9.835
1968,1,0,2,2,1,-2,-20,3,9.84
1969,-2,-1,0,-3,0,2,19,-1,9.845
1970,1,14,2,0,1,-5,-7,-4,9.85
1971,-2,19,0,1,1,0,5,2,9.855
1972,-2,22,-2,-3,0,1,-8,-3,9.86
1973,1,15,-2,0,1,-2,17,2,9.865
1974,-2,-1,-1,-2,0,0,-4,-3,9.870000000000001
1975,-4,-16,-2,-1,-1,-1,-1,-2,9.875
1976,0,-14,-3,0,-3,1,-1,2,9.88
1977,-4,-13,-2,-2,-3,-2,-10,-1,9.885
1978,-4,-12,0,0,1,-3,2,3,9.89
1979,-1,-4,0,1,-3,1,-4,-4,9.895
1980,-1,-8,-2,-2,-1,-3,3,-2,9.9
1981,1,1,-2,1,-2,1,-2,4,9.905
1982,0,5,-3,-3,-2,0,-1,-5,9.91
1983,-3,15,-1,-1,0,-2,-13,-3,9.915000000000001
1984,-4,21,0,1,0,0,15,0,9.92
1985,-1,12,-1,-1,0,-1,-4,0,9.925
1986,1,7,3,2,2,2,-8,-4,9.93
1987,-2,-4,0,-1,-2,-1,7,-2,9.935
1988,-2,-2,-2,-3,-3,-5,-8,2,9.94
1989,3,15,0,-1,0,2,6,1,9.945
1990,-2,9,-2,1,0,4,13,0,9.950000000000001
1991,0,-3,-1,-2,0,-1,1,1,9.955
1992,3,-8,-1,-2,0,-5,-2,-1,9.96
1993,-3,-17,0,0,0,-3,-25,-4,9.965
1994,-2,-17,2,-1,-2,0,7,-1,9.97
1995,1,-16,0,0,1,0,3,1,9.975
1996,1,-21,-4,-2,-4,0,4,-2,9.98
1997,1,-21,-1,-1,1,-1,-4,1,9.985
1998,-2,-22,-3,-1,-1,-2,-3,0,9.99
1999,-1,-12,0,0,-2,-2,-3,-1,9.995000000000001
2000,-1,-11,-1,0,2,0,2,-2,10.0
2001,-3,-13,-4,-2,-2,-3,-1,-1,10.005
2002,1,-3,-1,0,-1,1,-7,-2,10.01
2003,0,-7,-4,-1,-1,2,3,1,10.015
2004,0,-2,-2,1,0,1,-2,0,10.02
2005,1,2,1,0,-2,-4,-1,0,10.025
2006,-4,-3,-1,2,1,0,-4,-2,10.03
2007,-2,-4,-3,-2,-4,-3,-6,-2,10.035
2008,2,5,1,-1,0,1,6,1,10.040000000000001
2009,-3,1,0,-1,-3,-2,-2,-2,10.045
2010,3,6,0,0,-1,-1,-3,-2,10.05
2011,-1,6,0,0,-1,-2,0,1,10.055
2012,-5,-2,0,2,0,3,-1,0,10.06
2013,5,2,-1,-2,-2,-2,-4,-7,10.065
2014,0,0,2,0,1,1,7,6,10.07
2015,0,-1,-1,-1,1,2,0,1,10.075000000000001
2016,-1,-3,0,0,0,-4,2,1,10.08
2017,-4,-2,-3,0,-1,0,-6,-2,10.085
2018,-1,-1,-3,-1,-4,-3,-10,-5,10.09
2019,-3,0,-3,-2,0,0,4,-2,10.095
2020,-2,0,-1,-1,0,-2,7,-1,10.1
2021,-4,-2,-2,-2,2,8,4,0,10.105
2022,0,3,-3,-3,-1,-3,-3,-2,10.11
2023,0,1,1,1,-3,-1,-10,0,10.115
2024,-2,0,0,-3,-5,-7,-9,-5,10.120000000000001
2025,1,6,1,1,2,-2,4,-3,10.125
2026,-7,-9,-6,-3,1,2,19,6,10.13
2027,2,3,-2,-1,0,-3,-8,8,10.135
2028,1,-1,-1,-2,0,3,-2,-4,10.14
2029,-1,-1,-2,-1,-2,-2,8,7,10.145
2030,0,3,0,-1,-1,-1,-4,-9,10.15
2031,-3,1,-2,1,-3,-3,1,-9,10.155
2032,1,6,0,-1,0,3,3,8,10.16
2033,-2,1,-4,-4,-2,0,-9,-9,10.165000000000001
2034,4,7,2,0,-4,-3,2,7,10.17
2035,-5,-3,0,-2,-1,-1,4,1,10.175
2036,2,3,0,2,-2,0,-10,-3,10.18
2037,-3,-7,-6,-3,-3,-2,6,-2,10.185
2038,0,-6,0,-1,3,1,-8,-2,10.19
2039,3,1,2,-2,-4,-2,0,-1,10.195
2040,-1,-4,-4,-2,0,-1,0,-2,10.200000000000001
2041,-4,-6,0,-2,1,-2,-1,1,10.205
2042,-1,-4,-2,-3,-3,-3,-2,-1,10.21
2043,-3,-5,-2,-2,3,3,0,-1,10.215
2044,-2,-4,-2,-2,-2,-4,-1,-3,10.22
2045,-2,3,1,0,1,1,-4,0,10.225
2046,1,6,2,1,2,3,6,1,10.23
2047,-6,6,-1,-2,-1,-3,-4,-2,10.235
2048,-2,1,-1,-1,-3,-1,8,0,10.24
2049,4,4,0,1,-1,-5,-16,1,10.245000000000001
2050,-2,-1,-1,-2,-3,1,-3,-2,10.25
2051,0,-1,1,1,1,-1,15,-1,10.255
2052,-5,-3,-1,-2,1,0,-6,-1,10.26
2053,-1,-1,1,1,1,3,9,0,10.265
2054,2,3,0,-2,-1,-1,-5,1,10.27
2055,4,-4,3,5,1,-1,-5,0,10.275
2056,1,1,-1,0,-2,3,0,-2,10.28
2057,-1,-1,2,0,0,5,5,0,10.285
2058,-2,1,-3,-2,-2,-4,-7,-2,10.290000000000001
2059,0,3,-1,-1,-3,-3,-8,-2,10.295
2060,3,4,2,-1,0,-3,1,1,10.3
2061,-4,-1,-2,-5,-5,-4,-9,0,10.305
2062,-6,-9,-4,-1,-2,2,5,-2,10.31
2063,-1,-1,-3,-2,-2,-2,-1,1,10.315
2064,-1,-1,0,1,2,2,1,-1,10.32
2065,-1,-2,-1,1,1,1,1,-1,10.325000000000001
2066,0,0,0,-1,0,-4,-7,-1,10.33
2067,-1,-1,-3,-3,-2,-5,3,0,10.335
2068,-3,-1,-3,-1,-3,1,2,-1,10.34
2069,3,5,-1,-1,-1,-4,0,1,10.345
2070,1,3,2,5,1,-3,-6,0,10.35
2071,-2,-3,-2,1,1,4,5,-2,10.355
2072,2,0,3,-1,-2,-1,2,2,10.36
2073,-2,-2,-1,-1,-4,-1,-6,-1,10.365
2074,-1,-1,-1,0,4,-2,-6,-2,10.370000000000001
2075,-3,-5,-3,-3,-2,-1,5,0,10.375
2076,-1,-2,-4,-4,0,0,-4,-1,10.38
2077,-1,0,0,1,3,2,5,1,10.385
2078,1,-2,1,-2,-2,0,-6,-1,10.39
2079,2,1,-2,-2,-2,-5,-1,0,10.395
2080,-6,-7,-2,0,1,2,-3,-3,10.4
2081,5,3,2,-1,0,1,15,3,10.405
2082,-4,-3,-2,-1,1,3,-2,-1,10.41
2083,2,1,1,0,0,0,-5,-2,10.415000000000001
2084,-2,-2,1,0,-4,-5,-3,0,10.42
2085,1,3,-1,0,3,-2,-9,-2,10.425
2086,-1,0,-2,0,-1,-1,8,0,10.43
2087,-5,-4,-1,0,-4,0,-4,-2,10.435
2088,-3,-2,-1,0,-3,-4,-2,-2,10.44
2089,-3,-4,-3,-4,-5,-1,-6,-1,10.445
2090,1,2,-1,-3,0,-2,2,-1,10.450000000000001
2091,1,0,-2,0,4,3,6,0,10.455
2092,2,1,0,2,1,1,-1,-1,10.46
2093,-3,-4,-1,-1,0,-1,0,0,10.465
2094,1,1,-1,-2,-7,-4,-3,-1,10.47
2095,0,-1,-2,1,-3,-2,-7,-1,10.475
2096,3,1,0,0,2,1,13,2,10.48
2097,0,-1,-2,-1,-2,-4,-3,-1,10.485
2098,1,0,-1,0,2,4,4,0,10.49
2099,-5,-5,1,1,-1,0,-5,-4,10.495000000000001
2100,-1,1,-1,-1,3,-4,-2,-2,10.5
2101,0,-2,-2,0,-5,1,1,-2,10.505
2102,0,0,3,0,-2,-3,-7,-3,10.51
2103,0,1,-2,-3,-3,0,10,1,10.515
2104,1,0,2,2,-1,2,-3,3,10.52
2105,-4,-4,-2,-1,0,-3,1,-1,10.525
2106,-3,-4,-3,-2,0,-2,-6,0,10.53
2107,0,0,1,-1,-1,0,-6,-3,10.535
2108,-1,-1,-1,-1,-5,-3,0,-1,10.540000000000001
2109,0,-2,0,0,2,6,6,-1,10.545
2110,-1,-1,-4,0,3,2,-5,0,10.55
2111,-1,4,0,1,-1,-2,3,-1,10.555
2112,-1,-2,2,1,0,-2,-1,0,10.56
2113,1,1,1,1,-2,-4,-1,0,10.565
2114,-1,0,-1,-2,-2,1,5,0,10.57
2115,1,2,0,-4,1,-3,-5,0,10.575000000000001
2116,-2,-2,-2,-3,1,-1,-6,-5,10.58
2117,0,-1,0,-1,4,-1,0,1,10.585
2118,-2,-3,-2,-2,-4,0,4,-1,10.59
2119,2,1,-1,-2,2,-4,-6,1,10.595
2120,0,1,-2,-2,-3,-1,-8,-2,10.6
2121,-6,-7,-1,1,3,0,0,-4,10.605
2122,3,3,-1,0,-3,2,9,1,10.61
2123,0,2,3,3,0,1,1,-1,10.615
2124,-1,0,-2,-3,-3,-3,-4,2,10.620000000000001
2125,1,4,0,-1,-1,-2,-9,-5,10.625
2126,-2,0,0,0,-2,-2,1,-1,10.63
2127,-1,-2,-2,-5,-3,-3,1,0,10.635
2128,1,1,-2,-1,3,2,-2,-1,10.64
2129,4,0,-1,2,-1,2,7,1,10.645
2130,-5,-6,1,3,4,0,0,-3,10.65
2131,-6,-2,-3,0,2,0,-3,-2,10.655
2132,-4,-5,-3,-3,-2,1,8,0,10.66
2133,-2,-2,-1,-3,-2,-5,-7,-1,10.665000000000001
2134,1,-1,-1,-1,-2,-3,-8,0,10.67
2135,1,-1,1,1,0,4,0,-1,10.675
2136,-1,1,0,-1,-1,-1,-1,-1,10.68
2137,-4,-3,-1,1,-3,0,4,0,10.685
2138,1,1,-2,-2,1,-2,0,-1,10.69
2139,-4,-4,-2,0,1,-2,-11,-2,10.695
2140,1,0,-2,-3,-2,-2,6,0,10.700000000000001
2141,2,3,1,1,0,3,0,2,10.705
2142,-2,-3,-2,-2,2,-1,10,0,10.71
2143,-1,-5,-3,-1,0,4,11,2,10.715
2144,2,4,0,2,-2,-4,-6,-2,10.72
2145,-1,-1,-1,-1,-3,-1,-3,-2,10.725
2146,-2,0,0,-2,-4,0,-8,-2,10.73
2147,2,0,0,2,-2,-1,-3,-1,10.735
2148,-3,-3,-2,-3,-4,-4,4,-3,10.74
2149,-1,1,-2,-2,1,-2,-2,0,10.745000000000001
2150,-4,-5,-1,-3,-2,-1,1,-3,10.75
2151,0,-1,-2,-2,1,-2,-2,0,10.755
2152,-3,-1,-1,-1,-1,0,3,0,10.76
2153,2,3,2,1,0,1,-9,-2,10.765
2154,-1,-2,0,0,-3,-1,-2,-1,10.77
2155,3,4,3,1,-2,-3,-1,1,10.775
2156,0,-1,-1,0,3,0,-2,-2,10.78
2157,-3,-5,-3,-3,-6,-1,6,-1,10.785
2158,1,3,-1,0,-2,1,2,1,10.790000000000001
2159,-1,0,-3,0,1,-2,-3,-3,10.795
2160,0,-1,0,1,-1,1,0,1,10.8
2161,-3,-2,-1,-1,1,-1,0,0,10.805
2162,-3,-5,-3,-1,-4,-7,-8,-3,10.81
2163,-1,-1,-2,-2,0,4,-1,0,10.815
2164,-3,1,-2,-2,-2,-4,4,-2,10.82
2165,2,1,0,-2,0,3,6,1,10.825000000000001
2166,1,2,-2,-1,0,-1,1,-1,10.83
2167,-2,-3,-1,-3,-1,-5,-3,0,10.835
2168,4,3,2,1,-2,3,-5,-1,10.84
2169,-1,-3,0,2,-2,-4,-4,1,10.845
2170,2,1,2,1,3,3,8,2,10.85
2171,0,-2,-1,0,0,-3,-8,-1,10.855
2172,-2,-2,0,0,0,-2,-1,0,10.86
2173,-2,-3,-3,-2,-3,-4,-2,-3,10.865
2174,3,5,-2,-2,-2,2,-3,1,10.870000000000001
2175,-4,-6,3,5,1,1,-3,-3,10.875
2176,0,-1,-1,0,0,-1,3,2,10.88
2177,2,1,-3,-1,-1,-1,5,1,10.885
2178,-1,0,0,-3,-2,-2,-5,-1,10.89
2179,-1,3,-3,-3,-4,4,4,0,10.895
2180,-3,-5,-1,0,0,-2,-9,-2,10.9
2181,-4,-3,-2,-1,0,-3,-3,-3,10.905
2182,-1,0,2,1,-1,4,7,1,10.91
2183,0,2,1,-2,1,4,3,1,10.915000000000001
2184,1,-2,0,0,0,0,0,-1,10.92
2185,2,4,0,-3,0,-5,-9,0,10.925
2186,0,0,-2,1,1,2,4,2,10.93
2187,-1,1,0,-2,0,-6,-6,-2,10.935
2188,-4,0,-3,-2,-2,-1,-3,-1,10.94
2189,-2,-1,-2,-3,-1,-1,-1,0,10.945
2190,-3,-2,0,1,-2,-4,-2,-3,10.950000000000001
2191,0,3,2,-1,-2,-1,-1,-1,10.955
2192,1,-1,1,-1,0,3,6,0,10.96
2193,2,2,1,0,-2,-1,0,0,10.965
2194,-2,-4,-2,-1,-3,-1,-4,-3,10.97
2195,-1,0,1,-1,0,-2,-1,0,10.975
2196,-3,-1,-3,-2,0,-4,-5,-2,10.98
2197,3,2,1,-1,1,1,7,2,10.985
2198,-1,-5,-5,-3,0,0,-7,-2,10.99
2199,-4,-5,-3,-2,-3,0,8,0,10.995000000000001
2200,2,1,1,1,-2,0,-9,0,11.0
2201,-4,-3,0,1,0,1,-2,-2,11.005
2202,-1,0,1,1,1,1,7,0,11.01
2203,1,1,-2,-2,-2,-4,-5,-1,11.015
2204,-1,2,2,0,0,3,5,0,11.02
2205,-6,-5,-3,-1,-2,-1,-9,-1,11.025
2206,1,0,0,-1,-3,-4,-2,-1,11.03
2207,0,-6,-4,-1,-2,0,1,-2,11.035
2208,0,2,0,-1,-2,-3,-3,-1,11.040000000000001
2209,1,2,-1,-1,-1,1,4,-1,11.045
2210,-1,-2,1,1,1,1,-10,-1,11.05
2211,-1,0,-3,-1,-1,0,3,1,11.055
2212,-6,-9,-3,-2,0,-1,-2,-2,11.06
2213,-1,0,3,2,0,-1,-5,-2,11.065
2214,0,1,-2,-3,0,1,4,3,11.07
2215,-1,0,-1,-2,0,0,-2,0,11.075000000000001
2216,-4,-4,1,-1,-2,1,-1,0,11.08
2217,1,-5,-7,-4,-2,0,2,-3,11.085
2218,1,2,2,-1,-1,-2,-3,-1,11.09
2219,-4,-3,-1,0,-1,-2,-4,-4,11.095
2220,0,2,-2,0,0,-1,0,0,11.1
2221,-2,-3,0,-1,1,2,7,1,11.105
2222,-3,-5,-3,-3,-3,-4,-3,0,11.11
2223,2,1,1,-2,-3,1,2,-1,11.115
2224,0,0,2,-1,-2,1,1,-1,11.120000000000001
2225,0,2,2,1,-1,0,-2,-1,11.125
2226,2,4,-2,-1,-1,-2,-3,0,11.13
2227,0,-1,-3,0,-3,-7,-5,0,11.135
2228,3,2,0,-1,0,-1,1,3,11.14
2229,-1,-1,-1,-1,-1,0,0,-1,11.145
2230,-1,-1,1,0,1,0,-1,-1,11.15
2231,-3,-4,-2,-1,-1,5,2,-2,11.155
2232,-1,-1,-2,-1,-2,-1,-1,-1,11.16
2233,0,2,-2,-2,0,-5,-9,2,11.165000000000001
2234,-4,-6,-2,-2,-2,1,4,-1,11.17
2235,2,4,2,1,0,0,1,2,11.175
2236,-1,-2,-2,-2,0,-3,-6,-1,11.18
2237,-4,-1,-1,-3,-4,0,-1,-3,11.185
2238,3,6,-1,-4,0,0,1,-1,11.19
2239,-1,-3,0,0,3,1,-1,0,11.195
2240,1,-1,-2,1,0,2,-2,-4,11.200000000000001
2241,1,3,2,-1,-2,-1,-2,-1,11.205
2242,0,-3,-2,1,-2,-3,1,3,11.21
2243,-2,-2,-3,-4,-2,-2,2,-1,11.215
2244,-2,-2,-1,0,0,0,-2,-1,11.22
2245,-4,-5,-1,-2,1,3,3,-1,11.225
2246,0,-2,-1,1,-2,-3,-9,-2,11.23
2247,2,3,1,2,0,-1,-2,1,11.235
2248,-1,-1,-1,-1,-2,-3,6,1,11.24
2249,2,0,0,2,-2,-2,2,1,11.245000000000001
2250,-3,-4,1,-1,0,1,1,-2,11.25
2251,-3,-4,-1,-2,-4,-3,-2,-3,11.255
2252,3,2,0,-1,-1,-2,-6,-1,11.26
2253,0,2,-3,-4,0,2,8,1,11.265
2254,1,5,0,-2,0,1,2,1,11.27
2255,-3,-3,-2,-4,-2,-2,-11,-2,11.275
2256,-2,-4,-2,1,1,-1,-2,-3,11.28
2257,1,0,-3,-1,0,2,6,0,11.285
2258,-2,-4,-2,0,1,-1,-6,-2,11.290000000000001
2259,3,3,2,2,1,1,7,1,11.295
2260,-5,-4,-1,-4,-3,-1,-2,-1,11.3
2261,-2,-4,-2,-1,-1,-1,-5,-1,11.305
2262,0,0,2,-1,-1,0,1,1,11.31
2263,0,-2,-3,-2,2,1,-1,-4,11.315
2264,1,2,0,-2,0,-1,-3,-1,11.32
2265,2,2,0,0,-1,-6,2,0,11.325000000000001
2266,-7,-10,-3,-1,-1,1,4,-3,11.33
2267,-1,-4,-2,0,-1,3,3,2,11.335
2268,1,3,1,-2,-3,-2,2,1,11.34
2269,-4,-6,-3,-1,-2,3,-1,-3,11.345
2270,3,4,3,0,-2,-3,-5,0,11.35
2271,-3,-3,-2,-3,-1,-1,1,-1,11.355
2272,1,-2,-3,-1,-2,1,2,1,11.36
2273,-1,0,3,2,0,-3,-6,-1,11.365
2274,2,1,-1,-4,-2,0,-1,-1,11.370000000000001
2275,0,-3,0,-1,1,-1,-10,-2,11.375
2276,0,-2,0,0,3,1,10,0,11.38
2277,1,1,1,0,0,-2,-6,-1,11.385
2278,-4,-3,-1,0,0,0,-5,-3,11.39
2279,-2,-1,2,0,-1,-4,-1,0,11.395
2280,3,4,0,-1,-4,3,11,0,11.4
2281,0,-3,1,2,2,4,1,1,11.405
2282,-1,-4,-4,0,1,-3,0,0,11.41
2283,-2,0,-1,0,-3,0,1,-1,11.415000000000001
2284,-6,-7,-4,-1,-4,-4,-10,-1,11.42
2285,-3,1,-1,-1,-2,-8,-5,-2,11.425
2286,5,3,1,0,-1,1,-2,-1,11.43
2287,-1,-2,-2,-1,2,0,0,-1,11.435
2288,-2,1,-2,-1,1,1,1,1,11.44
2289,0,0,-2,0,-1,0,-1,0,11.445
2290,-1,1,-2,-1,-3,-3,0,0,11.450000000000001
2291,1,-1,4,2,-1,-1,4,2,11.455
2292,-1,1,1,-3,-3,-1,-6,-3,11.46
2293,-1,-2,-1,-1,-3,-1,2,-1,11.465
2294,2,1,2,2,0,0,2,-1,11.47
2295,1,3,-1,-1,2,1,2,1,11.475
2296,0,-3,-1,-1,1,0,2,1,11.48
2297,-2,-3,-1,0,-2,-4,-6,-2,11.485
2298,-3,-3,-2,-1,-1,-3,-1,-2,11.49
2299,-1,-1,-2,-1,-3,0,-1,-1,11.495000000000001
2300,0,-1,-2,-2,0,-1,4,-1,11.5
2301,2,5,1,-1,1,0,-2,-1,11.505
2302,-5,-9,-3,-2,1,1,8,1,11.51
2303,0,-1,-1,1,1,0,-6,-1,11.515
2304,3,8,-1,-2,0,-3,-4,-1,11.52
2305,-7,-11,-1,1,-2,-1,1,-2,11.525
2306,2,2,1,1,1,0,-4,0,11.53
2307,2,0,-2,-2,-1,-3,-3,-2,11.535
2308,-1,-3,1,0,-3,-2,-6,-3,11.540000000000001
2309,-2,1,-3,-1,-2,2,4,0,11.545
2310,2,1,0,1,-2,-4,-6,0,11.55
2311,-1,-1,-1,0,-1,-1,11,2,11.555
2312,-4,-7,-3,0,2,1,-1,0,11.56
2313,-1,-2,-1,-1,-1,-2,-2,0,11.565
2314,-2,-1,-2,0,2,1,0,-1,11.57
2315,0,1,-1,-2,-2,-1,2,-1,11.575000000000001
2316,-1,-1,-1,0,1,-2,-4,-2,11.58
2317,-1,-1,-1,-3,-2,0,-4,-1,11.585
2318,-1,2,2,2,0,0,1,0,11.59
2319,-1,1,0,-1,0,-1,-2,0,11.595
2320,1,0,0,-1,-3,0,1,0,11.6
2321,1,2,0,-1,-2,-3,-7,0,11.605
2322,-2,-1,-2,-4,-2,0,0,-1,11.61
2323,-1,-2,-1,1,1,-3,2,0,11.615
2324,3,4,0,1,-1,2,0,1,11.620000000000001
2325,-4,-5,-2,0,1,0,1,0,11.625
2326,-1,1,-1,-1,-1,-3,-7,0,11.63
2327,-4,-4,-1,-2,1,4,-3,-4,11.635
2328,-1,-1,-2,-2,-1,1,7,-1,11.64
2329,4,6,2,2,1,0,3,2,11.645
2330,-3,-4,-4,-2,-2,-3,-3,-1,11.65
2331,0,3,0,2,-3,1,1,-1,11.655
2332,1,-2,0,-1,1,-2,-5,-1,11.66
2333,1,-1,-1,-3,1,0,2,-1,11.665000000000001
2334,1,0,-1,0,0,0,0,0,11.67
2335,-1,1,-2,-2,-1,-2,-3,-1,11.675
2336,-2,-3,-1,1,-1,-1,0,-1,11.68
2337,-1,-3,-3,-2,-6,-1,-2,-2,11.685
2338,-3,-1,3,1,-1,-2,-6,-1,11.69
2339,-1,0,-2,1,-1,1,4,-4,11.695
2340,-8,-10,-2,0,1,-2,-3,-2,11.700000000000001
2341,-3,-4,-2,-5,0,0,-3,-8,11.705
2342,-1,0,-3,-1,0,2,15,-3,11.71
2343,-6,-4,-6,1,-2,-1,0,-5,11.715
2344,-3,-5,-13,-5,0,5,0,23,11.72
2345,7,-18,-69,-27,1,-1,-9,10,11.725
2346,-1,23,81,21,-7,-4,-9,1,11.73
2347,-4,2,-35,-15,8,0,-1,-30,11.735
2348,-13,6,96,38,-6,3,45,20,11.74
2349,2,-6,-18,4,-1,-3,-42,-61,11.745000000000001
2350,-5,14,44,-6,-2,-4,-13,4,11.75
2351,16,19,61,19,-5,-10,-16,11,11.755
2352,3,15,8,17,2,3,-4,-13,11.76
2353,3,-12,-67,-18,0,3,11,28,11.765
2354,-9,-7,1,6,-3,-7,-18,-18,11.77
2355,-10,-8,-40,-18,1,6,2,3,11.775
2356,4,-10,-43,-28,-2,-4,22,8,11.78
2357,-8,-10,-3,2,-1,7,24,18,11.785
2358,10,-33,-119,-45,-2,4,8,1,11.790000000000001
2359,11,11,15,-2,-5,-8,-34,9,11.795
2360,2,-20,-42,-19,-3,-1,6,26,11.8
2361,-17,29,127,56,2,-7,2,-37,11.805
2362,7,-10,-29,-4,3,2,14,6,11.81
2363,-4,-4,31,26,2,4,-3,-20,11.815
2364,3,40,85,43,3,-6,-29,-30,11.82
2365,13,12,3,4,-2,-2,-7,22,11.825000000000001
2366,-10,-38,-78,-52,0,9,12,27,11.83
2367,-5,-1,-47,-21,-8,-3,16,6,11.835
2368,10,11,-1,23,4,-6,-12,2,11.84
2369,-6,18,39,4,1,0,-1,-2,11.845
2370,12,-5,-37,-17,2,5,19,9,11.85
2371,19,-26,-73,-46,-2,2,23,21,11.855
2372,-15,38,91,74,1,-10,-27,-12,11.86
2373,14,26,-20,8,5,7,43,-3,11.865
2374,-16,-6,-47,-2,-3,-17,-60,-36,11.870000000000001
2375,-9,-17,-49,-34,0,15,37,4,11.875
2376,-5,-17,16,-1,-1,-5,-28,-45,11.88
2377,4,-2,-30,-13,1,2,14,28,11.885
2378,10,12,41,14,-5,6,69,-16,11.89
2379,-8,2,13,18,-1,-8,16,55,11.895
2380,4,-18,-18,-23,-4,-1,-18,-2,11.9
2381,-10,-30,-62,-21,-2,-2,-9,4,11.905
2382,10,15,29,-18,-3,-8,-30,-11,11.91
2383,-9,21,106,76,-7,-9,-20,-8,11.915000000000001
2384,-1,-9,-75,-29,2,5,10,-17,11.92
2385,-1,-9,-4,-13,0,-1,-20,10,11.925
2386,-5,6,-2,14,0,-2,-6,-10,11.93
2387,-3,-2,11,-7,-2,-2,-12,-36,11.935
2388,-5,-11,-35,-33,-5,-2,1,28,11.94
2389,2,-21,-34,-12,-3,2,-18,-13,11.945
2390,7,1,-18,2,-3,7,58,37,11.950000000000001
2391,-4,18,78,36,3,-5,-17,-18,11.955
2392,-1,1,35,25,8,-3,-26,-30,11.96
2393,-4,12,37,9,-3,-1,10,-6,11.965
2394,1,-12,-29,4,6,2,-14,21,11.97
2395,5,-6,-42,-27,-2,2,-3,-3,11.975
2396,8,-10,-50,-19,-1,3,14,11,11.98
2397,-9,-7,-3,1,-7,-6,-9,-7,11.985
2398,-5,25,67,17,2,1,-20,-7,11.99
2399,2,8,50,28,4,2,4,3,11.995000000000001
2400,9,11,-9,-7,2,0,1,24,12.0
2401,-11,-16,-38,-9,-3,-8,1,-12,12.005
2402,-9,-22,-24,-5,-2,2,1,12,12.01
2403,9,-14,-41,-26,-1,-2,-20,-9,12.015
2404,9,6,54,15,-1,2,20,6,12.02
2405,-23,2,-2,-7,0,0,7,3,12.025
2406,13,-2,-7,12,2,1,-7,-12,12.030000000000001
2407,-9,-5,4,-2,0,-6,-3,2,12.035
2408,2,-14,-65,-39,-3,7,11,42,12.040000000000001
2409,6,14,50,21,-2,-7,-19,-25,12.045
2410,-7,1,-12,-4,0,1,6,-8,12.05
2411,-7,0,-5,1,-4,3,-5,-10,12.055
2412,-1,-8,-32,-11,0,1,1,4,12.06
2413,-4,7,52,6,-2,-2,-4,-7,12.065
2414,-7,-12,-3,5,1,-3,1,5,12.07
2415,4,-9,-62,-18,-2,3,9,13,12.075000000000001
2416,-4,27,54,20,-4,-4,-15,-18,12.08
2417,10,1,-11,-4,0,0,0,3,12.085
2418,-4,3,5,-1,-3,-2,-8,1,12.09
2419,-2,-11,-26,-17,1,0,4,3,12.095
2420,-3,-10,-24,-2,-1,0,4,-13,12.1
2421,3,0,-11,-10,-1,0,-2,4,12.105
2422,-2,12,50,20,0,-1,6,-7,12.11
2423,-3,-6,-8,3,2,-1,-1,-2,12.115
2424,-2,-13,-42,-18,-4,-2,-6,9,12.120000000000001
2425,8,11,49,9,-1,-3,1,9,12.125
2426,-1,2,6,4,0,-1,-12,-5,12.13
2427,1,-15,-16,-17,-3,2,22,4,12.135
2428,-6,-4,-19,-9,-4,-6,-8,-14,12.14
2429,-4,-20,-62,-19,-8,0,18,-7,12.145
2430,5,22,68,27,-1,-11,-44,-3,12.15
2431,-4,8,4,2,0,3,-5,9,12.155000000000001
2432,-2,-3,-8,-10,-3,6,26,-2,12.16
2433,5,-2,11,-3,2,0,-7,7,12.165000000000001
2434,-9,-7,-33,-8,-4,-2,13,14,12.17
2435,2,-6,-4,5,2,-3,-16,-33,12.175
2436,-3,-2,-7,-10,2,-1,-11,-8,12.18
2437,0,5,-4,4,3,2,4,-1,12.185
2438,6,11,18,2,-2,0,7,11,12.19
2439,-2,-3,-35,-4,0,-5,0,13,12.195
2440,-6,-18,18,-5,-5,-1,9,-17,12.200000000000001
2441,0,1,17,12,3,5,-3,-3,12.205
2442,-4,2,-4,-15,-4,0,-3,0,12.21
2443,1,11,1,8,-5,-1,-1,13,12.215
2444,8,2,7,0,-2,-1,-8,-1,12.22
2445,0,-3,5,3,2,-4,-14,-5,12.225
2446,-7,3,-9,-1,-1,1,35,-4,12.23
2447,6,2,2,-4,-2,0,-13,15,12.235
2448,-14,-12,-14,-3,-3,0,0,1,12.24
2449,9,14,22,-1,0,-4,-5,9,12.245000000000001
2450,-5,-16,-36,-3,0,2,-9,-15,12.25
2451,2,-7,24,6,2,-2,3,-13,12.255
2452,-2,4,-6,1,-1,0,-1,8,12.26
2453,0,6,24,-1,-4,-1,-5,-4,12.265
2454,-4,-25,-74,-17,-1,2,-3,-5,12.27
2455,-8,14,33,16,0,-6,2,4,12.275
2456,-1,7,42,12,2,-1,-5,-14,12.280000000000001
2457,2,-11,-40,-9,-1,-1,7,5,12.285
2458,6,10,34,11,0,0,-10,-4,12.290000000000001
2459,-3,-4,-24,-10,-1,-3,-6,-3,12.295
2460,7,0,-26,-7,0,6,12,0,12.3
2461,-3,-1,1,2,-2,-1,-1,2,12.305
2462,2,4,11,1,0,0,-2,-3,12.31
2463,-3,-6,-9,-1,-1,-2,-7,-3,12.315
2464,0,5,7,-6,-2,-5,-5,-9,12.32
2465,-6,-11,-7,3,-1,2,17,11,12.325000000000001
2466,0,1,7,3,1,-3,-2,11,12.33
2467,9,2,11,0,-3,4,4,-4,12.335
2468,1,-1,-10,2,0,-3,-8,-5,12.34
2469,-3,-6,-15,-6,-2,2,-3,-4,12.345
2470,-7,-9,18,-1,-2,-5,-8,-2,12.35
2471,-2,1,0,-2,1,-1,4,-2,12.355
2472,-2,-1,-3,-3,-1,-1,-6,-1,12.36
2473,3,0,-11,1,-1,-3,2,12,12.365
2474,-1,1,12,3,-2,0,-4,-7,12.370000000000001
2475,-2,-4,-4,-6,-3,1,0,-3,12.375
2476,-2,-8,-17,-8,1,1,1,2,12.38
2477,-2,3,16,1,2,-1,-2,9,12.385
2478,2,5,-4,8,-2,-1,2,-13,12.39
2479,-11,-10,1,3,-1,-1,-9,-14,12.395
2480,1,6,7,5,-2,-1,-1,3,12.4
2481,-1,-8,-15,-5,-2,-1,7,-2,12.405000000000001
2482,1,-4,-2,-7,0,0,-1,1,12.41
2483,1,2,-3,-3,2,0,2,0,12.415000000000001
2484,-4,-4,-10,-4,-3,-2,-2,0,12.42
2485,0,1,4,2,-1,-1,-6,-2,12.425
2486,2,2,2,0,-3,0,1,-1,12.43
2487,-1,2,8,6,1,3,4,0,12.435
2488,-2,-6,-1,-2,-2,-6,-3,1,12.44
2489,-2,-3,-2,0,1,1,1,-4,12.445
2490,-4,-1,-3,-3,-5,-2,-3,-4,12.450000000000001
2491,4,3,2,0,-1,0,1,0,12.455
2492,0,-2,-4,-3,-1,0,1,-1,12.46
2493,0,1,0,1,0,-1,-3,-4,12.465
2494,-1,-2,5,0,2,2,-3,-1,12.47
2495,-3,0,0,-3,-3,-2,-1,0,12.475
2496,0,-2,-7,0,-4,2,4,1,12.48
2497,0,2,3,1,0,0,-2,-2,12.485
2498,0,2,2,-1,0,0,0,1,12.49
2499,2,3,0,-1,-2,0,-2,-1,12.495000000000001
2500,0,1,-4,-1,1,-2,1,0,12.5
2501,-3,-2,-1,0,-3,-1,-2,0,12.505
2502,0,-2,0,0,0,-2,1,-2,12.51
2503,0,-1,0,-2,-3,-2,2,-1,12.515
2504,0,-1,-4,-2,-1,0,-2,0,12.52
2505,1,1,1,1,2,-1,-1,-2,12.525
2506,-2,-1,-1,-3,1,0,-3,-1,12.530000000000001
2507,-1,-6,-2,-2,-2,-4,-2,-2,12.535
2508,1,2,2,1,-1,0,1,1,12.540000000000001
2509,0,-2,-4,-2,-1,-1,0,-1,12.545
2510,-2,0,2,1,1,2,1,1,12.55
2511,1,1,1,0,-1,-1,0,0,12.555
2512,3,-1,-1,-3,-2,-2,-1,3,12.56
2513,-1,-1,1,-2,-1,-1,-2,-2,12.565
2514,-5,-4,-2,0,1,0,0,-1,12.57
2515,-3,2,2,1,0,1,1,0,12.575000000000001
2516,-2,0,-4,-1,0,0,0,0,12.58
2517,4,2,-2,-1,-2,-2,-2,0,12.585
2518,-2,-1,4,1,-1,-3,-2,-4,12.59
2519,1,1,0,0,1,-1,-2,1,12.595
2520,-2,-7,-2,-2,0,0,6,3,12.6
2521,-2,-4,-4,-1,-3,0,0,-3,12.605
2522,0,-2,-1,-2,-2,-1,0,3,12.61
2523,1,5,1,2,-2,1,0,-3,12.615
2524,2,5,0,1,0,-1,-3,-4,12.620000000000001
2525,-3,-1,2,1,1,0,-2,0,12.625
2526,1,1,1,0,-4,-2,-1,-1,12.63
2527,0,-5,-6,-3,0,-1,3,0,12.635
2528,0,1,1,1,-1,0,1,-2,12.64
2529,0,-2,-1,-1,0,1,0,0,12.645
2530,3,1,-1,0,1,-3,-4,-1,12.65
2531,-1,0,5,0,1,1,-2,2,12.655000000000001
2532,1,0,-2,-1,0,-2,-4,0,12.66
2533,-5,-2,-1,-1,1,-1,1,-4,12.665000000000001
2534,-1,1,-1,0,0,0,1,0,12.67
2535,-5,-5,-3,-1,-5,-3,-3,-12,12.675
2536,-2,-4,0,1,0,0,-4,3,12.68
2537,0,0,0,-1,-3,0,1,5,12.685
2538,-1,1,-1,-1,1,0,1,1,12.69
2539,0,3,3,0,0,0,1,1,12.695
2540,-4,-3,2,-1,-1,-1,-7,-5,12.700000000000001
2541,0,-1,-2,-2,-4,0,4,-1,12.705
2542,-8,-9,-4,-2,-3,1,1,-1,12.71
2543,4,2,0,-1,0,-2,0,0,12.715
2544,-1,1,1,-1,-1,-2,-4,-4,12.72
2545,-5,-6,-1,0,1,-1,-4,-3,12.725
2546,1,0,1,-1,-2,1,3,-1,12.73
2547,0,3,1,0,-2,-1,-1,2,12.735
2548,-5,-3,-1,-2,-3,-1,1,-4,12.74
2549,1,2,0,1,0,-2,-2,-1,12.745000000000001
2550,2,0,0,-1,-1,-1,-5,-1,12.75
2551,-1,-1,-1,-3,-1,0,-1,2,12.755
2552,-2,-1,-3,0,-1,0,0,0,12.76
2553,0,1,0,0,0,-2,-2,-4,12.765
2554,-1,-3,-4,1,-1,-1,3,-2,12.77
2555,0,-1,1,1,1,0,-3,1,12.775
2556,1,0,-1,0,0,1,2,-1,12.780000000000001
2557,-1,0,-2,-1,-2,-1,2,0,12.785
2558,0,2,-1,-1,1,1,-6,-1,12.790000000000001
2559,-3,-4,-3,0,0,-1,3,-1,12.795
2560,-3,-4,-4,-5,-4,-3,-2,2,12.8
2561,0,-1,2,2,2,0,-1,5,12.805
2562,1,-3,-1,-2,-4,-3,1,-2,12.81
2563,1,0,-2,1,0,0,-2,-1,12.815
2564,-4,-5,0,1,4,2,3,-5,12.82
2565,-1,1,-1,1,-2,-1,-1,-2,12.825000000000001
2566,-1,-3,-1,0,1,1,2,0,12.83
2567,-2,-1,-1,-4,1,-4,-3,-3,12.835
2568,3,3,-2,0,-4,-2,-2,1,12.84
2569,-1,-1,0,-1,-1,-2,-2,-3,12.845
2570,-1,-2,1,0,0,0,-3,-2,12.85
2571,0,-1,-1,1,-1,-1,2,0,12.855
2572,0,1,0,-1,-1,-2,3,7,12.86
2573,-2,1,-3,-4,-3,-2,-8,-8,12.865
2574,-2,1,3,1,0,-1,1,-4,12.870000000000001
2575,-4,-2,-1,0,-1,1,-1,-3,12.875
2576,1,-5,-2,-1,-1,-1,3,2,12.88
2577,-3,-5,-1,-2,-1,-1,0,1,12.885
2578,-1,-2,0,-2,-1,-3,-2,-2,12.89
2579,0,0,-3,-2,-4,-2,-4,1,12.895
2580,0,1,1,1,-2,0,1,-3,12.9
2581,-2,-2,-1,-1,0,-3,-2,-1,12.905000000000001
2582,0,0,-1,-2,0,-1,-2,-1,12.91
2583,-2,-2,1,0,2,1,-1,-1,12.915000000000001
2584,-1,-4,-3,-3,1,-1,-2,-3,12.92
2585,1,2,0,1,0,2,1,-1,12.925
2586,1,7,-2,0,-2,-1,0,0,12.93
2587,-2,-4,-3,-2,-4,-2,0,7,12.935
2588,0,2,0,0,0,1,0,-2,12.94
2589,1,1,1,0,1,0,-4,1,12.945
2590,-1,-2,-1,1,-2,0,5,-1,12.950000000000001
2591,-1,0,-2,-1,-1,-1,1,-5,12.955
2592,0,0,0,-1,-1,-3,-1,-2,12.96
2593,0,-3,-2,0,-2,-1,1,-1,12.965
2594,-1,3,3,-1,-1,1,-3,0,12.97
2595,-4,-7,-2,-3,-3,0,-2,-4,12.975
2596,-2,-2,-3,-1,-1,0,0,0,12.98
2597,-4,1,1,3,-2,-2,0,-3,12.985
2598,-1,-2,-3,-1,1,-1,-2,0,12.99
2599,2,-1,-2,1,1,1,-3,1,12.995000000000001
2600,0,3,-2,0,1,1,0,-2,13.0
2601,-3,-4,-3,-2,-3,-2,2,0,13.005
2602,2,0,-2,-3,-2,-1,-2,2,13.01
2603,1,0,-1,0,0,-1,1,-1,13.015
2604,-2,0,0,0,0,0,-2,-1,13.02
2605,1,-1,-3,-1,0,1,2,-5,13.025
2606,0,-1,-1,-1,-1,-2,-5,6,13.030000000000001
2607,0,0,0,0,0,0,2,1,13.035
2608,1,2,1,0,1,4,0,0,13.040000000000001
2609,-3,0,0,0,-1,-1,-1,-1,13.045
2610,-1,-2,1,1,1,1,0,-5,13.05
2611,-2,1,-2,-2,-3,-2,-2,1,13.055
2612,-1,0,-4,-3,-4,-1,0,-2,13.06
2613,0,-1,-1,-1,0,0,1,1,13.065
2614,-1,-2,-1,0,-1,-1,-3,-3,13.07
2615,1,1,0,0,-1,0,0,0,13.075000000000001
2616,0,-4,0,-2,-2,-2,-2,-1,13.08
2617,-1,-1,-3,-1,0,-1,0,-1,13.085
2618,-2,-2,0,-1,-1,-1,2,-1,13.09
2619,1,4,1,0,-2,0,0,-3,13.095
2620,0,2,-1,0,0,-1,-3,-1,13.1
2621,1,-2,-3,-2,-3,-2,1,1,13.105
2622,0,-3,-1,1,0,-2,3,1,13.11
2623,-1,2,-1,1,4,0,-2,-1,13.115
2624,-2,1,0,-3,-3,-1,-5,-2,13.120000000000001
2625,0,-2,-3,-5,-5,-2,1,-1,13.125
2626,-2,-4,-1,-3,-1,-2,-2,-2,13.13
2627,-2,-5,-3,-1,-1,3,1,-1,13.135
2628,-1,-4,-2,1,1,2,0,1,13.14
2629,0,0,-1,-1,2,-3,1,-1,13.145
2630,1,2,0,-1,-1,1,0,0,13.15
2631,1,0,0,-1,-1,-5,-2,-3,13.155000000000001
2632,1,3,2,0,-2,-2,0,1,13.16
2633,-2,-6,2,3,1,1,-6,-3,13.165000000000001
2634,-2,-1,-4,-3,-2,-2,-1,-5,13.17
2635,2,0,2,0,-1,-1,3,7,13.175
2636,-1,0,-1,0,-2,-1,0,2,13.18
2637,0,2,0,-1,-2,-2,0,2,13.185
2638,-1,0,1,1,0,-1,-2,-2,13.19
2639,3,4,-1,0,-3,0,-4,-2,13.195
2640,0,-4,3,2,2,-1,0,-1,13.200000000000001
2641,2,3,4,2,2,2,-2,-2,13.205
2642,-3,-4,-7,0,-4,0,-5,-4,13.21
2643,0,-4,-2,-5,-4,-3,4,-1,13.215
2644,0,-2,-2,-3,-3,-3,-1,0,13.22
2645,-2,-1,-1,0,1,-1,-1,-2,13.225
2646,1,2,3,0,1,2,-1,1,13.23
2647,-2,1,0,-1,-1,-3,-3,-2,13.235
2648,-4,-5,1,0,-3,-1,-3,-3,13.24
2649,-2,0,1,0,-2,-1,2,-3,13.245000000000001
2650,-1,-2,-4,0,-2,4,-1,2,13.25
2651,-3,-5,-3,-2,-2,-2,6,0,13.255
2652,0,-1,-4,0,1,-1,-1,-1,13.26
2653,0,0,1,0,0,0,-2,0,13.265
2654,3,5,1,0,1,-2,0,0,13.27
2655,-2,-1,0,0,0,-1,-3,-3,13.275
2656,-3,-2,-2,-2,-1,-1,2,-4,13.280000000000001
2657,-2,0,-1,0,-3,-2,-8,-1,13.285
2658,-1,1,2,0,-3,-1,1,-1,13.290000000000001
2659,-2,-6,-4,-1,-2,0,-1,0,13.295
2660,0,-1,-2,-1,-1,-3,0,1,13.3
2661,0,0,-3,-1,1,1,1,0,13.305
2662,0,1,0,-1,1,-1,1,0,13.31
2663,-1,2,1,1,-1,-1,-2,-2,13.315
2664,-2,-2,-1,-1,-2,-1,-2,-3,13.32
2665,4,1,0,0,-1,1,0,2,13.325000000000001
2666,-1,0,1,1,-1,-2,-7,-7,13.33
2667,-2,-4,-4,-2,-1,0,7,8,13.335
2668,2,-3,-3,-3,-1,-3,1,3,13.34
2669,-3,-3,-1,-2,-3,-4,-3,-1,13.345
2670,-1,1,0,-3,1,1,0,0,13.35
2671,0,1,-1,-1,1,5,-6,-5,13.355
2672,-1,-1,-1,0,-1,0,-3,-2,13.36
2673,-1,-1,0,2,0,1,3,-1,13.365
2674,-1,-2,-1,-1,-3,-8,-6,-4,13.370000000000001
2675,-2,-7,-2,-1,1,1,3,-1,13.375
2676,0,-1,0,-1,1,0,-3,1,13.38
2677,4,0,-1,-1,-1,-3,-1,-2,13.385
2678,0,0,-1,-1,-4,-1,2,1,13.39
2679,1,3,2,-2,-2,1,-4,-2,13.395
2680,-3,-4,-1,1,1,-2,-1,-4,13.4
2681,-4,-1,-1,-2,-1,-2,-6,-2,13.405000000000001
2682,-1,-2,-2,-3,-2,0,11,3,13.41
2683,-1,0,0,-1,-1,-3,-2,-1,13.415000000000001
2684,-2,0,0,-2,-3,-1,1,0,13.42
2685,-1,-1,-2,0,2,2,-1,-1,13.425
2686,-3,-2,0,2,2,2,-3,1,13.43
2687,2,5,2,-1,-3,-3,-2,-1,13.435
2688,-1,-2,-1,-2,-2,-1,0,0,13.44
2689,-3,-1,-3,-1,0,-2,0,1,13.445
2690,3,4,3,-1,0,-1,-2,0,13.450000000000001
2691,-4,-5,-6,-1,-1,-1,3,-3,13.455
2692,2,4,-1,0,0,0,-1,0,13.46
2693,-2,-2,-1,-3,-2,-1,1,0,13.465
2694,0,-4,0,-1,-2,0,3,-1,13.47
2695,0,0,1,1,0,-3,-11,-2,13.475
2696,-1,1,-1,0,1,-3,0,-2,13.48
2697,-3,-5,-4,-3,0,1,2,-1,13.485
2698,1,1,0,2,0,0,1,-8,13.49
2699,-1,-2,0,-1,-2,-2,-7,4,13.495000000000001
2700,-2,-2,-1,-3,-2,1,3,3,13.5
2701,0,2,-1,2,-3,-3,1,1,13.505
2702,3,-5,-6,-4,0,-2,1,4,13.51
2703,3,2,2,-2,1,0,1,-5,13.515
2704,-3,0,3,4,2,0,-2,-3,13.52
2705,-2,-4,1,1,0,-1,-1,-4,13.525
2706,-6,-5,-4,-1,-3,1,1,-2,13.530000000000001
2707,-1,-1,-1,0,-2,-1,-1,-1,13.535
2708,-1,-3,-1,-1,1,-3,-3,1,13.540000000000001
2709,0,1,-1,-1,0,-1,3,-1,13.545
2710,-4,-2,-1,1,-1,-3,-5,1,13.55
2711,-2,-3,-4,-4,-3,1,3,-1,13.555
2712,0,-1,-2,-1,-1,-1,-1,-2,13.56
2713,-1,-3,-1,-4,-4,-1,-3,-1,13.565
2714,-1,2,0,0,1,-5,-5,1,13.57
2715,0,0,0,-1,0,-1,0,-1,13.575000000000001
2716,1,0,0,0,1,3,-2,-2,13.58
2717,-1,0,3,3,0,-2,-2,-5,13.585
2718,-1,-2,-3,-3,-2,-1,4,5,13.59
2719,2,-2,-1,-2,-1,-2,0,-2,13.595
2720,1,2,-1,-1,-2,1,3,-1,13.6
2721,2,3,-1,-1,-1,1,-3,3,13.605
2722,-2,-1,0,-2,-1,-1,0,-3,13.61
2723,-4,-1,1,2,-2,-4,-5,-10,13.615
2724,1,0,-1,-1,0,1,1,5,13.620000000000001
2725,0,0,-2,-2,-1,-1,5,3,13.625
2726,2,-1,-3,-2,-3,-2,-1,0,13.63
2727,0,-1,-1,-6,0,-2,1,-1,13.635
2728,-3,-2,0,-1,0,0,-3,-5,13.64
2729,-1,-2,-1,-1,-1,1,0,-1,13.645
2730,0,0,-1,0,0,-4,-7,-3,13.65
2731,0,1,-1,0,0,-1,0,0,13.655000000000001
2732,-1,-2,-2,-3,-4,-2,-2,-4,13.66
2733,-3,-5,-4,-2,-1,0,2,0,13.665000000000001
2734,-3,-1,0,-1,-3,0,-1,-3,13.67
2735,0,2,-3,-1,-2,0,-2,1,13.675
2736,0,3,-1,0,-2,-2,-2,0,13.68
2737,-3,-7,1,0,-2,0,-2,0,13.685
2738,-1,-1,1,0,5,2,0,0,13.69
2739,-1,-1,0,-1,1,1,-2,1,13.695
2740,-4,-4,-4,-2,-2,-1,-4,-1,13.700000000000001
2741,-1,-1,-2,-2,-4,-3,0,-4,13.705
2742,0,-1,-1,0,-3,0,7,-7,13.71
2743,3,-1,-1,0,1,0,-2,8,13.715
2744,2,3,-2,-1,-2,-2,-2,2,13.72
2745,-1,-3,0,-1,0,-3,-7,1,13.725
2746,-1,0,0,2,-1,1,0,-1,13.73
2747,-2,2,-1,-2,0,1,1,-4,13.735
2748,-1,-3,0,1,0,-1,0,-4,13.74
2749,1,2,-2,-1,-1,0,-2,-1,13.745000000000001
2750,0,-2,-3,-5,-2,-3,0,0,13.75
2751,-2,-1,0,-1,-1,-2,-1,0,13.755
2752,-3,-3,-1,0,-1,-1,1,-1,13.76
2753,-1,2,1,0,-1,-3,-8,-4,13.765
2754,0,-1,0,1,3,1,0,-1,13.77
2755,-1,-1,-1,-1,0,-4,-7,-1,13.775
2756,-1,0,-1,-4,0,-2,4,0,13.780000000000001
2757,1,0,1,1,0,0,5,0,13.785
2758,-3,-3,-3,-1,-1,-1,-4,1,13.790000000000001
2759,-3,-1,-1,1,-1,-1,1,-1,13.795
2760,1,-1,-2,-2,-2,0,-2,-5,13.8
2761,3,5,1,-2,-1,-1,-2,2,13.805
2762,-3,-2,1,0,-1,3,3,2,13.81
2763,-4,-1,-3,0,-1,-2,-2,-2,13.815
2764,-1,-3,-3,-2,0,-1,-3,-3,13.82
2765,1,-1,-1,0,-2,-1,0,0,13.825000000000001
2766,-1,3,1,-1,0,-2,-4,0,13.83
2767,1,4,0,0,0,3,2,0,13.835
2768,-1,0,1,-1,-1,-2,-1,0,13.84
2769,-1,-3,-3,0,0,1,-2,-3,13.845
2770,0,1,-1,0,-2,1,-1,-3,13.85
2771,0,-3,-2,1,0,-1,-2,-1,13.855
2772,1,0,-1,0,1,1,11,7,13.86
2773,-3,-2,-2,-4,-1,-4,-4,-1,13.865
2774,-2,-2,-2,-3,-3,-5,-3,1,13.870000000000001
2775,-3,-1,1,-1,-3,0,-2,-1,13.875
2776,0,1,-1,-1,-3,1,-4,-3,13.88
2777,-3,-6,-3,-2,0,0,0,1,13.885
2778,1,2,0,-1,0,4,-1,-4,13.89
2779,-3,-2,1,3,0,0,-4,0,13.895
2780,1,4,3,0,-1,0,-2,-2,13.9
2781,0,1,-2,-2,-4,0,2,3,13.905000000000001
2782,0,-4,-2,-1,-2,-2,0,0,13.91
2783,0,-3,-3,-1,0,-2,6,-2,13.915000000000001
2784,-2,-1,2,-1,-2,-2,-4,0,13.92
2785,0,3,0,-1,1,-2,-1,-3,13.925
2786,0,2,2,1,-1,0,-1,1,13.93
2787,-2,-4,-3,-2,-1,-2,0,0,13.935
2788,-2,-2,0,0,-1,-2,-1,-2,13.94
2789,0,-4,-1,-2,0,2,-1,-1,13.945
2790,3,-1,1,-1,-3,0,-2,4,13.950000000000001
2791,1,-3,-2,-2,-2,-1,2,0,13.955
2792,-4,-2,0,0,1,-1,-4,-4,13.96
2793,-2,0,-1,-2,0,2,4,-2,13.965
2794,-1,0,-3,1,0,-3,-4,-2,13.97
2795,-1,0,1,0,-2,-3,2,1,13.975
2796,2,-1,-2,-1,0,0,-3,6,13.98
2797,1,0,1,1,1,0,3,0,13.985
2798,-1,-2,-2,-3,-2,2,6,0,13.99
2799,-1,1,1,2,3,1,-8,-6,13.995000000000001
2800,0,-3,-3,0,-1,-3,1,-1,14.0
2801,-1,0,0,1,0,0,-1,3,14.005
2802,0,-2,-1,2,-1,-2,-4,-2,14.01
2803,1,-1,0,-1,-2,0,2,0,14.015
2804,1,4,-1,-1,-1,-1,-2,-3,14.02
2805,0,0,2,1,-1,-2,-5,-1,14.025
2806,1,0,-1,-2,-1,-1,-3,-3,14.030000000000001
2807,-4,-3,-3,-3,0,5,9,-1,14.035
2808,0,-1,-3,-2,-2,-1,-2,1,14.040000000000001
2809,-1,0,-2,-3,-3,-2,5,-4,14.045
2810,-3,1,0,-1,2,-3,-3,0,14.05
2811,-1,-2,-3,-3,-3,-6,-8,-1,14.055
2812,-3,-1,-1,2,-1,1,3,-2,14.06
2813,-3,-2,0,1,1,1,0,-1,14.065
2814,-1,-1,0,-1,1,1,0,-2,14.07
2815,-1,2,0,-1,-3,1,-5,-5,14.075000000000001
2816,-2,-4,-5,-4,-5,-4,-2,-1,14.08
2817,1,-3,0,-2,-1,-4,-3,7,14.085
2818,1,2,0,0,-2,-2,2,-1,14.09
2819,0,-3,-1,1,4,4,2,3,14.095
2820,0,3,0,1,1,-1,-1,-4,14.1
2821,-1,2,1,1,-2,-3,-1,-4,14.105
2822,-3,-6,-3,-3,-1,-1,1,0,14.11
2823,-1,0,1,-1,-1,-4,-4,-3,14.115
2824,0,-2,3,2,1,-1,0,-2,14.120000000000001
2825,-2,-1,1,-1,-2,0,2,1,14.125
2826,1,-3,-3,-2,-2,0,-5,1,14.13
2827,5,3,0,1,-1,-1,3,-1,14.135
2828,-1,-5,-4,-1,1,0,1,3,14.14
2829,0,0,-3,-1,-1,-2,-4,-2,14.145
2830,-6,-3,-1,-4,0,-1,4,-1,14.15
2831,-1,0,-1,-1,1,0,-1,0,14.155000000000001
2832,0,3,2,-1,-1,1,0,1,14.16
2833,0,-1,-2,-1,-3,-2,0,-2,14.165000000000001
2834,0,0,-2,-2,-2,-2,-7,-1,14.17
2835,-2,-4,-3,-1,-1,0,0,0,14.175
2836,1,1,-1,-1,-1,-1,1,-1,14.18
2837,-2,-1,-1,0,2,-2,1,-2,14.185
2838,-1,3,2,1,-2,0,-1,-1,14.19
2839,0,1,0,0,-2,-3,-4,1,14.195
2840,-2,-3,0,-4,-4,-2,-1,-4,14.200000000000001
2841,0,-3,-1,-1,0,1,-2,-3,14.205
2842,1,3,2,0,3,3,3,4,14.21
2843,-4,-1,-1,-2,-1,1,5,3,14.215
2844,2,-1,-2,-2,-1,-1,-5,0,14.22
2845,-2,-2,-2,-1,-2,-1,-1,-3,14.225
2846,-2,-1,-2,0,-2,-2,1,-2,14.23
2847,-2,-1,0,1,-1,-1,-1,0,14.235
2848,-3,-2,0,0,0,1,2,-5,14.24
2849,0,-1,-1,-2,-1,-3,-6,6,14.245000000000001
2850,0,1,-2,-1,-2,-2,-2,-2,14.25
2851,-1,0,-3,-4,-3,-2,2,2,14.255
2852,-3,-2,0,0,-1,-1,-1,-2,14.26
2853,0,-1,-2,-3,-1,2,3,-3,14.265
2854,-2,-5,0,0,0,-1,-1,-2,14.27
2855,0,-4,-5,-2,0,-3,-1,-4,14.275
2856,1,1,-1,1,1,-3,1,2,14.280000000000001
2857,1,0,0,-1,-1,1,-1,0,14.285
2858,1,-1,-1,-2,0,-1,-2,-1,14.290000000000001
2859,-2,-2,1,-2,0,0,-1,-1,14.295
2860,-1,-2,0,1,2,1,1,0,14.3
2861,-1,-2,-2,1,0,0,-3,-1,14.305
2862,-1,0,1,1,-2,-1,3,0,14.31
2863,1,0,-4,-2,-1,-2,0,-4,14.315
2864,-2,-3,-3,0,-4,-2,-3,3,14.32
2865,5,2,0,0,-1,0,-1,1,14.325000000000001
2866,1,1,-2,-3,-4,-2,-1,0,14.33
2867,2,4,1,-2,-1,2,1,0,14.335
2868,0,-1,0,0,0,-3,-9,-3,14.34
2869,-2,0,1,2,0,-3,-3,-4,14.345
2870,-2,-2,0,-1,1,3,3,-2,14.35
2871,-2,-1,-2,-2,-3,0,-1,-1,14.355
2872,-2,-2,-1,-3,-1,-2,0,0,14.36
2873,1,-1,1,-1,-1,-2,-3,0,14.365
2874,0,0,1,2,0,-2,2,0,14.370000000000001
2875,-1,0,2,1,-1,-3,-2,-2,14.375
2876,-3,-5,-4,-2,-1,2,4,-2,14.38
2877,-1,0,-2,-1,0,-3,0,-1,14.385
2878,-1,-2,-2,-1,-2,-3,-5,0,14.39
2879,0,-1,2,-2,-3,-2,-1,0,14.395
2880,2,1,1,0,-2,1,-1,0,14.4
2881,-3,-5,-4,-2,-1,0,2,-4,14.405000000000001
2882,0,-1,-2,1,1,2,2,1,14.41
2883,-3,-4,-2,1,0,-3,-2,1,14.415000000000001
2884,3,0,-1,-1,-2,-2,0,-3,14.42
2885,0,0,-1,-2,-2,0,1,1,14.425
2886,0,-1,-1,-2,1,-2,-7,-1,14.43
2887,2,2,1,0,-1,0,-1,0,14.435
2888,-1,-2,1,1,0,-1,-2,-1,14.44
2889,-3,0,0,-2,-1,-1,3,-2,14.445
2890,-2,-2,-4,-1,-3,-3,-1,-7,14.450000000000001
2891,2,0,-2,-1,-2,-3,-2,5,14.455
2892,0,1,-1,-1,-1,0,-1,1,14.46
2893,-1,-1,0,-1,-1,0,-1,-1,14.465
2894,-1,-2,0,2,2,0,0,-3,14.47
2895,-1,-1,-1,-1,0,0,-1,-3,14.475
2896,0,2,-1,-3,-2,0,1,1,14.48
2897,-3,-3,3,1,-1,0,-4,-3,14.485
2898,-2,-4,-6,-6,-2,3,3,1,14.49
2899,0,0,-1,-1,-2,-1,-2,-3,14.495000000000001
2900,1,0,1,-1,0,-2,0,0,14.5
2901,0,0,0,1,-1,-2,1,1,14.505
2902,0,4,3,0,-2,0,-4,-3,14.51
2903,-1,0,-1,-1,-2,-1,-4,1,14.515
2904,-4,-4,-1,0,1,-1,-1,-1,14.52
2905,-2,-1,-2,-2,-3,-1,-2,-1,14.525
2906,0,-2,0,2,1,0,1,0,14.530000000000001
2907,1,-1,-1,-3,1,3,7,-2,14.535
2908,2,4,0,0,0,-2,-1,-1,14.540000000000001
2909,-1,-2,-3,-2,2,-1,1,0,14.545
2910,1,-1,0,0,0,-2,-2,1,14.55
2911,1,2,2,0,0,-1,-1,-2,14.555
2912,-3,-5,-3,-3,2,0,-3,-4,14.56
2913,-1,1,1,0,0,0,-2,-1,14.565
2914,0,-1,-2,-3,-5,-1,-1,-1,14.57
2915,-1,-3,0,0,1,1,-1,-2,14.575000000000001
2916,-1,-2,0,1,-1,0,0,-2,14.58
2917,2,0,-2,-2,0,1,-1,4,14.585
2918,1,2,3,0,1,-3,1,0,14.59
2919,-6,-10,-3,0,-1,-1,-4,-1,14.595
2920,1,1,-2,-3,-2,-2,-2,-2,14.6
2921,-3,-2,-1,0,-1,-1,0,-2,14.605
2922,2,3,2,0,-1,-1,-2,1,14.61
2923,0,2,-2,0,-1,0,-1,1,14.615
2924,-1,-2,-2,-1,-5,-1,-2,1,14.620000000000001
2925,-3,1,-2,-2,-4,-2,8,-2,14.625
2926,0,-1,-4,-2,-1,-1,-5,-1,14.63
2927,1,-3,0,-2,0,-3,-1,-2,14.635
2928,0,0,0,-1,-1,0,-1,-1,14.64
2929,0,1,-1,0,-2,-1,-3,-1,14.645
2930,0,-1,-1,-2,-3,-2,-1,-1,14.65
2931,0,2,-1,-1,0,0,-3,0,14.655000000000001
2932,1,2,-1,1,1,1,0,0,14.66
2933,-1,-2,2,-1,-2,1,-4,-1,14.665000000000001
2934,-7,-7,-6,-3,1,0,2,-2,14.67
2935,0,0,-2,0,0,1,-1,-3,14.675
2936,-2,0,-2,-2,-1,-3,1,1,14.68
2937,2,1,-2,-3,0,-2,-1,-1,14.685
2938,0,1,1,0,0,0,-2,-1,14.69
2939,-4,-3,1,0,-3,-1,3,0,14.695
2940,-5,-4,-2,1,0,-1,-10,-4,14.700000000000001
2941,-2,-4,1,-1,1,1,1,1,14.705
2942,1,0,0,-1,-2,0,4,1,14.71
2943,0,-2,-1,-2,2,-2,-1,-2,14.715
2944,0,1,-2,-1,-3,-2,6,1,14.72
2945,3,3,0,-1,-1,-2,-6,-2,14.725
2946,-6,-5,0,1,-2,1,2,-1,14.73
2947,-2,0,1,2,-1,1,0,1,14.735
2948,0,0,0,-1,-2,1,-2,0,14.74
2949,1,0,-3,-2,-4,-2,-1,-1,14.745000000000001
2950,2,2,0,-1,-2,-5,-1,-1,14.75
2951,-2,-4,-3,-4,-2,-1,-2,-1,14.755
2952,-2,-3,-2,-4,0,1,0,1,14.76
2953,-3,0,0,1,1,0,-2,-1,14.765
2954,-3,1,1,0,0,0,-2,-2,14.77
2955,1,3,-1,0,0,-2,-2,0,14.775
2956,2,-1,-2,-1,-1,1,4,1,14.780000000000001
2957,-6,-4,-5,-2,-4,-2,1,-4,14.785
2958,0,1,2,-2,-1,-2,-4,-1,14.790000000000001
2959,1,-1,-3,-1,-2,-3,-3,-1,14.795
2960,1,0,0,1,2,1,2,0,14.8
2961,-3,-5,-2,0,1,2,6,-2,14.805
2962,0,0,-1,-2,-1,-3,-4,1,14.81
2963,-1,0,1,-2,-2,-1,-1,2,14.815
2964,-1,1,0,-1,-3,0,-2,-3,14.82
2965,2,-1,-1,0,-1,-1,-4,0,14.825000000000001
2966,1,0,0,-1,-1,1,3,-3,14.83
2967,-2,-4,-2,-2,0,0,0,0,14.835
2968,-1,1,-1,-2,-1,-2,-1,0,14.84
2969,-2,2,0,0,-1,0,1,-1,14.845
2970,-1,-2,-1,0,0,1,0,-2,14.85
2971,-2,2,-1,0,-2,2,1,-1,14.855
2972,-3,-2,-2,0,-1,-4,-3,0,14.86
2973,3,1,0,1,1,-1,4,1,14.865
2974,-2,-3,-5,-1,-1,-5,-3,-2,14.870000000000001
2975,-2,-2,-3,-1,1,1,-1,-3,14.875
2976,1,0,0,-1,-2,0,0,-3,14.88
2977,-4,-5,-1,1,3,0,0,-1,14.885
2978,-3,-3,-2,1,-1,-2,-4,0,14.89
2979,1,5,0,-3,-4,-7,1,-2,14.895
2980,-2,-2,2,-1,0,4,2,0,14.9
2981,0,-1,-2,-2,-2,1,-1,3,14.905000000000001
2982,-1,0,-1,-3,-2,-1,-3,0,14.91
2983,-3,-4,-3,0,0,0,-4,-2,14.915000000000001
2984,1,-1,1,2,1,-2,1,3,14.92
2985,2,-3,-1,1,-1,1,-2,-3,14.925
2986,1,2,0,-1,-2,2,1,0,14.93
2987,1,2,1,1,0,0,0,-1,14.935
2988,-8,-9,-4,0,0,-1,-2,-4,14.94
2989,-1,-2,-1,0,-1,-3,-2,-2,14.945
2990,1,0,-3,-2,-2,-2,1,0,14.950000000000001
2991,1,3,1,-1,1,0,-1,2,14.955
2992,3,8,2,0,-2,-3,-1,-1,14.96
2993,-1,-4,-2,0,1,-2,-3,0,14.965
2994,-2,-1,2,2,0,0,-2,-1,14.97
2995,-2,-4,-1,0,-1,-1,3,-1,14.975
2996,1,1,-1,-1,-3,-2,-1,-1,14.98
2997,-4,1,2,0,-1,0,-1,0,14.985
2998,-1,-1,-2,1,2,1,2,-1,14.99
2999,2,2,0,0,1,0,-5,0,14.995000000000001
3000,-2,-4,-3,-2,-2,-1,1,0,15.0
3001,-1,1,-2,-2,-2,0,-4,-3,15.005
3002,-2,-2,0,0,-2,-1,4,2,15.01
3003,0,0,0,2,0,0,3,-1,15.015
3004,-3,-4,-3,-2,-1,-4,-1,-1,15.02
3005,-2,-1,-2,-4,-1,0,3,0,15.025
3006,0,-2,-2,-3,0,0,-7,-2,15.030000000000001
3007,0,0,-1,1,0,-1,-3,-1,15.035
3008,-1,-3,-1,-2,0,1,-3,-2,15.040000000000001
3009,-2,0,-2,-2,-1,-4,-4,-1,15.045
3010,-4,-2,-1,-1,-1,3,5,-1,15.05
3011,-5,-4,-1,1,-2,-2,0,0,15.055
3012,0,0,0,-1,2,1,1,-5,15.06
3013,1,3,0,0,-2,-4,-2,4,15.065
3014,2,3,-3,-2,-1,-1,-5,0,15.07
3015,-2,-5,-2,-1,-2,-2,-4,-1,15.075000000000001
3016,-1,-1,1,1,0,0,1,-1,15.08
3017,0,-1,-3,-1,1,-2,1,-2,15.085
3018,-3,-2,0,-2,0,-2,2,-1,15.09
3019,-2,-1,-1,-3,-2,-1,1,-1,15.095
3020,0,-1,-3,-2,-3,-1,-4,0,15.1
3021,1,2,1,1,2,0,-4,-1,15.105
3022,-1,-2,0,0,-1,1,1,0,15.11
3023,0,0,-1,-1,-3,-1,-2,-1,15.115
3024,0,1,-1,-1,-1,-1,1,0,15.120000000000001
3025,-3,1,-2,-1,-3,-2,-2,-1,15.125
3026,1,-2,0,1,0,-4,0,-2,15.13
3027,0,2,0,-2,0,-1,0,-1,15.135
3028,1,2,-1,-1,-1,-1,-2,-1,15.14
3029,-6,-7,-2,-2,-1,-1,0,-3,15.145
3030,-1,-1,-3,-1,-1,-3,-8,-2,15.15
3031,-4,-7,-5,-4,-3,-1,8,-1,15.155000000000001
3032,-2,-1,1,-1,-2,1,-4,-1,15.16
3033,-1,-1,3,1,0,-1,-2,-3,15.165000000000001
3034,-1,-2,-1,-2,1,-1,4,0,15.17
3035,-2,0,1,-1,-1,0,-2,-1,15.175
3036,1,2,-2,2,-3,-3,-5,0,15.18
3037,-2,-2,-2,0,-1,-1,0,1,15.185
3038,1,1,1,1,-1,1,0,0,15.19
3039,1,1,0,0,1,2,0,-3,15.195
3040,-2,-3,-1,0,4,2,3,-5,15.200000000000001
3041,4,3,2,-2,-3,0,-2,3,15.205
3042,-1,-2,-1,-1,-2,-2,1,2,15.21
3043,-2,-2,-1,-2,-2,-2,0,-1,15.215
3044,1,0,0,-1,-2,2,-1,0,15.22
3045,1,-1,-2,-2,1,-2,0,-2,15.225
3046,-1,0,-2,0,0,-1,0,-1,15.23
3047,-1,-2,0,0,-1,-4,-4,0,15.235
3048,2,2,-1,-3,-4,-3,-3,1,15.24
3049,-1,-3,0,2,0,1,4,0,15.245000000000001
3050,0,1,1,-1,-5,-1,0,-1,15.25
3051,-1,-3,-2,-2,-1,-2,-6,-1,15.255
3052,-1,-1,1,-2,0,-2,2,-1,15.26
3053,-1,0,-2,-1,-2,0,-2,-1,15.265
3054,0,4,1,2,0,2,-3,0,15.27
3055,-3,-4,0,1,-3,-4,-3,-1,15.275
3056,-2,1,0,0,0,-1,3,0,15.280000000000001
3057,0,-2,-1,1,1,3,1,-2,15.285
3058,-3,-4,-1,0,-1,-1,-1,-1,15.290000000000001
3059,-1,3,0,1,1,0,0,-2,15.295
3060,0,-2,-2,-1,-2,-3,-1,-1,15.3
3061,0,-2,-1,0,-1,-1,1,-1,15.305
3062,1,1,-2,-2,-1,-1,-2,-2,15.31
3063,1,-2,-1,-3,-1,-4,-3,-1,15.315
3064,-2,-3,0,1,-2,0,0,-1,15.32
3065,0,4,1,-1,-1,0,-3,1,15.325000000000001
3066,-1,-4,-1,-1,-1,1,0,-2,15.33
3067,0,0,0,2,-1,3,0,2,15.335
3068,1,0,-1,-1,-3,-2,0,0,15.34
3069,-1,-1,0,-2,-1,-3,-5,-1,15.345
3070,-1,-3,1,-1,0,0,0,-1,15.35
3071,0,-1,-2,-1,-2,-2,-3,-1,15.355
3072,-1,0,-3,-1,0,2,6,0,15.36
3073,-2,0,-1,0,0,0,2,1,15.365
3074,3,-3,-2,-1,-1,-2,-2,-2,15.370000000000001
3075,3,0,2,0,2,2,6,2,15.375
3076,-1,-2,0,0,-3,-4,-11,1,15.38
3077,-1,1,1,-1,-1,-1,0,-1,15.385
3078,-2,3,0,-1,-1,-1,-1,-2,15.39
3079,0,-1,-1,-1,-1,1,0,-5,15.395
3080,4,2,2,1,0,-1,-2,2,15.4
3081,0,-2,-1,-2,-3,-2,0,-1,15.405000000000001
3082,-2,0,-1,1,-1,0,0,-1,15.41
3083,1,1,-3,-3,-1,0,1,2,15.415000000000001
3084,-3,-2,-1,0,2,4,5,-2,15.42
3085,-2,-2,0,-1,1,-5,-4,-8,15.425
3086,0,-3,-2,-1,1,-3,-1,10,15.43
3087,2,-1,0,-2,0,-2,-1,3,15.435
3088,-6,-6,-3,-3,-3,0,1,-2,15.44
3089,0,0,-3,0,-3,3,1,0,15.445
3090,0,-2,-3,0,-1,0,0,-4,15.450000000000001
3091,-5,-3,-1,2,-1,0,-2,-1,15.455
3092,-3,-2,1,0,1,1,-1,-3,15.46
3093,0,1,-3,-3,-3,-2,-1,0,15.465
3094,-3,-2,-1,1,-1,0,-2,-3,15.47
3095,-3,-3,-3,-2,0,-1,-2,-1,15.475
3096,2,0,-1,-1,2,-5,-3,-1,15.48
3097,0,-1,2,0,0,0,1,0,15.485000000000001
3098,-1,-1,0,-3,0,-2,-2,-1,15.49
3099,0,-1,0,-2,-2,1,3,-3,15.495000000000001
3100,-4,-4,0,0,-2,-2,-3,-1,15.5
3101,-1,-3,-3,-1,0,-2,-2,1,15.505
3102,3,2,-1,-1,-3,0,1,4,15.51
3103,-3,-1,-1,-3,-2,0,1,-2,15.515
3104,0,0,0,-2,-2,-1,0,0,15.52
3105,-2,-1,1,0,-2,0,-2,-1,15.525
3106,-1,1,-3,-2,-2,-2,-2,-2,15.530000000000001
3107,-3,-6,-2,2,1,2,0,0,15.535
3108,4,0,-2,-2,-1,-2,0,1,15.540000000000001
3109,-1,-1,-2,1,1,0,0,-1,15.545
3110,2,1,0,0,0,-3,0,-3,15.55
3111,0,2,-1,0,2,-1,-2,1,15.555
3112,-2,-5,-3,-2,-1,-2,-1,0,15.56
3113,-3,-4,-1,1,-3,0,2,0,15.565
3114,-3,-1,1,-2,-2,1,-1,-2,15.57
3115,0,2,-1,-2,-3,-3,-1,-1,15.575000000000001
3116,-1,2,1,2,0,1,-1,0,15.58
3117,3,5,0,-2,-1,-1,-1,0,15.585
3118,-6,-8,-2,2,0,1,-1,-1,15.59
3119,0,1,-1,-1,-2,-3,-5,-3,15.595
3120,-2,0,-2,-1,0,2,7,-1,15.6
3121,0,-1,-2,-2,-1,-1,-1,0,15.605
3122,2,3,1,0,-1,2,3,1,15.610000000000001
3123,1,3,2,2,-2,-2,-2,-1,15.615
3124,2,5,1,-5,-3,-2,-6,-1,15.620000000000001
3125,-8,-11,-2,-1,-1,-1,0,-4,15.625
3126,-2,-4,-2,1,0,0,1,-2,15.63
3127,4,-2,-1,-1,-1,-1,0,1,15.635
3128,3,1,1,3,2,-1,-1,1,15.64
3129,2,2,2,0,1,3,1,2,15.645
3130,-1,-1,-3,-3,-2,-3,-2,-2,15.65
3131,3,6,-2,-2,-2,0,0,-3,15.655000000000001
3132,-5,-5,-2,2,0,0,-1,-2,15.66
3133,3,0,0,-2,0,-2,-3,0,15.665000000000001
3134,0,-5,-1,1,-2,-2,3,0,15.67
3135,-2,-2,-3,-2,0,-2,-5,-2,15.675
3136,-1,0,0,0,-2,-1,-4,0,15.68
3137,-2,1,-1,0,-1,-1,-1,-1,15.685
3138,3,3,0,-3,1,-3,0,0,15.69
3139,-3,-3,-1,-1,-1,0,2,-2,15.695
3140,-1,-3,-2,1,1,-1,-2,-3,15.700000000000001
3141,1,1,0,-1,-1,0,0,-1,15.705
3142,0,0,0,-1,1,2,0,1,15.71
3143,0,1,-1,-2,-2,0,5,2,15.715
3144,-4,0,-4,-2,-2,-1,-7,-2,15.72
3145,5,0,-1,0,-3,-4,-1,1,15.725
3146,0,2,1,0,-1,-2,-4,-1,15.73
3147,-5,-5,-1,0,2,4,-1,1,15.735000000000001
3148,-3,-1,1,0,0,2,3,-2,15.74
3149,-1,0,-3,-1,0,-1,-6,-3,15.745000000000001
3150,0,0,-2,-2,-2,0,-1,-6,15.75
3151,0,-1,-1,-1,-3,-3,0,5,15.755
3152,0,-2,-1,-1,-2,-2,2,3,15.76
3153,-5,-4,-2,-2,-1,0,0,-3,15.765
3154,0,1,2,-2,0,2,0,0,15.77
3155,-3,-4,-1,-2,-1,-1,0,-3,15.775
3156,-2,-2,-2,-2,-1,-1,2,-2,15.780000000000001
3157,0,-1,0,-1,-1,-6,-10,-1,15.785
3158,1,1,0,0,1,-1,0,-2,15.790000000000001
3159,1,3,-1,0,-2,-3,-4,0,15.795
3160,0,-1,0,0,1,-1,-1,0,15.8
3161,0,-3,-1,0,1,2,2,-2,15.805
3162,0,0,1,1,3,-1,1,0,15.81
3163,-1,0,0,0,0,1,-3,-2,15.815
3164,-1,1,-3,-2,-4,-4,0,-3,15.82
3165,0,1,-1,-1,-2,-1,1,3,15.825000000000001
3166,-3,-4,-1,0,-2,-1,-3,1,15.83
3167,0,0,0,1,-1,-1,0,0,15.835
3168,3,1,0,-2,1,-1,-1,-1,15.84
3169,0,0,-1,-2,-1,2,1,-1,15.845
3170,1,1,0,-1,-1,0,-1,-1,15.85
3171,-4,-2,0,-1,-2,-1,0,-1,15.855
3172,1,2,-1,-1,-2,0,-4,-1,15.860000000000001
3173,-1,0,0,-1,-2,-2,-3,0,15.865
3174,-2,-2,-1,-2,-2,-2,2,1,15.870000000000001
3175,0,0,0,0,5,2,0,-2,15.875
3176,5,3,1,-1,0,1,2,1,15.88
3177,-2,-1,0,0,-1,-2,2,2,15.885
3178,-1,-2,-3,-1,-3,-4,0,-2,15.89
3179,0,0,-1,1,-2,-1,-9,-2,15.895
3180,-4,-6,-2,-2,-2,-3,-1,-2,15.9
3181,0,-1,0,2,1,5,1,0,15.905000000000001
3182,-1,0,-1,1,-1,-1,-1,-1,15.91
3183,-2,-3,-2,-2,-1,0,4,0,15.915000000000001
3184,0,3,0,-1,0,-2,-3,0,15.92
3185,-1,1,0,1,1,0,2,-1,15.925
3186,-4,-4,-3,-3,0,-1,-1,-7,15.93
3187,3,3,0,0,0,-5,0,8,15.935
3188,-2,-5,-1,0,-2,0,-2,-1,15.94
3189,-2,-3,-1,-2,-1,-1,0,1,15.945
3190,-1,-2,-3,-1,-2,0,-1,0,15.950000000000001
3191,-1,0,0,-1,0,-1,4,-6,15.955
3192,1,-5,-2,-2,-1,-2,-2,1,15.96
3193,-1,1,0,-1,-2,0,1,-2,15.965
3194,-1,1,-1,-3,-1,0,-5,0,15.97
3195,-2,-2,-1,-1,-2,1,0,-3,15.975
3196,-5,-5,-1,1,0,1,0,0,15.98
3197,-1,-1,-1,0,0,-1,-2,-2,15.985000000000001
3198,0,1,-1,1,-1,-1,-2,0,15.99
3199,0,-2,-2,0,0,1,0,0,15.995000000000001
3200,0,1,3,2,0,-2,-1,-3,16.0
3201,1,0,-3,-3,-2,-2,0,-1,16.005
3202,-6,-2,0,-2,-1,-2,-3,-1,16.01
3203,0,1,1,-1,1,-2,2,0,16.015
3204,-2,-2,-1,0,-2,0,1,0,16.02
3205,0,1,1,0,0,1,1,0,16.025
3206,1,1,-1,0,-3,-2,1,0,16.03
3207,-1,-2,-1,0,-3,-3,-9,-3,16.035
3208,-2,-2,-1,-3,-2,-3,-2,-1,16.04
3209,-3,-1,-3,-2,-3,1,3,-3,16.045
3210,-4,-2,0,3,1,0,5,0,16.05
3211,2,4,0,0,0,-1,0,-2,16.055
3212,-2,-2,-4,-2,0,-1,0,-1,16.06
3213,1,-1,1,-2,-1,-1,3,4,16.065
3214,-1,-3,2,0,1,-1,-2,1,16.07
3215,0,-1,-1,-2,-2,1,-1,-3,16.075
3216,4,6,3,2,2,-1,-1,-1,16.080000000000002
3217,-5,-8,-17,-8,0,-2,-1,1,16.085
3218,3,3,3,-1,-2,1,-5,-4,16.09
3219,3,6,21,7,1,0,1,-4,16.095
3220,-2,-1,-4,-2,0,1,0,-1,16.1
3221,0,3,10,6,1,1,3,-2,16.105
3222,-4,-6,-15,-5,-3,-2,-2,-4,16.11
3223,-1,-3,-9,-5,0,-2,-5,0,16.115000000000002
3224,-2,-4,-11,-4,-3,0,-1,-1,16.12
3225,-3,-14,-43,-14,-3,-1,1,2,16.125
3226,-2,-1,10,2,0,0,1,1,16.13
3227,0,5,32,12,-4,-2,3,-12,16.135
3228,-3,-9,-17,-4,1,-3,2,12,16.14
3229,1,13,58,6,-8,-7,-12,-6,16.145
3230,-3,2,-8,-6,-1,1,-7,-7,16.15
3231,14,7,23,17,6,3,-6,29,16.155
3232,-4,11,38,20,-1,-1,3,-9,16.16
3233,-1,7,4,6,-1,0,11,4,16.165
3234,-18,-7,-19,3,-1,-2,5,-9,16.17
3235,1,-21,-38,-37,-2,-1,1,-14,16.175
3236,-2,6,44,18,-2,-1,-49,-7,16.18
3237,4,0,-21,-1,4,3,30,-10,16.185
3238,16,0,-31,-10,2,7,15,3,16.19
3239,-3,-13,-21,-7,-2,8,27,31,16.195
3240,-10,1,30,-5,-3,0,-4,-24,16.2
3241,-17,4,22,3,-8,-7,-12,-13,16.205000000000002
3242,9,5,18,9,-1,1,1,21,16.21
3243,-6,-10,-48,-14,-1,-9,-11,-20,16.215
3244,0,-27,-90,-36,2,2,2,0,16.22
3245,-6,16,96,34,-3,-8,-14,0,16.225
3246,-4,-36,-115,-39,-2,0,11,17,16.23
3247,-1,28,112,26,0,3,-3,0,16.235
3248,0,21,29,26,-2,-6,-2,-20,16.240000000000002
3249,-1,-17,-60,-28,4,-4,-28,-16,16.245
3250,1,-13,-56,-8,2,-3,-18,-7,16.25
3251,1,19,53,3,-6,-2,15,5,16.255
3252,8,21,46,39,5,-1,-2,33,16.26
3253,8,-10,-47,-5,2,11,29,-1,16.265
3254,2,2,-13,-25,-7,-1,14,27,16.27
3255,-11,-17,-43,-11,-6,-5,-12,-27,16.275
3256,2,-13,-43,-27,0,4,14,-8,16.28
3257,4,25,50,31,0,-9,-47,15,16.285
3258,-6,7,85,16,-2,-1,-3,-17,16.29
3259,-3,-19,-81,-26,-2,1,14,38,16.295
3260,-7,-15,-26,-3,-5,-2,15,-27,16.3
3261,-5,2,1,9,-3,4,0,-28,16.305
3262,-1,5,46,12,0,-3,-24,-5,16.31
3263,1,-5,-31,-4,-1,3,30,36,16.315
3264,1,-14,-45,-32,-2,-3,-28,-14,16.32
3265,5,-30,-63,-49,-3,4,9,16,16.325
3266,-5,48,113,87,8,-10,-7,-32,16.330000000000002
3267,-2,-1,-34,-17,-7,-5,-22,7,16.335
3268,6,-13,-42,-10,-2,4,19,33,16.34
3269,1,2,29,0,-1,2,-4,-13,16.345
3270,-7,-8,-2,-19,-4,-5,8,20,16.35
3271,-4,-1,12,14,1,-6,-19,-37,16.355
3272,-1,-1,-32,-11,-3,-3,10,13,16.36
3273,-1,-4,-4,9,0,4,6,42,16.365000000000002
3274,-2,17,37,23,4,-2,7,-33,16.37
3275,2,-22,-114,-41,-1,4,-14,-30,16.375
3276,3,26,126,25,-3,-3,5,17,16.38
3277,5,10,4,1,3,2,-1,-15,16.385
3278,1,-12,-36,-13,-6,-2,-2,7,16.39
3279,-7,-2,22,14,1,-4,1,-3,16.395
3280,-4,-13,-57,-20,0,2,-8,-9,16.4
3281,-5,7,34,14,2,-4,2,7,16.405
3282,16,5,-13,-10,0,2,-6,22,16.41
3283,-5,3,2,8,2,4,11,-15,16.415
3284,-3,-3,4,-14,-4,-1,8,2,16.42
3285,15,20,50,23,0,-8,0,18,16.425
3286,-5,-22,-35,-25,-4,-4,2,-28,16.43
3287,2,-2,-5,1,3,-1,-25,-13,16.435
3288,-2,6,10,10,-1,5,11,5,16.44
3289,-3,-12,-64,-16,-1,0,4,-15,16.445
3290,0,10,68,5,-2,-3,-4,0,16.45
3291,-1,-1,19,5,-2,3,14,14,16.455000000000002
3292,3,-2,-42,1,-1,-1,-8,-10,16.46
3293,-12,-16,-38,-33,-3,-1,-12,-8,16.465
3294,13,17,47,43,4,2,0,12,16.47
3295,-3,10,27,2,-1,-6,0,-4,16.475
3296,2,-2,-29,-8,1,0,0,6,16.48
3297,-7,-8,-6,-7,-1,0,2,-10,16.485
3298,0,-10,-37,-25,-3,5,-5,11,16.490000000000002
3299,-3,5,19,19,2,0,-5,7,16.495
3300,0,0,3,0,-1,-3,5,-36,16.5
3301,-8,-19,-31,-9,0,-5,-32,-10,16.505
3302,-2,8,12,-1,-2,3,26,0,16.51
3303,6,4,1,-3,-1,3,2,3,16.515
3304,0,7,50,19,0,-4,-8,15,16.52
3305,3,-4,-33,-17,0,5,20,-10,16.525
3306,0,3,18,12,2,-4,-25,-20,16.53
3307,7,-9,-35,-13,1,0,-4,15,16.535
3308,2,15,48,13,-2,-6,8,-5,16.54
3309,-1,-12,-36,-7,-5,2,-16,6,16.545
3310,-6,0,-11,-24,1,-3,-3,5,16.55
3311,0,5,31,36,3,1,16,4,16.555
3312,-2,-3,16,-1,0,-2,-8,-3,16.56
3313,-1,-8,-42,-11,-4,-4,-15,0,16.565
3314,0,-3,27,4,-1,-2,14,8,16.57
3315,-4,-5,13,15,2,-2,-11,-6,16.575
3316,0,-4,-16,-4,1,-2,-7,-8,16.580000000000002
3317,1,16,39,19,2,-4,0,17,16.585
3318,-1,-20,-72,-32,-2,7,34,0,16.59
3319,-1,4,14,-2,-4,-5,-6,3,16.595
3320,-5,-2,15,5,-3,0,5,6,16.6
3321,3,-1,7,1,-2,2,3,-3,16.605
3322,-6,-7,-26,0,-3,-6,-9,-16,16.61
3323,-7,-12,-2,-18,-2,-2,-4,-6,16.615000000000002
3324,-3,2,-36,-8,2,5,8,-3,16.62
3325,0,24,68,27,0,0,2,6,16.625
3326,1,-11,-21,-8,-4,-2,-13,4,16.63
3327,-2,-10,-15,-6,-4,-3,0,-9,16.635
3328,2,12,-8,-12,-2,-3,-7,13,16.64
3329,1,-2,12,-1,2,2,16,-3,16.645
3330,-5,4,8,13,0,-3,-10,-4,16.65
3331,11,4,-36,-21,1,0,-5,1,16.655
3332,-5,-18,-18,-14,-2,-2,-2,-2,16.66
3333,-7,-2,48,43,2,-2,4,0,16.665
3334,-1,-1,-26,-13,-2,0,0,-26,16.67
3335,7,15,13,-3,-4,-1,-5,16,16.675
3336,2,0,0,-2,-4,-2,-6,15,16.68
3337,5,2,-18,-19,-2,-5,-6,-3,16.685
3338,6,4,15,10,1,2,-1,3,16.69
3339,-12,-2,2,1,0,3,18,-2,16.695
3340,1,-5,-5,3,-1,0,-3,4,16.7
3341,2,-3,-15,-19,-4,-3,15,18,16.705000000000002
3342,-2,12,45,20,5,0,-26,-25,16.71
3343,3,3,-18,-7,0,5,7,-5,16.715
3344,2,-4,23,13,2,5,12,0,16.72
3345,-4,-12,-37,-5,-2,-3,-12,-8,16.725
3346,2,2,9,-5,-2,-3,-3,11,16.73
3347,-4,7,28,21,1,-5,-8,-6,16.735
3348,0,-5,-14,-16,-1,-2,-10,-9,16.740000000000002
3349,2,8,13,6,1,-1,8,3,16.745
3350,-5,-11,-12,-2,-2,1,0,7,16.75
3351,-4,-12,-19,-10,-1,-1,-3,-5,16.755
3352,1,4,8,4,0,-2,2,-5,16.76
3353,-9,-13,-1,0,3,4,11,-2,16.765
3354,-2,-15,-41,-11,-7,-8,-5,13,16.77
3355,0,6,19,8,1,-1,-9,7,16.775
3356,1,3,3,2,0,-3,-4,-3,16.78
3357,0,-1,-2,-6,-2,-4,-3,-1,16.785
3358,-4,-4,-25,-12,-2,4,1,-4,16.79
3359,-6,-9,1,-4,-5,0,3,-6,16.795
3360,0,9,22,11,0,0,-7,1,16.8
3361,6,9,-10,-8,-1,0,-10,-4,16.805
3362,3,-1,2,5,5,0,16,9,16.81
3363,-4,-2,5,-1,-1,-3,0,-8,16.815
3364,-2,-7,-6,-3,-2,0,2,2,16.82
3365,-1,0,-2,1,-2,-2,-9,-8,16.825
3366,-1,1,-5,-4,-3,-3,-1,2,16.830000000000002
3367,2,8,19,7,-1,0,0,-2,16.835
3368,-2,-2,-8,-5,0,0,0,-2,16.84
3369,0,-10,-13,-7,-4,0,2,0,16.845
3370,0,6,20,1,3,-2,-5,3,16.85
3371,0,-2,-6,-2,-2,-5,-1,-2,16.855
3372,-2,-3,-4,7,0,1,0,1,16.86
3373,2,5,7,-1,-2,-1,2,-3,16.865000000000002
3374,-3,-1,3,-1,-2,0,2,0,16.87
3375,2,-1,-2,1,0,-2,-7,-5,16.875
3376,-4,-6,-8,-4,-1,1,2,1,16.88
3377,0,-2,-3,-3,-2,-1,2,-2,16.885
3378,3,0,-3,-2,-2,-2,-6,-1,16.89
3379,-4,-2,3,0,1,0,-1,-2,16.895
3380,-1,-1,-2,-4,-2,-1,3,-1,16.9
3381,-6,-5,0,1,-3,3,7,1,16.905
3382,-3,-1,-1,0,-1,-2,-11,0,16.91
3383,2,3,3,0,-2,-1,3,-2,16.915
3384,-2,0,-4,-2,-1,1,-3,-2,16.92
3385,2,3,4,1,1,-1,0,-2,16.925
3386,-1,0,-4,1,0,0,1,2,16.93
3387,-1,0,-1,-2,-2,-1,-5,-1,16.935
3388,-3,-3,-1,-3,-1,-3,-1,-11,16.94
3389,-1,-3,3,1,2,1,1,3,16.945
3390,0,-1,-5,-2,-1,1,-1,6,16.95
3391,0,0,-2,0,-1,-1,-1,0,16.955000000000002
3392,1,-2,1,-2,-2,1,1,2,16.96
3393,0,-3,-1,-1,-1,1,-2,-8,16.965
3394,-1,0,-3,-1,0,0,0,-3,16.97
3395,-1,-1,4,0,-1,-1,-2,0,16.975
3396,-1,0,-1,-1,0,0,-1,-1,16.98
3397,0,-1,-3,0,-1,-1,-3,-2,16.985
3398,0,-1,0,-2,-1,-2,0,0,16.990000000000002
3399,-1,0,3,0,-2,-4,-2,-2,16.995
3400,2,1,-2,0,1,-2,-2,3,17.0
3401,-2,0,-2,-1,1,-1,1,0,17.005
3402,-1,-3,-3,-2,-2,-1,0,0,17.01
3403,2,3,1,0,-2,-2,-2,-1,17.015
3404,2,3,-1,0,-1,-1,1,0,17.02
3405,-1,-1,2,-1,1,0,7,1,17.025
3406,-4,-3,-5,-2,1,-2,-3,-2,17.03
3407,-3,-3,-1,-4,-2,-2,-1,-3,17.035
3408,3,-1,0,2,1,-1,-3,3,17.04
3409,3,5,2,0,-2,-1,-2,1,17.045
3410,-1,1,-1,-1,0,0,1,-1,17.05
3411,0,0,-2,1,-2,-1,-3,0,17.055
3412,-5,-3,-3,2,1,0,1,0,17.06
3413,3,2,0,-1,-1,-2,-2,-1,17.065
3414,-1,-4,-2,-4,-3,-3,-3,-2,17.07
3415,-2,-1,-2,-1,-1,-3,-1,-1,17.075
3416,1,0,-1,-1,-2,-2,2,5,17.080000000000002
3417,0,1,-2,-2,-1,0,-1,1,17.085
3418,-1,-1,-1,1,-1,0,0,1,17.09
3419,-2,-1,-1,-3,-1,-3,-3,-4,17.095
3420,-2,-6,-4,-1,-3,0,0,-2,17.1
3421,-4,-2,-3,-1,0,-2,-2,-1,17.105
3422,1,0,-2,-1,-3,0,1,-4,17.11
3423,1,1,0,2,0,1,-2,2,17.115000000000002
3424,1,-2,0,-1,2,-1,2,3,17.12
3425,-2,-2,-1,1,1,-2,-3,0,17.125
3426,-5,-2,-2,-1,0,-3,-1,-1,17.13
3427,2,0,1,-1,-2,1,-3,-3,17.135
3428,0,1,1,-1,-1,-2,-1,-3,17.14
3429,1,0,-2,-2,-1,0,-3,-2,17.145
3430,1,-2,0,0,0,1,2,-2,17.150000000000002
3431,-2,-4,0,-2,0,0,4,1,17.155
3432,-1,0,1,0,-2,-1,-2,-2,17.16
3433,-1,-2,0,1,-1,-2,-1,-3,17.165
3434,-2,-1,1,0,-2,1,-2,-3,17.17
3435,-3,-4,-3,-3,0,0,0,8,17.175
3436,1,-1,0,-3,0,-2,0,0,17.18
3437,-5,-4,2,-1,-1,0,0,2,17.185
3438,-2,-1,-4,0,-1,0,-3,-1,17.19
3439,-1,0,1,0,0,1,1,-3,17.195
3440,0,4,3,3,-2,-3,-3,-4,17.2
3441,0,-2,-5,-5,-4,-1,-2,-1,17.205000000000002
3442,-1,1,-1,-1,-1,-1,0,-5,17.21
3443,1,0,0,-2,-3,0,1,1,17.215
3444,-3,-3,-3,-1,-3,-3,-1,1,17.22
3445,1,0,2,1,0,-2,1,1,17.225
3446,0,1,0,-2,0,-3,0,2,17.23
3447,1,2,0,-1,3,1,-1,-3,17.235
3448,-4,-5,-2,-2,0,3,0,-1,17.240000000000002
3449,-1,-1,-3,2,0,-1,-3,-2,17.245
3450,1,-1,1,1,-1,-1,2,1,17.25
3451,-1,0,1,-1,-1,-4,-2,-1,17.255
3452,0,-2,-2,-2,-3,-1,-3,-1,17.26
3453,-1,2,-1,-2,0,-1,-1,-2,17.265
3454,-2,-1,0,0,1,-1,-3,1,17.27
3455,2,2,-1,0,-1,-1,0,-1,17.275000000000002
3456,0,-2,-1,-1,-1,1,-1,0,17.28
3457,2,0,-2,-2,-4,-3,-2,1,17.285
3458,-4,-3,-2,-2,-2,-2,-1,-3,17.29
3459,-3,1,-2,0,-1,0,0,-3,17.295
3460,-5,-2,0,-1,0,0,-1,-3,17.3
3461,5,-1,0,0,0,-1,1,1,17.305
3462,-2,1,-1,-3,-2,0,2,2,17.31
3463,-4,-3,-1,2,0,-1,0,-1,17.315
3464,1,0,-2,3,0,-2,-3,0,17.32
3465,-8,-5,-1,-2,-1,-1,2,-4,17.325
3466,4,2,-2,-2,0,-1,0,1,17.330000000000002
3467,0,-2,-1,0,-3,0,-2,-1,17.335
3468,1,-1,-1,0,-1,0,-1,-2,17.34
3469,-1,-1,0,-1,-2,-1,1,-1,17.345
3470,-2,-2,-4,-2,-1,1,-1,-1,17.35
3471,-2,-2,-3,-1,-1,-1,-2,-2,17.355
3472,2,3,2,-1,-1,-3,-4,0,17.36
3473,2,3,1,-2,-2,1,6,0,17.365000000000002
3474,-2,-3,-1,-2,0,-1,-3,-1,17.37
3475,-1,-3,-2,-2,0,-1,2,-1,17.375
3476,-3,0,-1,2,1,1,0,2,17.38
3477,0,2,0,1,1,-1,-5,0,17.385
3478,1,-3,-1,1,0,-1,-3,-2,17.39
3479,-1,-1,-2,0,-1,-2,-1,1,17.395
3480,2,5,-1,0,-1,-3,-2,-12,17.400000000000002
3481,-2,1,-1,-3,-3,-2,-2,3,17.405
3482,-4,-2,1,1,-2,-1,2,0,17.41
3483,0,-3,-1,0,-2,-1,-1,1,17.415
3484,1,0,-2,-1,-1,-1,1,1,17.42
3485,1,1,-1,-1,0,0,-2,-3,17.425
3486,4,-1,0,0,-1,-3,-4,-1,17.43
3487,0,-2,-1,0,0,0,2,1,17.435
3488,-3,-2,0,-2,-1,3,-1,-1,17.44
3489,-2,1,0,0,-2,-2,-2,-4,17.445
3490,-1,-3,-4,0,-1,0,0,2,17.45
3491,-2,-1,-1,2,2,-1,-1,-1,17.455000000000002
3492,-1,-2,-1,-3,-2,-2,0,-1,17.46
3493,-2,-2,-1,-2,-2,1,-3,0,17.465
3494,-1,0,1,-3,-1,2,0,0,17.47
3495,1,1,-1,-2,-1,-2,-2,-1,17.475
3496,4,5,0,-1,1,-3,0,1,17.48
3497,3,2,0,-1,-2,0,0,0,17.485
3498,-2,0,-1,-1,-2,-1,0,-4,17.490000000000002
3499,-1,-1,-2,-1,-3,-1,-1,0,17.495
3500,-1,-2,-3,-4,-1,-3,-1,1,17.5
3501,0,-3,0,0,1,-1,0,-2,17.505
3502,1,0,0,-1,3,0,-1,0,17.51
3503,-2,-3,-1,-1,0,1,-1,-2,17.515
