slno,emg1,emg2,emg3,emg4,emg5,emg6,emg7,emg8,Time
0,0,0,0,-2,-13,-2,-3,0,0.0
1,2,3,4,2,23,7,2,1,0.005
2,-3,-4,-5,14,-7,-2,-1,-2,0.01
3,-1,-2,-3,-4,2,-4,-1,-2,0.015
4,0,1,0,0,5,1,0,1,0.02
5,-2,-3,-2,6,-10,-2,-1,0,0.025
6,0,2,2,1,-10,-2,-3,0,0.03
7,-2,0,1,-21,4,6,0,-1,0.035
8,-1,-2,-2,10,-14,-3,-2,-2,0.04
9,-2,-2,-4,-3,4,-2,-2,-1,0.045
10,-1,-1,0,-14,-8,-3,-1,-1,0.05
11,-1,-1,-3,8,4,-2,0,-2,0.055
12,-1,2,3,-17,-7,1,0,0,0.06
13,-2,-6,-4,-18,-9,-3,-1,-2,0.065
14,0,-1,-1,-1,-3,0,-1,-1,0.07
15,1,1,1,1,-9,-2,0,0,0.075
16,-1,-1,-1,34,23,1,-1,-3,0.08
17,-1,0,-2,-11,-19,-6,-1,-2,0.085
18,2,1,2,-37,7,4,1,0,0.09
19,2,2,2,33,14,0,0,1,0.095
20,-2,-4,-7,-2,-8,-2,0,-2,0.1
21,-1,-1,0,21,-1,-4,-3,0,0.105
22,1,0,-1,-16,-1,0,-2,-1,0.11
23,0,-1,0,-1,-2,-1,0,-2,0.115
24,0,1,-1,-3,-1,3,-1,0,0.12
25,-2,0,-1,-5,-5,-1,-1,-2,0.125
26,0,-1,-2,-23,-6,0,-1,1,0.13
27,-3,-3,-3,9,-27,-6,-2,-2,0.135
28,0,2,1,7,34,2,0,0,0.14
29,0,-1,-2,34,13,1,0,0,0.145
30,0,3,1,-7,-7,1,-1,0,0.15
31,-1,-3,-2,19,-20,-3,-1,-2,0.155
32,-4,-3,-3,-2,3,-1,-1,-2,0.16
33,-2,-1,-1,3,-6,-1,-2,-1,0.165
34,0,-1,-1,-4,15,-2,-2,-1,0.17
35,-1,0,1,32,-6,-1,-2,-2,0.17500000000000002
36,-1,-1,-4,-94,-41,-6,-2,-1,0.18
37,-2,-6,-4,77,57,5,1,-1,0.185
38,-2,-4,-5,8,-15,-3,-2,-2,0.19
39,-1,2,1,-9,40,4,0,1,0.195
40,0,-1,3,18,-31,-5,0,-1,0.2
41,-2,0,-2,-52,-19,-5,-3,-1,0.20500000000000002
42,-2,0,0,-1,5,4,1,1,0.21
43,0,1,0,-8,65,6,0,-1,0.215
44,-2,-3,0,16,0,-1,-1,0,0.22
45,0,1,2,-16,-13,-3,0,-1,0.225
46,-2,-2,0,11,-4,-2,0,-2,0.23
47,-2,-2,-1,-20,-21,-2,-1,0,0.23500000000000001
48,1,0,-1,16,11,1,-1,-1,0.24
49,0,3,0,-9,-4,1,0,2,0.245
50,-1,-3,-2,-8,-7,-5,-3,-1,0.25
51,-2,-3,-4,-13,-5,2,0,-1,0.255
52,-1,0,-3,15,1,-1,0,-1,0.26
53,0,-1,0,-4,-20,-4,0,0,0.265
54,1,4,5,-14,-26,0,1,0,0.27
55,1,0,-1,38,37,3,0,-1,0.275
56,-1,-3,-2,67,7,-1,0,-1,0.28
57,0,1,0,-48,-2,0,-1,0,0.28500000000000003
58,0,-1,-1,27,0,-1,-1,-2,0.29
59,1,2,2,-16,21,6,2,-1,0.295
60,-3,-1,-2,2,-24,-6,-3,-2,0.3
61,1,0,2,-38,-21,2,1,1,0.305
62,-2,-4,-3,15,49,2,-1,-2,0.31
63,0,-2,-1,-5,-24,-4,-2,-1,0.315
64,2,0,1,-13,1,-3,-1,0,0.32
65,-2,-3,0,1,-4,1,0,-1,0.325
66,0,-1,0,-11,-7,-3,0,-1,0.33
67,-1,-1,-5,-12,-20,-2,-2,-1,0.335
68,-2,0,-1,-16,-1,-1,-2,0,0.34
69,0,0,-1,2,-1,-1,-2,-1,0.34500000000000003
70,0,0,0,18,2,1,-1,-2,0.35000000000000003
71,-1,1,2,-2,-10,-3,-2,-2,0.355
72,1,0,-1,-8,6,2,0,-2,0.36
73,-2,-5,-5,-8,2,-3,-2,-1,0.365
74,-3,-2,-3,20,4,0,0,-1,0.37
75,-1,-1,1,-11,-14,-3,-1,-1,0.375
76,-1,-1,-1,-6,7,0,0,0,0.38
77,-2,-2,0,1,-4,-1,0,-2,0.385
78,0,0,1,-13,-4,-1,-2,0,0.39
79,1,-1,-2,-8,-10,-3,-2,-1,0.395
80,-1,-2,-1,2,6,-1,0,0,0.4
81,-1,-1,-2,9,0,0,-2,1,0.405
82,0,2,-1,-7,4,2,0,0,0.41000000000000003
83,0,0,0,21,-15,-4,-2,-2,0.41500000000000004
84,-2,2,2,-17,24,4,1,-2,0.42
85,-1,-1,-2,3,-1,-2,1,-2,0.425
86,-2,-1,-3,-42,-16,-6,-1,-2,0.43
87,1,2,-2,28,19,3,1,1,0.435
88,-1,-3,-4,-4,-8,-2,-2,-2,0.44
89,-2,0,0,15,-11,-2,-3,-2,0.445
90,-2,-1,-2,13,3,-2,0,0,0.45
91,-2,0,2,11,-12,-2,1,0,0.455
92,-3,-1,-1,7,0,-1,0,-1,0.46
93,0,-1,0,19,-2,-3,-2,0,0.465
94,2,-2,-4,-18,-12,-1,-1,0,0.47000000000000003
95,-1,-1,0,-8,1,0,-1,0,0.47500000000000003
96,-2,-3,-5,17,-13,-1,-2,-1,0.48
97,0,-1,-1,-26,-14,-5,0,0,0.485
98,-1,1,1,7,1,1,0,0,0.49
99,-1,-2,0,-19,-6,-1,-1,0,0.495
100,1,-2,0,-46,-26,-3,0,-1,0.5
101,-1,-3,-3,85,55,4,-1,-2,0.505
102,-1,0,-1,-38,-10,-3,-2,-3,0.51
103,-1,-3,-4,-10,-4,0,-1,-1,0.515
104,-2,0,0,-24,-25,-4,-2,0,0.52
105,1,2,0,-55,-25,-2,0,0,0.525
106,1,0,1,20,-18,-5,0,1,0.53
107,-2,-2,-3,-24,29,4,-1,-3,0.535
108,0,-1,-2,10,10,2,-2,-2,0.54
109,-2,-1,-2,-8,9,-2,-1,-1,0.545
110,-1,0,0,19,11,1,-3,0,0.55
111,2,0,0,-39,-40,-1,0,0,0.555
112,-1,1,-1,30,13,-2,-1,-1,0.56
113,1,4,5,5,18,9,3,3,0.5650000000000001
114,-3,-2,-3,-20,-11,-2,-2,-3,0.5700000000000001
115,-1,-1,-2,-19,-1,-4,0,-1,0.5750000000000001
116,-1,-2,-1,4,4,3,-1,1,0.58
117,-1,-1,0,2,-9,-2,-1,-1,0.585
118,-2,-2,-2,10,19,0,-1,-1,0.59
119,-3,1,3,23,0,-5,-2,-1,0.595
120,1,2,3,17,-2,5,2,1,0.6
121,0,0,0,1,21,0,-2,-1,0.605
122,0,-2,-1,15,0,0,-3,-2,0.61
123,1,1,-1,8,14,-2,0,0,0.615
124,-1,0,1,11,6,2,0,0,0.62
125,-2,-1,-3,-23,-33,-6,-2,-2,0.625
126,0,1,4,35,3,4,3,0,0.63
127,-1,-2,-3,-24,-16,-3,0,-1,0.635
128,-1,-3,-2,3,24,0,-2,-1,0.64
129,0,-1,-2,-36,-5,0,2,-1,0.645
130,1,-2,-2,21,1,-1,-1,-2,0.65
131,0,-1,-2,-10,-26,-3,-2,0,0.655
132,-1,1,0,-12,2,-6,-2,-1,0.66
133,-1,-2,-2,-27,-6,2,-1,0,0.665
134,-1,-2,0,12,-2,-2,-1,1,0.67
135,-1,-1,-1,24,15,-1,-2,-3,0.675
136,-1,-2,1,-19,-30,0,-2,-1,0.68
137,-1,-3,-3,11,18,-3,-3,-2,0.685
138,-1,0,0,-28,-4,0,1,2,0.6900000000000001
139,0,0,1,3,37,5,0,-1,0.6950000000000001
140,-3,-2,-2,1,-13,-3,-3,-2,0.7000000000000001
141,0,-1,0,10,-18,-5,-1,-1,0.705
142,-1,-1,-2,-6,0,-3,0,-1,0.71
143,2,1,0,7,-16,3,1,0,0.715
144,2,1,-1,10,11,0,1,0,0.72
145,-1,0,1,-30,16,7,0,0,0.725
146,-2,0,-1,-3,-4,-1,0,-1,0.73
147,0,-3,-2,-20,-11,-3,-3,-1,0.735
148,-2,0,0,36,-3,-2,-2,-2,0.74
149,-2,-2,-2,17,-11,-3,-1,-2,0.745
150,-1,-1,1,-7,10,3,1,-1,0.75
151,-2,-3,-3,-39,-25,-6,-1,-2,0.755
152,0,1,-1,-1,9,5,1,0,0.76
153,-2,-1,1,22,-2,-4,-3,-2,0.765
154,1,-1,0,-5,9,2,-2,-1,0.77
155,-2,-2,-1,57,-23,-5,-1,1,0.775
156,2,-1,-1,-22,55,6,2,0,0.78
157,-1,-1,0,34,-15,-5,1,-2,0.785
158,-2,0,-1,-12,6,1,-1,-1,0.79
159,0,-1,-1,-11,15,-1,-2,-2,0.795
160,-1,1,2,3,-14,-2,-1,-1,0.8
161,-1,-1,-4,12,-14,-6,-1,-1,0.805
162,0,0,-1,10,17,2,-1,1,0.81
163,-2,-2,0,31,-12,-5,-2,0,0.8150000000000001
164,-3,-2,-1,-16,-5,0,-1,-1,0.8200000000000001
165,-1,-1,1,-7,0,0,1,-1,0.8250000000000001
166,-1,-4,-3,11,10,2,-2,0,0.8300000000000001
167,0,2,-1,-4,2,-4,0,0,0.835
168,1,-2,-3,-19,-7,-4,-1,-1,0.84
169,-1,-3,-3,5,3,-1,-1,-2,0.845
170,-2,-1,1,0,-12,-4,-1,-2,0.85
171,0,1,1,-4,2,11,2,-1,0.855
172,-2,-2,-1,8,2,-4,-1,0,0.86
173,-1,0,-1,-27,24,-1,-2,-1,0.865
174,-1,-1,-2,-23,-27,-5,0,0,0.87
175,-2,0,0,-3,30,3,0,-1,0.875
176,0,-2,-1,2,-18,-5,-2,0,0.88
177,-1,2,1,20,-4,2,1,-2,0.885
178,1,-2,0,-3,-20,-4,-3,-2,0.89
179,-3,-4,-4,-45,-19,-5,-1,-1,0.895
180,0,0,-2,32,6,0,-2,-1,0.9
181,0,-2,-2,-4,-8,-2,-1,0,0.905
182,-3,-1,-1,47,31,3,0,-1,0.91
183,0,0,0,13,14,0,-1,1,0.915
184,0,-1,0,-7,20,1,2,0,0.92
185,-1,0,-1,7,3,-2,-1,0,0.925
186,2,1,0,-31,-41,-4,-1,0,0.93
187,1,0,-1,29,12,2,1,-1,0.935
188,-1,-1,0,-14,14,0,-1,-1,0.9400000000000001
189,0,-1,-2,-3,-6,0,-1,-2,0.9450000000000001
190,-2,0,-1,-6,-9,-3,0,-1,0.9500000000000001
191,-1,-1,0,5,-2,0,0,0,0.9550000000000001
192,-1,1,-1,20,-19,-1,0,-1,0.96
193,-1,-3,-2,-41,2,2,0,-1,0.965
194,-1,-4,-3,-14,8,2,-1,-2,0.97
195,0,-1,1,12,-1,-6,-2,-1,0.975
196,-2,-1,-2,1,13,4,1,1,0.98
197,-1,1,2,-34,-18,1,1,0,0.985
198,-2,-4,-4,46,1,-4,-3,-1,0.99
199,-1,2,1,-7,-4,1,-1,-1,0.995
200,-2,-4,1,21,20,-2,-1,-2,1.0
201,1,0,-3,6,-8,2,0,1,1.0050000000000001
202,-2,-2,-3,-9,18,-4,0,-2,1.01
203,3,3,3,-16,-34,3,3,3,1.0150000000000001
204,-1,-1,-1,-12,-37,-6,-3,-2,1.02
205,-1,0,0,29,21,-1,-2,1,1.025
206,2,0,0,2,12,3,-2,-1,1.03
207,-1,-2,-4,2,-12,-6,-1,-1,1.035
208,-1,1,2,13,-16,-1,1,0,1.04
209,0,-1,-1,7,6,-2,-1,0,1.045
210,0,1,1,-23,-21,7,1,0,1.05
211,-1,-1,-2,-2,21,0,-1,-2,1.055
212,0,-2,-4,-36,-23,-5,-1,-1,1.06
213,-1,-4,-2,55,10,-1,0,-1,1.065
214,1,4,2,-2,6,-1,0,0,1.07
215,-2,-6,-4,4,14,-2,-1,-3,1.075
216,0,2,-2,-65,-9,1,-2,-1,1.08
217,0,-1,2,39,-28,-8,-1,0,1.085
218,-1,-2,-2,-31,32,3,2,0,1.09
219,-1,-2,1,8,2,0,1,-1,1.095
220,-2,-4,-2,1,-11,-5,-2,-1,1.1
221,-1,1,1,-44,5,3,0,-1,1.105
222,2,1,2,26,-4,3,1,2,1.11
223,-2,-1,-2,-12,16,0,-2,-1,1.115
224,-2,-2,-2,-17,-2,-3,-1,0,1.12
225,-1,-2,-2,-18,-2,0,-2,0,1.125
226,0,-2,-1,-8,-20,-2,-1,0,1.1300000000000001
227,-1,-3,-5,-52,1,-3,-4,-3,1.135
228,0,0,-1,10,12,6,1,-1,1.1400000000000001
229,-2,-1,1,-16,0,-2,-1,-1,1.145
230,0,0,0,7,-10,-4,-1,1,1.1500000000000001
231,0,-1,0,15,-6,-1,0,-2,1.155
232,-1,-3,-3,2,10,-1,1,-2,1.16
233,-1,-2,-1,-15,-7,-1,-2,-2,1.165
234,-1,1,0,2,-1,-2,-1,-1,1.17
235,-1,1,1,39,7,0,-1,-1,1.175
236,0,-1,-2,46,11,1,0,-1,1.18
237,0,-3,-3,-25,-9,-1,-1,-2,1.185
238,0,-1,-1,-5,1,-1,-1,-1,1.19
239,1,1,1,-4,-6,-2,1,0,1.195
240,-1,-2,-1,-10,5,-2,0,0,1.2
241,-1,-2,-1,8,2,-1,-1,-3,1.205
242,-2,-2,0,-5,-1,-1,-3,-2,1.21
243,-3,-3,-3,-13,15,-1,-1,0,1.215
244,-1,-1,-4,13,-19,-7,-3,-1,1.22
245,0,2,4,47,51,8,3,1,1.225
246,-1,0,-2,-29,8,0,-1,-2,1.23
247,0,1,-1,16,6,-3,-1,-2,1.235
248,0,-1,0,-6,3,-2,-3,-1,1.24
249,2,2,1,4,-7,1,2,1,1.245
250,-3,-2,-2,15,-17,-4,-4,-2,1.25
251,0,-1,0,-4,14,5,1,0,1.2550000000000001
252,-1,1,1,-10,-9,2,-3,0,1.26
253,-1,-4,-2,-42,-15,-3,-1,-2,1.2650000000000001
254,1,-1,2,7,17,1,1,0,1.27
255,0,1,-1,-10,-14,-1,0,0,1.2750000000000001
256,0,-1,-1,19,0,-2,-1,-1,1.28
257,0,1,-3,23,3,6,-2,0,1.285
258,0,0,1,-18,17,0,0,1,1.29
259,-1,-3,-3,0,-8,-2,-2,-2,1.295
260,3,2,1,-13,30,3,1,0,1.3
261,-1,-2,-2,-5,-35,-6,-3,-1,1.305
262,-1,-2,-2,-6,4,-3,-2,-2,1.31
263,-1,2,3,13,-11,-1,-1,0,1.315
264,-2,-1,-2,-44,6,-1,1,1,1.32
265,-1,1,-2,0,3,-2,-1,-1,1.325
266,-1,-2,-1,0,-7,-5,-1,-2,1.33
267,-1,1,-1,-5,16,1,-1,1,1.335
268,-1,0,3,31,-28,0,1,-2,1.34
269,0,-4,-2,20,11,-3,-2,-3,1.345
270,0,1,0,10,-12,0,0,1,1.35
271,0,-1,-2,6,-4,-1,-2,0,1.355
272,-1,-3,-4,-6,-24,-3,-2,-3,1.36
273,-1,-1,-3,-16,2,-5,-1,-1,1.365
274,0,3,1,6,-2,3,1,1,1.37
275,-1,-2,-3,-5,-16,0,-1,-1,1.375
276,0,-1,-1,-39,7,-1,1,1,1.3800000000000001
277,-2,-1,-1,13,-9,-1,-2,-1,1.385
278,0,0,2,4,-17,-4,-2,0,1.3900000000000001
279,-1,-1,-4,-47,25,3,1,-2,1.395
280,-1,-2,0,-7,-1,-1,-1,-2,1.4000000000000001
281,0,0,1,-12,4,3,1,0,1.405
282,1,-2,-1,13,-1,-1,-1,-1,1.41
283,-1,-2,-2,-3,-10,-3,-3,-2,1.415
284,0,2,1,14,17,2,1,1,1.42
285,-3,-5,-4,8,11,0,-2,0,1.425
286,-2,-2,-3,-27,-24,-4,-3,-2,1.43
287,1,-1,1,5,-6,1,0,1,1.435
288,-1,0,1,4,1,0,-1,-1,1.44
289,-1,0,1,-1,0,0,-1,-1,1.445
290,-1,-3,-3,11,-9,-6,-1,-1,1.45
291,-2,-1,1,14,-7,-5,-1,-2,1.455
292,0,1,0,-16,-6,1,-1,1,1.46
293,0,-1,1,11,-1,2,0,1,1.465
294,0,-1,-4,-13,0,-2,0,-1,1.47
295,-2,-1,-1,18,-9,-2,0,-2,1.475
296,0,-2,-1,4,14,6,0,0,1.48
297,-3,-4,-5,-6,-19,-4,-1,-2,1.485
298,0,-1,2,-20,30,3,0,1,1.49
299,1,0,1,1,16,1,-1,0,1.495
300,-1,-1,-1,23,2,-3,-1,-2,1.5
301,0,0,1,1,-14,-6,-1,-1,1.5050000000000001
302,-1,-3,0,-2,9,5,1,1,1.51
303,0,1,0,-6,-8,-2,0,0,1.5150000000000001
304,-2,-5,-4,-17,-12,-4,-2,-4,1.52
305,0,2,3,3,-11,-3,-1,0,1.5250000000000001
306,-1,-2,-3,1,12,2,0,0,1.53
307,-1,-2,-1,-6,-6,0,-1,-1,1.5350000000000001
308,0,-1,1,40,-36,-5,-1,-1,1.54
309,0,-1,-2,-3,2,-3,-1,-1,1.545
310,1,2,2,0,0,3,-1,-1,1.55
311,-1,0,-1,11,8,2,-1,1,1.555
312,-1,-1,0,-2,-10,-4,-2,1,1.56
313,-1,-3,-3,-23,6,-1,0,0,1.565
314,-2,1,1,5,10,-1,1,0,1.57
315,-1,-1,-1,1,1,-4,-1,-2,1.575
316,0,0,-1,-11,-14,-1,0,1,1.58
317,2,1,4,-5,25,3,0,-2,1.585
318,-1,-1,-1,0,-15,-4,-2,-2,1.59
319,-1,-6,-7,-26,-10,-4,0,0,1.595
320,1,0,0,-8,23,0,0,-1,1.6
321,0,1,0,11,0,-1,0,-1,1.605
322,-1,1,-1,-13,-13,-5,-3,-4,1.61
323,1,0,2,16,8,5,-1,0,1.615
324,-2,0,-1,-9,-6,-2,0,-1,1.62
325,-1,0,-2,-8,-7,0,-1,-1,1.625
326,-2,-2,-2,9,6,1,1,0,1.6300000000000001
327,-2,0,-1,61,15,-4,-3,-3,1.635
328,-1,-1,-1,40,39,4,1,-1,1.6400000000000001
329,-3,1,0,-15,0,0,-1,0,1.645
330,-3,-4,0,-25,-26,-6,-3,0,1.6500000000000001
331,-2,0,2,24,14,5,1,0,1.655
332,-2,-3,-3,-12,-10,2,0,-2,1.6600000000000001
333,-1,1,1,34,14,0,-2,0,1.665
334,0,-4,-5,-4,-13,1,-1,0,1.67
335,-2,-4,-3,-33,-20,-5,-1,1,1.675
336,1,-1,1,-1,15,1,-1,-1,1.68
337,0,1,0,-20,-18,2,1,-1,1.685
338,-2,-3,-2,19,-19,-3,-2,-1,1.69
339,3,2,2,1,13,5,0,0,1.695
340,0,-1,-2,5,-2,-2,-1,1,1.7
341,0,-2,0,5,13,-1,1,-1,1.705
342,0,1,1,5,-14,-3,1,0,1.71
343,-3,-1,-1,-8,13,-2,-2,-1,1.715
344,0,2,2,51,-6,-5,0,0,1.72
345,1,1,0,-6,7,6,1,-1,1.725
346,0,1,0,7,5,-5,-1,-2,1.73
347,-1,1,1,-19,-13,1,1,-1,1.735
348,-1,0,0,-19,-10,-2,-3,0,1.74
349,-2,-2,-1,30,4,1,-2,-1,1.745
350,-3,0,-1,5,-28,-6,-2,-3,1.75
351,-1,3,2,-23,17,7,1,0,1.7550000000000001
352,-3,-2,-1,-3,-4,-3,-1,-1,1.76
353,0,1,0,-14,-1,-2,1,-1,1.7650000000000001
354,-1,-7,-5,-38,11,-2,-3,-1,1.77
355,-2,-4,-5,-13,-23,-7,-2,-2,1.7750000000000001
356,0,0,1,5,12,0,-2,-2,1.78
357,1,0,-1,-28,1,1,-1,1,1.7850000000000001
358,2,2,2,47,41,5,2,0,1.79
359,-1,-1,0,-12,-35,-6,-2,0,1.795
360,-4,-4,-6,-25,-8,-6,-1,-2,1.8
361,-1,-5,-2,7,-16,-4,-1,-2,1.805
362,0,3,4,-19,20,6,0,1,1.81
363,-1,-2,-3,-23,-37,-9,-2,-2,1.815
364,1,3,0,31,10,8,2,1,1.82
365,-1,-2,0,17,-3,-3,-2,-2,1.825
366,-2,-1,0,-28,5,-3,-2,-1,1.83
367,0,0,1,29,30,6,1,0,1.835
368,-1,-3,-2,-33,-20,-1,-1,-2,1.84
369,-2,0,-2,-2,-18,-6,-3,-2,1.845
370,1,1,0,13,30,5,0,0,1.85
371,-2,-2,-2,53,-6,-2,-4,-2,1.855
372,-1,-1,1,-38,-1,2,0,0,1.86
373,-1,0,0,-10,-13,-1,-1,0,1.865
374,-1,-1,-2,15,-3,-1,-1,-1,1.87
375,1,1,1,-17,6,2,2,0,1.875
376,0,-2,-2,21,8,1,-2,-1,1.8800000000000001
377,-2,-4,0,-4,-18,-6,-1,-1,1.885
378,-1,2,-2,-16,-9,-2,1,1,1.8900000000000001
379,0,-3,-2,-15,-6,0,-2,0,1.895
380,-1,0,-4,-7,-33,-9,-3,-2,1.9000000000000001
381,-2,-5,-4,31,29,6,-1,-2,1.905
382,0,0,-4,2,-6,0,-1,-1,1.9100000000000001
383,-1,0,-1,-20,4,-3,-2,0,1.915
384,-1,0,1,14,13,3,0,-1,1.92
385,-1,-1,-1,-12,-15,-2,-1,0,1.925
386,0,0,0,10,25,1,-1,-2,1.93
387,-1,2,1,2,-22,-4,0,-1,1.935
388,-3,1,-1,6,13,0,1,-2,1.94
389,0,2,-3,-29,-16,0,-2,-3,1.945
390,-1,-3,-1,34,-2,2,-1,-1,1.95
391,-1,-1,-2,-33,2,-1,-1,0,1.955
392,-1,0,1,-8,5,0,0,0,1.96
393,0,-1,1,7,13,0,0,0,1.965
394,1,-1,0,-1,-22,-4,-2,-2,1.97
395,-1,-1,-2,15,5,1,-1,0,1.975
396,1,0,-1,-23,-28,-6,-1,-1,1.98
397,0,1,1,13,5,2,0,0,1.985
398,-2,-5,-3,-17,21,1,0,0,1.99
399,0,1,3,-27,-10,3,2,1,1.995
400,-2,-1,-1,90,14,-1,-1,0,2.0
401,0,-2,0,-47,11,-1,0,0,2.005
402,-3,-2,-1,-20,-20,-6,-3,1,2.0100000000000002
403,-2,-1,-1,9,-5,-2,1,-2,2.015
404,1,0,0,-16,-2,0,-2,-1,2.02
405,-1,1,1,19,-4,-3,0,-1,2.025
406,-4,-3,0,2,0,-1,0,-1,2.0300000000000002
407,0,-1,-3,-5,3,-6,-2,-2,2.035
408,0,-2,0,5,-9,2,2,1,2.04
409,1,2,2,-15,6,1,-1,1,2.045
410,-1,-3,-2,-20,-40,1,0,2,2.05
411,-2,-1,-1,30,20,1,-1,-1,2.055
412,-2,-2,-2,-21,4,0,0,-1,2.06
413,1,1,0,-8,2,1,2,-1,2.065
414,-2,0,-1,17,1,0,-2,-2,2.07
415,0,-2,0,-2,-4,-3,0,-2,2.075
416,-2,-2,-2,-9,8,0,-2,0,2.08
417,-3,0,-1,6,-2,0,0,-1,2.085
418,1,1,0,-52,-14,-3,-1,-1,2.09
419,-1,-2,-2,-5,11,1,0,0,2.095
420,-2,0,2,30,17,0,0,-1,2.1
421,0,0,-1,-26,-25,-3,0,-1,2.105
422,-2,-5,-3,15,0,-1,-4,-1,2.11
423,-1,0,2,2,-11,-1,0,1,2.115
424,-1,-3,-4,-24,-2,2,0,0,2.12
425,-2,-4,-2,0,-14,-4,-2,0,2.125
426,1,2,1,4,-7,-1,1,1,2.13
427,0,0,0,11,17,0,0,0,2.1350000000000002
428,-1,-2,-2,-68,-15,-6,-2,-1,2.14
429,-1,-2,-3,33,4,0,-1,-1,2.145
430,0,0,-1,0,3,-1,-2,0,2.15
431,-4,-2,0,6,-18,-1,-2,-1,2.1550000000000002
432,0,3,2,0,7,2,0,1,2.16
433,-4,-4,-5,6,-12,-7,-4,-2,2.165
434,2,2,4,10,40,8,5,0,2.17
435,-2,-4,-7,-23,-7,-3,-3,-1,2.1750000000000003
436,0,-2,1,16,-19,-4,-3,-2,2.18
437,-2,-3,-3,-26,-3,-5,-2,-3,2.185
438,0,-1,1,28,17,-1,-1,-1,2.19
439,-1,-2,-2,6,-6,-2,-2,0,2.195
440,1,2,2,-25,-6,3,1,2,2.2
441,1,-1,0,9,16,2,-1,1,2.205
442,-2,1,-1,-18,-13,-3,-1,-2,2.21
443,2,2,4,-8,-1,4,1,-1,2.215
444,-3,-5,-4,-13,-14,-5,-2,-2,2.22
445,0,1,4,15,14,5,1,0,2.225
446,-1,-2,-3,3,7,-1,1,1,2.23
447,-2,-3,-3,-25,-9,-3,-3,-1,2.235
448,1,2,-2,20,0,-3,0,-1,2.24
449,2,1,0,5,13,5,1,1,2.245
450,-2,-1,-1,-19,-28,-5,-3,-3,2.25
451,0,-1,-1,39,32,4,2,0,2.255
452,-1,1,0,-8,-6,-2,0,1,2.2600000000000002
453,-3,-2,-4,-24,-10,-3,-2,-1,2.265
454,1,0,2,29,0,-3,1,0,2.27
455,-1,1,-1,35,-13,0,1,0,2.275
456,0,-2,-1,-3,21,3,-1,0,2.2800000000000002
457,0,1,-1,-11,-5,0,0,-2,2.285
458,-1,-1,-3,26,8,2,0,-1,2.29
459,-1,2,1,-11,-14,-4,-2,-1,2.295
460,-2,-3,0,2,1,-1,-1,0,2.3000000000000003
461,-1,-1,0,5,2,0,0,0,2.305
462,-1,-3,-1,-4,27,-1,-1,-1,2.31
463,-2,1,0,-12,-9,0,0,-1,2.315
464,0,0,-1,16,-12,-5,-2,-1,2.32
465,1,-1,-1,24,9,5,2,1,2.325
466,-3,0,0,-37,-38,-3,-3,-2,2.33
467,2,1,2,-35,28,6,1,-1,2.335
468,-3,-5,-4,9,1,-3,-3,-2,2.34
469,-2,2,1,5,12,0,0,-1,2.345
470,-3,-2,-4,-3,0,-1,-2,0,2.35
471,-2,-3,-3,19,-4,-5,-2,-2,2.355
472,-2,-1,-1,-38,-2,3,0,-2,2.36
473,0,-2,2,20,3,3,-1,1,2.365
474,1,-1,-1,20,13,1,0,1,2.37
475,-2,1,-1,-17,-4,-3,-2,0,2.375
476,0,-1,2,1,-18,-2,0,-1,2.38
477,-2,-2,-2,28,-10,-5,-2,-2,2.3850000000000002
478,-1,-1,1,-12,39,2,0,0,2.39
479,0,-1,0,69,8,3,1,1,2.395
480,1,1,2,-28,21,4,2,2,2.4
481,-2,-3,0,-6,-6,-2,0,1,2.4050000000000002
482,0,0,0,-1,-21,-2,-1,-1,2.41
483,-1,-1,-1,3,-2,-2,-3,-2,2.415
484,0,1,1,18,-4,-3,0,-1,2.42
485,-1,-2,-4,-22,-22,-5,-2,-2,2.4250000000000003
486,0,1,0,-36,15,3,1,-1,2.43
487,2,3,3,-2,22,2,0,0,2.435
488,-2,-5,-5,-36,-19,-3,-2,-1,2.44
489,1,0,-1,4,27,0,-2,-1,2.445
490,1,-1,-2,-5,-26,-3,-1,-1,2.45
491,0,0,-2,-14,-6,-3,1,0,2.455
492,1,1,1,9,-1,1,0,-1,2.46
493,0,0,-2,-1,-16,-6,-2,-3,2.465
494,0,-1,-2,-24,-17,-4,-2,-1,2.47
495,-2,-2,1,38,-1,-1,0,0,2.475
496,1,0,-2,13,5,2,0,0,2.48
497,-1,0,-1,-25,11,4,0,-1,2.485
498,-2,1,1,55,-34,-4,0,0,2.49
499,-1,-4,-1,-52,24,0,-1,-1,2.495
500,-2,0,-4,8,-10,-2,1,-1,2.5
501,-1,-2,-1,8,0,-3,-2,0,2.505
502,-1,0,-1,0,5,0,0,0,2.5100000000000002
503,-1,-4,-4,-5,-39,-5,-2,0,2.515
504,-1,1,2,8,25,-1,0,-1,2.52
505,-1,-2,-2,14,0,1,-1,-2,2.525
506,0,1,0,-23,0,-1,-1,-1,2.5300000000000002
507,-2,-4,-5,-24,-12,-5,-4,-2,2.535
508,0,0,-1,24,0,2,0,0,2.54
509,-3,0,1,22,-2,-3,-1,-1,2.545
510,-1,-1,0,34,12,3,0,0,2.5500000000000003
511,-1,1,-1,-11,-3,0,0,0,2.555
512,-3,-2,-3,-13,-25,-8,-4,-2,2.56
513,1,0,0,20,6,6,0,1,2.565
514,-1,-3,-1,8,-3,-2,-1,0,2.57
515,-1,-3,-2,-7,39,-2,-1,-1,2.575
516,1,0,4,43,-20,-4,0,-1,2.58
517,-1,-1,0,-49,21,3,1,0,2.585
518,1,2,-2,-16,-8,-1,-1,-1,2.59
519,-1,0,1,28,1,-2,-2,-1,2.595
520,0,0,0,0,16,8,4,0,2.6
521,-1,-3,-2,-10,11,-3,0,-2,2.605
522,-1,-4,-2,-2,0,-1,-1,-1,2.61
523,1,0,-1,-23,-24,-4,-3,-1,2.615
524,0,-1,-1,24,3,-1,-2,-2,2.62
525,0,1,1,-20,-35,-4,-2,-1,2.625
526,0,-2,0,4,22,4,2,-1,2.63
527,-1,-2,-3,4,-8,1,-1,-2,2.6350000000000002
528,-1,-3,-3,-23,3,-2,-2,-1,2.64
529,-1,-2,-3,-8,-21,-6,-2,-2,2.645
530,-1,0,1,19,12,-1,-1,-1,2.65
531,-1,1,2,-22,-10,-1,-2,-3,2.6550000000000002
532,-1,0,0,64,-9,-3,-2,-2,2.66
533,1,2,0,-13,33,9,2,1,2.665
534,-2,1,1,-8,-4,-2,-1,0,2.67
535,-2,-2,-2,3,-7,-1,-1,0,2.6750000000000003
536,1,2,-1,-25,6,-1,-1,0,2.68
537,-2,-2,-1,20,-2,-2,0,-1,2.685
538,-2,0,0,-5,-12,-2,-2,0,2.69
539,0,-2,-1,32,38,3,2,-1,2.695
540,-3,-1,-3,-8,-3,-2,-4,-1,2.7
541,0,1,1,-1,0,-3,-2,-1,2.705
542,0,-2,-2,-27,-1,0,0,-1,2.71
543,1,1,3,8,-22,1,2,2,2.715
544,0,-2,-4,-65,-15,-1,0,0,2.72
545,1,-2,-3,-7,9,-1,0,-1,2.725
546,-4,-2,-1,15,-21,-3,-1,-3,2.73
547,0,-1,0,-2,1,-1,1,-1,2.735
548,1,0,1,-16,-11,1,0,-2,2.74
549,1,1,0,-1,-13,-2,-1,-1,2.745
550,-1,-2,-1,-2,9,2,1,1,2.75
551,-2,0,0,30,-18,-3,-2,-1,2.755
552,-1,1,1,-27,16,4,1,0,2.7600000000000002
553,-2,-2,-3,7,-15,-5,-1,0,2.765
554,-2,-2,-4,2,1,-2,-1,-2,2.77
555,0,-1,-3,-15,-7,-1,-1,0,2.775
556,-2,-1,1,15,-19,-6,-2,-3,2.7800000000000002
557,0,2,2,-15,8,1,2,0,2.785
558,1,1,2,26,-13,0,-1,-1,2.79
559,1,0,0,-18,3,-1,0,-1,2.795
560,-1,-1,-1,-19,-14,-3,-1,-1,2.8000000000000003
561,0,-1,-4,-20,16,0,-3,-1,2.805
562,2,2,1,-7,-8,-2,1,1,2.81
563,-3,-2,-3,-18,2,0,-1,-2,2.815
564,-1,-1,-1,16,17,3,0,1,2.82
565,-2,-1,0,16,-24,-4,-3,0,2.825
566,0,-4,-2,10,22,0,-1,-1,2.83
567,0,-1,-1,-22,-6,1,-1,-2,2.835
568,-1,-1,-1,29,25,1,-1,0,2.84
569,0,-1,1,53,-28,-3,-1,-1,2.845
570,-1,-1,0,-33,5,3,0,-1,2.85
571,-1,-2,-3,-12,-18,-4,0,-1,2.855
572,-1,0,1,8,21,3,1,-1,2.86
573,0,0,-1,-4,2,5,1,1,2.865
574,0,2,1,3,6,-2,-2,-1,2.87
575,-1,-2,-1,-3,23,3,0,-1,2.875
576,-1,-2,0,-20,-3,-1,0,0,2.88
577,0,0,-1,-8,1,-4,-2,-2,2.8850000000000002
578,-1,-2,-1,2,-15,-3,-2,-3,2.89
579,-2,-4,0,6,-17,-3,1,0,2.895
580,0,0,-2,-10,-3,-3,-2,-1,2.9
581,-3,-2,-3,-36,-7,-1,-1,-2,2.9050000000000002
582,0,1,-2,12,9,-1,-2,-2,2.91
583,-1,-1,-1,1,-15,-2,-1,-2,2.915
584,0,1,0,28,8,1,-1,0,2.92
585,0,0,1,-16,9,-4,1,0,2.9250000000000003
586,-1,-2,0,9,8,3,0,2,2.93
587,-2,0,-1,-43,-7,-7,-2,-2,2.935
588,-2,-1,-1,-14,9,0,-1,0,2.94
589,-2,-3,-2,-9,-3,-1,0,0,2.945
590,-2,-2,-4,-13,-36,-7,-2,-2,2.95
591,-1,-1,-1,50,36,5,-1,0,2.955
592,-2,-4,-2,-14,-21,-3,-1,-2,2.96
593,-2,0,0,18,11,2,-2,-1,2.965
594,0,0,-3,-6,-13,-3,-2,-1,2.97
595,0,-3,-1,19,-24,-3,-3,0,2.975
596,-1,0,-3,-33,2,-2,-1,1,2.98
597,0,1,0,37,0,0,0,-1,2.985
598,0,-1,-3,-22,-10,-3,-1,0,2.99
599,-1,2,3,0,10,7,2,1,2.995
600,-1,-2,-2,-40,-9,-3,-1,-2,3.0
601,-1,-2,-2,17,1,-5,-3,1,3.005
602,-1,1,2,-15,-19,2,2,0,3.0100000000000002
603,0,1,-1,19,13,0,-1,-1,3.015
604,-1,-1,0,-5,-6,2,1,1,3.02
605,0,-1,-1,-26,-7,-4,-1,-3,3.025
606,-1,-2,0,-6,19,2,0,1,3.0300000000000002
607,-1,0,-3,-1,23,2,0,2,3.035
608,-2,-1,0,28,7,-2,-1,-2,3.04
609,-2,-1,0,-17,3,4,-2,1,3.045
610,-2,-2,1,36,12,0,-2,-2,3.0500000000000003
611,0,-1,-1,-25,-16,-4,-1,-1,3.055
612,1,1,-3,26,14,3,0,0,3.06
613,0,-1,0,12,-13,-4,0,-2,3.065
614,0,0,2,-18,4,2,0,-1,3.0700000000000003
615,1,1,3,3,0,0,1,1,3.075
616,-1,0,-1,1,-10,-1,-2,0,3.08
617,-5,-5,-2,-20,-11,-3,0,-3,3.085
618,0,-4,-5,11,18,1,-2,-3,3.09
619,-2,1,-1,12,-13,-1,2,-1,3.095
620,-1,-2,1,10,9,0,-1,-1,3.1
621,1,0,0,-6,1,0,-1,0,3.105
622,0,-1,-3,-27,-6,-6,-3,-1,3.11
623,-2,-2,-3,-3,15,2,-1,-1,3.115
624,-3,-1,-2,-4,1,-3,-3,-2,3.12
625,1,0,-1,-11,-20,1,1,2,3.125
626,1,1,0,21,24,4,-1,-1,3.13
627,-1,0,0,6,-23,-6,-2,-1,3.1350000000000002
628,-1,-2,-1,-12,7,3,0,0,3.14
629,0,-2,2,19,-4,-2,-3,1,3.145
630,-1,2,1,-11,-18,-2,1,1,3.15
631,-1,-2,-1,-1,12,-1,0,-1,3.1550000000000002
632,0,3,2,79,27,4,3,1,3.16
633,0,-2,0,14,5,-2,-2,-3,3.165
634,1,-1,0,-25,-17,1,1,1,3.17
635,-3,-5,-2,-40,-24,-3,-3,-2,3.1750000000000003
636,-1,-2,-2,-11,8,-3,0,-2,3.18
637,0,2,0,-11,-2,1,0,-1,3.185
638,0,1,2,10,30,-1,-2,0,3.19
639,-3,-7,-5,-40,-10,3,-1,-1,3.1950000000000003
640,0,0,-3,-11,-18,-3,0,-1,3.2
641,0,-2,-2,1,-13,-4,-2,-3,3.205
642,-1,0,-2,1,13,4,1,2,3.21
643,0,0,-1,14,-4,-4,-2,-1,3.215
644,0,0,2,-4,31,4,-1,0,3.22
645,-2,-1,-2,-36,15,1,-1,-1,3.225
646,1,0,-1,59,-10,-2,0,-1,3.23
647,-1,-1,-2,3,11,2,1,-1,3.235
648,-2,-3,-2,-2,-15,-2,-2,0,3.24
649,-1,1,0,-7,-11,1,0,-2,3.245
650,-2,-3,-2,-35,-8,-8,-2,-3,3.25
651,2,2,4,-3,13,11,2,2,3.255
652,1,1,-1,-6,-3,-3,-2,0,3.2600000000000002
653,-2,-4,-2,-13,-16,0,0,1,3.265
654,-1,0,0,16,6,1,0,-1,3.27
655,-1,1,1,4,1,-3,-2,-1,3.275
656,-1,-4,-1,26,-19,-4,-3,-2,3.2800000000000002
657,1,-1,-3,-26,9,-2,-2,0,3.285
658,-1,-1,-1,8,-32,-5,-1,0,3.29
659,-1,2,0,-13,-16,0,0,0,3.295
660,0,-2,2,49,18,2,-1,-1,3.3000000000000003
661,-2,0,-2,1,8,-1,0,0,3.305
662,-2,-3,-2,-13,1,-1,-1,-2,3.31
663,-1,-1,-1,24,3,-4,-1,0,3.315
664,-1,0,-1,-39,-26,-2,-1,0,3.3200000000000003
665,0,1,0,-4,1,-2,-1,-1,3.325
666,1,-1,1,-38,38,8,-1,0,3.33
667,1,1,-2,9,22,-2,-2,-1,3.335
668,0,0,-3,-18,-11,-1,-2,0,3.34
669,1,0,-1,39,13,0,0,1,3.345
670,-1,2,2,4,-2,1,0,-2,3.35
671,-1,-2,-3,8,-14,-6,-2,-3,3.355
672,-2,-3,-3,-17,-3,-1,-1,-3,3.36
673,1,0,0,8,5,3,1,1,3.365
674,-2,-2,-5,-9,-20,-5,-3,0,3.37
675,0,-1,1,-6,2,3,2,0,3.375
676,-1,-1,-1,24,-18,-4,0,0,3.38
677,0,0,-2,0,14,1,-2,-1,3.3850000000000002
678,-1,0,1,-2,-11,-6,-2,-2,3.39
679,0,3,0,-6,1,5,1,0,3.395
680,0,-2,1,26,-3,1,-2,0,3.4
681,-2,-2,-3,-41,5,0,-1,0,3.4050000000000002
682,-1,0,1,18,23,2,1,0,3.41
683,0,-1,-1,-11,-2,-3,-2,-1,3.415
684,-1,-1,-2,-13,-18,-2,-2,-2,3.42
685,2,3,2,22,9,4,1,0,3.4250000000000003
686,-1,-2,-1,-16,-17,-3,-1,0,3.43
687,-1,-4,-4,19,-3,-4,0,-2,3.435
688,-2,-3,-5,-50,-12,-5,-2,-3,3.44
689,-1,-1,1,-1,-11,-4,-2,-1,3.4450000000000003
690,2,0,-2,6,6,2,-1,0,3.45
691,0,-1,-4,12,6,-4,-1,-1,3.455
692,0,2,1,-38,-24,-2,-3,0,3.46
693,-2,-3,-1,66,40,1,-2,-2,3.465
694,0,1,0,-3,-4,2,0,0,3.47
695,0,-1,2,32,-10,-3,-1,-1,3.475
696,-1,0,0,-2,10,2,0,-1,3.48
697,-2,-2,-1,-7,10,0,-1,-2,3.485
698,-3,-4,-3,25,15,2,-2,-2,3.49
699,1,3,1,16,-8,0,0,1,3.495
700,-2,-4,-3,11,-7,-6,-2,-2,3.5
701,-1,-1,0,-31,-10,0,-1,-1,3.505
702,-3,-8,-8,27,-1,-5,0,-4,3.5100000000000002
703,-1,1,-1,-9,-22,0,-3,1,3.515
704,1,2,1,-7,30,6,2,0,3.52
705,-1,-1,-2,10,-13,-2,-2,-2,3.525
706,0,3,0,-18,9,1,-1,0,3.5300000000000002
707,-1,-4,-5,-12,-5,-2,0,-1,3.535
708,-2,-3,0,7,2,-1,-1,0,3.54
709,-3,-1,-1,-3,0,1,-2,-1,3.545
710,2,1,1,1,-25,1,2,1,3.5500000000000003
711,-1,-4,0,26,8,-2,-2,-2,3.555
712,-1,2,1,-2,24,2,-1,-1,3.56
713,0,0,0,-3,-6,-4,1,0,3.565
714,-2,0,-1,-37,-13,-2,-1,2,3.5700000000000003
715,-2,0,0,11,20,1,1,-2,3.575
716,1,-1,-1,-13,-13,-2,-1,-1,3.58
717,-1,0,1,-3,-20,-4,-1,-1,3.585
718,-2,-3,-4,0,-6,-1,-1,-3,3.59
719,-1,1,1,-25,8,0,-2,0,3.595
720,0,0,-1,15,8,1,3,0,3.6
721,0,-3,-2,-17,-4,-2,1,0,3.605
722,-1,1,1,28,-10,1,-1,-1,3.61
723,-2,-1,2,-23,41,5,0,0,3.615
724,-1,-1,1,-4,-14,-3,0,-1,3.62
725,-1,0,1,20,-12,-1,0,-1,3.625
726,0,0,-2,-9,0,-1,-1,0,3.63
727,-2,-2,-1,27,-9,2,-2,-2,3.6350000000000002
728,0,0,-1,-10,27,1,-1,-1,3.64
729,-1,-1,1,16,-29,-4,0,-2,3.645
730,-2,-2,-1,-21,8,-2,0,-1,3.65
731,-2,-3,-2,-9,-23,-1,0,-2,3.6550000000000002
732,-2,1,-2,-25,6,-1,-1,0,3.66
733,-1,-2,-1,20,8,0,0,-2,3.665
734,-2,-1,0,-25,-26,-1,0,-3,3.67
735,2,0,-2,23,7,-2,0,-1,3.6750000000000003
736,-2,-1,-1,11,6,-2,-2,-3,3.68
737,0,2,-2,-24,-20,1,1,0,3.685
738,-1,-2,0,4,18,0,0,-1,3.69
739,-2,-2,-3,-20,6,0,-2,0,3.6950000000000003
740,2,0,-1,23,-17,-1,0,0,3.7
741,0,-3,-3,-24,37,3,0,0,3.705
742,-1,-1,-2,3,14,0,-1,-2,3.71
743,-2,-2,-1,-10,-19,-6,-1,-2,3.715
744,-1,-2,-1,-9,-1,1,0,-1,3.72
745,-3,-2,-1,32,-2,-3,-1,-3,3.725
746,0,-1,0,-5,-9,-2,0,0,3.73
747,0,0,0,-16,15,2,0,-1,3.735
748,-2,-6,-3,5,-12,-3,-3,-1,3.74
749,0,0,-1,-33,-10,-4,-2,-1,3.745
750,0,-1,-3,9,-5,-5,-1,1,3.75
751,0,0,2,12,-29,0,0,-1,3.755
752,1,2,-2,-29,-15,0,0,1,3.7600000000000002
753,0,-1,1,28,25,1,-1,-1,3.765
754,-1,-1,3,41,4,-1,0,0,3.77
755,0,-4,-4,-29,-12,-4,-2,-1,3.775
756,0,1,1,-25,-32,-5,0,-1,3.7800000000000002
757,-1,-2,-3,27,7,1,0,0,3.785
758,-1,-1,0,13,21,6,-1,-1,3.79
759,0,0,1,5,7,-1,-1,-1,3.795
760,-2,-4,-4,-26,26,-1,-2,-1,3.8000000000000003
761,-3,-1,-2,-20,-9,-1,-1,-1,3.805
762,1,1,-1,32,-19,-3,-3,0,3.81
763,-2,-1,1,-6,6,1,-1,-2,3.815
764,1,1,1,19,9,2,1,-1,3.8200000000000003
765,0,-2,-3,-13,-17,-3,-1,-1,3.825
766,-1,0,-1,-13,10,-2,0,-1,3.83
767,0,-1,-1,-5,10,-3,-1,-1,3.835
768,-2,-1,1,3,-35,-6,-1,-2,3.84
769,-1,1,1,5,4,1,1,-1,3.845
770,1,-1,1,49,34,6,1,0,3.85
771,2,2,-2,-6,-7,-1,0,1,3.855
772,-2,-2,-2,-11,1,-1,-2,-1,3.86
773,-1,0,0,3,-4,-2,-2,-1,3.865
774,-1,-1,-1,-34,-19,-3,-1,-1,3.87
775,-3,0,-2,12,0,-3,0,-1,3.875
776,1,-3,-1,15,-16,0,2,-2,3.88
777,-1,-1,-1,-41,-20,3,-1,1,3.8850000000000002
778,1,1,2,15,2,1,2,0,3.89
779,-1,-1,-2,-69,6,1,0,0,3.895
780,-2,-1,-3,16,-5,-1,-1,-1,3.9
781,-1,-2,-1,-4,-8,-2,-1,-1,3.9050000000000002
782,0,0,-2,-14,-4,-2,-3,-2,3.91
783,-1,-2,1,15,-17,0,-1,0,3.915
784,-1,-1,-3,30,9,0,1,0,3.92
785,0,0,0,-2,7,-2,-1,-3,3.9250000000000003
786,-3,1,-2,8,-10,-5,1,-2,3.93
787,0,-2,0,-39,-4,-2,-2,-4,3.935
788,-1,-1,1,34,18,-2,-3,-2,3.94
789,1,-1,0,10,7,3,1,1,3.9450000000000003
790,-1,-2,-2,-5,-2,-4,-2,1,3.95
791,0,-1,-1,20,-8,0,0,1,3.955
792,1,1,3,-27,4,2,0,1,3.96
793,0,-1,-2,1,-2,-1,-1,-2,3.9650000000000003
794,-2,-1,1,-14,9,1,-1,0,3.97
795,-2,-3,-1,25,1,2,-1,-1,3.975
796,0,1,-1,-24,0,0,-2,0,3.98
797,-3,-5,-4,14,5,-4,0,0,3.985
798,1,0,-1,-39,-29,-2,-2,-1,3.99
799,-1,-3,-1,11,6,-5,-1,-2,3.995
800,1,0,3,6,-5,0,1,0,4.0
801,-1,2,2,-5,-1,3,-1,0,4.005
802,-2,-3,-2,-10,-2,-4,-3,-2,4.01
803,-2,-2,-3,2,-1,0,1,1,4.015
804,1,-1,-1,-1,-7,-4,-2,-1,4.0200000000000005
805,0,0,1,-17,12,0,1,-1,4.025
806,0,-1,0,49,-10,-2,-1,-2,4.03
807,1,1,1,-6,33,8,0,-2,4.035
808,-1,-3,-3,9,13,-2,1,0,4.04
809,-1,0,-2,-28,-4,-1,-1,1,4.045
810,-3,-1,-1,-5,9,-1,-2,0,4.05
811,-1,0,0,5,3,-2,-1,-1,4.055
812,-1,-1,0,7,0,3,-1,-1,4.0600000000000005
813,-1,-2,-1,-17,-15,-3,0,-1,4.065
814,-2,-3,-2,35,9,-1,0,-3,4.07
815,0,-1,0,-25,-15,-4,-2,1,4.075
816,-1,0,0,-17,-18,-5,-1,-2,4.08
817,-1,-2,-2,19,-1,2,0,-2,4.085
818,1,1,-1,-4,27,4,0,0,4.09
819,2,1,0,10,-2,0,0,0,4.095
820,-2,-1,1,12,1,1,0,-2,4.1
821,-3,-2,-3,4,0,1,-2,-3,4.105
822,-1,1,0,-18,-12,-3,-2,-1,4.11
823,-1,0,-1,-10,-11,1,-1,-1,4.115
824,0,1,3,-29,8,0,-1,0,4.12
825,0,-1,-1,-1,7,-3,-2,-1,4.125
826,-1,-3,-1,57,20,4,-1,-2,4.13
827,-1,-3,-3,-3,15,2,-1,0,4.135
828,-2,0,-2,-3,-5,0,-2,-2,4.14
829,0,-2,0,5,-7,-3,-2,-1,4.1450000000000005
830,0,2,-2,-27,-14,0,1,0,4.15
831,-2,-2,-1,35,-17,-3,-3,-2,4.155
832,0,0,-2,-3,-2,-1,0,-1,4.16
833,-2,-1,0,33,13,-1,-2,0,4.165
834,-1,-1,-3,-18,12,0,0,0,4.17
835,-1,0,0,-7,-29,-2,1,0,4.175
836,0,0,-1,-19,-21,-3,-2,-1,4.18
837,-1,-1,-3,15,-18,-5,-1,-1,4.1850000000000005
838,0,0,0,-26,6,1,0,0,4.19
839,-2,-1,-1,7,8,-2,-2,-2,4.195
840,0,0,2,13,8,2,0,1,4.2
841,2,-1,1,38,0,-1,0,-1,4.205
842,-1,-3,-1,16,2,-1,-1,-1,4.21
843,0,-1,-3,0,-1,-5,-1,-3,4.215
844,-2,-2,-3,39,24,-1,-2,-2,4.22
845,0,3,0,-16,2,3,-1,1,4.225
846,-1,-5,-4,-22,2,2,-1,-1,4.23
847,0,-2,-2,34,1,-5,0,-1,4.235
848,-3,0,-2,-32,15,1,-2,-1,4.24
849,-1,-1,-1,-10,22,2,0,-2,4.245
850,0,1,2,32,-6,-2,0,-1,4.25
851,-1,-4,-3,-21,6,1,-1,0,4.255
852,1,-1,-3,-3,-10,-3,0,-2,4.26
853,-1,1,-1,-6,6,0,0,-1,4.265
854,-1,-2,-4,-12,-27,-6,0,-2,4.2700000000000005
855,-1,-1,2,-17,13,2,1,2,4.275
856,0,1,1,30,-6,-3,-1,-1,4.28
857,-1,0,0,-4,14,4,-1,-1,4.285
858,-1,-1,-1,-27,3,-4,-3,-2,4.29
859,-2,2,-2,14,-37,-4,-1,0,4.295
860,-1,-2,-1,21,20,5,0,0,4.3
861,-1,-1,-1,-21,-25,-6,0,0,4.305
862,-2,-2,-2,7,-4,-1,-1,0,4.3100000000000005
863,-1,0,3,-23,-8,3,-1,1,4.315
864,1,2,2,32,5,3,0,0,4.32
865,-2,-4,-5,-14,-14,-6,-2,-2,4.325
866,0,-2,-4,4,9,4,0,-2,4.33
867,0,-1,-2,11,3,-4,-2,-3,4.335
868,-2,-2,-1,-11,-2,0,-1,-1,4.34
869,-1,-1,1,7,12,1,0,-1,4.345
870,-1,0,0,-20,-25,-2,-3,0,4.3500000000000005
871,-3,1,1,25,18,0,-1,0,4.355
872,0,1,1,-18,6,0,1,0,4.36
873,-1,0,-1,-2,-7,-1,-2,-1,4.365
874,-2,-2,0,-24,-12,0,0,-1,4.37
875,-2,-1,0,8,-20,-7,-2,-2,4.375
876,-1,1,2,-28,18,0,0,0,4.38
877,-2,-2,-3,-12,-10,-1,0,0,4.385
878,1,4,2,-3,-12,3,1,0,4.39
879,-2,-1,-3,-33,-2,-1,-2,-2,4.3950000000000005
880,0,-4,-1,-23,-24,-5,-4,-2,4.4
881,-1,0,-1,-13,-17,-6,0,-1,4.405
882,0,-3,-2,-3,26,3,-1,2,4.41
883,-3,-1,0,6,-9,-5,-2,0,4.415
884,-2,-2,-6,-69,-8,0,-2,-1,4.42
885,0,-1,-1,10,11,3,-1,-1,4.425
886,-1,-1,-3,-5,-2,-2,0,-1,4.43
887,0,-2,-1,-6,-6,1,-2,-2,4.4350000000000005
888,-3,-3,-3,43,-3,-4,-2,-1,4.44
889,-2,1,2,14,13,4,-1,1,4.445
890,-1,-2,1,-13,-8,-1,0,-2,4.45
891,0,-3,-3,0,12,-2,-1,-3,4.455
892,1,0,-2,18,-18,-1,3,0,4.46
893,0,-1,-1,-20,-9,-4,0,0,4.465
894,0,-1,1,-21,-1,-3,0,0,4.47
895,0,0,0,41,19,2,0,-1,4.4750000000000005
896,-2,-1,-2,7,-18,-5,-2,-1,4.48
897,1,-2,-2,-17,9,1,1,-1,4.485
898,-3,-3,-3,66,13,2,-1,-1,4.49
899,1,3,0,-4,29,3,0,0,4.495
900,-1,-5,-2,10,-8,2,0,-1,4.5
901,0,0,0,-35,3,-3,-1,-1,4.505
902,0,0,-2,6,-11,-5,1,-2,4.51
903,-1,-2,0,33,4,-2,-1,-1,4.515
904,-1,0,4,-7,0,2,0,-1,4.5200000000000005
905,-1,1,-1,12,5,1,-1,-1,4.525
906,-1,-4,-2,-22,-16,-5,-2,-4,4.53
907,-1,0,-1,-20,6,0,1,0,4.535
908,-1,-1,-2,1,1,-3,-2,0,4.54
909,-1,-3,-1,8,2,-2,-1,0,4.545
910,1,1,1,6,26,2,-1,0,4.55
911,-1,-1,-1,-62,-40,-4,0,0,4.555
912,-1,1,1,13,31,-1,-2,-1,4.5600000000000005
913,-1,-1,1,30,16,7,1,1,4.565
914,-1,3,1,-1,-11,-3,-1,1,4.57
915,-2,-4,-3,-10,-8,2,0,-1,4.575
916,0,1,1,-6,-16,-3,1,1,4.58
917,-1,0,-3,3,-9,-3,-3,-2,4.585
918,0,-3,-3,1,11,-3,-2,0,4.59
919,2,-1,-1,-38,-11,0,-2,0,4.595
920,-2,1,-2,68,-6,-3,-3,0,4.6000000000000005
921,-1,0,3,2,0,0,-1,-1,4.605
922,-1,0,2,-15,-29,-6,-3,0,4.61
923,-1,-2,-3,-17,14,1,-2,-2,4.615
924,0,-1,-3,7,4,-2,-2,-1,4.62
925,0,0,0,25,19,1,-1,-3,4.625
926,-2,-2,-1,-16,-2,1,-1,-2,4.63
927,0,2,0,18,-4,-2,1,1,4.635
928,-1,-4,-2,-21,4,2,-2,-1,4.64
929,-2,-1,-2,-7,-13,-1,-1,-2,4.6450000000000005
930,-1,0,0,-36,-14,2,0,-2,4.65
931,-1,0,2,17,-3,-4,-3,-3,4.655
932,1,1,1,-7,4,4,1,0,4.66
933,-1,0,-1,3,8,2,-1,-1,4.665
934,-2,0,1,-26,-13,-1,1,1,4.67
935,-1,0,1,-23,-6,-1,0,1,4.675
936,-3,-2,-2,8,-12,-6,-3,-2,4.68
937,-2,-2,0,5,3,1,0,0,4.6850000000000005
938,2,4,1,1,3,1,0,0,4.69
939,-1,0,1,-11,-17,-3,-1,-2,4.695
940,-2,-3,1,23,14,-2,-2,-2,4.7
941,-2,-4,-6,-19,-29,-2,-2,-1,4.705
942,0,-2,-2,10,9,-2,-1,-2,4.71
943,-2,-1,-1,2,-11,-2,0,-1,4.715
944,0,2,1,-1,0,1,-1,-2,4.72
945,-1,1,0,-7,-8,-1,-3,-2,4.7250000000000005
946,1,-1,-1,-11,-6,-1,-1,-3,4.73
947,-1,-2,-2,12,-20,-3,-2,-2,4.735
948,1,1,0,-31,5,4,2,-1,4.74
949,-1,2,1,25,9,-1,1,2,4.745
950,-3,-1,-2,-4,-22,-4,-1,-2,4.75
951,0,-1,-1,1,15,0,0,0,4.755
952,0,-1,-3,-18,-4,1,0,-2,4.76
953,-1,-2,-2,-12,-22,-8,-1,-2,4.765
954,-2,-3,-3,-28,21,5,-1,-2,4.7700000000000005
955,1,0,-2,9,4,-3,0,0,4.775
956,1,2,-1,-43,-15,1,-1,1,4.78
957,0,0,2,10,15,2,1,0,4.785
958,-1,-2,-2,21,7,0,-1,2,4.79
959,-2,0,1,8,8,3,-1,-2,4.795
960,0,-2,-3,-5,-5,-4,1,0,4.8
961,-1,-1,0,-17,-4,-2,-2,-2,4.805
962,0,0,-2,-27,-11,-4,-2,-2,4.8100000000000005
963,-1,-1,0,55,33,3,-1,0,4.815
964,-2,1,1,15,-15,-4,-4,-2,4.82
965,-1,-1,-1,-27,-20,-4,-1,0,4.825
966,1,0,2,33,17,2,1,-1,4.83
967,1,-1,1,-17,-16,-2,-2,0,4.835
968,-1,-2,-2,7,-8,2,0,0,4.84
969,0,0,1,24,25,0,0,-1,4.845
970,0,1,0,-1,-8,1,0,0,4.8500000000000005
971,-2,-4,-3,-22,-22,-2,0,-3,4.855
972,0,1,1,11,-7,-1,0,0,4.86
973,0,-1,-3,-59,-5,-2,-1,0,4.865
974,-1,-1,-1,17,-7,-1,0,-1,4.87
975,0,2,-1,5,11,1,-1,-2,4.875
976,0,-1,0,5,17,0,-2,0,4.88
977,0,-1,0,8,-4,2,0,-1,4.885
978,0,-2,-2,28,-2,-2,-2,-1,4.89
979,-2,-2,-2,-8,-3,3,-1,1,4.8950000000000005
980,-1,0,-1,-2,4,-1,-1,-4,4.9
981,1,2,1,55,7,-1,-1,-1,4.905
982,0,-3,-1,-11,-3,0,0,-2,4.91
983,0,0,-1,18,-18,-2,-1,0,4.915
984,0,-2,-2,-30,46,3,0,1,4.92
985,-1,-4,-4,12,1,3,0,-2,4.925
986,-2,0,-3,22,-15,-7,-2,1,4.93
987,0,-1,-1,-8,10,-2,1,-1,4.9350000000000005
988,-2,0,2,30,-17,0,-1,0,4.94
989,-1,-2,-2,-40,-12,-2,1,0,4.945
990,0,-2,0,-7,5,-3,-1,-1,4.95
991,1,3,-1,11,0,-4,1,0,4.955
992,-2,-3,0,14,2,1,0,-1,4.96
993,-1,-1,-3,0,-5,-1,-3,-2,4.965
994,-1,1,1,5,22,5,1,0,4.97
995,-1,2,1,-1,-5,-2,1,0,4.9750000000000005
996,-2,-3,-3,-21,-6,-2,0,-2,4.98
997,1,0,0,-17,2,0,-3,-1,4.985
998,0,-3,-1,-1,21,-1,1,-1,4.99
999,-1,-4,-2,14,-10,2,-1,-2,4.995
1000,-2,0,-1,10,40,1,-3,-1,5.0
1001,0,2,2,32,-39,-2,0,0,5.005
1002,-1,-1,-2,-4,11,3,0,-1,5.01
1003,0,0,1,-22,6,-1,-1,0,5.015
1004,-2,-3,-2,29,-14,2,0,-2,5.0200000000000005
1005,0,0,-1,-16,-1,-1,0,0,5.025
1006,-2,0,-2,2,3,-2,-2,-1,5.03
1007,1,-1,-2,-6,11,2,0,0,5.035
1008,0,2,1,-16,-29,-7,0,0,5.04
1009,-2,0,0,49,22,1,-1,0,5.045
1010,-1,-1,-1,-34,-30,-2,-1,0,5.05
1011,-3,-4,-2,13,18,0,-2,-3,5.055
1012,-1,-3,-5,-12,-20,-3,0,-2,5.0600000000000005
1013,1,0,1,-25,-5,-2,1,-2,5.065
1014,-2,-1,-2,19,13,-2,-2,-1,5.07
1015,-1,-3,-1,30,7,5,1,0,5.075
1016,2,0,2,5,31,1,0,0,5.08
1017,-2,-5,-2,-22,-6,-2,-2,0,5.085
1018,0,0,2,-5,-22,2,-2,-1,5.09
1019,0,-1,-2,12,-3,-4,-1,0,5.095
1020,0,0,0,17,16,4,0,-2,5.1000000000000005
1021,0,0,-1,-14,13,-2,0,0,5.105
1022,0,2,2,-11,0,0,-2,0,5.11
1023,-3,-3,-6,-4,-6,-1,-2,-1,5.115
1024,-1,1,1,-24,-10,-7,-3,-2,5.12
1025,-1,-3,-3,-10,4,0,0,1,5.125
1026,0,0,-1,-9,-9,-2,-1,0,5.13
1027,0,-2,-1,10,1,-3,0,0,5.135
1028,0,-3,-5,-15,-23,-2,-2,0,5.14
1029,1,0,2,14,1,0,-2,-1,5.1450000000000005
1030,-3,-2,-2,22,2,-4,-2,-2,5.15
1031,-1,1,2,-13,1,-2,0,-1,5.155
1032,1,0,-1,-25,-16,-1,1,-1,5.16
1033,0,-1,-2,-9,20,1,-1,-2,5.165
1034,2,-2,0,-2,0,0,0,-1,5.17
1035,-3,-1,-2,-15,-4,-2,-2,0,5.175
1036,0,1,0,23,31,3,2,2,5.18
1037,0,1,3,-14,-9,1,0,1,5.1850000000000005
1038,-2,-4,-4,12,-5,-3,-1,-1,5.19
1039,1,-2,-1,13,3,0,0,0,5.195
1040,3,2,1,14,-14,1,0,0,5.2
1041,-1,-3,-3,6,3,-1,-1,-3,5.205
1042,-1,1,0,8,14,0,1,0,5.21
1043,0,-1,-1,-19,-1,0,0,-2,5.215
1044,-2,-3,-1,7,0,-6,-3,-1,5.22
1045,1,2,3,2,-8,0,2,1,5.2250000000000005
1046,-1,-2,-2,-2,-3,-1,-2,-1,5.23
1047,-1,1,0,-63,-9,3,0,0,5.235
1048,-1,-2,-3,64,15,1,0,1,5.24
1049,-2,-4,-6,-15,-15,-3,0,-1,5.245
1050,1,0,2,-5,-4,1,0,0,5.25
1051,-1,0,0,6,-8,-5,1,-1,5.255
1052,-3,-1,-4,-33,1,1,-1,-1,5.26
1053,0,-2,1,6,-25,-2,-1,-1,5.265
1054,2,1,1,-15,-8,0,-1,0,5.2700000000000005
1055,-1,-1,2,26,-5,0,-3,-3,5.275
1056,1,-2,-2,-41,22,1,1,-1,5.28
1057,0,0,-1,41,17,1,0,0,5.285
1058,-1,0,0,5,17,0,0,-2,5.29
1059,1,0,-2,19,18,2,1,-1,5.295
1060,0,0,2,-17,-34,-3,1,0,5.3
1061,-4,-3,-3,33,-7,-4,-4,-4,5.305
1062,-1,0,-2,-21,9,3,-1,0,5.3100000000000005
1063,1,1,1,18,-9,-3,-1,-2,5.315
1064,-2,-2,-4,-11,7,4,0,-1,5.32
1065,-1,-2,0,61,5,-3,-1,0,5.325
1066,2,2,0,-4,-13,2,1,1,5.33
1067,-2,-2,-1,-15,-2,-7,-3,-1,5.335
1068,1,1,3,-36,-35,-3,-2,-2,5.34
1069,-1,1,0,16,36,1,-1,1,5.345
1070,-2,-2,-2,-18,7,-1,1,-2,5.3500000000000005
1071,-1,-2,0,-13,3,2,-1,-1,5.355
1072,-2,-1,0,1,-19,-5,-3,-1,5.36
1073,0,2,-1,-24,22,2,2,0,5.365
1074,-4,-2,-4,0,-27,-6,-2,0,5.37
1075,0,0,1,8,20,7,2,0,5.375
1076,-2,-1,-2,1,-22,-7,-2,-3,5.38
1077,1,0,-1,-33,-7,5,1,-2,5.385
1078,-1,-1,-2,13,-6,-3,-2,-1,5.39
1079,0,0,-2,-48,11,0,0,0,5.3950000000000005
1080,-2,-1,-2,12,-3,-3,-1,-1,5.4
1081,-1,1,0,-65,-1,-2,-2,-1,5.405
1082,-2,-3,-2,49,10,-2,-2,-3,5.41
1083,1,-1,-1,40,-10,0,-1,-1,5.415
1084,1,1,0,-2,2,2,0,1,5.42
1085,2,-2,1,1,16,3,1,1,5.425
1086,-1,0,0,-14,-8,-5,-1,-2,5.43
1087,-3,-4,-4,-15,-15,-3,-3,-2,5.4350000000000005
1088,2,3,3,-3,0,3,4,1,5.44
1089,-1,-4,-3,-5,-31,-8,-2,-3,5.445
1090,1,1,0,-2,9,4,2,0,5.45
1091,-1,-1,0,27,-3,-3,0,-2,5.455
1092,-4,-5,-4,-16,42,3,-2,-3,5.46
1093,0,1,-1,-2,-25,1,-1,1,5.465
1094,1,0,1,-15,16,0,1,-1,5.47
1095,0,0,-2,21,11,1,0,2,5.4750000000000005
1096,-2,-4,-4,1,-8,-3,-1,0,5.48
1097,0,2,0,-1,1,-2,0,-1,5.485
1098,-1,-1,-1,4,-2,-1,-1,-3,5.49
1099,1,0,-1,7,-8,1,0,-1,5.495
1100,-1,-2,-1,-4,12,0,2,-1,5.5
1101,-1,-2,-1,14,2,2,0,-1,5.505
1102,-2,-2,0,-11,-7,-4,-2,0,5.51
1103,0,0,0,-18,-6,4,1,1,5.515
1104,-3,0,0,6,-32,-7,-4,-1,5.5200000000000005
1105,1,-1,-2,-7,5,1,0,-1,5.525
1106,-1,-1,-1,6,12,2,0,-1,5.53
1107,-1,0,0,-36,-23,-6,-2,-3,5.535
1108,0,1,0,13,5,0,-1,-1,5.54
1109,-2,-2,-1,-16,-4,-1,1,-3,5.545
1110,-2,-1,-2,-6,-3,-2,-2,1,5.55
1111,-1,0,1,-6,1,-3,-1,-1,5.555
1112,0,0,-2,1,13,7,2,-1,5.5600000000000005
1113,-2,0,-2,6,-11,-5,-3,-1,5.565
1114,-1,-2,-1,-3,8,2,0,1,5.57
1115,-1,-3,0,-35,-4,-4,-1,0,5.575
1116,-1,0,-2,6,13,1,-3,-2,5.58
1117,-2,-3,-2,59,10,0,-1,-4,5.585
1118,3,1,2,-6,-9,0,-1,-1,5.59
1119,-3,-4,-9,-29,13,-4,-2,-2,5.595
1120,-1,1,3,57,-3,3,0,0,5.6000000000000005
1121,-1,-2,0,5,22,1,-1,-1,5.605
1122,-2,-2,-4,23,33,3,-1,-1,5.61
1123,-1,1,-1,24,-4,0,-1,0,5.615
1124,1,0,1,-51,-24,-5,-2,1,5.62
1125,1,1,0,12,19,-1,0,0,5.625
1126,0,-2,-1,3,-34,-1,1,-2,5.63
1127,-1,0,-2,6,22,2,0,0,5.635
1128,-2,-1,-2,-1,12,-2,-1,-2,5.64
1129,-2,0,-2,-29,-7,-2,-1,0,5.6450000000000005
1130,1,0,-1,-7,-20,-3,-3,-1,5.65
1131,-2,-2,1,15,-9,1,-1,0,5.655
1132,0,-1,-2,-80,-19,-2,0,-1,5.66
1133,1,0,1,19,16,1,-1,0,5.665
1134,1,2,0,-7,3,-1,-1,-2,5.67
1135,2,-1,-1,14,6,5,0,0,5.675
1136,0,-1,0,-26,2,0,-2,-1,5.68
1137,-1,-1,-2,10,-33,-6,-2,-1,5.6850000000000005
1138,-1,0,0,-12,14,0,0,1,5.69
1139,-1,0,0,-15,-10,-2,-1,-2,5.695
1140,0,-2,-1,26,4,0,0,0,5.7
1141,0,1,0,-31,-26,-3,1,-2,5.705
1142,-3,-4,-3,44,24,2,-2,-2,5.71
1143,0,-1,-1,2,-6,-3,0,-1,5.715
1144,0,-1,0,10,-4,0,-1,-1,5.72
1145,-1,0,-2,2,9,0,0,0,5.7250000000000005
1146,-1,0,-1,-28,-26,-2,0,0,5.73
1147,0,0,2,19,11,-1,0,-1,5.735
1148,-2,-1,-1,-6,-7,-1,-1,-1,5.74
1149,-1,0,1,18,-9,-2,-1,0,5.745
1150,1,-1,0,-36,-23,-7,-2,0,5.75
1151,0,-1,-1,40,19,3,-1,1,5.755
1152,0,-2,-2,-4,-1,0,-1,-2,5.76
1153,-2,1,-2,16,-5,-4,-3,-2,5.765
1154,0,-3,-2,-23,4,0,1,-1,5.7700000000000005
1155,-1,0,-1,-10,-11,0,-1,-1,5.775
1156,-1,-3,-3,-2,-15,-6,-2,-1,5.78
1157,-2,0,-1,-1,3,1,-1,-1,5.785
1158,-2,-1,-1,6,-13,0,1,-1,5.79
1159,-1,0,0,-38,-6,-2,-1,-1,5.795
1160,-2,0,1,23,-29,-2,-1,-1,5.8
1161,-1,-4,-4,-32,3,-1,-2,-2,5.805
1162,0,0,0,-15,-6,-3,0,0,5.8100000000000005
1163,-2,-1,0,-4,-26,-3,-1,-1,5.815
1164,-1,0,-3,19,28,2,1,0,5.82
1165,-1,-1,1,-10,-9,-1,0,-1,5.825
1166,0,-1,-1,-14,14,2,-3,0,5.83
1167,-1,-1,-1,8,-6,-3,-2,-2,5.835
1168,1,0,0,17,1,-3,-1,-1,5.84
1169,0,-2,-1,-4,3,1,-1,0,5.845
1170,-1,1,0,14,-38,-8,-1,-2,5.8500000000000005
1171,1,1,3,-2,33,8,2,2,5.855
1172,0,1,-1,9,6,0,-1,-1,5.86
1173,-3,-3,-4,-76,-8,-1,-1,0,5.865
1174,-1,-2,1,37,29,6,1,-1,5.87
1175,-2,-1,0,-27,-14,-4,-2,-2,5.875
1176,-1,-1,-2,41,14,0,-1,-2,5.88
1177,0,-2,1,1,-5,1,0,1,5.885
1178,-2,-1,-4,0,-6,-1,-1,-2,5.89
1179,1,0,0,0,15,1,-1,0,5.8950000000000005
1180,-2,-4,-2,-17,-12,-2,-3,-1,5.9
1181,0,-1,-3,12,32,4,0,-1,5.905
1182,-2,-1,1,12,-7,-1,0,-2,5.91
1183,-1,-1,-2,28,18,6,1,0,5.915
1184,-2,0,0,-20,-24,-4,-1,-2,5.92
1185,-1,1,-2,19,11,-1,-2,-2,5.925
1186,-1,0,-2,1,-6,0,-3,-1,5.93
1187,-1,0,-2,0,0,-2,-1,-1,5.9350000000000005
1188,-1,-5,-4,-10,2,0,0,0,5.94
1189,0,-2,0,-15,-24,-4,-2,0,5.945
1190,-1,1,1,30,17,0,0,0,5.95
1191,-1,-2,-4,-61,-29,-7,-4,-1,5.955
1192,0,2,1,1,14,3,-1,1,5.96
1193,0,2,-1,-1,-14,-4,0,-3,5.965
1194,-2,-3,-2,-17,-2,-3,-2,-3,5.97
1195,-3,-3,-2,38,-4,-4,0,-1,5.9750000000000005
1196,0,0,1,-10,7,0,0,0,5.98
1197,0,1,1,-8,5,1,-1,0,5.985
1198,-1,-1,2,5,-11,0,1,-1,5.99
1199,0,2,0,-26,-31,-5,-1,-1,5.995
1200,-3,-4,-6,-27,8,-3,-2,-3,6.0
1201,1,2,2,42,-1,3,2,2,6.005
1202,0,-2,-2,-9,16,2,-1,1,6.01
1203,0,-1,0,-2,-13,-2,-1,-3,6.015000000000001
1204,1,1,0,-7,-7,-4,-3,0,6.0200000000000005
1205,-1,-2,-1,-8,3,2,2,-1,6.025
1206,1,0,-3,-8,-4,-1,-2,0,6.03
1207,-1,-1,0,9,13,2,0,0,6.035
1208,0,0,1,2,-1,-1,0,0,6.04
1209,-1,-3,-3,3,0,-1,-2,-1,6.045
1210,-1,-2,-1,-3,-3,-4,-1,0,6.05
1211,0,-1,-1,22,-14,0,0,0,6.055
1212,-2,-3,-2,-26,-12,-3,-1,-2,6.0600000000000005
1213,-2,-2,-2,-23,28,-2,-2,-2,6.065
1214,-1,4,4,16,10,4,2,-1,6.07
1215,-2,-5,-1,20,34,0,-1,-2,6.075
1216,-2,1,0,59,-3,-3,-1,-1,6.08
1217,-2,-7,-5,-3,-7,2,-1,-1,6.085
1218,0,0,-1,-33,-10,-2,-1,0,6.09
1219,-2,-1,-2,-11,-6,-2,-1,-2,6.095
1220,1,3,2,24,16,5,2,0,6.1000000000000005
1221,0,0,0,-3,-3,-1,-2,0,6.105
1222,0,-4,-4,17,7,-1,-1,-1,6.11
1223,0,0,-2,-1,-5,1,1,1,6.115
1224,0,0,-1,12,-2,-1,-1,-2,6.12
1225,-1,0,1,-5,-10,-1,-1,-2,6.125
1226,-3,-4,-4,-11,-4,-2,-2,-1,6.13
1227,1,-1,2,2,-4,-1,0,-2,6.135
1228,-2,-3,0,-4,-20,-2,-2,-2,6.140000000000001
1229,-1,4,2,6,-15,-3,2,0,6.1450000000000005
1230,1,-4,-6,10,18,1,-1,-2,6.15
1231,-3,-3,-5,-10,4,-4,-2,-2,6.155
1232,-1,-1,-1,10,-15,2,1,-1,6.16
1233,1,0,0,-5,-10,-3,-2,0,6.165
1234,-1,-2,-1,-15,-23,-9,-3,-2,6.17
1235,-1,-1,-2,-5,-2,-1,-1,1,6.175
1236,0,0,0,-28,4,0,1,0,6.18
1237,-1,0,-1,1,-5,-2,-1,0,6.1850000000000005
1238,0,1,1,-3,-7,-1,-1,0,6.19
1239,-1,-2,-2,12,16,6,1,-1,6.195
1240,-1,2,0,-4,3,2,-2,1,6.2
1241,-1,-4,0,-5,14,2,-1,-2,6.205
1242,-1,-3,-3,20,0,0,-1,-2,6.21
1243,-1,0,1,-9,-8,-2,0,-1,6.215
1244,0,-1,-3,-5,8,-1,1,0,6.22
1245,0,1,0,4,-1,-2,0,0,6.2250000000000005
1246,-2,-2,-2,-4,-3,0,-1,0,6.23
1247,-1,0,-1,-40,2,3,0,-1,6.235
1248,0,1,1,-8,-5,-3,0,0,6.24
1249,-1,-1,-2,8,3,-2,-2,-2,6.245
1250,-1,1,-1,-4,-8,-2,-1,0,6.25
1251,-2,1,-1,-10,-25,-2,-1,0,6.255
1252,0,-1,0,-6,11,3,2,0,6.26
1253,-1,0,0,11,-5,-3,0,-2,6.265000000000001
1254,1,-1,2,7,11,5,2,2,6.2700000000000005
1255,-1,-1,-2,13,-8,-4,-2,0,6.275
1256,0,-2,-2,-23,-8,-4,-1,0,6.28
1257,-2,-2,-1,12,-2,-3,-1,-2,6.285
1258,-2,-3,-2,1,10,-1,-3,-2,6.29
1259,2,2,3,-3,-3,2,1,0,6.295
1260,-3,-3,-2,-6,-17,-2,-2,-2,6.3
1261,-2,-2,-5,-38,8,2,0,0,6.305
1262,-2,1,0,-7,-21,-4,0,-1,6.3100000000000005
1263,1,-1,1,8,28,2,-1,0,6.315
1264,-2,-3,-2,58,31,0,-1,-3,6.32
1265,-1,-2,1,-13,-23,-2,0,-1,6.325
1266,0,3,0,-11,-20,-3,-2,-3,6.33
1267,1,-2,-2,-4,42,5,2,1,6.335
1268,0,-1,-1,-7,-27,-8,-2,-3,6.34
1269,3,2,1,-11,23,6,2,0,6.345
1270,-1,-1,0,-1,5,-1,0,0,6.3500000000000005
1271,0,1,0,5,-22,-1,-2,-1,6.355
1272,-2,-3,-3,-6,-8,-2,-3,-1,6.36
1273,1,1,0,13,-16,-4,1,0,6.365
1274,0,-1,0,4,17,2,0,-1,6.37
1275,-2,-3,-4,16,-28,-9,-4,-5,6.375
1276,0,-1,-1,-2,20,5,-2,0,6.38
1277,-3,-1,-3,4,-18,-4,-2,-3,6.385
1278,0,2,1,13,15,4,0,1,6.390000000000001
1279,-1,-1,-1,-11,7,-2,-1,-1,6.3950000000000005
1280,0,0,1,23,2,0,0,1,6.4
1281,-1,-1,-2,15,-2,-3,-3,-1,6.405
1282,-1,-3,-5,-18,0,-4,-1,-2,6.41
1283,0,1,0,16,9,2,0,1,6.415
1284,-2,-2,-1,-9,12,2,0,-1,6.42
1285,0,-1,2,0,11,2,-1,1,6.425
1286,-1,-1,1,8,1,3,1,-2,6.43
1287,-1,-2,-4,4,-15,-3,0,-2,6.4350000000000005
1288,2,4,3,-21,2,3,2,2,6.44
1289,0,0,-1,-6,4,-2,-1,0,6.445
1290,-1,-4,-4,17,15,0,-2,-1,6.45
1291,-2,0,2,-3,-7,-4,0,-1,6.455
1292,-2,-2,-3,33,13,-2,-2,-2,6.46
1293,-1,-3,-2,-57,-23,-4,-2,0,6.465
1294,2,4,4,-7,5,5,0,1,6.47
1295,-2,-6,-6,-16,-15,-6,-4,-2,6.4750000000000005
1296,0,3,1,-3,18,3,1,-1,6.48
1297,0,-4,-1,3,-22,-3,-1,-2,6.485
1298,0,-2,-2,-1,13,1,-1,-3,6.49
1299,-1,-1,-1,28,37,3,-1,-1,6.495
1300,-1,0,-2,-21,-25,-4,-2,-1,6.5
1301,0,-1,-3,33,0,5,2,1,6.505
1302,-1,0,0,-8,6,-1,-2,-1,6.51
1303,0,1,3,-14,-13,0,0,-2,6.515000000000001
1304,0,-1,1,6,22,3,2,0,6.5200000000000005
1305,0,1,2,16,29,4,0,0,6.525
1306,-3,-3,-4,-20,-13,-4,0,-1,6.53
1307,-3,0,1,30,5,-4,-2,-1,6.535
1308,0,-4,-4,-3,-1,1,-1,-1,6.54
1309,-1,1,0,-33,7,1,-1,-1,6.545
1310,-1,0,0,45,15,-1,0,-1,6.55
1311,1,1,0,-15,-20,1,1,1,6.555
1312,-2,-3,1,22,-22,-4,-2,-1,6.5600000000000005
1313,1,-1,-2,2,19,4,0,-1,6.565
1314,0,1,-1,11,10,0,0,-1,6.57
1315,-2,-2,-2,-9,0,-1,0,-2,6.575
1316,0,0,1,-1,-10,-3,-2,-1,6.58
1317,0,1,0,-4,-16,-5,-3,-1,6.585
1318,1,0,1,17,25,4,-1,0,6.59
1319,-2,-5,-4,0,3,0,-1,-1,6.595
1320,-1,-1,-1,-19,-10,0,-1,2,6.6000000000000005
1321,-1,0,1,17,-22,-3,0,0,6.605
1322,0,1,-1,-22,-22,-2,1,-1,6.61
1323,-2,-2,-7,-27,-12,-6,-5,-3,6.615
1324,0,-1,-1,1,-3,-3,-1,-1,6.62
1325,-3,-3,-2,5,2,1,-2,-1,6.625
1326,1,0,1,31,0,-5,-1,-1,6.63
1327,0,2,-2,-74,-16,0,1,-1,6.635
1328,-1,-2,-1,-6,-5,-1,-2,-3,6.640000000000001
1329,2,2,1,-24,-2,1,0,0,6.6450000000000005
1330,-3,-3,-2,27,-25,-7,-3,-3,6.65
1331,3,1,2,13,41,5,0,0,6.655
1332,-2,-2,0,15,-5,-3,-1,-1,6.66
1333,-1,-1,-1,-9,-5,0,0,2,6.665
1334,1,-1,1,-22,-5,-2,-2,0,6.67
1335,-1,-3,-1,10,-45,-4,-2,0,6.675
1336,2,2,1,2,40,4,1,1,6.68
1337,-2,-2,-5,9,1,-4,-1,-3,6.6850000000000005
1338,-2,-1,0,-9,2,-1,1,2,6.69
1339,-1,-1,1,22,5,2,0,-2,6.695
1340,0,0,0,-31,-19,-1,-2,0,6.7
1341,-3,-4,-2,45,32,1,0,0,6.705
1342,0,-1,-2,-29,-8,4,-1,0,6.71
1343,1,1,1,24,-21,-5,0,-1,6.715
1344,-1,-2,-3,13,26,0,0,-1,6.72
1345,-1,0,0,7,-11,-1,-2,0,6.7250000000000005
1346,-1,0,-1,-13,9,4,0,0,6.73
1347,-1,-5,-4,-63,8,-3,-3,-1,6.735
1348,0,0,-1,-22,-17,-2,-1,1,6.74
1349,0,0,2,12,-14,-3,0,-2,6.745
1350,-1,-3,-1,-35,0,-3,-1,-1,6.75
1351,0,3,2,26,20,-1,0,1,6.755
1352,0,-1,-2,-2,-20,-3,0,-1,6.76
1353,0,-1,-1,-15,18,0,1,0,6.765000000000001
1354,-1,-1,0,-1,-31,-3,-2,-3,6.7700000000000005
1355,-1,-2,-3,26,48,5,1,0,6.775
1356,-1,0,1,-6,-8,-1,-2,-1,6.78
1357,0,0,1,16,-4,-3,-1,-2,6.785
1358,2,1,0,-1,-14,-2,-2,0,6.79
1359,-1,0,-3,4,-20,2,-1,-1,6.795
1360,-1,-1,-3,-12,18,3,-1,-1,6.8
1361,0,-2,-2,-47,-3,0,0,0,6.805
1362,-2,-1,-1,13,-11,-5,-3,-1,6.8100000000000005
1363,-1,-2,1,0,9,4,0,-1,6.815
1364,-1,-1,-1,5,-13,1,1,0,6.82
1365,1,1,0,39,-23,-7,-1,-1,6.825
1366,1,0,0,-39,29,7,1,-1,6.83
1367,-2,-3,1,23,10,2,-2,-1,6.835
1368,0,-1,-2,0,0,-3,-2,-2,6.84
1369,-3,-3,-3,23,-7,-1,-2,-2,6.845
1370,-2,-2,0,26,-18,-2,1,-1,6.8500000000000005
1371,-1,0,1,-1,-29,-3,-1,-1,6.855
1372,-1,-1,-2,13,23,2,0,-1,6.86
1373,-1,0,-1,-16,-1,1,0,-1,6.865
1374,-2,-1,-2,2,-11,-4,-2,-1,6.87
1375,-2,-2,-3,-12,-10,-2,0,0,6.875
1376,-1,-2,-1,-2,-36,-5,-3,-2,6.88
1377,-1,-2,-1,20,4,0,-1,-1,6.885
1378,0,0,-2,-18,18,5,1,-1,6.890000000000001
1379,1,2,0,39,12,-1,0,0,6.8950000000000005
1380,-1,-2,-3,-29,-12,-6,0,-1,6.9
1381,-2,-1,-1,45,17,3,0,-3,6.905
1382,-1,-3,-2,-3,-8,-7,-4,-2,6.91
1383,2,3,2,-27,-27,-5,0,1,6.915
1384,-1,-2,1,29,42,4,-1,1,6.92
1385,0,0,-1,-4,1,3,0,0,6.925
1386,0,0,-2,-34,-1,-3,-2,-1,6.93
1387,0,-1,-2,-3,7,-5,-2,-1,6.9350000000000005
1388,-1,0,-1,-5,-26,-3,-1,-2,6.94
1389,1,0,-1,-84,-5,-3,-1,1,6.945
1390,-2,0,-2,20,2,1,-1,0,6.95
1391,1,1,-2,-21,-11,0,-2,0,6.955
1392,-2,0,0,-7,28,1,-1,-2,6.96
1393,0,-4,-4,-17,8,0,-1,0,6.965
1394,-3,-1,0,17,-1,-4,-1,0,6.97
1395,-1,0,-1,-23,6,3,1,1,6.9750000000000005
1396,0,0,1,39,-3,-2,-2,-1,6.98
1397,-1,1,0,0,-7,-3,-1,-2,6.985
1398,0,-1,1,-4,6,3,-1,0,6.99
1399,-2,-2,1,23,8,-1,-1,-2,6.995
1400,-2,-2,-4,-5,-3,-1,-1,0,7.0
1401,-1,0,0,-1,-21,-10,-4,-2,7.005
1402,1,2,0,-12,14,11,3,1,7.01
1403,0,-3,-2,29,12,-1,0,-1,7.015000000000001
1404,0,-1,0,-17,-16,-4,0,0,7.0200000000000005
1405,-2,-1,0,4,1,-3,-1,-1,7.025
1406,0,0,1,-9,-2,-1,-1,-1,7.03
1407,-2,0,-3,-7,0,-1,0,-1,7.035
1408,0,2,1,-11,-15,-2,-2,0,7.04
1409,-3,-4,-3,5,7,1,-2,-1,7.045
1410,0,-3,-2,36,5,-5,0,-3,7.05
1411,-1,0,1,17,-10,-1,0,0,7.055
1412,-1,-3,0,0,15,-1,0,0,7.0600000000000005
1413,0,0,-2,-10,-18,-2,2,0,7.065
1414,-1,-2,0,-12,1,-3,-2,-1,7.07
1415,2,-1,0,18,-1,2,0,-1,7.075
1416,-2,-1,-1,-10,-14,-2,0,-1,7.08
1417,0,-2,1,-14,-4,-1,0,-1,7.085
1418,-3,-2,-3,-4,-10,-1,-1,0,7.09
1419,0,-2,0,-8,14,-3,-2,0,7.095
1420,-1,-1,-1,-22,-14,0,0,-1,7.1000000000000005
1421,-1,0,0,33,17,3,-2,-1,7.105
1422,-1,-1,-1,-4,-19,-9,-2,-1,7.11
1423,0,1,0,-13,-9,2,-1,-1,7.115
1424,-2,1,-1,7,8,-1,-2,0,7.12
1425,0,-1,2,0,11,3,0,-1,7.125
1426,-1,0,1,18,-12,0,2,0,7.13
1427,-3,-4,-5,-67,-24,-8,-1,-4,7.135
1428,-1,-2,-1,9,23,4,1,0,7.140000000000001
1429,1,2,1,7,-3,-3,-1,0,7.1450000000000005
1430,-2,-5,-4,-9,-1,-2,-3,0,7.15
1431,2,0,-2,1,13,2,0,1,7.155
1432,2,1,0,3,-9,-2,0,-2,7.16
1433,0,2,-2,-46,-15,-3,-1,-2,7.165
1434,0,-2,0,51,-14,-1,-1,-3,7.17
1435,-3,0,0,-10,20,4,0,-1,7.175
1436,1,-1,0,17,-9,-3,-1,-2,7.18
1437,-1,-3,-2,3,15,0,0,1,7.1850000000000005
1438,-1,0,0,-25,-16,-2,1,-1,7.19
1439,-2,0,-1,-2,-4,-1,0,-2,7.195
1440,-3,-2,-3,-6,-6,0,-1,-1,7.2
1441,0,-1,-2,17,21,1,1,0,7.205
1442,-1,1,-1,-36,-11,-1,0,0,7.21
1443,-1,-4,-1,60,3,-2,-2,0,7.215
1444,-1,-1,-1,-7,9,-1,-1,-1,7.22
1445,-1,2,0,1,-15,3,-1,-1,7.2250000000000005
1446,1,0,-1,-13,-6,-2,-1,-1,7.23
1447,1,1,-2,-36,-8,-1,0,0,7.235
1448,1,1,1,15,8,-2,0,-2,7.24
1449,-2,-3,-4,3,-13,0,0,-2,7.245
1450,0,2,3,-3,18,1,0,1,7.25
1451,-2,-2,-3,-8,6,4,0,-2,7.255
1452,1,-1,3,5,13,0,-2,1,7.26
1453,-1,-2,-3,-22,-8,-4,-3,-1,7.265000000000001
1454,-1,-2,-1,5,2,1,0,-2,7.2700000000000005
1455,1,-1,0,9,-21,-6,-1,0,7.275
1456,-1,0,-5,-44,12,0,-2,-1,7.28
1457,-1,0,-1,-32,-12,-4,0,-2,7.285
1458,-1,1,3,29,14,1,0,-1,7.29
1459,-2,-2,-5,-7,-27,-3,-1,-2,7.295
1460,-1,-5,-3,-11,28,1,0,-1,7.3
1461,-2,-3,-2,-14,-15,-7,0,-3,7.305
1462,0,-1,-3,3,17,2,0,-1,7.3100000000000005
1463,-1,-1,2,7,-11,-3,-1,-1,7.315
1464,0,0,-2,-8,-39,-1,-1,1,7.32
1465,0,1,0,20,18,4,1,0,7.325
1466,-1,-1,-2,-3,3,-3,-2,-2,7.33
1467,1,1,1,-2,6,-2,-1,0,7.335
1468,-1,-1,-2,15,-11,-1,-1,-2,7.34
1469,-1,1,2,18,11,1,-3,0,7.345
1470,0,-3,-2,-2,-3,-4,0,-1,7.3500000000000005
1471,-1,0,2,12,-2,0,-2,-2,7.355
1472,-2,-1,-2,11,14,1,0,0,7.36
1473,-1,0,-1,34,-18,-3,-1,0,7.365
1474,-1,-2,-2,-5,-1,5,0,0,7.37
1475,-1,0,0,4,36,1,0,0,7.375
1476,-1,-2,1,7,-7,-1,0,-2,7.38
1477,-3,-8,-6,31,32,-1,-3,-1,7.385
1478,-1,2,-2,-12,-48,-5,-1,-1,7.390000000000001
1479,-2,0,-3,1,0,-2,0,1,7.3950000000000005
1480,1,2,1,4,-4,1,1,-1,7.4
1481,1,1,-1,-23,2,2,1,0,7.405
1482,-2,0,0,5,-1,-4,-5,0,7.41
1483,0,1,0,6,11,0,-1,1,7.415
1484,-2,2,0,-7,0,-1,0,-1,7.42
1485,-1,-2,-2,4,-6,-2,-2,-1,7.425
1486,0,-1,0,-9,5,1,1,-1,7.43
1487,0,-1,-1,-5,-7,2,-1,0,7.4350000000000005
1488,-3,-3,-3,-10,-13,-1,-3,-3,7.44
1489,1,-1,2,-8,6,-2,0,-1,7.445
1490,1,0,1,30,-4,-4,0,-1,7.45
1491,0,0,1,-20,-3,8,2,1,7.455
1492,-1,-1,-2,23,36,0,0,-1,7.46
1493,0,0,4,-6,3,5,-1,-1,7.465
1494,-1,-8,-11,-30,-8,-2,-2,-2,7.47
1495,-1,1,-1,21,21,-2,0,-1,7.4750000000000005
1496,-2,-3,0,-5,-28,-3,0,-1,7.48
1497,0,2,-1,-16,-3,0,1,0,7.485
1498,-2,-4,-4,0,4,-1,-2,-3,7.49
1499,-1,1,2,34,-10,-2,-1,0,7.495
1500,1,-2,-1,-6,8,2,1,0,7.5
1501,-3,0,-2,7,-22,-5,-1,-1,7.505
1502,0,0,2,1,17,4,0,0,7.51
1503,-1,-1,-2,-15,-21,-1,-1,0,7.515000000000001
1504,-1,0,-1,9,-4,-2,-1,-1,7.5200000000000005
1505,-1,-1,-2,-21,0,-3,-2,-1,7.525
1506,-2,0,-1,-26,8,-1,0,-2,7.53
1507,0,-2,0,19,6,-1,-1,-2,7.535
1508,-1,-1,-1,-18,-24,-1,-2,-1,7.54
1509,-2,-1,-2,-17,4,2,0,-1,7.545
1510,0,-1,-1,4,7,1,0,1,7.55
1511,-3,-5,-5,-16,-5,-6,-2,-2,7.555
1512,3,0,-2,-5,-13,-2,-1,2,7.5600000000000005
1513,-3,-1,-1,21,-8,0,0,-1,7.565
1514,1,3,4,2,13,1,0,1,7.57
1515,-3,-8,-6,12,-32,-4,-3,-5,7.575
1516,1,1,1,32,5,-1,0,-1,7.58
1517,0,-2,-1,-6,2,-1,-2,-3,7.585
1518,-1,-2,-1,11,10,-1,0,1,7.59
1519,0,1,-2,-7,11,3,-2,1,7.595
1520,-1,0,-1,-14,15,-1,0,-2,7.6000000000000005
1521,0,1,-1,11,-1,-3,-2,-1,7.605
1522,-1,0,-1,-2,-12,-4,-3,-1,7.61
1523,0,-1,1,-6,-2,-3,-2,-1,7.615
1524,1,1,1,-27,2,0,1,2,7.62
1525,0,-3,-3,58,-4,-4,-1,0,7.625
1526,-1,0,-1,-4,13,2,0,-1,7.63
1527,-2,-1,-3,-31,-20,-5,-3,-1,7.635
1528,-1,0,2,44,23,4,0,0,7.640000000000001
1529,-2,-2,-2,-44,-19,-6,1,-3,7.6450000000000005
1530,-2,-3,-1,11,4,2,0,-1,7.65
1531,0,0,2,10,11,1,2,0,7.655
1532,-2,-2,-4,-19,-15,0,-2,1,7.66
1533,-1,0,-2,-17,5,0,0,0,7.665
1534,0,-1,-1,4,-7,-2,-1,-1,7.67
1535,-1,0,-1,27,-21,-7,-2,-1,7.675
1536,0,-2,0,-34,27,4,0,-1,7.68
1537,1,0,-3,10,7,0,-1,1,7.6850000000000005
1538,0,0,1,-10,-29,-4,0,-1,7.69
1539,1,1,1,6,16,3,0,0,7.695
1540,-2,-1,-8,7,-18,-7,-5,-3,7.7
1541,1,-1,2,-2,15,5,3,1,7.705
1542,-1,1,-1,17,-15,-2,1,-2,7.71
1543,0,-2,0,-33,2,-4,1,-1,7.715
1544,0,-2,1,49,11,1,-2,-1,7.72
1545,-1,-1,-1,9,-12,-4,-1,0,7.7250000000000005
1546,1,1,0,-16,17,6,1,0,7.73
1547,0,-1,-3,-29,-1,-1,-1,-2,7.735
1548,-1,0,1,14,1,1,-1,-1,7.74
1549,-1,1,-1,0,-5,-2,-3,-2,7.745
1550,-1,-4,-1,17,0,-3,-2,-2,7.75
1551,-2,2,1,-17,21,0,-2,0,7.755
1552,-3,-5,-4,-16,-27,-6,-1,-3,7.76
1553,-1,-1,-3,-5,13,5,-1,0,7.765000000000001
1554,0,1,0,27,3,0,1,2,7.7700000000000005
1555,-2,-1,-3,-19,-16,-2,0,-1,7.775
1556,-1,-2,3,24,12,0,0,-1,7.78
1557,0,-3,-3,-50,-16,-5,-2,-1,7.785
1558,-2,-2,-1,-8,9,0,-1,-3,7.79
1559,-1,0,-2,17,9,0,0,0,7.795
1560,-1,2,1,-24,-10,-1,0,0,7.8
1561,-2,-3,-1,38,3,0,-3,-3,7.805000000000001
1562,0,-1,-1,20,-5,-3,-2,-2,7.8100000000000005
1563,0,-1,2,-40,24,5,0,-1,7.815
1564,-1,0,0,-24,-28,-6,-1,0,7.82
1565,0,1,0,1,9,0,1,-1,7.825
1566,-1,-1,0,-7,-12,-4,-2,-1,7.83
1567,-2,-2,-2,20,0,1,0,0,7.835
1568,-1,-2,-4,-8,2,-2,-1,-3,7.84
1569,-1,0,0,-2,-5,-1,-1,1,7.845
1570,1,2,0,-11,2,1,-1,1,7.8500000000000005
1571,-1,-2,0,2,-13,-5,-3,-1,7.855
1572,1,0,-1,-8,-3,2,1,0,7.86
1573,0,1,0,17,-10,-4,-2,-1,7.865
1574,0,-1,-5,-7,17,1,-1,0,7.87
1575,1,1,1,45,5,2,1,0,7.875
1576,-2,-3,-5,-14,15,-1,-2,-2,7.88
1577,1,1,2,1,12,3,1,0,7.885
1578,-2,-3,-5,-30,-25,-5,-3,-2,7.890000000000001
1579,-1,2,3,51,-11,-3,1,0,7.8950000000000005
1580,-2,-1,-3,-22,5,1,-1,-1,7.9
1581,0,1,1,-12,-3,2,1,0,7.905
1582,-2,0,0,-59,-24,-4,0,-2,7.91
1583,1,0,-2,14,8,-1,-1,-1,7.915
1584,0,-3,-1,10,-7,-3,-1,0,7.92
1585,0,-1,0,-1,2,1,-2,-2,7.925
1586,-1,0,4,17,13,0,0,0,7.930000000000001
1587,1,3,-2,-17,-7,4,-1,-1,7.9350000000000005
1588,0,0,-1,-22,16,1,0,0,7.94
1589,1,-2,-2,29,0,-1,0,-2,7.945
1590,-1,-1,-1,18,-9,-1,-1,-1,7.95
1591,-1,-2,-2,-23,11,-1,-2,-2,7.955
1592,-1,1,0,16,-6,-4,-2,1,7.96
1593,0,2,0,-5,6,2,-1,0,7.965
1594,-1,-4,-3,-52,-13,-1,-1,-3,7.97
1595,-1,-3,-3,-13,-12,-2,0,0,7.9750000000000005
1596,-1,0,0,14,-22,-4,-2,-2,7.98
1597,-1,-3,-1,5,3,-3,-1,-1,7.985
1598,0,2,0,13,0,-1,-1,-1,7.99
1599,0,-2,-1,-18,-23,-6,-2,-2,7.995
1600,0,2,1,-2,35,7,3,-1,8.0
1601,-2,-4,-2,-3,6,-2,-1,-3,8.005
1602,-1,-3,-2,19,0,0,-1,0,8.01
1603,-3,-2,-3,-7,-11,-3,-2,-1,8.015
1604,1,-2,-2,11,5,1,0,1,8.02
1605,0,1,0,-28,-20,-3,-1,-1,8.025
1606,0,-1,-2,39,39,6,0,1,8.03
1607,-1,-3,-2,0,9,2,-2,-1,8.035
1608,-2,-1,-3,9,-11,-2,-1,-3,8.040000000000001
1609,-2,-1,-1,-30,-15,-3,-2,0,8.045
1610,-1,-3,-2,-1,13,-2,1,1,8.05
1611,-2,-1,-2,13,16,0,-2,2,8.055
1612,1,1,0,-21,5,1,0,0,8.06
1613,-1,-2,-2,11,-11,0,1,0,8.065
1614,-1,2,2,-1,9,1,-2,0,8.07
1615,-2,-1,0,-22,-9,-1,0,-2,8.075
1616,0,-1,-1,-1,-17,-4,-2,-2,8.08
1617,-1,0,-1,-4,13,-2,-2,-1,8.085
1618,3,2,3,5,2,6,4,0,8.09
1619,1,2,1,4,1,-1,-2,0,8.095
1620,-2,-4,-2,-6,-20,-4,-1,-2,8.1
1621,0,0,-1,-15,-4,-2,-1,-2,8.105
1622,-4,-1,0,17,0,-2,-1,-3,8.11
1623,1,-1,-1,-5,-25,-1,-1,-1,8.115
1624,-1,3,1,20,34,3,0,1,8.120000000000001
1625,-3,-3,-3,5,8,2,-1,-1,8.125
1626,-1,-1,-1,-8,-8,-3,-1,0,8.13
1627,1,-2,1,-22,-25,-5,0,-2,8.135
1628,-1,1,0,-11,-12,-3,1,0,8.14
1629,1,2,4,15,31,9,3,0,8.145
1630,-2,-1,-2,10,-23,-4,-3,-2,8.15
1631,0,1,-1,0,17,2,2,0,8.155
1632,0,1,1,8,-13,-6,0,0,8.16
1633,-1,-3,-2,12,-7,-2,0,-1,8.165000000000001
1634,0,0,-2,-16,-11,0,-1,-2,8.17
1635,-1,-2,0,34,11,1,0,0,8.175
1636,-1,-3,1,-4,15,0,-3,1,8.18
1637,-2,-3,-5,-6,-19,-6,-3,-1,8.185
1638,0,0,1,8,-7,-4,-2,-2,8.19
1639,1,-2,-1,-21,-11,1,1,0,8.195
1640,0,-2,-1,5,-5,0,0,-1,8.2
1641,-2,-1,1,2,-13,-1,-1,-1,8.205
1642,-1,-3,-5,-34,-12,-3,-1,-1,8.21
1643,-1,1,0,-10,23,1,0,-1,8.215
1644,-2,-1,0,8,-6,0,-1,-2,8.22
1645,-1,0,-1,2,6,0,0,-1,8.225
1646,1,-2,-3,-24,-14,-4,-3,0,8.23
1647,-2,0,0,14,10,0,0,-1,8.235
1648,-2,-5,-5,-14,-9,0,0,-2,8.24
1649,0,1,0,17,24,2,1,0,8.245000000000001
1650,-1,-1,1,10,-8,-5,0,-1,8.25
1651,-2,-1,0,24,7,1,-1,0,8.255
1652,0,-4,-3,-18,13,-1,-4,-3,8.26
1653,0,0,0,-20,-17,-4,-2,1,8.265
1654,1,0,0,-16,1,3,1,0,8.27
1655,-2,-3,-2,2,-7,-3,0,-1,8.275
1656,-1,0,-1,-2,4,0,2,0,8.28
1657,0,-1,0,-4,-26,-5,-2,-1,8.285
1658,-1,-1,-2,-25,-3,-2,-2,0,8.290000000000001
1659,-2,-1,-1,-5,13,-1,-2,-1,8.295
1660,1,-1,0,14,-9,1,-1,0,8.3
1661,-2,-1,0,-1,-5,0,-1,0,8.305
1662,-1,1,1,-11,10,2,0,0,8.31
1663,3,-1,-2,28,2,-1,1,-2,8.315
1664,-2,-3,-2,10,-9,-3,-1,-3,8.32
1665,0,0,1,0,8,1,1,0,8.325
1666,-2,0,0,-2,15,1,-1,-3,8.33
1667,0,1,1,-52,-22,-4,-2,0,8.335
1668,1,-1,0,60,35,5,-2,1,8.34
1669,-1,-2,-3,-18,-22,-4,-1,-1,8.345
1670,0,-1,1,-10,-1,-1,-1,1,8.35
1671,0,0,-1,23,10,0,0,0,8.355
1672,-1,0,0,-3,-24,-2,0,-1,8.36
1673,-2,-1,-2,-53,6,-2,-1,-2,8.365
1674,-2,-2,-2,61,7,1,-1,0,8.370000000000001
1675,-1,-1,-1,3,9,-2,-2,0,8.375
1676,1,1,1,-16,1,2,0,2,8.38
1677,-1,-3,-1,37,7,1,0,1,8.385
1678,-2,-4,-3,-5,-5,-4,-2,-2,8.39
1679,-1,-2,-2,-24,-11,-3,-1,-1,8.395
1680,-1,-1,-1,-31,-15,-5,-2,-3,8.4
1681,1,3,4,29,28,5,0,-1,8.405
1682,-2,-4,-4,2,-6,-5,-4,-3,8.41
1683,0,0,-1,5,-2,0,-2,1,8.415000000000001
1684,-2,-2,-2,-17,-1,-4,-1,-1,8.42
1685,-1,1,-2,16,12,2,2,0,8.425
1686,-1,1,-1,21,-3,-3,-2,0,8.43
1687,-2,-3,-1,19,10,0,0,-2,8.435
1688,1,2,-2,9,4,2,1,2,8.44
1689,-3,-5,-6,-31,-20,-9,-6,-2,8.445
1690,1,3,4,11,2,4,3,2,8.45
1691,-1,1,3,3,-22,-3,0,-1,8.455
1692,0,-2,1,-29,-10,-1,-1,-1,8.46
1693,1,1,1,-10,7,1,0,-1,8.465
1694,0,-2,-2,11,14,1,1,-1,8.47
1695,2,1,1,-7,-8,0,1,1,8.475
1696,-2,-1,-1,1,-11,-5,-2,-1,8.48
1697,0,-1,0,11,0,-2,-1,0,8.485
1698,-1,-2,-2,-12,-4,0,-1,-2,8.49
1699,1,2,-1,-16,2,2,0,0,8.495000000000001
1700,-1,-3,-2,8,-8,-3,-1,-1,8.5
1701,2,1,0,17,7,2,2,1,8.505
1702,-1,1,2,3,8,3,-1,1,8.51
1703,-2,-3,-4,-12,13,-2,-3,-3,8.515
1704,-1,1,1,-15,-15,-2,-2,-2,8.52
1705,-2,0,0,-9,-15,-4,0,-1,8.525
1706,0,-2,-2,-32,-1,-5,-1,-2,8.53
1707,-3,-1,-3,23,13,-3,-2,-3,8.535
1708,1,2,3,-26,-25,0,1,1,8.540000000000001
1709,-1,-1,-3,-8,1,2,-1,-1,8.545
1710,0,-2,0,66,21,6,0,2,8.55
1711,0,-3,-5,-38,-12,2,0,-1,8.555
1712,-2,0,-1,-5,21,1,-2,-2,8.56
1713,-2,-2,-1,-4,-18,-5,-3,-1,8.565
1714,0,1,0,-6,-5,1,0,0,8.57
1715,0,0,-2,-16,-19,-1,-2,0,8.575000000000001
1716,0,-1,-1,19,15,2,0,-1,8.58
1717,0,-1,-2,-7,-19,-4,-2,-1,8.585
1718,0,1,1,7,25,4,-1,1,8.59
1719,-4,-3,-4,-11,-19,-4,0,1,8.595
1720,-2,0,1,1,6,0,-1,1,8.6
1721,-1,-1,-1,7,8,0,-1,-1,8.605
1722,0,-1,-1,-15,-14,-6,0,0,8.61
1723,-1,0,2,-19,-18,-4,-3,-1,8.615
1724,0,-4,-3,52,33,7,2,-1,8.620000000000001
1725,0,0,-1,-9,-28,0,0,-1,8.625
1726,-1,-3,-1,22,-6,-3,-3,-4,8.63
1727,-1,-1,0,2,4,1,-3,0,8.635
1728,-1,-3,-3,-5,-6,-5,-2,-2,8.64
1729,-1,-1,0,1,3,0,-1,-1,8.645
1730,0,-1,-2,-16,-21,-3,1,-2,8.65
1731,-2,-2,-1,-10,22,-2,-1,0,8.655
1732,2,5,3,9,13,5,3,0,8.66
1733,-3,-6,-5,-7,5,-2,-2,-2,8.665000000000001
1734,-1,-1,-3,-54,-14,-3,-1,0,8.67
1735,0,2,3,15,14,3,2,0,8.675
1736,-1,-1,-1,-6,-11,-4,-2,0,8.68
1737,0,-1,-2,-7,15,1,-1,-2,8.685
1738,0,1,1,0,-3,0,0,-1,8.69
1739,0,0,-1,3,-5,0,-1,-1,8.695
1740,0,-1,-2,-25,-34,-4,0,-1,8.700000000000001
1741,-1,-1,0,18,5,-2,-2,-1,8.705
1742,-1,-1,-4,-17,-14,-4,-1,-2,8.71
1743,0,1,-1,11,14,8,0,0,8.715
1744,-3,-6,-6,-21,-5,-4,-2,-3,8.72
1745,1,1,2,-16,21,5,1,0,8.725
1746,-2,-1,-3,-13,7,-3,-2,0,8.73
1747,-3,-4,0,0,-3,-3,0,0,8.735
1748,1,2,-2,-2,-9,-3,-2,1,8.74
1749,0,0,0,28,-8,3,1,0,8.745000000000001
1750,0,-2,1,-28,2,1,-1,-3,8.75
1751,-1,1,-2,13,-7,0,-2,-2,8.755
1752,0,-1,0,-29,-6,-2,-1,-1,8.76
1753,-1,1,0,8,-2,-1,0,1,8.765
1754,0,-3,-3,20,-13,-4,-2,0,8.77
1755,-4,-2,-1,4,-8,0,-1,-3,8.775
1756,-1,0,0,0,22,3,1,0,8.78
1757,-1,-2,-3,-19,-12,-7,-2,-3,8.785
1758,-3,0,1,67,14,0,-1,0,8.790000000000001
1759,0,-3,-3,-23,5,-2,-2,-1,8.795
1760,-1,-1,-1,14,-11,-2,-2,-1,8.8
1761,-1,-1,0,16,-6,-2,-3,-3,8.805
1762,0,-1,0,11,-9,-1,-1,0,8.81
1763,1,0,1,4,29,2,1,0,8.815
1764,-1,-2,0,26,-7,0,1,-1,8.82
1765,0,-1,0,-6,17,0,0,-1,8.825000000000001
1766,0,0,-1,-8,-9,-2,-2,-2,8.83
1767,0,0,0,49,2,-1,1,1,8.835
1768,1,-1,0,-54,-6,2,1,0,8.84
1769,0,1,2,8,-2,-3,-1,1,8.845
1770,-1,-1,0,-1,21,2,-1,0,8.85
1771,0,-2,0,0,-15,-2,0,-1,8.855
1772,-1,0,1,52,30,3,0,-1,8.86
1773,-1,-1,-1,-4,-13,0,-2,-1,8.865
1774,-1,3,1,-2,15,2,0,-1,8.870000000000001
1775,-2,-1,-1,-34,-2,-3,-1,1,8.875
1776,0,-1,0,22,4,-2,-3,0,8.88
1777,-1,-5,-4,-25,2,-4,-2,1,8.885
1778,0,0,0,31,10,4,1,0,8.89
1779,-2,-3,-3,-22,-25,-6,-3,-3,8.895
1780,-1,0,-1,-8,-4,1,-2,-2,8.9
1781,-2,-1,0,32,23,3,1,1,8.905
1782,0,-1,-2,-60,-1,-3,0,-1,8.91
1783,-1,-2,-1,10,0,-1,-2,0,8.915000000000001
1784,-2,0,-1,-3,-7,-2,-3,-2,8.92
1785,-2,-3,-5,0,-35,-5,-1,-1,8.925
1786,-2,-2,-2,-26,1,-1,1,0,8.93
1787,1,0,-4,21,22,0,-1,-1,8.935
1788,-1,-2,-3,-16,-10,-3,-2,-2,8.94
1789,1,3,2,-26,-11,1,0,-1,8.945
1790,0,0,-1,7,5,-1,-1,-1,8.950000000000001
1791,-2,-3,-2,15,-16,-4,-2,-2,8.955
1792,0,1,1,-5,-2,-2,-1,1,8.96
1793,1,1,0,10,5,3,0,0,8.965
1794,-1,1,2,-13,-1,0,0,0,8.97
1795,0,-5,-3,4,-12,-2,-1,-2,8.975
1796,-1,1,-2,6,6,-1,0,-1,8.98
1797,-1,-1,0,4,-34,-10,-2,-2,8.985
1798,2,2,2,-5,15,7,2,2,8.99
1799,-2,-2,0,4,-6,-1,0,-1,8.995000000000001
1800,-2,-2,-2,-17,17,3,0,-1,9.0
1801,0,4,2,1,5,-2,-1,0,9.005
1802,-3,-5,-5,14,-11,-7,-3,-3,9.01
1803,0,2,0,9,-10,1,-1,0,9.015
1804,0,-1,1,-14,3,1,1,0,9.02
1805,0,-1,-1,-1,20,5,0,-1,9.025
1806,-1,-1,0,6,-30,-2,0,0,9.03
1807,0,1,3,-7,16,1,0,1,9.035
1808,-2,0,-1,9,10,-3,-2,-1,9.040000000000001
1809,-2,-2,0,-1,-13,-2,-1,0,9.045
1810,0,-4,-5,-5,-3,0,-1,-1,9.05
1811,-3,-2,-3,-24,-4,-2,-2,-3,9.055
1812,-1,1,-2,-16,-10,0,-1,-2,9.06
1813,-2,-5,-3,27,4,-2,-2,-3,9.065
1814,0,1,1,14,19,0,0,-1,9.07
1815,1,1,2,6,-15,-4,1,0,9.075000000000001
1816,-1,-1,-2,-1,2,-3,-2,-1,9.08
1817,-1,-1,-3,-32,-4,0,1,-1,9.085
1818,-2,-2,-2,2,-11,-4,-3,0,9.09
1819,-1,-2,-1,-34,13,1,-1,-1,9.095
1820,0,0,-1,-34,-25,-7,-4,-1,9.1
1821,-1,-1,-1,53,-15,-3,-2,0,9.105
1822,-1,-3,-3,-9,20,6,-1,-1,9.11
1823,0,-1,1,9,5,2,-1,1,9.115
1824,-1,-2,0,-2,-14,-2,1,-2,9.120000000000001
1825,-2,1,-1,-29,9,2,0,0,9.125
1826,-3,0,0,15,-8,-4,0,-2,9.13
1827,-2,-1,-1,-4,-4,0,-2,-1,9.135
1828,-1,-3,-2,20,13,1,-1,-1,9.14
1829,-1,-1,0,-13,-2,0,0,0,9.145
1830,-1,-2,-2,38,-7,-2,-1,-2,9.15
1831,0,1,-1,-38,7,4,1,0,9.155
1832,-2,0,-1,40,3,-2,-2,1,9.16
1833,2,1,0,-23,-20,0,1,2,9.165000000000001
1834,-1,-1,-1,-3,-1,0,-2,-1,9.17
1835,-1,0,-1,8,-15,-3,-1,-1,9.175
1836,0,-2,0,8,29,-1,-2,-2,9.18
1837,-1,0,1,-28,2,2,1,-2,9.185
1838,0,0,-1,-5,-21,-6,-2,-1,9.19
1839,1,0,0,17,24,3,0,0,9.195
1840,1,0,-2,-4,-27,-2,-2,-2,9.200000000000001
1841,-2,-5,-5,7,22,-1,-1,-1,9.205
1842,0,1,2,-24,-24,-4,1,0,9.21
1843,0,-4,-2,-5,-8,-1,0,-3,9.215
1844,-2,-1,-1,-20,16,2,2,2,9.22
1845,-1,-2,-2,0,-10,-3,-1,-4,9.225
1846,-2,2,0,-30,5,0,0,1,9.23
1847,-2,-2,-1,30,6,0,0,0,9.235
1848,1,2,2,-2,-1,3,3,1,9.24
1849,0,-2,-2,0,-9,0,-1,-2,9.245000000000001
1850,-2,-2,-2,-47,-2,-2,-1,-1,9.25
1851,-1,-2,-3,17,-11,-5,-2,-1,9.255
1852,1,0,2,2,-16,1,2,2,9.26
1853,0,0,0,8,26,1,0,0,9.265
1854,1,-1,0,11,-3,-3,-2,0,9.27
1855,-1,0,1,3,-12,0,-4,-2,9.275
1856,0,0,0,18,-6,-1,-1,-1,9.28
1857,0,-1,2,16,23,2,1,-1,9.285
1858,-3,-3,-3,-1,-4,-2,-3,-1,9.290000000000001
1859,1,0,0,31,12,1,0,0,9.295
1860,-1,-4,-3,7,20,0,0,-2,9.3
1861,-1,2,1,-3,-10,0,-1,-1,9.305
1862,0,0,1,-7,5,3,1,0,9.31
1863,-1,-2,-1,25,30,2,1,0,9.315
1864,-1,0,1,1,-1,-1,-1,-2,9.32
1865,-1,-2,0,9,6,-2,0,-2,9.325000000000001
1866,-1,-3,-4,-13,-5,-3,-3,-3,9.33
1867,-1,1,0,-8,-25,-2,0,-1,9.335
1868,-1,-3,-2,-56,5,-2,-4,0,9.34
1869,-2,0,-4,-21,-11,-3,-2,0,9.345
1870,0,-2,1,-2,-21,-3,-1,-2,9.35
1871,2,0,-2,-11,25,3,1,0,9.355
1872,-2,-1,-2,63,-3,-7,-3,-2,9.36
1873,1,2,3,2,-10,5,0,1,9.365
1874,1,2,-1,-13,22,4,4,1,9.370000000000001
1875,-1,-1,-2,-34,-17,-4,-1,-2,9.375
1876,-2,-3,-3,10,2,0,0,0,9.38
1877,-2,-2,-1,5,3,-1,-3,0,9.385
1878,1,0,0,30,-3,-1,-1,-1,9.39
1879,0,2,1,-6,-17,-2,0,-1,9.395
1880,2,3,3,3,17,7,2,1,9.4
1881,-3,-5,-3,20,6,-4,0,-1,9.405
1882,-1,-3,0,17,9,-3,-2,-1,9.41
1883,-1,1,-1,-20,-6,-2,-1,-2,9.415000000000001
1884,-1,-1,-1,9,-30,-3,-2,-1,9.42
1885,1,2,1,-26,-8,-2,0,-2,9.425
1886,2,2,0,7,10,4,1,0,9.43
1887,-2,-1,-3,0,1,-2,0,0,9.435
1888,-2,0,-2,-13,5,-3,-3,-2,9.44
1889,-1,-2,0,52,5,0,-1,-1,9.445
1890,0,4,5,-10,-16,2,1,0,9.450000000000001
1891,-1,-3,-5,1,0,1,-1,-1,9.455
1892,0,-1,0,-11,7,-1,0,-2,9.46
1893,0,2,-1,-19,-7,-1,-3,-1,9.465
1894,-3,-4,-3,6,3,-1,0,-2,9.47
1895,-2,-1,-3,-10,3,-1,-2,-1,9.475
1896,-2,-3,-3,-24,-39,-4,-2,-1,9.48
1897,-1,0,-2,3,24,1,-2,-1,9.485
1898,-4,-4,-5,27,2,2,-1,0,9.49
1899,0,0,1,7,18,0,-1,-1,9.495000000000001
1900,-2,-1,-1,-3,6,0,0,-1,9.5
1901,-1,0,-1,-21,-28,-4,-1,1,9.505
1902,1,2,1,-38,-3,0,-1,0,9.51
1903,0,-2,0,64,15,-2,0,-1,9.515
1904,0,0,0,0,4,2,0,-3,9.52
1905,-2,0,-2,-14,-2,-2,-1,0,9.525
1906,0,0,-3,17,-13,-6,-1,-2,9.53
1907,-3,-2,-2,-31,-3,0,-2,-1,9.535
1908,1,1,3,5,-4,5,0,0,9.540000000000001
1909,-1,-4,-2,6,-1,0,0,-1,9.545
1910,-1,1,0,-12,-4,-4,-1,0,9.55
1911,2,-1,0,19,-1,0,0,0,9.555
1912,-4,1,-2,-13,-9,-3,0,-1,9.56
1913,-1,-1,-2,4,28,1,1,1,9.565
1914,0,0,0,-10,-4,0,-2,-2,9.57
1915,-1,-1,1,-11,5,-1,0,-1,9.575000000000001
1916,-1,-3,-3,2,-13,-4,-1,-1,9.58
1917,-1,-1,0,-15,-27,-3,-1,0,9.585
1918,-3,-3,-2,6,8,-2,-1,-1,9.59
1919,0,0,-2,-8,-4,-2,0,-1,9.595
1920,1,-1,-2,-45,-32,-1,0,-2,9.6
1921,1,0,-2,-31,-20,-3,-1,-1,9.605
1922,-1,0,2,28,12,0,0,0,9.61
1923,-3,-1,0,-12,-12,1,-1,-1,9.615
1924,0,0,-2,13,-3,-1,0,1,9.620000000000001
1925,-3,-2,-4,-15,2,-3,0,-4,9.625
1926,-1,-2,-2,-11,-3,1,-1,-1,9.63
1927,-3,-2,-4,-5,-10,-2,-5,-1,9.635
1928,-2,-2,-3,2,12,-2,-2,0,9.64
1929,-2,-2,0,32,14,2,-2,-1,9.645
1930,0,0,1,-17,4,1,0,1,9.65
1931,-1,-1,0,10,-4,-2,-2,-1,9.655
1932,-1,-1,0,9,4,1,-2,-1,9.66
1933,-3,0,-1,0,-6,-3,2,-1,9.665000000000001
1934,-1,-2,-3,23,8,1,-2,-1,9.67
1935,-1,0,0,-5,-5,-3,-2,-1,9.675
1936,1,1,1,21,15,0,0,-1,9.68
1937,-1,-1,2,-1,5,4,0,0,9.685
1938,1,-1,2,17,7,-2,-1,-2,9.69
1939,-1,1,0,-36,-26,2,2,0,9.695
1940,2,3,3,25,26,4,1,0,9.700000000000001
1941,0,-1,-4,-7,14,0,-1,-1,9.705
1942,-1,-1,-2,-11,-5,1,-2,0,9.71
1943,-2,-1,-4,-2,1,-2,-2,0,9.715
1944,-2,-2,-1,-34,-24,-4,0,-1,9.72
1945,0,1,3,40,19,4,0,0,9.725
1946,-2,-3,-3,8,4,1,0,-1,9.73
1947,0,-2,-1,-48,5,-4,-1,1,9.735
1948,-2,-5,-3,10,-4,0,0,-2,9.74
1949,0,-2,-2,-25,-5,-1,-2,0,9.745000000000001
1950,-2,-2,-2,37,-10,-3,-2,-1,9.75
1951,1,0,2,6,38,4,0,-2,9.755
1952,-1,-2,-2,2,-10,-7,-3,-3,9.76
1953,2,1,1,-14,5,1,3,0,9.765
1954,0,-1,-2,-13,1,0,-1,0,9.77
1955,-1,1,0,9,-7,-3,1,-1,9.775
1956,1,2,-1,21,5,0,0,0,9.78
1957,-1,-3,0,-20,-39,-7,-3,-2,9.785
1958,-1,2,1,-21,0,2,-1,-1,9.790000000000001
1959,1,0,3,72,53,10,1,1,9.795
1960,-2,-2,-2,-10,6,-1,-1,-1,9.8
1961,-1,-2,-2,2,-24,-2,-2,-1,9.805
1962,-1,-2,-1,0,-1,-3,0,0,9.81
1963,-1,-2,-4,-29,-24,-5,-1,0,9.815
1964,-1,0,1,4,12,4,2,0,9.82
1965,-2,-2,-3,23,10,0,-1,-2,9.825000000000001
1966,-1,-1,-1,-18,-7,-2,-3,-1,9.83
1967,1,2,0,6,13,-1,-1,-1,9.835
1968,-2,-6,-3,-3,-4,-2,-2,-3,9.84
1969,-3,-1,-3,1,10,-3,-1,-1,9.845
1970,-1,1,0,6,-14,-2,1,-1,9.85
1971,-3,-3,-2,-10,-24,-3,-1,0,9.855
1972,0,3,2,-7,14,4,1,0,9.86
1973,-1,0,-1,-2,12,0,0,-1,9.865
1974,-2,-1,-4,-11,-8,-3,-2,-1,9.870000000000001
1975,-2,-3,-2,-12,-7,-1,0,-1,9.875
1976,0,-2,-2,36,12,-1,0,0,9.88
1977,-1,0,0,1,16,-1,-1,0,9.885
1978,1,0,1,4,-7,0,3,1,9.89
1979,0,1,-1,-22,-17,0,-1,-1,9.895
1980,-1,-2,0,7,-11,-4,-3,-1,9.9
1981,4,3,1,7,2,5,1,2,9.905
1982,1,-2,-2,4,8,-1,-1,-2,9.91
1983,-3,-1,0,9,0,-1,0,-1,9.915000000000001
1984,-3,-1,-2,11,9,-1,-1,-1,9.92
1985,0,-1,-2,-64,-7,-1,-1,-1,9.925
1986,0,1,3,-11,7,1,0,0,9.93
1987,0,-2,-2,-11,-12,0,-1,-2,9.935
1988,-1,1,0,12,-9,-2,-1,0,9.94
1989,-2,0,1,17,9,3,-1,0,9.945
1990,-2,-1,-2,-7,5,0,0,-2,9.950000000000001
1991,-1,0,-1,-3,-4,-2,-2,-2,9.955
1992,1,-1,-1,-15,1,0,0,0,9.96
1993,0,-1,-1,10,-9,-3,-1,-1,9.965
1994,0,0,0,15,6,-1,-1,0,9.97
1995,-1,-2,2,15,-18,-3,2,0,9.975
1996,1,-1,-3,-30,9,1,-2,0,9.98
1997,0,1,1,65,46,2,0,-1,9.985
1998,-2,-2,-4,-13,10,1,0,-2,9.99
1999,-2,-2,-3,-29,-16,-4,-3,-1,9.995000000000001
2000,-1,0,2,48,-40,-9,-1,0,10.0
2001,2,0,1,-1,23,3,0,1,10.005
2002,3,3,5,16,1,5,2,-1,10.01
2003,-2,-1,-1,12,-5,-1,0,0,10.015
2004,-2,-1,-1,-8,19,1,-1,-2,10.02
2005,-2,-1,0,17,-34,-3,-2,0,10.025
2006,0,-2,-2,-21,-3,-3,-1,-2,10.03
2007,0,-1,0,-15,3,-3,0,-1,10.035
2008,0,-2,-1,-17,-9,-1,-2,-2,10.040000000000001
2009,1,1,1,-11,-17,3,3,2,10.045
2010,-2,-3,-4,-23,0,2,-1,-1,10.05
2011,0,1,0,-1,3,-3,-2,-1,10.055
2012,-1,-2,0,40,5,4,0,-1,10.06
2013,-2,-2,-4,-15,-3,-4,-3,-2,10.065
2014,-1,1,1,2,-1,1,-2,1,10.07
2015,-1,0,0,22,26,1,0,-1,10.075000000000001
2016,0,1,0,-32,-21,-2,0,-1,10.08
2017,1,1,4,9,-15,-4,0,-1,10.085
2018,-3,-2,-5,44,24,-1,-1,-1,10.09
2019,-1,-2,-3,-5,2,1,-1,0,10.095
2020,-1,-1,-2,-15,-2,0,-1,0,10.1
2021,-2,-3,-2,-36,-25,-4,-3,-3,10.105
2022,-2,-2,-2,3,-14,-4,-2,-1,10.11
2023,0,2,4,-6,-12,-2,0,2,10.115
2024,0,-1,-1,-7,12,2,1,0,10.120000000000001
2025,-2,-2,-3,4,-8,-3,-3,-2,10.125
2026,0,0,-1,1,-23,-7,-1,-2,10.13
2027,0,0,-3,-15,18,2,2,-2,10.135
2028,0,0,-1,21,2,-2,0,-1,10.14
2029,-1,0,0,25,17,0,0,-1,10.145
2030,2,1,1,-13,-17,2,0,-1,10.15
2031,0,-3,-3,12,6,1,-2,-1,10.155
2032,-1,-1,-2,-40,-42,-8,-3,-1,10.16
2033,2,1,-1,23,26,2,2,-2,10.165000000000001
2034,0,-1,-1,-22,-16,-4,-1,0,10.17
2035,-3,-2,-3,41,9,1,-1,-1,10.175
2036,-1,0,-1,-52,-18,-3,-1,-1,10.18
2037,-2,-1,0,-2,-30,-3,-1,0,10.185
2038,0,0,0,33,9,-2,-1,0,10.19
2039,0,0,1,-9,1,3,2,0,10.195
2040,-1,-2,-2,-41,29,0,0,0,10.200000000000001
2041,-1,0,-1,-17,-9,0,1,-1,10.205
2042,0,2,3,-5,-1,2,-1,0,10.21
2043,-1,-4,-4,28,-5,-2,-1,-1,10.215
2044,-1,0,0,29,30,3,0,-1,10.22
2045,-1,-3,-2,-53,-4,-5,0,0,10.225
2046,0,-3,-1,38,-5,-2,-1,-2,10.23
2047,-1,0,2,2,1,0,-3,-2,10.235
2048,0,1,4,2,18,9,0,1,10.24
2049,-1,-1,-2,-30,-23,-3,0,-1,10.245000000000001
2050,0,-1,0,-9,54,3,0,1,10.25
2051,0,-2,-1,10,-24,-4,-1,-1,10.255
2052,1,2,-1,-4,-4,0,0,-1,10.26
2053,-1,-4,-1,48,19,1,-2,0,10.265
2054,-1,-1,-2,-26,-1,1,0,-1,10.27
2055,-2,-2,-4,-16,-1,-4,-2,-1,10.275
2056,1,0,2,13,15,-1,0,0,10.28
2057,-3,0,-3,-23,-14,-7,-3,-2,10.285
2058,0,0,1,-12,6,7,3,1,10.290000000000001
2059,0,1,0,2,-3,-3,-2,0,10.295
2060,0,-2,0,1,-25,2,-1,-1,10.3
2061,0,0,-2,10,13,0,0,1,10.305
2062,0,-1,-1,14,13,-2,-1,0,10.31
2063,0,-1,1,-26,2,0,0,0,10.315
2064,0,-2,-2,22,-1,3,1,-1,10.32
2065,-1,-2,-2,2,8,-3,-2,-3,10.325000000000001
2066,-1,1,0,-21,-1,3,0,0,10.33
2067,-1,-1,1,19,-9,-2,-1,-1,10.335
2068,0,-1,0,-2,7,0,0,-1,10.34
2069,0,-1,0,1,-7,-1,0,-2,10.345
2070,-2,-2,-5,-4,-12,-1,0,-1,10.35
2071,0,0,0,-21,-13,-4,1,-2,10.355
2072,-5,-3,-4,28,11,-4,-3,-2,10.36
2073,0,1,2,-30,-10,-2,0,-1,10.365
2074,0,0,0,-6,-40,-4,-1,-1,10.370000000000001
2075,0,1,1,-4,21,5,1,-1,10.375
2076,-3,-2,-4,-45,-16,-6,-3,-1,10.38
2077,1,-3,-5,-9,-1,3,-1,0,10.385
2078,1,-1,-1,10,5,-5,-4,-1,10.39
2079,-2,-3,-3,-22,-7,0,-2,-1,10.395
2080,-4,-4,-2,40,1,-2,-1,-2,10.4
2081,-2,-1,-1,13,17,1,-1,-1,10.405
2082,-2,0,-1,-6,-15,-3,-2,-2,10.41
2083,1,0,-3,4,9,1,0,0,10.415000000000001
2084,1,-1,-2,-17,-23,-5,-2,-2,10.42
2085,-2,0,3,4,14,2,2,-1,10.425
2086,-2,-3,-3,76,20,-1,-3,-2,10.43
2087,1,1,1,-32,-7,2,2,0,10.435
2088,0,0,0,13,18,0,0,0,10.44
2089,-1,0,-1,-15,-7,-1,-1,0,10.445
2090,-1,-2,-2,-37,-3,-1,0,-2,10.450000000000001
2091,-1,-2,-3,20,-7,-1,0,0,10.455
2092,0,0,1,-3,-12,-3,0,-1,10.46
2093,1,1,0,17,37,7,2,1,10.465
2094,-1,-1,-1,-50,-3,-4,-1,1,10.47
2095,-2,2,0,35,2,0,-3,0,10.475
2096,-1,-3,-2,-6,-4,0,0,-1,10.48
2097,0,-2,-4,-44,-16,-5,-2,-1,10.485
2098,1,1,3,45,-10,-2,-1,-1,10.49
2099,-3,-4,-5,-38,13,2,0,-2,10.495000000000001
2100,-2,-1,-3,-15,4,-2,-1,0,10.5
2101,0,3,1,28,-28,0,-1,0,10.505
2102,-2,-1,-2,-27,-10,-1,-2,-2,10.51
2103,0,0,3,-25,0,-3,-2,0,10.515
2104,-2,-3,0,50,0,-2,-1,0,10.52
2105,-2,-2,0,-12,-13,0,-2,-1,10.525
2106,-2,-1,-4,-21,-22,-1,1,1,10.53
2107,-1,2,1,23,11,3,0,-2,10.535
2108,-1,2,1,-8,2,3,1,0,10.540000000000001
2109,0,-2,1,13,11,0,1,0,10.545
2110,-2,-3,-2,-12,7,0,0,-2,10.55
2111,-1,-1,-1,11,-13,-4,-3,-2,10.555
2112,1,0,3,-7,-3,0,-2,0,10.56
2113,0,-1,-3,6,6,-1,-4,-2,10.565
2114,0,2,0,25,20,5,0,0,10.57
2115,-2,1,1,-4,-6,-3,0,-1,10.575000000000001
2116,-2,-5,-4,28,-14,-5,-3,0,10.58
2117,-1,-1,0,9,33,7,0,0,10.585
2118,-2,-3,-1,6,6,0,-2,-2,10.59
2119,-1,-2,-1,0,9,3,0,-1,10.595
2120,2,3,-1,-7,-15,-1,0,-1,10.6
2121,-1,0,-2,-8,-3,0,-1,-1,10.605
2122,0,-2,-3,-34,-14,-5,1,1,10.61
2123,0,-2,0,20,-7,0,-2,-1,10.615
2124,-1,1,-1,-25,15,1,3,0,10.620000000000001
2125,-2,-1,0,38,-4,0,0,-1,10.625
2126,0,2,0,-5,19,2,-1,-1,10.63
2127,1,-2,-2,-16,-45,-9,-1,-1,10.635
2128,-2,-2,-1,-3,27,5,-1,-1,10.64
2129,-3,1,0,-3,-17,-6,-2,-1,10.645
2130,-1,-2,-1,24,5,2,-2,0,10.65
2131,-3,-3,-2,-16,1,-2,-2,-1,10.655
2132,1,-2,-2,-10,-6,-3,-1,-1,10.66
2133,0,1,2,12,14,1,1,2,10.665000000000001
2134,0,-1,-1,-32,-18,-3,-2,-3,10.67
2135,0,0,-1,-8,7,-1,0,-2,10.675
2136,-1,0,0,-2,-13,1,-1,0,10.68
2137,0,-2,-3,-3,-1,-2,0,-2,10.685
2138,-3,-3,-3,-5,-31,-7,-3,-1,10.69
2139,0,1,-2,-26,8,0,1,-1,10.695
2140,-1,-2,-1,28,21,2,1,-1,10.700000000000001
2141,0,-3,-3,-14,-19,-2,-2,1,10.705
2142,-1,0,-1,4,14,2,0,-1,10.71
2143,-1,-1,-1,25,8,0,-2,-1,10.715
2144,0,0,0,-9,-16,-2,-1,0,10.72
2145,-2,-1,-3,-5,-11,-3,-1,-2,10.725
2146,0,-1,-1,-2,-12,-2,-2,-1,10.73
2147,0,-1,-2,-4,38,3,1,1,10.735
2148,0,0,-2,-6,-2,-2,-1,0,10.74
2149,0,0,3,9,7,6,1,-2,10.745000000000001
2150,-1,-2,-2,-40,16,-3,-1,-1,10.75
2151,0,-1,1,34,-15,1,-2,-1,10.755
2152,-1,1,-2,-37,-5,-2,0,-1,10.76
2153,-1,0,-1,14,3,0,-1,0,10.765
2154,-1,1,2,8,1,-2,-1,-1,10.77
2155,1,0,1,-33,-14,-1,-2,0,10.775
2156,-2,-3,-4,23,-6,-5,-3,-1,10.78
2157,0,-2,-2,-27,-3,-1,-1,0,10.785
2158,-2,-1,2,31,0,1,-1,0,10.790000000000001
2159,-2,2,-1,-7,-3,-2,0,-1,10.795
2160,1,0,0,-10,-1,3,0,1,10.8
2161,-1,-2,-2,0,-9,-4,-2,-1,10.805
2162,0,1,0,-11,8,2,-1,0,10.81
2163,-1,-1,2,20,-14,-2,2,1,10.815
2164,-3,-1,-2,-29,11,2,-1,-3,10.82
2165,1,-1,0,43,10,-3,-2,0,10.825000000000001
2166,0,1,3,14,25,3,1,0,10.83
2167,-4,-3,-3,3,-3,-2,-3,-3,10.835
2168,-1,-1,-4,-3,-14,-6,-2,0,10.84
2169,-2,-2,-2,12,-11,-3,-1,-1,10.845
2170,0,2,-1,39,9,0,1,-1,10.85
2171,2,0,0,-9,12,2,0,0,10.855
2172,-1,-2,0,2,-11,0,0,-1,10.86
2173,0,0,-1,-17,-5,-4,-2,-2,10.865
2174,2,-2,0,-13,-14,-1,0,2,10.870000000000001
2175,-2,-1,-4,0,8,0,-1,0,10.875
2176,-1,1,1,-26,-7,0,-2,0,10.88
2177,-1,-2,-2,-1,-12,-2,-1,-1,10.885
2178,-1,-1,1,-2,1,-1,-2,-1,10.89
2179,0,-3,-4,-13,-1,3,-1,-1,10.895
2180,0,-2,0,13,4,-5,-2,-2,10.9
2181,-2,-1,-1,0,26,3,0,-1,10.905
2182,2,-2,-3,1,2,2,1,-2,10.91
2183,0,0,0,2,-14,-5,-2,-2,10.915000000000001
2184,0,-1,-1,24,32,3,-3,0,10.92
2185,-1,0,-2,-32,-2,0,-2,-1,10.925
2186,-1,1,0,30,-21,-1,-1,-1,10.93
2187,-1,-4,-3,6,9,1,-2,-1,10.935
2188,0,-2,-1,-25,-21,-1,0,0,10.94
2189,0,1,0,4,-17,-2,-1,-2,10.945
2190,-1,0,-2,-18,2,3,-3,0,10.950000000000001
2191,2,0,2,17,5,1,2,1,10.955
2192,-2,-1,-1,5,-21,-4,-2,-3,10.96
2193,0,-2,-1,-51,-16,-5,-2,1,10.965
2194,-2,-4,-4,30,-3,-3,-1,-3,10.97
2195,0,1,0,23,-4,-1,0,-2,10.975
2196,0,1,0,-8,6,3,2,1,10.98
2197,0,-1,3,9,-3,-1,-1,-1,10.985
2198,-2,-2,-3,-36,-15,-5,-2,0,10.99
2199,-2,1,1,-1,8,-2,-2,1,10.995000000000001
2200,0,2,2,11,0,2,2,1,11.0
2201,0,2,0,-16,-4,-2,-1,-1,11.005
2202,-1,-7,-3,-15,-4,0,-2,-2,11.01
2203,-1,-1,1,-25,-12,-2,-2,-1,11.015
2204,2,0,1,35,35,4,1,0,11.02
2205,-1,-3,-3,1,-12,-2,0,-2,11.025
2206,-1,1,4,31,15,-1,0,1,11.03
2207,-1,-1,-4,-36,2,0,0,0,11.035
2208,-2,-1,-1,0,-2,-1,-2,-1,11.040000000000001
2209,-1,-2,-2,-26,-1,-4,-1,0,11.045
2210,-1,0,2,11,5,3,-3,-2,11.05
2211,0,-1,-2,-19,-14,-5,-1,-3,11.055
2212,0,2,1,13,5,0,0,-1,11.06
2213,-1,-2,-4,-42,-8,-1,-2,-2,11.065
2214,2,0,-1,-13,14,-2,0,-1,11.07
2215,-1,-3,-1,-15,-5,-2,1,-1,11.075000000000001
2216,0,-2,-1,2,-3,-2,-1,-1,11.08
2217,-1,0,1,23,5,0,-1,2,11.085
2218,1,0,2,25,28,1,1,1,11.09
2219,-1,-2,-3,-5,-3,-2,-1,-2,11.095
2220,0,2,0,22,-4,-2,-1,-1,11.1
2221,-1,-1,1,36,24,6,0,0,11.105
2222,-1,1,0,-37,-32,-5,2,-1,11.11
2223,0,0,2,89,-5,3,1,-1,11.115
2224,0,-3,-1,-38,29,1,-1,-3,11.120000000000001
2225,0,0,-2,-1,2,-2,-1,-1,11.125
2226,-1,-1,-3,4,-20,0,-1,-3,11.13
2227,-2,1,3,-10,-2,-2,-1,0,11.135
2228,-3,-4,-6,18,2,-1,-1,-2,11.14
2229,-2,0,-2,10,-12,-2,0,-2,11.145
2230,1,2,-1,-20,-8,-3,0,-1,11.15
2231,-1,-3,0,-8,-2,-3,-2,0,11.155
2232,-4,-2,-1,35,-19,-5,-3,-1,11.16
2233,-1,-3,-2,4,57,7,2,0,11.165000000000001
2234,1,1,-1,3,-7,-2,-1,0,11.17
2235,-1,2,1,-10,-11,-1,-1,-1,11.175
2236,0,-2,1,3,-24,-2,0,-1,11.18
2237,-1,-2,-3,-3,3,-1,-1,-2,11.185
2238,-2,1,1,25,24,3,0,-2,11.19
2239,-2,-1,-1,7,13,3,0,0,11.195
2240,1,-1,0,-17,-7,2,1,0,11.200000000000001
2241,0,1,1,25,-22,-4,-1,0,11.205
2242,-2,-4,-4,-57,-13,-1,0,1,11.21
2243,2,3,1,8,29,2,0,0,11.215
2244,-3,-4,-4,-19,1,-1,-2,-2,11.22
2245,0,-1,1,7,-15,-2,-1,-1,11.225
2246,-1,-2,-3,0,-19,-3,-1,-1,11.23
2247,0,1,-1,13,12,-1,-2,-2,11.235
2248,2,-1,0,-18,-22,-1,-1,0,11.24
2249,1,2,2,4,37,5,1,1,11.245000000000001
2250,-2,-3,-1,36,11,-5,-1,-1,11.25
2251,1,0,2,-15,-14,4,1,0,11.255
2252,0,3,0,-10,-4,-3,0,-1,11.26
2253,0,0,-1,-21,-21,-3,-1,-2,11.265
2254,-2,0,1,34,26,1,-3,-2,11.27
2255,-1,-1,-4,8,10,0,-1,-1,11.275
2256,-1,-2,-1,-7,19,-1,-1,-1,11.28
2257,-1,0,-1,-11,-15,-3,-2,0,11.285
2258,0,-2,-2,3,21,2,0,2,11.290000000000001
2259,0,-2,-2,-3,-16,-3,-2,-2,11.295
2260,0,0,-1,5,-8,-2,0,1,11.3
2261,0,-1,0,-25,-4,0,1,0,11.305
2262,-1,-3,-3,-20,-9,-2,-2,-1,11.31
2263,-3,-5,-6,-11,-14,-5,-4,-3,11.315
2264,1,-2,-4,-21,-3,-1,0,-1,11.32
2265,1,0,-1,12,-10,-1,0,0,11.325000000000001
2266,-2,0,1,-17,-21,-4,-1,-3,11.33
2267,0,-1,1,12,13,2,-1,-1,11.335
2268,-3,-1,0,-11,-1,-1,-3,0,11.34
2269,-2,-1,0,12,-4,-3,-3,-2,11.345
2270,-1,-1,-1,26,-21,0,0,-3,11.35
2271,1,2,3,41,41,3,3,2,11.355
2272,-1,-2,-2,21,-5,-2,-3,0,11.36
2273,-2,-3,-3,14,14,0,0,-1,11.365
2274,-1,0,-3,-3,17,1,-2,0,11.370000000000001
2275,-1,-2,-3,-38,-29,-6,-3,-2,11.375
2276,0,2,3,18,2,3,1,1,11.38
2277,0,0,1,-4,2,2,0,0,11.385
2278,-3,-3,-2,-36,-17,-6,-2,-1,11.39
2279,-1,0,1,30,-11,-3,-1,-1,11.395
2280,0,-1,0,-17,2,0,0,-2,11.4
2281,0,-2,-2,-16,5,1,-1,-2,11.405
2282,2,2,4,-9,16,2,1,1,11.41
2283,-1,-3,-3,-2,-21,-2,-1,-1,11.415000000000001
2284,-1,1,3,29,10,3,0,0,11.42
2285,-1,-3,-6,-27,5,-1,-1,0,11.425
2286,-1,-1,-2,21,-1,-2,-1,-2,11.43
2287,-1,-1,-3,16,-11,-1,-1,-2,11.435
2288,1,-1,0,-19,14,2,-1,0,11.44
2289,-1,0,0,-14,-9,-3,-1,-2,11.445
2290,-1,-3,-3,2,-22,-5,-2,-1,11.450000000000001
2291,-2,-1,-3,-13,5,1,0,1,11.455
2292,-1,0,-2,-27,-33,-6,-1,-1,11.46
2293,-3,0,1,42,21,-2,-1,-1,11.465
2294,2,2,0,-30,-6,3,3,1,11.47
2295,-1,-3,-2,11,11,-2,0,-3,11.475
2296,1,-1,0,-5,-6,-1,-1,0,11.48
2297,0,0,-2,45,-8,-1,0,-2,11.485
2298,-2,-5,-3,-7,-9,-4,-2,-3,11.49
2299,1,2,-3,-57,-12,-1,0,1,11.495000000000001
2300,-3,-2,-3,19,-2,-2,-2,-3,11.5
2301,0,-1,2,39,4,0,2,1,11.505
2302,0,0,0,-8,0,0,0,0,11.51
2303,0,0,1,8,1,-5,-3,-2,11.515
2304,-1,-3,-1,-44,-10,0,-2,-1,11.52
2305,-4,-1,-4,0,-9,-2,-2,-1,11.525
2306,-1,-2,-3,12,5,4,-1,0,11.53
2307,-2,-3,-4,5,5,0,-1,-2,11.535
2308,1,2,1,16,16,1,0,-1,11.540000000000001
2309,-1,-2,1,-23,-17,-2,-2,-3,11.545
2310,0,-1,-1,-15,20,3,-2,0,11.55
2311,-1,1,0,-8,-14,-4,0,-1,11.555
2312,0,-3,-2,23,14,3,1,-2,11.56
2313,-1,0,0,2,-3,-1,1,-1,11.565
2314,1,1,-1,-37,-13,2,0,2,11.57
2315,0,0,2,13,8,-2,0,-3,11.575000000000001
2316,0,-1,-1,16,6,-2,0,1,11.58
2317,0,1,-1,-33,11,5,0,1,11.585
2318,-2,-2,-1,-12,-10,-1,-3,-2,11.59
2319,-1,0,0,0,-7,-2,-3,0,11.595
2320,-2,-1,-1,24,-2,-4,-2,-1,11.6
2321,1,-1,1,37,-17,-4,-3,-1,11.605
2322,-2,-5,-4,19,2,0,0,0,11.61
2323,-1,0,0,-9,11,5,1,2,11.615
2324,-3,-3,-2,-5,1,-4,-2,-1,11.620000000000001
2325,1,-1,-1,-8,5,-3,0,-1,11.625
2326,1,0,-1,16,0,-4,-2,-3,11.63
2327,1,1,0,-16,6,1,0,0,11.635
2328,0,0,-1,-12,-17,0,-1,0,11.64
2329,-2,0,1,-30,-8,2,-2,0,11.645
2330,-2,1,-1,-13,-1,0,0,-1,11.65
2331,-1,-1,-1,-9,-11,-4,-1,0,11.655
2332,-3,0,-1,15,2,-1,-1,-3,11.66
2333,-1,-2,-4,-2,-4,-2,-1,-1,11.665000000000001
2334,1,2,2,4,20,-2,0,0,11.67
2335,0,1,-1,-4,-11,-1,0,0,11.675
2336,1,1,0,39,0,-1,-1,-3,11.68
2337,-1,-5,-2,-7,7,2,-2,-3,11.685
2338,1,3,2,-3,-1,7,2,1,11.69
2339,-1,-3,-1,17,1,-1,0,-1,11.695
2340,3,1,1,-23,5,1,1,1,11.700000000000001
2341,-1,-2,-4,-2,-8,-3,-1,-2,11.705
2342,-2,1,0,-3,-8,-4,-1,-1,11.71
2343,-1,-2,-2,-37,-23,-2,-3,-2,11.715
2344,-1,-1,-2,19,9,-1,0,0,11.72
2345,-1,-3,-4,-9,-11,-3,-2,-1,11.725
2346,0,-1,-2,12,-15,-4,-1,-1,11.73
2347,1,-2,-3,-34,28,1,1,-1,11.735
2348,-2,-5,-4,-17,-7,-2,-3,-3,11.74
2349,1,2,3,0,2,-1,2,1,11.745000000000001
2350,-3,-3,-4,-16,5,-5,-2,-4,11.75
2351,-2,0,1,37,26,4,1,-1,11.755
2352,-1,0,-2,3,0,2,0,0,11.76
2353,0,-1,-1,33,26,2,-1,1,11.765
2354,0,0,1,-3,-14,-3,-1,-1,11.77
2355,0,-2,0,10,0,3,-1,-1,11.775
2356,0,-2,-2,-31,0,1,1,-1,11.78
2357,1,1,0,-2,-13,-4,-1,-1,11.785
2358,0,-1,0,12,1,-2,-2,-1,11.790000000000001
2359,-1,-2,-2,14,-9,-2,-1,-1,11.795
2360,-1,0,-3,-10,-1,-2,0,1,11.8
2361,-1,-2,-2,-7,5,0,-2,0,11.805
2362,-1,-1,-1,4,13,2,0,-1,11.81
2363,-1,-1,0,14,-32,-8,-2,-1,11.815
2364,-2,0,2,-8,21,3,2,1,11.82
2365,-2,0,0,-8,-23,-6,-1,-2,11.825000000000001
2366,-1,1,-1,4,36,6,2,2,11.83
2367,-2,-3,-2,19,4,-1,0,-1,11.835
2368,0,-1,-1,-10,-28,-6,-2,-2,11.84
2369,0,1,1,-7,-2,0,1,-1,11.845
2370,0,1,1,6,-13,-4,0,-1,11.85
2371,1,2,1,-16,-19,0,1,0,11.855
2372,-1,-1,-2,-21,1,-7,-4,-1,11.86
2373,-1,0,-1,-2,34,8,2,0,11.865
2374,0,1,3,26,-16,4,-2,0,11.870000000000001
2375,-3,-2,-5,-21,20,-2,-2,-1,11.875
2376,0,-1,-1,9,-8,1,1,0,11.88
2377,0,-1,-3,-28,-7,-2,0,-1,11.885
2378,-1,-2,-1,-3,-5,-2,0,-2,11.89
2379,0,1,1,12,-1,-4,-2,-3,11.895
2380,-2,1,1,-24,3,1,0,-1,11.9
2381,-1,-2,-2,16,13,0,-1,0,11.905
2382,0,-3,-3,5,4,-1,-2,-1,11.91
2383,0,-1,1,-5,-1,3,2,-1,11.915000000000001
2384,0,-2,-3,-6,-6,-4,-2,-2,11.92
2385,-3,1,0,3,-17,-3,-1,-1,11.925
2386,-1,-4,-4,-27,-2,-2,-3,-1,11.93
2387,1,3,1,-13,19,3,1,0,11.935
2388,0,0,-1,11,-21,-1,-1,0,11.94
2389,-2,-2,0,8,7,-1,-1,-1,11.945
2390,0,-2,-2,5,-17,-4,-1,-2,11.950000000000001
2391,0,-3,-3,-22,-26,-4,-1,-1,11.955
2392,0,-1,-2,72,54,3,1,0,11.96
2393,0,1,-2,5,2,2,0,-1,11.965
2394,-1,-1,2,26,1,-3,1,0,11.97
2395,-1,-1,0,-19,1,3,-1,1,11.975
2396,0,-2,0,3,-30,-6,-1,-1,11.98
2397,0,0,-1,-19,4,3,-1,0,11.985
2398,1,0,-2,16,7,1,1,-1,11.99
2399,0,-3,-3,-21,-14,-4,-2,-1,11.995000000000001
2400,-3,-2,-3,-16,-5,-1,-1,-2,12.0
2401,-2,-2,-1,2,1,-1,-1,-2,12.005
2402,0,-1,-1,-28,-13,0,-1,-1,12.01
2403,-1,-2,-1,18,19,-1,-1,0,12.015
2404,1,2,1,-44,-16,0,0,0,12.02
2405,0,-2,-1,50,12,-2,-1,-1,12.025
2406,-2,0,1,16,17,0,1,0,12.030000000000001
2407,-2,-3,-3,5,-1,-1,-1,-1,12.035
2408,0,0,-2,-26,-5,0,-1,-1,12.040000000000001
2409,-1,-4,-1,-21,-7,-5,-1,-1,12.045
2410,1,1,0,-34,-21,-3,-2,-1,12.05
2411,-1,2,4,17,37,10,2,1,12.055
2412,-2,-1,-5,-15,5,0,-1,0,12.06
2413,0,-3,-1,21,-31,-4,-3,0,12.065
2414,-2,-1,-5,-37,2,-3,-3,-2,12.07
2415,-2,0,2,18,-32,-5,-1,-1,12.075000000000001
2416,-1,1,4,9,2,1,0,1,12.08
2417,-1,1,0,13,24,2,0,-1,12.085
2418,1,-1,-1,2,-9,0,0,1,12.09
2419,-2,-3,-5,7,-6,-5,-3,-1,12.095
2420,-1,-5,-1,16,12,0,-2,-2,12.1
2421,0,4,1,-28,20,1,1,1,12.105
2422,0,-2,0,7,6,-1,-1,-1,12.11
2423,-2,0,-1,-6,7,0,-3,-1,12.115
2424,0,-2,-3,-4,-11,-1,0,0,12.120000000000001
2425,0,-1,-1,-37,-20,-3,-2,-2,12.125
2426,0,1,-1,1,-1,1,1,0,12.13
2427,-1,-1,-2,-12,-22,-3,1,0,12.135
2428,-1,-2,-2,23,12,1,1,-2,12.14
2429,-1,-3,-3,24,30,4,2,-1,12.145
2430,-2,-1,0,6,5,1,1,0,12.15
2431,-1,0,-1,2,-5,-2,-1,-2,12.155000000000001
2432,-1,0,-1,-9,-13,-4,-1,-1,12.16
2433,-1,-1,-2,-11,-19,-4,0,-1,12.165000000000001
2434,-1,1,-1,41,-5,-2,0,-2,12.17
2435,0,1,0,-24,22,1,2,0,12.175
2436,0,2,0,-4,-5,1,1,0,12.18
2437,0,-3,-2,-10,-6,0,0,-1,12.185
2438,0,-3,0,2,-20,-4,-1,-2,12.19
2439,-1,1,-2,-17,-6,0,0,1,12.195
2440,0,-1,0,46,14,0,0,0,12.200000000000001
2441,0,2,-1,-2,-15,-3,-3,-1,12.205
2442,-1,0,-1,-17,-2,0,-2,-1,12.21
2443,2,-1,0,6,-19,-2,-1,-1,12.215
2444,-2,-2,-1,-16,15,2,-1,-1,12.22
2445,-3,-1,-2,-16,-23,-4,0,0,12.225
2446,-2,-2,-2,21,11,-3,-1,-2,12.23
2447,2,-1,0,28,-7,-2,-1,0,12.235
2448,-2,-3,1,-46,3,-1,-1,-1,12.24
2449,0,0,-1,16,-5,-1,-2,1,12.245000000000001
2450,-1,1,1,16,-1,-2,0,0,12.25
2451,-2,-3,-5,-26,19,1,0,0,12.255
2452,0,-1,0,-11,-18,-1,-1,-2,12.26
2453,0,-4,-2,-4,2,0,0,-2,12.265
2454,0,-1,-1,-15,-5,0,-1,-1,12.27
2455,-3,0,-2,6,-4,-4,-3,-2,12.275
2456,1,0,0,-1,26,3,1,2,12.280000000000001
2457,-2,-1,0,8,4,1,-1,1,12.285
2458,-3,-4,-3,6,13,3,-1,0,12.290000000000001
2459,-1,-3,-1,1,-14,-4,-2,-2,12.295
2460,-1,-1,-4,-19,-4,-3,0,-1,12.3
2461,-1,0,-1,-11,-13,-5,-2,-3,12.305
2462,-2,0,1,-13,4,0,-3,-2,12.31
2463,-1,1,1,2,-7,1,1,-2,12.315
2464,-1,0,-1,0,-16,-3,-2,-1,12.32
2465,1,1,0,3,25,3,1,1,12.325000000000001
2466,-2,1,-3,-12,19,-2,-2,-3,12.33
2467,-2,-4,-1,36,-15,-4,-1,-3,12.335
2468,1,2,3,5,15,11,0,3,12.34
2469,-2,-4,-4,-16,1,0,0,-3,12.345
2470,0,-2,-2,12,-4,1,0,-1,12.35
2471,-3,-2,-3,-59,3,-2,-2,-1,12.355
2472,1,2,1,25,-8,-3,0,0,12.36
2473,-1,0,0,-9,-1,2,-2,-1,12.365
2474,0,0,0,15,7,0,-1,1,12.370000000000001
2475,1,0,-1,22,-5,-2,-2,-1,12.375
2476,-2,-3,0,-6,22,0,-1,-2,12.38
2477,0,1,4,-3,-6,4,0,-1,12.385
2478,1,-1,0,-4,9,-4,1,0,12.39
2479,-3,-3,-2,-5,14,-2,-3,-1,12.395
2480,0,1,-1,6,-9,-3,1,1,12.4
2481,-2,-2,0,11,-6,-3,-3,-2,12.405000000000001
2482,-1,0,0,-31,-18,-2,-1,0,12.41
2483,-2,-3,-4,-4,15,0,-2,-2,12.415000000000001
2484,-1,-1,-4,13,-3,-1,-1,-1,12.42
2485,-2,-4,-2,0,4,-2,-1,-2,12.425
2486,-1,1,0,-27,-35,-3,-2,1,12.43
2487,1,1,0,6,32,7,1,0,12.435
2488,-2,-5,-6,3,-29,-8,-4,-2,12.44
2489,0,2,3,0,6,1,0,1,12.445
2490,-2,-5,-4,-35,5,-2,-1,-3,12.450000000000001
2491,0,2,4,11,-1,-3,1,0,12.455
2492,1,2,0,5,1,5,1,0,12.46
2493,-1,-2,-3,-3,-17,-5,-1,-1,12.465
2494,-1,-2,-3,-14,-2,3,-2,-2,12.47
2495,0,1,0,11,-10,-2,-2,-1,12.475
2496,-2,-1,0,-11,-13,-5,-1,-1,12.48
2497,0,2,0,12,11,3,3,1,12.485
2498,-1,-3,-3,14,15,1,0,1,12.49
2499,-2,-2,-2,-5,-15,1,-2,-2,12.495000000000001
2500,-2,-1,-1,31,9,-4,-1,-1,12.5
2501,-2,-5,-5,-15,-17,-3,-2,-2,12.505
2502,0,0,1,22,32,7,-1,-2,12.51
2503,0,0,-1,-25,-24,-3,-1,-2,12.515
2504,-1,0,2,-15,0,-1,-2,0,12.52
2505,-2,0,0,2,9,-5,-2,-1,12.525
2506,2,4,6,33,8,6,2,2,12.530000000000001
2507,-1,-4,-4,-55,14,2,1,1,12.535
2508,0,0,-3,-17,-13,-4,-1,-2,12.540000000000001
2509,0,0,-1,9,-5,0,0,-1,12.545
2510,-3,-1,-2,-24,0,0,-1,0,12.55
2511,-1,0,-2,27,6,-1,-1,-1,12.555
2512,-2,-2,0,-18,-3,-2,-1,-2,12.56
2513,-2,-1,-1,-12,-40,-6,-2,-2,12.565
2514,-2,-4,-4,24,15,-2,-1,1,12.57
2515,1,3,3,25,6,3,0,0,12.575000000000001
2516,-2,-2,-2,4,4,0,-2,2,12.58
2517,0,0,-2,-1,-17,-4,-1,-2,12.585
2518,-1,-2,-2,-6,4,-4,-3,-1,12.59
2519,0,-1,0,-2,-11,-2,1,2,12.595
2520,1,0,1,16,-10,1,1,-1,12.6
2521,0,0,0,-10,4,4,0,0,12.605
2522,1,0,0,-24,-7,-4,1,-1,12.61
2523,0,-1,-1,30,-17,0,0,0,12.615
2524,0,-1,-2,-46,5,-2,-2,-2,12.620000000000001
2525,1,0,1,6,13,-1,-1,-1,12.625
2526,-1,0,0,-27,-5,-2,1,0,12.63
2527,-2,-1,-3,-5,-3,-3,-1,-1,12.635
2528,0,-2,-1,12,-5,0,0,1,12.64
2529,1,0,-2,7,5,1,-1,0,12.645
2530,0,-1,-1,24,-13,-5,-4,0,12.65
2531,-1,-2,1,5,34,3,0,-2,12.655000000000001
2532,0,-1,0,3,24,4,0,0,12.66
2533,-2,-2,-3,2,0,-5,-2,-1,12.665000000000001
2534,1,4,1,0,-18,0,0,0,12.67
2535,-1,-3,-3,7,0,-3,-2,-3,12.675
2536,0,-1,0,3,-1,0,-1,0,12.68
2537,-1,-2,0,-2,10,2,-1,-1,12.685
2538,0,0,-2,0,-16,-1,2,0,12.69
2539,1,-1,0,-7,-5,-2,-2,0,12.695
2540,-1,2,1,17,-1,3,2,1,12.700000000000001
2541,0,-1,-1,-8,8,-1,-3,-1,12.705
2542,-1,-2,0,51,1,1,-2,-3,12.71
2543,-1,2,3,45,2,-1,-1,0,12.715
2544,-2,-4,-5,-31,-5,-2,0,-1,12.72
2545,-1,0,-1,-25,-7,-3,-2,0,12.725
2546,-2,-1,-1,-6,8,1,-2,-1,12.73
2547,-1,0,0,-6,0,1,0,-1,12.735
2548,-1,0,2,31,-5,-4,-2,-2,12.74
2549,-2,-2,-3,33,-6,-1,0,-2,12.745000000000001
2550,0,-1,-2,-37,15,-1,-2,-2,12.75
2551,0,3,0,-22,-17,-2,0,0,12.755
2552,-3,-9,-5,17,-4,-5,-1,-1,12.76
2553,0,-1,0,-6,-13,0,1,-1,12.765
2554,-1,-1,-2,9,1,-3,-1,-2,12.77
2555,-2,-3,-3,-24,-21,-5,-4,-1,12.775
2556,2,2,1,15,22,2,-1,1,12.780000000000001
2557,1,-1,0,5,0,1,-1,-1,12.785
2558,-2,-2,-1,-25,-19,-1,-1,-2,12.790000000000001
2559,-1,0,-1,-9,17,0,0,-1,12.795
2560,-1,-1,-1,27,-4,-2,-3,-2,12.8
2561,-2,-4,-4,-35,-1,-2,-3,-2,12.805
2562,1,-1,1,9,-7,2,1,1,12.81
2563,-1,-2,1,36,-3,-3,-1,-3,12.815
2564,-3,1,0,-29,-7,-2,-1,-1,12.82
2565,1,1,2,-6,-6,0,1,1,12.825000000000001
2566,-1,0,1,26,17,-3,0,0,12.83
2567,0,-3,-1,-1,-4,-4,-1,-1,12.835
2568,0,1,1,-3,24,7,0,-1,12.84
2569,-3,-2,-3,-21,0,-3,-1,-1,12.845
2570,0,-2,-3,-37,14,-2,-2,-2,12.85
2571,-5,-6,-5,59,31,2,-3,-2,12.855
2572,0,2,1,-28,-23,-5,-2,1,12.86
2573,-2,-2,-1,13,23,3,1,-1,12.865
2574,2,1,1,-1,-27,-1,-1,-2,12.870000000000001
2575,0,1,0,-22,31,1,1,-1,12.875
2576,-1,-1,-4,-12,-45,-4,0,-1,12.88
2577,1,2,1,-4,-6,1,0,0,12.885
2578,-1,-4,-5,-8,-1,-5,-1,0,12.89
2579,-1,2,2,19,-15,3,2,0,12.895
2580,-1,-2,-1,8,-5,-1,-2,-3,12.9
2581,0,-1,-1,23,-8,-3,0,0,12.905000000000001
2582,-1,1,1,-11,5,3,2,-1,12.91
2583,-1,0,-2,-18,-12,-3,-1,1,12.915000000000001
2584,0,1,-2,-19,22,-2,-3,-1,12.92
2585,-1,-2,-2,33,25,3,-2,-2,12.925
2586,-2,0,2,20,-15,-5,-2,0,12.93
2587,0,-1,-2,-14,5,5,2,2,12.935
2588,1,0,0,3,1,-6,0,0,12.94
2589,0,1,0,8,15,0,0,-1,12.945
2590,-2,-2,-2,40,-9,-2,-1,0,12.950000000000001
2591,0,1,0,-50,-6,1,0,-2,12.955
2592,-1,1,-2,6,9,1,0,-1,12.96
2593,0,0,0,-9,1,0,1,1,12.965
2594,-2,0,-3,2,-7,0,-2,-1,12.97
2595,-1,-2,-2,10,-10,-3,-1,-1,12.975
2596,0,-1,0,0,21,3,0,0,12.98
2597,-1,0,-1,1,-2,-1,-1,-2,12.985
2598,-2,0,-1,-7,1,1,1,-1,12.99
2599,-1,0,-2,-11,-6,-4,-2,-2,12.995000000000001
2600,2,2,2,-4,-9,0,-2,1,13.0
2601,0,-2,-3,-23,-11,-1,0,1,13.005
2602,1,-3,-2,-18,-5,-3,0,0,13.01
2603,1,2,3,64,14,1,-3,1,13.015
2604,0,0,2,-29,-35,0,2,0,13.02
2605,0,-2,-1,-8,-2,-1,0,-1,13.025
2606,-3,-2,-2,10,8,-5,-4,-1,13.030000000000001
2607,1,-1,0,-22,-10,3,2,0,13.035
2608,-3,-4,-6,26,16,0,-1,-1,13.040000000000001
2609,-1,1,1,-8,-2,3,-1,-2,13.045
2610,-1,0,0,-21,5,1,1,-1,13.05
2611,-3,-4,-3,-29,3,-5,-3,-1,13.055
2612,-1,-2,0,-2,-4,1,0,0,13.06
2613,0,-1,1,-4,-10,-1,0,0,13.065
2614,-1,0,1,-3,18,1,-2,-1,13.07
2615,-1,-3,-2,5,16,0,0,-1,13.075000000000001
2616,-3,-4,-3,-19,-10,-3,-3,-2,13.08
2617,1,-1,1,11,2,-3,-1,0,13.085
2618,0,-1,-2,-18,-16,0,-1,0,13.09
2619,1,3,3,-12,0,2,-1,0,13.095
2620,-2,-2,-2,-6,-7,-3,-3,-1,13.1
2621,-2,0,-6,-5,-2,-4,-3,-1,13.105
2622,-1,0,-1,30,-4,2,0,0,13.11
2623,-2,-1,-2,-22,8,0,-1,-1,13.115
2624,2,-1,0,-7,1,-3,0,0,13.120000000000001
2625,-2,-2,0,8,-19,-2,-2,0,13.125
2626,0,-2,1,10,-18,-6,1,-1,13.13
2627,0,3,1,-34,1,3,0,1,13.135
2628,-1,1,-1,38,8,0,-1,-1,13.14
2629,-1,-1,-1,7,2,-2,-2,-2,13.145
2630,0,-1,-2,-25,13,5,1,-1,13.15
2631,-1,-1,-2,15,-22,-4,-1,0,13.155000000000001
2632,-2,-2,0,6,18,-6,-4,-2,13.16
2633,2,5,2,-6,-27,3,4,2,13.165000000000001
2634,1,-2,-2,11,38,2,-3,-1,13.17
2635,0,0,-2,-24,-16,-3,0,0,13.175
2636,-1,-4,-2,6,-5,0,0,-1,13.18
2637,0,1,1,-8,6,0,-1,-1,13.185
2638,-2,-3,-1,2,-21,-2,-2,-1,13.19
2639,0,-2,-5,3,-8,-3,-2,-1,13.195
2640,1,3,-1,-10,-8,0,-2,0,13.200000000000001
2641,-1,-1,-1,-15,8,-2,-2,-1,13.205
2642,0,-1,-1,7,-10,0,-1,-1,13.21
2643,-1,-3,-2,14,4,-3,-2,-2,13.215
2644,-2,0,0,63,18,1,0,0,13.22
2645,-1,0,1,19,8,1,-1,-1,13.225
2646,0,-2,-1,-25,13,-1,0,-1,13.23
2647,0,0,0,28,11,5,0,-1,13.235
2648,0,-2,-1,-6,-11,-3,-3,-1,13.24
2649,-1,0,-1,-4,-7,0,1,0,13.245000000000001
2650,0,2,2,43,15,2,0,-1,13.25
2651,-1,-4,-3,-23,12,-1,0,-1,13.255
2652,1,1,1,-33,-25,1,2,1,13.26
2653,0,0,-2,31,11,-1,-1,-1,13.265
2654,-1,-1,-1,-32,-26,-2,-2,-2,13.27
2655,-2,-2,-3,-4,-7,-3,-1,-1,13.275
2656,1,-1,-1,5,8,2,1,-1,13.280000000000001
2657,-1,-1,0,-26,-5,-1,1,-1,13.285
2658,-2,-1,-2,-5,-12,-4,-2,-3,13.290000000000001
2659,-1,-2,1,14,12,1,-3,0,13.295
2660,-2,-4,-3,-22,-6,2,0,-1,13.3
2661,0,-1,3,3,-11,-4,-3,-1,13.305
2662,-1,1,-1,-20,-5,3,2,0,13.31
2663,0,0,-1,17,13,2,-1,-1,13.315
2664,-1,0,-3,-67,-5,-2,-1,-1,13.32
2665,-1,-3,-3,7,5,-5,-3,-3,13.325000000000001
2666,-2,-1,0,15,1,1,1,-1,13.33
2667,-2,0,-1,-21,-12,-4,-2,-1,13.335
2668,0,-2,-2,22,-10,-5,-1,-2,13.34
2669,1,2,4,11,28,7,3,2,13.345
2670,0,-1,-4,-34,-34,-6,-3,0,13.35
2671,0,0,0,42,18,3,1,0,13.355
2672,-3,-2,-4,23,0,-2,-3,-2,13.36
2673,0,-2,-3,-6,4,0,-1,-1,13.365
2674,0,2,1,5,-11,-5,-2,0,13.370000000000001
2675,-2,-1,-2,-13,-9,-2,-1,-1,13.375
2676,0,1,1,2,4,-1,0,-1,13.38
2677,-2,-4,-5,-12,-2,-3,-2,0,13.385
2678,-1,0,-1,1,5,2,1,1,13.39
2679,0,0,0,-3,-3,-3,-1,1,13.395
2680,-1,2,2,-3,10,5,2,0,13.4
2681,-2,0,1,6,-10,-4,-2,0,13.405000000000001
2682,1,-4,-5,0,13,1,-1,-3,13.41
2683,0,1,0,1,8,-1,-1,-2,13.415000000000001
2684,0,-3,0,-22,-18,-4,-2,0,13.42
2685,-2,-5,-5,-9,2,2,-2,-2,13.425
2686,0,1,2,39,6,1,-1,0,13.43
2687,-2,-2,1,-2,-14,-1,2,1,13.435
2688,-3,0,-4,-11,-8,-3,-2,0,13.44
2689,-1,-1,1,-28,4,-1,0,0,13.445
2690,-2,-3,-2,35,-2,0,0,-1,13.450000000000001
2691,-1,-4,-2,23,-6,0,-2,-3,13.455
2692,0,-1,1,15,11,3,1,0,13.46
2693,1,1,0,-6,-17,-3,1,0,13.465
2694,-2,0,-1,-14,-19,-5,-2,-1,13.47
2695,0,1,2,-10,0,1,-1,0,13.475
2696,-1,-4,-4,-4,-5,0,-1,-2,13.48
2697,1,0,1,27,9,0,-2,-2,13.485
2698,0,-2,-1,-21,30,4,0,1,13.49
2699,-1,1,-1,-29,-27,-4,0,0,13.495000000000001
2700,-1,-1,0,0,-3,-3,-1,-2,13.5
2701,-2,-1,-2,-9,-6,2,-1,0,13.505
2702,-3,0,1,-15,-16,-4,-1,-1,13.51
2703,-1,0,-2,-3,4,-2,-2,0,13.515
2704,1,0,1,2,1,0,-1,1,13.52
2705,-2,-2,-2,23,0,2,-3,0,13.525
2706,-3,-1,-3,2,-3,-1,-1,0,13.530000000000001
2707,-2,-3,-3,-19,6,-3,0,-3,13.535
2708,0,0,-1,-30,0,-3,-1,0,13.540000000000001
2709,-1,0,0,2,-32,-5,-2,-2,13.545
2710,1,2,1,-10,19,4,3,1,13.55
2711,-1,-2,-2,47,-10,1,0,-1,13.555
2712,-2,-1,-5,-2,5,-1,-2,-1,13.56
2713,1,-1,-1,-23,3,-1,-1,-2,13.565
2714,0,-1,1,5,-6,-4,-4,-1,13.57
2715,0,-1,0,-10,-7,0,-1,1,13.575000000000001
2716,-1,0,-3,13,4,-2,-3,-3,13.58
2717,1,3,4,3,10,2,2,1,13.585
2718,1,1,1,7,-13,4,2,1,13.59
2719,-1,-2,-2,9,-3,-2,0,-1,13.595
2720,1,-2,-1,7,-5,-1,-2,0,13.6
2721,-3,-1,-2,4,40,2,0,0,13.605
2722,0,-1,-2,-5,-10,-7,-3,-1,13.61
2723,0,2,1,-13,-4,4,0,0,13.615
2724,-1,-2,0,6,-6,2,2,0,13.620000000000001
2725,-1,-1,1,1,-4,-2,-2,-2,13.625
2726,-1,0,-1,27,10,-1,0,1,13.63
2727,-1,0,0,-40,-13,-7,-3,-1,13.635
2728,-2,-1,1,71,0,-2,1,0,13.64
2729,0,-2,-4,-21,13,0,0,-3,13.645
2730,-1,-3,-1,-40,4,1,0,-1,13.65
2731,-1,-1,-1,-16,-14,-3,-2,-1,13.655000000000001
2732,0,-2,-3,-1,9,1,0,-2,13.66
2733,0,-1,-1,-3,-7,-4,0,1,13.665000000000001
2734,-1,2,0,-11,9,-1,-2,-3,13.67
2735,-3,-4,-3,1,-24,-5,-2,-2,13.675
2736,-1,0,4,-37,16,1,0,-2,13.68
2737,-2,-2,-6,24,-3,-3,-2,0,13.685
2738,0,-2,-2,-16,28,3,2,0,13.69
2739,-1,-2,-3,5,14,-1,0,-1,13.695
2740,1,0,0,-40,-25,-3,-1,-1,13.700000000000001
2741,0,1,1,-7,-7,-1,0,0,13.705
2742,-2,-1,0,44,-5,-5,-2,0,13.71
2743,-3,0,0,5,0,0,0,-1,13.715
2744,-3,-4,-1,13,-17,-1,-3,-2,13.72
2745,1,5,3,-43,2,6,1,0,13.725
2746,0,-6,-5,-29,6,-3,-1,-1,13.73
2747,1,-2,-2,31,58,5,0,0,13.735
2748,-1,0,1,22,-6,1,0,1,13.74
2749,2,-1,-3,30,-16,-2,-2,-2,13.745000000000001
2750,-1,-1,1,15,6,-2,-1,-2,13.75
2751,-4,0,3,-2,3,-4,0,-2,13.755
2752,1,0,-4,-13,12,0,-1,0,13.76
2753,-3,-6,-5,3,-2,-3,-2,-1,13.765
2754,3,2,1,-23,-19,-2,1,0,13.77
2755,0,-1,-3,4,-9,1,-2,-1,13.775
2756,-2,0,-1,-5,-7,-3,1,1,13.780000000000001
2757,-4,-2,-3,-6,-29,-6,-1,-3,13.785
2758,0,-1,1,12,17,5,0,-1,13.790000000000001
2759,0,0,0,5,-22,-6,-3,-2,13.795
2760,1,-1,-2,-26,16,2,-1,-1,13.8
2761,1,3,-2,-59,38,-1,-1,0,13.805
2762,-4,-3,-1,15,-2,4,0,-1,13.81
2763,0,-2,-1,-13,-24,-2,-1,0,13.815
2764,-3,-4,0,40,47,8,3,0,13.82
2765,0,1,1,17,-26,-5,-1,0,13.825000000000001
2766,-2,1,0,3,4,0,-1,-1,13.83
2767,-6,-4,-1,-8,8,-1,-1,-2,13.835
2768,-1,-5,-3,-5,7,-1,-2,-2,13.84
2769,3,1,15,18,3,1,1,1,13.845
2770,-1,1,-22,-19,-14,-3,-1,-3,13.85
2771,3,-2,11,4,-5,2,0,0,13.855
2772,0,3,-10,0,-14,-4,-1,-1,13.86
2773,1,0,-6,12,-4,-3,-2,0,13.865
2774,3,-13,7,-46,-22,-3,0,2,13.870000000000001
2775,-1,5,6,29,42,15,2,1,13.875
2776,0,1,-8,-9,-38,-6,-2,-3,13.88
2777,-1,5,55,1,-9,-3,-3,-2,13.885
2778,-5,-4,-79,39,62,4,0,-3,13.89
2779,6,-8,-3,9,0,1,-1,1,13.895
2780,-5,5,3,4,-26,-5,-3,0,13.9
2781,0,12,-4,13,11,6,2,2,13.905000000000001
2782,-3,-2,26,17,-47,-12,-2,-2,13.91
2783,6,7,-5,38,43,7,0,1,13.915000000000001
2784,-4,-9,-5,45,55,4,-1,-2,13.92
2785,6,-5,-8,-19,28,7,2,0,13.925
2786,-2,9,15,64,12,-1,-1,-3,13.93
2787,5,-3,-5,-47,-34,6,2,1,13.935
2788,3,0,11,36,32,4,2,1,13.94
2789,-12,-10,-22,10,-36,-7,-4,-5,13.945
2790,8,8,11,-25,49,8,-1,2,13.950000000000001
2791,20,27,3,-68,-43,-4,2,2,13.955
2792,-8,-9,-3,-25,-44,-12,-7,-3,13.96
2793,-14,-27,-7,110,66,21,7,4,13.965
2794,35,18,6,-32,-51,-7,-1,2,13.97
2795,-13,-13,-12,59,59,-1,-4,-5,13.975
2796,10,-6,0,-35,-11,2,-1,-2,13.98
2797,-16,18,-16,-56,33,-8,-2,-18,13.985
2798,-10,-32,22,-15,-10,3,7,13,13.99
2799,-8,4,-2,104,59,0,-13,-4,13.995000000000001
2800,11,11,3,51,-77,-22,-5,-12,14.0
2801,6,4,5,31,-6,10,2,27,14.005
2802,1,3,7,-38,13,1,-8,-24,14.01
2803,3,3,-3,-111,-32,-10,-2,3,14.015
2804,4,-1,-3,-15,41,-3,0,-1,14.02
2805,25,22,0,54,40,16,4,4,14.025
2806,-19,-18,-6,-33,-83,-24,3,0,14.030000000000001
2807,-31,-11,-2,38,-28,-7,0,-3,14.035
2808,-10,-17,6,-16,4,15,-1,-3,14.040000000000001
2809,-15,26,-1,16,-73,-9,-3,-10,14.045
2810,9,-3,-1,-40,-14,0,-6,0,14.05
2811,-5,-8,11,36,-14,6,8,3,14.055
2812,-2,22,-7,-74,-112,-29,-7,2,14.06
2813,2,-20,-3,28,56,43,11,2,14.065
2814,-3,-5,1,-5,-6,-10,1,2,14.07
2815,12,21,12,-124,-103,-10,-5,-1,14.075000000000001
2816,21,-9,13,86,120,52,20,12,14.08
2817,-29,0,0,-29,-66,-24,-10,-7,14.085
2818,6,23,-8,9,-30,-18,-12,-2,14.09
2819,21,12,17,94,120,56,18,8,14.095
2820,-1,-1,-4,-49,10,3,-3,1,14.1
2821,-18,-45,-17,-42,-59,-20,-6,-37,14.105
2822,-3,29,3,1,-82,-16,-5,4,14.11
2823,-15,-27,-11,8,65,11,-1,-7,14.115
2824,9,-13,-4,37,43,3,0,-10,14.120000000000001
2825,29,37,3,-53,-29,-16,-7,16,14.125
2826,-23,-26,2,80,44,5,-2,-9,14.13
2827,5,8,-3,-37,10,6,-6,3,14.135
2828,-4,13,-9,-65,-27,-6,-4,-6,14.14
2829,17,1,1,-88,-24,-9,6,6,14.145
2830,4,2,-1,64,3,7,6,5,14.15
2831,-3,-13,10,-95,-65,-32,-9,-7,14.155000000000001
2832,-23,-16,-43,24,8,2,-2,-2,14.16
2833,-5,13,-2,13,5,-6,-4,-3,14.165000000000001
2834,-4,-9,1,-71,-52,-3,-3,1,14.17
2835,10,-4,-5,-47,-39,-11,4,2,14.175
2836,-15,9,8,3,-82,-27,-7,-4,14.18
2837,23,14,18,19,16,0,5,6,14.185
2838,-22,-19,-21,76,-36,1,-2,-5,14.19
2839,1,24,-2,51,10,-5,-2,17,14.195
2840,-2,-23,12,-67,-37,-2,2,-6,14.200000000000001
2841,-3,-8,-10,-82,-11,-5,-16,-1,14.205
2842,3,6,18,-78,114,30,4,-3,14.21
2843,-2,-6,-10,47,-46,-20,0,2,14.215
2844,12,27,-7,-2,33,16,4,6,14.22
2845,-11,-18,-1,27,-59,-13,-7,-5,14.225
2846,4,-16,1,79,70,23,0,3,14.23
2847,11,20,17,-13,-57,-17,-2,-5,14.235
2848,-7,7,-35,-64,58,6,-2,-4,14.24
2849,0,-47,-5,-16,43,14,-1,-4,14.245000000000001
2850,-25,9,0,-110,-69,-27,-6,0,14.25
2851,-1,-14,5,-19,101,38,10,-3,14.255
2852,-1,-4,15,-38,-63,-23,-3,0,14.26
2853,-6,5,-8,-60,-101,-21,-4,2,14.265
2854,15,7,10,43,-15,11,8,4,14.27
2855,9,0,-8,0,2,1,0,-1,14.275
2856,-19,-16,1,90,-12,-9,-6,-1,14.280000000000001
2857,17,21,10,58,67,18,6,4,14.285
2858,-6,-5,6,15,-33,-10,0,-2,14.290000000000001
2859,-8,-19,-13,36,25,-1,-1,-4,14.295
2860,18,-1,11,41,-34,-11,-6,0,14.3
2861,5,8,12,91,67,10,5,0,14.305
2862,-12,23,-24,-76,-17,-6,-2,-3,14.31
2863,-7,-25,1,-44,-31,2,-1,2,14.315
2864,0,8,-8,10,-20,-2,3,2,14.32
2865,4,-7,8,-40,23,10,1,0,14.325000000000001
2866,-31,-28,-3,56,-6,3,2,-6,14.33
2867,0,23,-4,37,-24,-11,-3,-3,14.335
2868,21,8,10,-9,-7,3,2,5,14.34
2869,-24,1,-9,-87,-71,-15,-4,-1,14.345
2870,10,-1,-3,34,49,9,-2,0,14.35
2871,-7,3,2,22,-60,-12,-2,-5,14.355
2872,4,16,16,24,4,3,5,8,14.36
2873,2,-9,-6,58,17,1,3,1,14.365
2874,19,2,19,-85,-10,7,0,1,14.370000000000001
2875,-8,-16,-49,-16,-59,-21,-7,-6,14.375
2876,-9,-8,-3,-94,-17,1,-1,-3,14.38
2877,-7,-4,-7,-13,-24,-6,-1,-3,14.385
2878,11,5,13,-59,-26,-1,2,2,14.39
2879,5,9,-7,-75,10,-14,-3,0,14.395
2880,-5,-19,15,-31,-28,3,-2,-1,14.4
2881,-24,16,-9,-9,42,-8,-1,0,14.405000000000001
2882,3,-2,-1,34,15,11,7,18,14.41
2883,-26,1,9,62,-43,-5,-12,-18,14.415000000000001
2884,12,-12,-22,43,-8,-5,-15,2,14.42
2885,-24,-35,0,-6,-29,0,4,-3,14.425
2886,13,30,8,69,79,6,1,1,14.43
2887,-2,-5,7,-16,1,2,-1,-1,14.435
2888,4,19,11,57,22,4,3,0,14.44
2889,10,-7,-2,22,38,7,0,0,14.445
2890,0,-3,-17,17,-107,-25,-7,-6,14.450000000000001
2891,-3,0,7,-25,30,17,4,2,14.455
2892,-15,-2,27,58,28,0,2,-5,14.46
2893,3,-7,-40,-69,-99,-17,-4,-3,14.465
2894,7,0,7,-12,27,1,1,-3,14.47
2895,0,-7,-4,-42,-7,-3,1,0,14.475
2896,-6,0,1,-59,-80,-11,-2,4,14.48
2897,15,4,12,91,19,-2,-1,2,14.485
2898,-5,-5,-6,-41,48,14,0,-4,14.49
2899,0,-3,-3,20,-66,-15,0,0,14.495000000000001
2900,-4,2,-6,-11,37,11,1,-4,14.5
2901,8,-2,4,15,-6,-4,-6,-2,14.505
2902,10,-4,-10,-5,12,0,0,-2,14.51
2903,-31,3,10,70,65,11,4,1,14.515
2904,-3,-9,-13,-53,-30,-7,1,-1,14.52
2905,6,6,9,-27,79,27,5,-2,14.525
2906,-7,1,0,-26,-41,-10,-4,-2,14.530000000000001
2907,17,5,0,-36,-12,-1,0,1,14.535
2908,5,-4,-6,-10,9,3,2,0,14.540000000000001
2909,-14,-10,-6,1,-19,-8,-5,-2,14.545
2910,-7,-4,-8,-29,25,0,-1,-5,14.55
2911,3,-1,1,-12,-1,0,0,-1,14.555
2912,-4,-4,-5,-15,-3,-1,-1,-1,14.56
2913,11,6,0,-10,-17,-5,1,1,14.565
2914,-2,-8,-4,26,1,1,-3,-2,14.57
2915,2,-2,-6,-12,-16,-8,-3,-1,14.575000000000001
2916,-1,4,18,-2,19,9,2,0,14.58
2917,0,-2,-9,0,-13,-2,0,-3,14.585
2918,-3,-1,4,8,-8,-6,-2,-1,14.59
2919,3,0,1,-31,-5,0,0,1,14.595
2920,-3,-4,1,22,16,2,-1,0,14.6
2921,-2,1,6,35,40,8,-1,0,14.605
2922,2,2,-4,23,2,-3,-1,-1,14.61
2923,4,-2,-1,-53,-30,-8,-4,-1,14.615
2924,-2,-4,-11,40,-2,2,3,1,14.620000000000001
2925,1,2,3,14,-10,-4,0,-2,14.625
2926,-1,-1,0,8,-7,-3,-3,-2,14.63
2927,0,-5,-4,4,-1,-1,0,-1,14.635
2928,-1,3,-5,-19,-3,-1,2,1,14.64
2929,-1,2,2,-4,-6,-1,-3,-2,14.645
2930,1,-2,0,-14,-21,-2,0,1,14.65
2931,-1,-3,-4,0,2,0,-2,-1,14.655000000000001
2932,0,4,1,-2,12,5,1,1,14.66
2933,4,5,4,-15,-8,-1,0,2,14.665000000000001
2934,-2,-5,-7,-5,6,0,-1,0,14.67
2935,0,1,0,8,1,2,-1,0,14.675
2936,1,5,1,8,20,3,-1,-1,14.68
2937,-1,0,5,-10,-7,-3,-2,-2,14.685
2938,-2,-4,-5,1,-5,-1,-1,-2,14.69
2939,-1,-5,-3,2,12,1,0,-1,14.695
2940,0,1,4,0,1,-4,-1,-1,14.700000000000001
2941,-1,-3,-1,-27,-16,-3,-2,1,14.705
2942,-2,-5,-9,-10,6,-3,-3,-2,14.71
2943,2,3,3,37,-14,2,-1,1,14.715
2944,-1,-2,0,-6,17,5,-1,-2,14.72
2945,-3,-3,-3,-8,-13,-3,-1,-1,14.725
2946,3,1,-1,-12,17,0,1,-1,14.73
2947,-1,-3,-1,1,-3,0,-3,-3,14.735
2948,1,3,4,-5,-12,0,0,0,14.74
2949,-2,-8,-10,12,10,-2,-2,0,14.745000000000001
2950,-1,1,5,1,3,1,0,-1,14.75
2951,0,-3,-7,-26,-11,-2,1,-1,14.755
2952,-2,-1,-2,14,-9,-4,-1,-3,14.76
2953,-1,1,0,-37,-18,-2,0,-2,14.765
2954,1,6,5,2,1,1,0,0,14.77
2955,-2,-6,-3,10,12,2,-2,-2,14.775
2956,-1,-3,-4,-13,-1,-3,-2,-2,14.780000000000001
2957,0,0,-1,0,2,1,1,0,14.785
2958,-2,0,3,1,-11,-1,-2,0,14.790000000000001
2959,-1,4,0,-9,2,0,0,0,14.795
2960,-1,-4,-3,7,-4,-1,-2,-1,14.8
2961,-3,-4,-1,-3,-5,-7,-1,-1,14.805
2962,-1,0,0,15,-3,-2,0,1,14.81
2963,2,-1,-1,-3,-4,5,3,2,14.815
2964,-1,-1,-3,-19,-6,0,-2,-1,14.82
2965,0,1,0,37,-14,-1,0,-1,14.825000000000001
2966,-2,-2,0,-19,4,-1,-1,-2,14.83
2967,-1,-2,0,35,6,1,-2,-2,14.835
2968,-2,0,-3,2,2,1,0,0,14.84
2969,0,1,-1,-33,6,-1,-2,-1,14.845
2970,-1,-5,-5,11,14,1,-2,-2,14.85
2971,0,1,0,-50,-8,-4,-1,0,14.855
2972,-1,0,-2,2,-13,0,0,-1,14.86
2973,-3,-6,-3,-9,8,1,-1,-3,14.865
2974,-2,-4,-2,-6,-17,-2,0,0,14.870000000000001
2975,1,3,3,12,10,0,0,-1,14.875
2976,-1,1,-2,6,6,-2,0,-2,14.88
2977,-2,-2,-3,-7,-19,0,0,-1,14.885
2978,-1,-1,-1,-5,-9,0,0,-1,14.89
2979,0,0,2,-1,-10,-2,-1,-2,14.895
2980,0,0,1,-3,14,-5,-1,1,14.9
2981,2,1,1,33,5,1,-1,0,14.905000000000001
2982,-1,-1,-2,-29,-9,-5,-1,0,14.91
2983,-2,-3,-2,-3,5,1,-1,0,14.915000000000001
2984,-2,-1,2,-9,-8,-7,-2,0,14.92
2985,-1,-1,-4,-7,4,1,-3,-1,14.925
2986,0,-2,0,34,30,11,1,-1,14.93
2987,1,0,0,-15,8,2,1,0,14.935
2988,-2,-3,-4,-8,-5,0,-1,-3,14.94
2989,1,1,4,23,6,-4,2,-1,14.945
2990,-2,0,-3,-5,-31,-6,-2,-2,14.950000000000001
2991,-2,-3,-2,6,17,1,-1,1,14.955
2992,1,1,2,43,2,0,-1,1,14.96
2993,-1,1,0,3,1,4,1,0,14.965
2994,0,1,2,-22,-11,0,-1,-1,14.97
2995,-1,-3,-2,7,-7,-4,-1,-2,14.975
2996,1,0,0,0,39,6,1,-1,14.98
2997,0,3,0,9,-13,-7,-2,-1,14.985
2998,0,-4,-1,2,5,1,-1,-2,14.99
2999,-1,2,1,-1,-15,-4,-2,-1,14.995000000000001
3000,-3,-2,-3,5,-9,-4,-1,1,15.0
3001,2,-2,-2,-20,-3,1,1,0,15.005
3002,-2,-2,-4,4,2,-2,-2,0,15.01
3003,-2,-2,-3,-5,9,-2,-1,-2,15.015
3004,1,-2,-1,-29,-21,0,0,-1,15.02
3005,-1,-1,1,3,6,-2,0,-2,15.025
3006,1,4,4,50,8,2,2,0,15.030000000000001
3007,-1,-1,-1,-17,-33,-2,-2,-1,15.035
3008,0,1,-1,11,22,3,0,-1,15.040000000000001
3009,-1,1,2,-25,-7,-1,-1,0,15.045
3010,-1,-2,-4,-9,-4,-4,-2,0,15.05
3011,-1,-1,1,0,-16,-1,0,2,15.055
3012,-4,-4,-1,-16,4,0,0,-4,15.06
3013,-2,-3,-4,30,20,3,0,0,15.065
3014,-1,1,3,32,-19,-6,-2,-3,15.07
3015,0,-2,-3,0,9,6,2,-2,15.075000000000001
3016,-2,-1,3,16,-5,-4,-2,-2,15.08
3017,-1,-2,-3,-6,-6,-2,-1,-2,15.085
3018,0,0,1,-6,-6,-5,-1,-2,15.09
3019,-1,-1,-3,-20,5,-5,-2,0,15.095
3020,-2,1,-1,9,1,-1,0,0,15.1
3021,1,0,-1,-6,0,0,-1,-1,15.105
3022,0,4,-1,11,11,-1,-2,-1,15.11
3023,-3,-2,-2,-16,-8,-2,0,-1,15.115
3024,-2,-2,-3,-6,-31,-5,-4,-3,15.120000000000001
3025,-1,0,0,4,-1,-1,-1,0,15.125
3026,1,-1,-1,-18,11,2,1,0,15.13
3027,0,1,0,14,6,1,0,0,15.135
3028,0,0,-2,-32,-47,-8,-1,-1,15.14
3029,-2,-3,-4,29,56,3,-1,-2,15.145
3030,-1,-1,2,-3,7,2,0,-1,15.15
3031,0,-2,0,28,2,-1,-1,-2,15.155000000000001
3032,2,3,3,15,17,8,2,2,15.16
3033,-1,-4,-3,-14,-3,0,-1,-2,15.165000000000001
3034,0,-3,-2,14,-5,0,-1,0,15.17
3035,1,2,0,-55,12,0,-1,-1,15.175
3036,-1,0,0,-1,12,-2,-3,-1,15.18
3037,1,-1,-1,19,-24,-1,-1,0,15.185
3038,-1,-3,-5,-39,-14,1,0,-2,15.19
3039,1,1,1,0,15,-2,-2,-2,15.195
3040,0,-2,-2,19,14,1,0,-2,15.200000000000001
3041,-2,0,1,-16,-23,-4,0,0,15.205
3042,0,1,-1,-9,-2,-1,-3,-2,15.21
3043,-2,-2,-2,7,-7,0,-1,-1,15.215
3044,1,-1,0,-14,8,-2,1,-1,15.22
3045,-1,-3,-6,12,1,3,1,-1,15.225
3046,-2,-2,-3,-18,-11,-2,-2,0,15.23
3047,1,4,7,58,22,5,3,1,15.235
3048,-3,-3,-7,-30,-15,-4,-3,-1,15.24
3049,0,1,1,-31,-20,-4,1,-2,15.245000000000001
3050,1,-2,0,0,3,0,-3,0,15.25
3051,-1,-2,-2,9,-21,-6,-2,-1,15.255
3052,-1,-1,0,-10,-5,-1,-1,1,15.26
3053,0,3,-1,6,-2,-1,-3,-1,15.265
3054,-1,1,1,0,24,1,0,0,15.27
3055,0,-1,-1,-36,-16,-2,1,1,15.275
3056,-2,-4,-2,76,42,3,-1,-1,15.280000000000001
3057,0,0,-2,-26,4,0,-1,0,15.285
3058,0,-2,-2,18,-6,-5,-2,0,15.290000000000001
3059,0,1,0,13,-5,-4,-2,-1,15.295
3060,-1,-4,-3,-26,-5,-2,-1,-1,15.3
3061,-1,-2,0,10,-4,1,-1,0,15.305
3062,-1,0,-2,-7,-16,-3,-1,-1,15.31
3063,-2,-2,-1,-10,-54,-4,-1,-2,15.315
3064,1,3,0,29,34,6,2,2,15.32
3065,0,-2,-4,-12,9,1,0,-1,15.325000000000001
3066,-1,-2,-2,1,-12,-2,-2,-2,15.33
3067,-2,0,-3,-1,5,0,-3,-1,15.335
3068,-1,0,1,-11,-17,-4,-3,1,15.34
3069,-1,-1,1,7,-3,-1,-2,-1,15.345
3070,2,4,2,-19,0,1,1,-1,15.35
3071,-2,-3,-5,38,29,-1,-2,-2,15.355
3072,2,0,-2,-7,-4,8,3,0,15.36
3073,0,4,5,-11,-38,-11,-2,-2,15.365
3074,-1,-5,-7,-85,29,6,1,0,15.370000000000001
3075,-1,1,1,10,17,0,0,0,15.375
3076,0,-2,-3,-25,-15,-3,0,-1,15.38
3077,-2,0,-1,-10,-3,-3,0,0,15.385
3078,0,-1,1,35,-17,-5,-4,-2,15.39
3079,0,1,1,0,5,-1,1,0,15.395
3080,0,0,0,-35,-29,-3,-2,0,15.4
3081,1,1,5,49,24,-2,-1,-1,15.405000000000001
3082,-1,0,-1,11,20,8,0,1,15.41
3083,-2,-1,-2,-16,15,1,-1,-1,15.415000000000001
3084,-2,-3,-4,24,-18,-4,-2,-2,15.42
3085,-2,-3,-4,-17,3,0,-1,-2,15.425
3086,-1,0,1,16,15,5,2,0,15.43
3087,-1,-2,-4,-25,-10,0,-1,-2,15.435
3088,-1,0,1,10,-2,-5,-2,-1,15.44
3089,0,0,0,-2,-4,1,-1,-2,15.445
3090,0,0,0,7,-3,-3,-1,-1,15.450000000000001
3091,-1,-4,-3,-3,-29,-6,-4,0,15.455
3092,-2,1,0,-19,52,8,0,0,15.46
3093,-1,-4,-5,-16,12,5,2,1,15.465
3094,-2,-2,-3,1,-33,-7,-3,0,15.47
3095,0,0,2,21,38,6,1,-1,15.475
3096,1,-1,0,8,-16,-4,-2,-2,15.48
3097,0,1,-1,-58,-2,3,0,0,15.485000000000001
3098,-1,-1,-1,7,-28,-4,-1,-1,15.49
3099,-1,-2,-3,-24,-13,-5,-2,-2,15.495000000000001
3100,0,0,1,0,0,-1,1,0,15.5
3101,0,-1,0,14,-5,1,-1,-1,15.505
3102,-1,1,0,4,-4,-3,-1,-2,15.51
3103,-1,-1,-2,-13,-16,-1,-1,-1,15.515
3104,-1,-5,-5,3,16,0,-1,-1,15.52
3105,-1,-2,0,15,-10,-4,0,-1,15.525
3106,-2,2,0,-11,6,-1,0,0,15.530000000000001
3107,1,4,6,35,3,1,0,0,15.535
3108,0,-1,-2,10,-8,-1,-1,-1,15.540000000000001
3109,-2,-3,-4,21,38,9,1,-2,15.545
3110,-1,-4,-3,14,8,-4,-2,-1,15.55
3111,0,0,2,18,8,0,1,0,15.555
3112,-1,2,2,-5,-17,-2,0,-1,15.56
3113,-2,-1,-2,15,-17,-4,-3,-1,15.565
3114,1,0,-2,1,-9,-2,-2,-1,15.57
3115,1,-1,0,-6,8,-1,1,-2,15.575000000000001
3116,1,-1,-1,-32,8,2,-1,-1,15.58
3117,1,1,4,52,-9,-7,-2,0,15.585
3118,-4,-4,-4,-12,-2,5,0,-1,15.59
3119,-1,1,0,10,13,-3,-1,-2,15.595
3120,-2,-4,-4,-29,-4,2,-2,0,15.6
3121,2,3,5,3,31,0,1,0,15.605
3122,-1,-1,0,10,-8,-1,1,-1,15.610000000000001
3123,-1,0,-4,-27,-6,-2,-1,1,15.615
3124,-2,-3,0,32,7,-3,0,-3,15.620000000000001
3125,-1,-5,-6,-14,-9,-3,-3,-3,15.625
3126,0,0,3,-5,9,1,0,0,15.63
3127,-1,-2,-2,13,-19,-2,0,0,15.635
3128,0,-1,0,-43,-7,-5,-2,-1,15.64
3129,0,-1,-2,-19,2,2,0,0,15.645
3130,1,0,-1,-3,5,2,0,0,15.65
3131,-1,0,-1,21,16,2,-1,-2,15.655000000000001
3132,-2,0,-2,7,0,-1,-1,0,15.66
3133,-4,-3,-3,-14,-16,-6,-2,-2,15.665000000000001
3134,-1,1,-1,-25,2,0,-1,1,15.67
3135,-3,-1,-4,11,1,0,-1,-1,15.675
3136,-1,0,1,0,-8,-3,0,-1,15.68
3137,-1,-2,-1,-11,-2,-2,-2,-2,15.685
3138,0,-1,-2,0,-2,-3,-2,0,15.69
3139,-1,-4,-2,-11,-8,-2,-1,-1,15.695
3140,1,0,-1,6,0,0,0,-1,15.700000000000001
3141,-1,0,-2,-4,-1,1,-1,-1,15.705
3142,-2,2,3,9,-50,-3,-2,1,15.71
3143,-1,-5,-4,-14,41,3,0,0,15.715
3144,0,-2,-2,-16,11,4,2,1,15.72
3145,-2,-2,-3,38,9,1,0,-1,15.725
3146,-2,-2,-2,-5,-9,-4,0,-1,15.73
3147,-2,-1,0,-16,-19,-1,0,-1,15.735000000000001
3148,0,1,-2,-1,-11,-2,-1,-1,15.74
3149,-1,-3,-3,-17,-6,-1,-1,-2,15.745000000000001
3150,-1,-2,-1,9,6,-3,0,-1,15.75
3151,2,1,1,9,-6,-1,-2,0,15.755
3152,-2,1,0,10,1,-2,0,-1,15.76
3153,1,3,2,-6,-10,4,0,1,15.765
3154,-1,-1,-3,15,3,-4,-2,-1,15.77
3155,-1,-1,-2,-6,24,4,1,0,15.775
3156,-1,-1,0,2,-12,-1,-3,0,15.780000000000001
3157,-1,0,-2,8,11,-2,-1,0,15.785
3158,0,0,0,-17,-7,0,-1,-3,15.790000000000001
3159,0,-1,2,-33,-3,-1,-1,-2,15.795
3160,1,0,2,8,-25,-5,0,0,15.8
3161,-2,-5,-5,-30,17,-1,-2,-3,15.805
3162,0,-1,-3,-34,11,-1,-3,-2,15.81
3163,0,1,-2,12,-6,4,2,1,15.815
3164,-2,-2,0,2,4,0,-2,-2,15.82
3165,1,2,1,-22,-37,-4,0,1,15.825000000000001
3166,0,0,0,12,4,0,0,1,15.83
3167,-2,0,-1,22,5,-1,-3,-2,15.835
3168,0,-3,-1,13,-3,-2,0,-2,15.84
3169,0,1,0,-10,-9,-4,0,-1,15.845
3170,-2,-3,-3,4,13,0,-2,-2,15.85
3171,-3,-1,-1,1,-18,-4,0,-1,15.855
3172,0,1,1,0,-8,-2,-1,0,15.860000000000001
3173,0,-1,0,15,40,4,1,0,15.865
3174,0,-3,-2,-17,2,2,-1,-1,15.870000000000001
3175,1,2,2,8,5,-1,-2,-1,15.875
3176,-3,-3,-4,3,-12,-5,-4,-2,15.88
3177,-1,0,3,-8,7,1,1,-1,15.885
3178,-2,1,1,5,-1,0,-2,-1,15.89
3179,1,-1,2,23,-13,0,-1,0,15.895
3180,-2,-4,-5,-23,26,0,0,-1,15.9
3181,1,1,-2,-18,9,4,1,0,15.905000000000001
3182,0,1,1,42,5,5,3,0,15.91
3183,2,-2,-2,-6,-8,-5,-2,-2,15.915000000000001
3184,0,1,-1,6,11,-1,-1,-3,15.92
3185,-2,0,2,-3,-18,-1,-2,-3,15.925
3186,-2,0,-2,-6,-11,-3,-1,-1,15.93
3187,-3,-3,-4,-47,0,1,0,-1,15.935
3188,2,2,3,16,-7,6,2,1,15.94
3189,-1,-2,-2,8,-12,-5,-1,-1,15.945
3190,-1,-2,-2,-4,-9,-4,-4,0,15.950000000000001
3191,-1,0,-3,16,6,4,0,-1,15.955
3192,-3,-2,-1,-19,-8,-2,-2,-2,15.96
3193,-1,-1,-1,7,-4,-5,-2,-2,15.965
3194,0,-3,1,-14,8,0,1,0,15.97
3195,-2,0,0,20,-13,-5,-2,-2,15.975
3196,0,1,0,-6,7,2,2,1,15.98
3197,-1,1,-3,-3,-4,-2,-1,1,15.985000000000001
3198,-1,-2,0,-6,-22,-6,2,0,15.99
3199,0,2,2,10,-13,-2,0,1,15.995000000000001
3200,-2,-4,-6,11,21,0,-1,-1,16.0
3201,1,-1,-1,30,7,2,-2,1,16.005
3202,-1,0,0,69,15,1,-1,-1,16.01
3203,-2,-2,-4,-48,4,0,-2,-1,16.015
3204,0,1,2,-3,-24,-2,-1,-2,16.02
3205,1,-1,-2,-31,-5,-2,-1,-2,16.025
3206,-2,-5,-4,27,29,0,-1,-2,16.03
3207,-1,0,0,14,-2,-2,0,0,16.035
3208,-1,-1,-1,17,24,0,-2,-1,16.04
3209,-1,-2,-3,-4,-4,-1,0,1,16.045
3210,-1,2,3,-30,-17,-1,1,-1,16.05
3211,-1,-2,-3,-7,7,-2,-1,-2,16.055
3212,-1,0,-2,-3,-16,-3,-3,-1,16.06
3213,-1,1,2,1,-11,-2,0,-2,16.065
3214,-1,1,-1,-7,19,2,-1,0,16.07
3215,-1,-5,-2,-4,-10,-3,-2,-2,16.075
3216,-1,-1,-1,6,-9,-4,-1,-1,16.080000000000002
3217,-1,2,3,-1,-17,-1,-1,-2,16.085
3218,0,-4,-3,-12,5,1,1,0,16.09
3219,-2,-3,-4,19,-1,-4,-2,-1,16.095
3220,-1,-2,-2,-31,-10,1,0,-1,16.1
3221,-1,-2,0,-9,-12,-2,-3,0,16.105
3222,-1,0,-2,31,40,4,-2,0,16.11
3223,1,2,2,-17,-22,2,1,1,16.115000000000002
3224,-1,-2,-4,-29,12,-3,-1,-4,16.12
3225,-1,-5,-4,54,15,-1,-2,-2,16.125
3226,0,1,1,-20,-26,1,0,1,16.13
3227,-2,1,1,-8,1,-1,1,0,16.135
3228,-1,0,0,10,6,2,0,0,16.14
3229,0,1,1,-16,0,-1,-2,-1,16.145
3230,-2,-1,-4,-14,-11,-4,-4,-2,16.15
3231,-1,-2,0,14,-4,-2,-2,-3,16.155
3232,-1,2,3,5,-18,0,1,0,16.16
3233,-2,-1,-1,-16,16,2,0,-1,16.165
3234,2,0,0,-2,-3,-1,1,1,16.17
3235,-1,-6,-2,-6,13,0,-2,-1,16.175
3236,0,-1,-3,5,7,2,0,-1,16.18
3237,-1,3,1,-17,-22,-3,-2,-1,16.185
3238,1,1,0,-12,6,-1,0,0,16.19
3239,1,2,3,1,14,5,0,1,16.195
3240,-3,-3,-1,13,5,-3,-3,-1,16.2
3241,-2,-2,-5,-2,-5,-3,-3,0,16.205000000000002
3242,1,0,1,3,22,1,-1,-1,16.21
3243,-1,0,-1,39,3,2,-1,-1,16.215
3244,-1,-1,-1,-24,-14,-4,-2,-2,16.22
3245,-1,-1,1,-28,-7,3,1,1,16.225
3246,-3,-2,-3,5,-27,-6,-2,-1,16.23
3247,1,2,0,27,45,1,2,0,16.235
3248,-2,-2,-3,13,-1,2,-1,-1,16.240000000000002
3249,1,-1,-1,-21,-4,-3,0,-2,16.245
3250,-1,-3,-2,17,3,1,0,-1,16.25
3251,-2,0,-3,-18,-11,-2,0,-1,16.255
3252,0,1,1,-3,-4,-1,1,-1,16.26
3253,-3,-3,-2,8,11,1,0,0,16.265
3254,-1,3,1,-5,-10,1,-1,-1,16.27
3255,-1,-2,1,-5,-7,-4,-2,-1,16.275
3256,-2,-2,-5,-13,3,-4,0,-1,16.28
3257,2,-2,1,59,-32,2,1,1,16.285
3258,-2,-1,0,-26,1,0,-2,-1,16.29
3259,-2,-1,-3,-18,-39,-7,-2,-1,16.295
3260,1,2,4,-6,15,-1,-1,0,16.3
3261,-1,0,0,18,10,-2,0,-1,16.305
3262,-1,-1,-1,9,-9,-3,0,-2,16.31
3263,0,-3,-2,-10,-1,0,-1,0,16.315
3264,-1,-2,1,11,-8,0,-1,0,16.32
3265,-2,-3,-2,-2,23,0,1,-2,16.325
3266,-2,-2,-2,-9,-23,-7,-3,-2,16.330000000000002
3267,1,-1,-3,-40,21,5,-1,-1,16.335
3268,0,0,-2,-13,9,-4,-1,-1,16.34
3269,-3,-5,-5,9,26,5,1,1,16.345
3270,2,1,1,-17,-9,0,1,0,16.35
3271,-2,-3,-3,19,2,-3,-3,-1,16.355
3272,0,0,1,-20,-14,-1,0,0,16.36
3273,0,0,0,-27,-10,-2,0,0,16.365000000000002
3274,0,0,-1,10,11,-1,0,1,16.37
3275,0,-2,1,-10,-10,-4,-2,-1,16.375
3276,0,0,-1,29,7,5,-1,0,16.38
3277,0,0,0,-6,-8,-4,-2,-2,16.385
3278,0,-2,-2,1,0,0,-1,0,16.39
3279,-1,1,0,-18,13,4,2,-1,16.395
3280,-1,-1,-1,26,-42,-5,-2,-2,16.4
3281,1,2,1,7,31,1,-2,-2,16.405
3282,1,1,3,43,70,13,2,0,16.41
3283,-1,-4,-2,-33,0,3,-2,-2,16.415
3284,-1,0,0,1,-17,-3,0,0,16.42
3285,-1,5,0,-3,-36,-6,-2,-1,16.425
3286,-4,-4,-6,-16,-10,-6,-2,-3,16.43
3287,-1,2,2,28,6,0,1,0,16.435
3288,1,0,1,1,11,3,1,0,16.44
3289,-1,-1,1,-12,-10,-1,-1,-1,16.445
3290,-1,1,0,-22,-13,-5,-1,-2,16.45
3291,-2,1,-2,11,-9,-1,-1,0,16.455000000000002
3292,0,-2,-2,-10,-7,-2,-2,0,16.46
3293,0,-1,-3,1,1,-1,-1,0,16.465
3294,0,-1,0,-1,-6,0,-2,-3,16.47
3295,-1,1,-1,-19,-11,-2,1,0,16.475
3296,-1,-3,-1,25,22,1,0,0,16.48
3297,1,1,-1,-26,-4,1,1,1,16.485
3298,-3,-2,-1,1,-7,-3,-1,0,16.490000000000002
3299,-1,0,0,47,-16,-12,-5,-2,16.495
3300,-2,-3,-3,-29,65,18,3,0,16.5
3301,-1,-1,-1,-24,7,-1,-1,-1,16.505
3302,-2,0,-1,-14,-21,-7,-2,-2,16.51
3303,1,-1,-1,2,-8,1,1,0,16.515
3304,-3,-4,-5,-15,-23,-5,-2,-1,16.52
3305,-2,-3,-2,23,-6,-3,-1,-1,16.525
3306,0,1,0,-6,12,0,0,1,16.53
3307,0,0,1,-5,4,-2,-1,-1,16.535
3308,-1,-1,-3,1,-6,-4,-1,-1,16.54
3309,-1,0,-2,-2,-6,0,0,-2,16.545
3310,1,-1,0,-21,-26,-2,-2,-1,16.55
3311,0,0,-1,5,13,1,1,0,16.555
3312,1,2,3,5,-2,1,0,0,16.56
3313,0,-2,-1,12,0,0,-1,1,16.565
3314,-1,-4,-2,-10,-6,0,-1,-3,16.57
3315,0,-1,-3,-7,0,-2,-1,0,16.575
3316,0,0,0,8,-22,-3,-1,1,16.580000000000002
3317,-1,-1,-4,-30,11,2,0,0,16.585
3318,0,0,2,32,-7,-3,-1,-1,16.59
3319,1,-1,-1,3,22,3,0,-1,16.595
3320,-2,-1,0,0,-30,-8,-3,-2,16.6
3321,1,1,1,15,-11,0,0,0,16.605
3322,-1,-2,-2,-49,11,8,2,2,16.61
3323,-1,-3,-2,24,-6,-3,-2,-2,16.615000000000002
3324,1,0,1,8,25,2,-1,-1,16.62
3325,-2,-4,-4,4,-3,-3,-4,-2,16.625
3326,-1,0,-1,-6,-12,-4,-3,-2,16.63
3327,1,2,3,-9,-18,-2,0,3,16.635
3328,-1,-5,-1,-7,10,1,-1,1,16.64
3329,-1,-2,1,0,-9,-2,-1,-2,16.645
3330,-1,0,-2,-6,8,0,-1,-1,16.65
3331,-3,-3,-3,-1,1,-1,1,-2,16.655
3332,-1,0,0,-12,8,1,-1,0,16.66
3333,-1,1,2,-4,1,-1,-2,0,16.665
3334,0,-3,-1,13,-2,-2,-2,-1,16.67
3335,-1,-5,-3,-31,-13,0,-1,-2,16.675
3336,0,1,0,1,-11,0,-1,-2,16.68
3337,-1,-5,-1,37,46,2,-2,-3,16.685
3338,-1,-3,-6,-6,-3,-2,0,0,16.69
3339,0,0,0,-10,-3,0,-1,-1,16.695
3340,0,1,-1,3,-3,-3,0,0,16.7
3341,1,1,2,-4,-29,-7,-2,-1,16.705000000000002
3342,3,2,1,44,28,9,3,1,16.71
3343,-2,-4,-7,-20,23,5,-1,0,16.715
3344,-2,1,1,20,-13,-2,-1,0,16.72
3345,-2,-4,-5,-2,-1,-3,-2,-1,16.725
3346,0,2,1,-19,-17,0,1,-1,16.73
3347,1,1,0,34,-22,2,0,0,16.735
3348,0,0,1,-14,15,3,0,1,16.740000000000002
3349,0,-1,-1,2,4,-1,-1,-1,16.745
3350,-2,0,-1,-5,-3,-1,-2,-1,16.75
3351,-2,1,-1,-9,-7,-3,-2,-2,16.755
3352,0,1,-1,-12,-6,-3,-2,0,16.76
3353,0,-1,-2,-5,4,3,0,2,16.765
3354,-1,-1,-2,-41,-34,-3,-2,-2,16.77
3355,0,1,2,13,35,-2,-1,1,16.775
3356,-1,-2,-2,18,9,0,-1,-1,16.78
3357,-1,0,0,-7,-8,-1,-1,0,16.785
3358,0,-2,-2,-23,4,-1,-1,-1,16.79
3359,0,-3,-2,-2,-27,-2,-3,-2,16.795
3360,-2,-3,-2,-1,9,-2,-2,-1,16.8
3361,1,4,3,1,-2,0,0,-1,16.805
3362,-1,-4,-1,13,58,12,2,0,16.81
3363,-1,-3,-3,-46,-17,-5,-2,-2,16.815
3364,0,0,0,9,-4,2,1,0,16.82
3365,1,0,-1,-1,-9,-1,-1,-2,16.825
3366,0,-2,0,15,-14,-6,-3,-1,16.830000000000002
3367,0,1,2,3,-5,-2,-2,-2,16.835
3368,0,-1,-4,-17,-3,-1,0,-1,16.84
3369,-2,-3,-1,-4,-6,1,-1,1,16.845
3370,0,-1,0,8,-6,-3,-2,0,16.85
3371,0,-2,-1,-1,8,2,-2,-1,16.855
3372,0,2,-1,22,-12,-3,-1,-2,16.86
3373,0,-2,-2,4,11,6,-1,0,16.865000000000002
3374,0,1,0,13,2,-6,-2,-1,16.87
3375,-1,-1,-1,3,-8,0,1,-1,16.875
3376,0,-4,-3,0,0,0,-1,-1,16.88
3377,0,0,-1,-12,1,-2,0,-3,16.885
3378,-2,0,1,7,4,0,-1,-1,16.89
3379,-3,-5,-2,-8,-23,-7,-4,0,16.895
3380,1,2,3,-4,11,3,0,0,16.9
3381,-2,0,-1,-11,-16,-3,0,0,16.905
3382,0,-2,-2,4,-8,-2,-3,-1,16.91
3383,0,2,0,6,-7,0,0,-2,16.915
3384,-1,-2,-3,-34,-1,1,0,-1,16.92
3385,-2,-1,-1,-17,-19,-4,-2,-1,16.925
3386,-2,-4,-2,49,-5,-1,1,-1,16.93
3387,0,-1,-2,1,0,-1,0,-1,16.935
3388,-1,-2,-2,-5,-1,-1,0,-1,16.94
3389,0,2,1,21,3,0,-1,-1,16.945
3390,0,0,-1,-24,-3,-3,0,-2,16.95
3391,-1,-1,-2,4,6,2,0,-1,16.955000000000002
3392,-3,-1,-1,-3,0,-1,-3,-2,16.96
3393,0,-2,-3,13,-1,-3,-1,0,16.965
3394,-1,-1,1,11,6,2,0,-1,16.97
3395,2,4,3,20,46,7,1,1,16.975
3396,-1,1,0,-10,-13,-4,-1,-3,16.98
3397,1,1,0,-2,10,2,1,1,16.985
3398,-3,-3,-3,-1,-6,-5,-3,-2,16.990000000000002
3399,0,1,2,8,-24,-6,-1,-1,16.995
3400,0,0,2,-21,28,3,0,1,17.0
3401,0,-1,0,-3,8,3,1,-1,17.005
3402,1,-1,-1,-19,20,4,0,0,17.01
3403,0,0,1,5,-29,-2,0,1,17.015
3404,-2,0,1,56,15,2,-1,-1,17.02
3405,0,-3,-2,-43,-11,-1,-1,-1,17.025
3406,0,-1,-5,-14,0,-1,-1,-2,17.03
3407,1,-1,0,21,-2,-2,-2,-2,17.035
3408,0,-2,-3,-7,-3,-1,1,-1,17.04
3409,0,0,2,10,-7,-2,-1,0,17.045
3410,-1,0,1,9,-16,-1,-1,0,17.05
3411,-2,1,0,-20,-10,-2,0,0,17.055
3412,-2,-3,-5,5,-2,-5,-4,0,17.06
3413,0,0,2,8,4,1,1,-1,17.065
3414,0,1,0,-21,0,3,2,0,17.07
3415,-1,-4,-5,13,10,-1,-1,-1,17.075
3416,2,3,6,-4,-3,1,1,0,17.080000000000002
3417,-1,-4,-7,-3,-2,-3,-2,-2,17.085
3418,0,-1,-3,-13,-2,-2,-3,0,17.09
3419,-1,0,1,2,27,2,0,0,17.095
3420,0,-2,0,18,-34,-8,-3,-2,17.1
3421,-1,0,0,-10,44,5,-1,0,17.105
3422,-1,-3,-2,-10,-18,-1,0,0,17.11
3423,0,0,2,-6,4,1,0,-2,17.115000000000002
3424,-1,-1,-2,-6,-12,-4,1,-1,17.12
3425,1,1,1,55,13,1,-1,-2,17.125
3426,-2,-1,-2,-72,-2,-1,-2,-3,17.13
3427,-2,0,-2,13,2,1,0,-1,17.135
3428,-1,-1,-3,-1,-4,-2,-3,-2,17.14
3429,-1,-2,-2,-7,-16,-5,-2,-2,17.145
