slno,emg1,emg2,emg3,emg4,emg5,emg6,emg7,emg8,Time
0,-1,-1,-1,3,12,0,-1,0,0.0
1,1,-1,0,-5,-4,-1,-1,-1,0.005
2,-2,-2,-2,4,5,-1,-1,-2,0.01
3,0,0,0,-28,-11,0,0,-1,0.015
4,1,-2,-1,25,-2,-1,-1,-2,0.02
5,1,1,0,2,9,1,-1,-1,0.025
6,-2,-2,-2,-5,-7,-2,-3,0,0.03
7,0,-1,-2,-2,1,-1,-2,-1,0.035
8,-1,1,-3,-8,-4,1,0,-1,0.04
9,-1,-1,-1,-2,1,-1,-2,-1,0.045
10,1,1,0,-8,-8,1,1,0,0.05
11,-1,0,0,8,3,0,-1,0,0.055
12,-2,-1,0,-5,0,1,-1,0,0.06
13,-1,1,-1,-2,-8,-4,-1,-1,0.065
14,-1,-1,0,-5,11,3,-1,-1,0.07
15,-1,-1,-3,26,-2,-5,1,-2,0.075
16,-1,2,0,-7,-2,0,0,-1,0.08
17,-2,-1,-1,-4,11,1,-1,-1,0.085
18,1,-1,2,10,-21,-4,-2,-1,0.09
19,0,1,-2,-15,-8,0,0,-1,0.095
20,-1,-1,1,-1,0,-1,-1,0,0.1
21,-2,0,-1,4,-2,-3,0,-1,0.105
22,0,1,-1,-2,-7,-2,0,0,0.11
23,-3,1,0,4,6,1,-1,-1,0.115
24,0,-1,-1,-11,-3,-2,-2,-2,0.12
25,-1,0,-1,-5,0,-2,-1,0,0.125
26,-2,-2,-3,0,2,-1,-1,-2,0.13
27,-3,-1,-1,-4,-4,0,0,-1,0.135
28,-1,0,-2,2,-3,-1,0,0,0.14
29,0,0,-3,-3,3,-1,0,-1,0.145
30,1,1,0,-25,-15,1,0,-2,0.15
31,1,0,0,6,-7,-3,0,0,0.155
32,-2,-2,1,14,26,4,-1,0,0.16
33,-3,-3,-2,3,-16,-4,-2,-2,0.165
34,-1,-1,0,-31,-3,-1,-2,-1,0.17
35,0,-1,-1,23,14,0,-2,-1,0.17500000000000002
36,0,-1,-2,-1,-10,-3,1,-2,0.18
37,0,-1,0,-5,-5,-1,-1,0,0.185
38,-1,-2,0,20,9,1,-3,1,0.19
39,-2,-2,-2,-19,-13,-1,-2,0,0.195
40,-1,0,-2,3,8,-1,0,-1,0.2
41,-1,-2,-1,3,3,0,0,-1,0.20500000000000002
42,-2,0,-1,5,1,-2,0,-1,0.21
43,1,-1,0,-13,-5,-1,0,0,0.215
44,-1,1,0,27,-3,0,-1,-1,0.22
45,0,1,-1,-37,-7,-1,1,-1,0.225
46,-1,-1,0,28,1,0,0,-2,0.23
47,1,0,0,5,1,1,0,-1,0.23500000000000001
48,-2,-2,0,-20,-21,-3,-2,0,0.24
49,0,0,-1,5,3,1,-3,-2,0.245
50,0,0,-1,-29,-1,-3,-1,-1,0.25
51,-1,-1,-1,25,8,0,-2,-3,0.255
52,-1,-3,-2,-6,-9,-5,-1,0,0.26
53,-1,1,2,12,5,4,0,0,0.265
54,-2,-1,-1,-5,-6,-2,-1,-1,0.27
55,0,0,-1,-2,-5,-2,0,0,0.275
56,-1,1,-1,-19,-10,-1,-2,-1,0.28
57,-1,1,-1,9,9,1,0,1,0.28500000000000003
58,-1,-1,-1,-1,5,-1,0,-1,0.29
59,0,-1,1,0,2,0,-2,0,0.295
60,-2,-1,0,-4,-6,1,1,-1,0.3
61,1,0,-1,-1,-1,-1,-2,0,0.305
62,-1,-1,0,4,6,0,0,-1,0.31
63,-2,-2,-5,-15,-10,-2,0,0,0.315
64,1,1,0,1,9,-2,0,-1,0.32
65,-3,-4,-2,6,1,1,-1,-1,0.325
66,0,1,-2,-23,-1,-1,-2,-1,0.33
67,0,0,0,25,6,2,1,0,0.335
68,-2,-1,0,2,5,0,-2,-1,0.34
69,-1,-1,-1,-19,-18,-3,-1,0,0.34500000000000003
70,-1,-2,-1,19,14,-1,-2,0,0.35000000000000003
71,-1,0,-2,-20,-8,-2,2,-1,0.355
72,0,0,-1,10,1,-1,-3,0,0.36
73,0,0,-1,1,-4,-1,-1,-3,0.365
74,-1,-2,-1,5,0,2,0,-1,0.37
75,-2,1,-1,-7,-1,-1,-1,0,0.375
76,0,0,-2,-4,-5,1,1,0,0.38
77,0,-3,-2,9,17,-1,0,0,0.385
78,-1,-3,-1,4,-6,-2,0,-1,0.39
79,0,-1,-1,-4,-3,0,-3,-1,0.395
80,0,0,-3,-28,-1,0,-1,-1,0.4
81,-2,-2,0,19,3,-2,-3,-2,0.405
82,2,1,0,3,-9,-1,2,0,0.41000000000000003
83,-1,-1,-1,2,7,-3,-2,-2,0.41500000000000004
84,0,0,1,-11,10,4,0,1,0.42
85,0,0,1,21,9,2,0,0,0.425
86,-1,-2,-4,6,-3,-2,-2,0,0.43
87,-1,0,1,-5,-2,-1,1,-1,0.435
88,1,-1,-2,12,1,-2,-1,0,0.44
89,1,0,-1,-11,0,0,0,1,0.445
90,-1,-2,-1,4,-9,-1,-2,-2,0.45
91,0,0,-2,-2,-2,1,-1,0,0.455
92,-1,-2,-1,7,0,-2,-1,-1,0.46
93,0,0,0,-14,-2,0,-1,-1,0.465
94,-1,1,-1,0,-2,1,0,-1,0.47000000000000003
95,0,-2,-1,-9,-4,-2,1,1,0.47500000000000003
96,0,-1,-1,3,-1,0,0,0,0.48
97,-2,0,-2,-4,-2,-4,-2,-1,0.485
98,0,-1,-2,-3,-5,-2,0,1,0.49
99,-2,0,0,5,-3,-1,-2,-1,0.495
100,-1,-1,-2,-6,-4,-3,-1,-3,0.5
101,1,0,-1,-13,-11,-2,1,0,0.505
102,-1,-3,-1,35,11,0,-2,-2,0.51
103,1,0,-1,-12,0,-1,-1,0,0.515
104,-1,-2,-1,1,-11,-4,0,1,0.52
105,0,-2,-1,-3,3,-1,0,0,0.525
106,-1,2,1,-13,0,1,1,0,0.53
107,0,-2,-2,-3,-10,-3,-2,0,0.535
108,-2,0,1,10,5,-1,-2,-2,0.54
109,-2,-1,0,-5,-1,2,0,-1,0.545
110,0,0,-1,-7,2,1,-2,-1,0.55
111,0,-3,-1,10,3,-2,-1,-2,0.555
112,-1,0,-1,-7,2,5,0,0,0.56
113,0,0,2,4,-4,-1,0,0,0.5650000000000001
114,-1,-2,0,1,-1,-3,-1,-1,0.5700000000000001
115,-1,1,-3,-6,5,0,0,-1,0.5750000000000001
116,0,-3,-1,-2,-3,-2,0,0,0.58
117,-1,-2,-1,-5,-11,-3,-2,-1,0.585
118,-1,-1,0,-22,1,2,-1,-1,0.59
119,0,-2,0,16,-6,-1,-1,-1,0.595
120,0,0,-1,-13,14,3,1,-1,0.6
121,-1,-1,0,11,3,0,-1,-2,0.605
122,0,0,-1,-7,0,-5,0,0,0.61
123,-3,-1,-1,1,0,-1,0,-1,0.615
124,0,-1,1,-6,-8,-1,-1,1,0.62
125,-1,1,0,1,5,-1,-2,-3,0.625
126,1,-2,0,0,-7,-1,0,0,0.63
127,0,-1,-2,-14,0,0,0,-1,0.635
128,-1,-2,-2,15,-12,-1,2,-1,0.64
129,-1,0,-1,0,5,-1,0,0,0.645
130,0,-1,-2,4,-1,-2,-2,0,0.65
131,-2,0,2,1,-4,-3,-2,-2,0.655
132,-2,0,1,-22,6,0,-1,2,0.66
133,-3,-2,-2,24,4,-2,-2,-1,0.665
134,-1,-1,0,0,4,2,1,-2,0.67
135,0,-1,0,-14,-4,0,-1,0,0.675
136,0,-1,-2,3,-5,-2,-2,-1,0.68
137,0,1,-1,-33,-8,-1,0,0,0.685
138,-2,-1,0,30,-6,-4,-1,0,0.6900000000000001
139,0,-1,-2,1,3,-1,1,-1,0.6950000000000001
140,-3,-1,-1,5,-4,-1,0,0,0.7000000000000001
141,0,-2,-2,-2,0,-4,-2,0,0.705
142,0,0,1,-10,-22,-1,-1,-3,0.71
143,-2,-3,0,-2,9,0,0,1,0.715
144,0,-1,0,10,5,-1,-1,-1,0.72
145,0,-1,-1,-6,-2,1,-2,0,0.725
146,-1,0,-1,-9,0,-1,0,0,0.73
147,-2,-2,-1,1,-4,-1,-3,-1,0.735
148,0,0,-1,3,1,-2,-1,0,0.74
149,0,0,-1,0,1,0,0,-1,0.745
150,-1,-2,-1,-3,-1,1,1,-1,0.75
151,-1,-1,0,0,0,0,0,0,0.755
152,0,-1,0,7,-3,-2,-1,-2,0.76
153,-2,0,0,8,4,1,0,-2,0.765
154,-1,-2,-3,-12,0,-3,-1,0,0.77
155,-1,-1,-1,-6,-2,-1,0,-2,0.775
156,1,0,1,-25,-11,-5,-1,-2,0.78
157,0,0,-2,24,4,3,1,-1,0.785
158,-1,-1,-2,-4,5,-1,-2,-1,0.79
159,-1,-1,-1,11,2,0,-2,-1,0.795
160,1,0,2,-10,-8,0,-2,1,0.8
161,-1,-2,-1,-8,-3,-2,0,1,0.805
162,0,0,-1,-1,0,1,1,-2,0.81
163,1,0,0,-3,-5,-1,-2,0,0.8150000000000001
164,-2,-2,-3,-14,15,1,1,-1,0.8200000000000001
165,-1,-1,-1,26,3,-1,-1,-1,0.8250000000000001
166,-2,-2,0,6,4,-1,0,0,0.8300000000000001
167,2,0,-1,-2,0,2,0,-1,0.835
168,-1,-1,-1,3,-7,0,-1,-2,0.84
169,-1,-1,-3,-11,-7,-2,-2,0,0.845
170,0,-1,-1,-2,2,-2,-1,0,0.85
171,0,-1,0,2,0,-1,-1,-1,0.855
172,0,-1,-3,14,12,3,-1,-1,0.86
173,-1,0,2,-3,1,0,1,-2,0.865
174,0,1,0,-10,-11,-1,0,-2,0.87
175,-1,0,-1,-27,4,0,0,1,0.875
176,0,-2,0,26,1,-2,0,-2,0.88
177,-2,-3,0,-1,1,-1,-2,0,0.885
178,0,0,1,-7,-10,-2,-1,1,0.89
179,-5,0,0,-8,-2,-4,-1,-2,0.895
180,0,1,0,23,4,2,0,0,0.9
181,-1,-1,1,-9,2,2,0,0,0.905
182,-2,-2,-1,-1,-3,-3,-1,-2,0.91
183,-1,-2,0,9,-1,1,-1,-1,0.915
184,0,0,-2,-10,-4,-4,-3,0,0.92
185,-1,0,-2,-9,-5,-2,-1,-1,0.925
186,0,-2,-1,8,4,2,-1,-1,0.93
187,0,-2,-1,-4,0,2,-3,-1,0.935
188,0,-1,-2,2,-7,-1,-1,-1,0.9400000000000001
189,-1,1,0,-7,-14,-3,-2,-2,0.9450000000000001
190,-1,-1,0,-1,7,1,-1,-1,0.9500000000000001
191,0,-1,1,19,-2,-1,-1,-1,0.9550000000000001
192,-3,-3,1,-4,-3,-2,-2,0,0.96
193,-1,0,-3,-14,-7,-1,-2,0,0.965
194,-1,0,-2,14,2,0,-2,0,0.97
195,0,-2,-2,-20,-1,-1,-1,-1,0.975
196,-1,1,1,8,1,0,0,1,0.98
197,0,-2,-2,-3,0,0,-2,-1,0.985
198,0,-1,-1,-5,-6,-3,-1,0,0.99
199,0,2,-2,4,14,-1,2,1,0.995
200,1,1,-1,-13,-8,2,0,-1,1.0
201,-2,-1,-2,-1,0,1,0,0,1.0050000000000001
202,0,1,0,-2,-1,-1,1,0,1.01
203,-2,-3,-2,3,-14,-2,-2,-2,1.0150000000000001
204,-1,-2,-2,-1,10,2,0,-2,1.02
205,0,0,1,-3,-9,-3,0,-1,1.025
206,0,-1,-2,10,21,3,0,-2,1.03
207,0,0,-2,3,-8,-1,0,1,1.035
208,-3,0,-1,-20,-7,-3,-1,0,1.04
209,-2,-2,-2,14,13,0,0,0,1.045
210,-1,-2,-1,-19,-8,-2,-3,-2,1.05
211,0,0,1,13,3,0,1,-2,1.055
212,-3,-1,-3,7,-1,0,-4,-2,1.06
213,1,1,-1,-3,-1,0,1,0,1.065
214,0,-2,0,5,2,-2,-1,0,1.07
215,-1,0,-1,-10,-2,2,0,-2,1.075
216,0,-3,0,4,-2,-2,0,-1,1.08
217,-2,-1,2,-1,1,-2,-1,-1,1.085
218,-1,-1,-3,-1,3,-3,-2,-1,1.09
219,2,0,1,-9,-13,0,1,-1,1.095
220,-1,0,-1,7,-3,-1,-1,-1,1.1
221,1,0,0,0,-5,2,0,0,1.105
222,-2,0,0,-4,-9,-2,1,-1,1.11
223,-2,-2,-1,5,8,0,-1,-1,1.115
224,-1,1,0,3,-11,-2,-2,-3,1.12
225,0,-1,0,-17,-2,-3,-2,-1,1.125
226,-1,1,1,28,7,-1,-2,0,1.1300000000000001
227,0,-1,1,5,-4,-3,-1,0,1.135
228,1,-2,0,-31,-3,0,0,0,1.1400000000000001
229,-2,-2,-1,30,6,-2,0,-2,1.145
230,-1,-1,-3,-25,-12,-1,-1,0,1.1500000000000001
231,0,0,0,10,11,-1,0,-1,1.155
232,-2,0,-1,1,3,0,-1,0,1.16
233,0,0,0,-9,-3,-1,-1,0,1.165
234,-2,-1,-2,-8,-4,0,-2,-2,1.17
235,-1,-3,-1,-5,-9,-1,-1,-3,1.175
236,1,-1,-1,1,3,-1,-1,-2,1.18
237,1,-1,0,-3,-6,0,-1,-2,1.185
238,-2,-3,-3,8,10,1,-2,0,1.19
239,0,1,-1,-5,5,0,-3,-1,1.195
240,-1,0,-1,7,4,1,1,1,1.2
241,-1,-1,-2,-1,2,-1,-1,-2,1.205
242,0,0,-1,-2,-5,-2,-1,-1,1.21
243,0,-2,-1,-1,-3,-2,0,-1,1.215
244,-1,-1,0,3,-5,-4,0,-1,1.22
245,0,0,-1,-1,1,2,0,1,1.225
246,0,1,0,1,6,1,0,0,1.23
247,-1,1,-1,-25,-12,-3,-1,2,1.235
248,-1,-1,-1,12,-5,0,-1,0,1.24
249,-2,-3,-2,-3,5,-3,-1,0,1.245
250,-1,-1,0,7,1,-1,0,-2,1.25
251,-2,0,-2,-25,1,0,0,-1,1.2550000000000001
252,1,-1,-1,20,1,-2,0,0,1.26
253,-1,1,0,-10,-6,-1,1,-1,1.2650000000000001
254,0,-1,0,-6,1,1,0,-2,1.27
255,-2,-2,-2,3,1,0,-1,1,1.2750000000000001
256,-1,-1,0,-6,5,-2,-2,-1,1.28
257,1,-1,1,9,0,1,0,-2,1.285
258,1,-1,1,-4,-5,0,0,-2,1.29
259,-1,-2,-2,7,3,1,-2,-1,1.295
260,-2,0,0,7,10,-1,-1,0,1.3
261,-1,-2,0,-3,-3,-1,0,-2,1.305
262,0,-1,-1,-4,-1,-2,-1,-1,1.31
263,-1,1,0,12,-13,-1,0,-1,1.315
264,1,0,0,-13,-1,2,-1,1,1.32
265,-1,-1,-3,-24,-2,0,-1,-1,1.325
266,-1,-2,-1,16,8,-1,0,0,1.33
267,1,-1,0,3,-1,-2,-2,0,1.335
268,-1,0,-1,-1,3,1,0,-1,1.34
269,-1,0,0,-8,-6,0,0,0,1.345
270,1,-1,-4,6,-1,0,-1,-1,1.35
271,0,-1,-1,5,6,-1,-1,0,1.355
272,-1,-1,-3,-9,-6,-2,-1,-2,1.36
273,-1,-3,-2,-15,-11,-3,-1,-1,1.365
274,-1,2,0,14,7,1,0,-2,1.37
275,-1,-1,-1,2,-3,-1,-1,0,1.375
276,-1,0,1,0,8,-1,1,-2,1.3800000000000001
277,-1,0,-2,-13,-9,-1,-1,0,1.385
278,-1,-1,-1,15,-4,-1,-1,-1,1.3900000000000001
279,-1,-3,-1,6,7,1,-2,-1,1.395
280,1,-1,-1,-5,-5,1,-2,-2,1.4000000000000001
281,0,0,-2,12,6,-2,-1,-2,1.405
282,0,-1,-1,-18,-13,0,1,1,1.41
283,1,0,-1,5,-3,-1,0,0,1.415
284,-1,0,0,-5,-14,-4,-1,1,1.42
285,-1,-1,-1,13,11,-3,-2,-2,1.425
286,-3,-1,0,-32,-15,-1,-1,0,1.43
287,-1,0,0,13,8,1,1,0,1.435
288,-2,-1,-3,-3,-7,-4,-3,-2,1.44
289,0,-3,-2,5,2,1,0,-2,1.445
290,-1,-1,-2,-8,1,-4,0,0,1.45
291,0,0,0,-8,-3,0,0,0,1.455
292,-1,-2,0,0,4,1,-2,-1,1.46
293,-2,0,2,4,-2,-1,-1,1,1.465
294,0,-1,-1,8,6,2,-1,-1,1.47
295,0,-2,0,-16,-6,-2,-1,-2,1.475
296,-1,0,-1,13,5,1,-1,0,1.48
297,0,0,0,2,-1,2,-3,-1,1.485
298,1,-1,0,6,8,-1,-1,-2,1.49
299,-1,1,0,-4,-9,-1,-1,-1,1.495
300,0,-2,-2,-20,2,-2,1,-2,1.5
301,0,-1,-1,13,-11,-2,-1,0,1.5050000000000001
302,-1,-1,-1,-4,0,-1,-2,-1,1.51
303,-1,0,0,3,0,1,-1,0,1.5150000000000001
304,0,-2,-3,-16,-11,-4,0,0,1.52
305,-2,0,0,34,11,2,1,0,1.5250000000000001
306,1,0,1,-7,-2,0,0,0,1.53
307,0,0,0,11,6,-1,-1,0,1.5350000000000001
308,0,-1,0,1,-8,-2,2,0,1.54
309,-1,0,-3,-17,-5,-2,-1,0,1.545
310,-1,-1,-1,4,7,0,-2,-1,1.55
311,0,-1,1,-2,1,1,-1,0,1.555
312,-2,-1,-2,-5,-1,2,0,-2,1.56
313,0,-1,-3,-8,1,-2,-1,-2,1.565
314,1,-1,1,4,7,1,1,1,1.57
315,-1,-1,-2,-10,-8,-2,-1,-1,1.575
316,1,-1,1,10,6,1,-3,0,1.58
317,-2,-1,-3,-7,1,0,0,-2,1.585
318,0,-2,-1,10,-11,-3,-2,-2,1.59
319,-1,0,-1,-7,-1,-4,-1,-1,1.595
320,-1,-1,-1,5,-1,-1,-1,-2,1.6
321,-1,-1,0,-3,7,1,1,0,1.605
322,-1,0,-2,-5,-4,-1,-1,2,1.61
323,-1,1,-4,-6,-2,-1,-1,-1,1.615
324,0,-2,-1,11,1,2,0,0,1.62
325,1,0,-1,-16,2,-2,-3,-1,1.625
326,-2,-1,0,14,-2,-1,-1,-2,1.6300000000000001
327,-1,-1,0,4,-1,-2,0,-3,1.635
328,1,1,0,-9,-1,-1,0,1,1.6400000000000001
329,-1,-1,0,5,3,-2,-1,-2,1.645
330,-2,0,-2,-15,-11,-2,-2,-1,1.6500000000000001
331,0,-1,0,9,19,0,0,0,1.655
332,0,-2,-1,-2,-1,-2,-1,-1,1.6600000000000001
333,-1,-1,-1,-17,-5,0,1,1,1.665
334,-1,0,-2,20,5,-2,1,-1,1.67
335,0,-1,-1,3,-8,0,-2,-1,1.675
336,0,0,-1,-3,7,0,-2,-1,1.68
337,0,1,1,-3,-6,0,-1,-1,1.685
338,1,0,1,-6,3,-2,0,0,1.69
339,-1,0,0,-4,-6,-4,0,-1,1.695
340,-2,1,-1,3,-3,-3,-1,0,1.7
341,-1,1,0,0,2,0,-1,-1,1.705
342,0,-2,0,-32,-19,-2,-2,-1,1.71
343,-1,-2,-2,48,28,3,-1,-1,1.715
344,0,0,-1,-4,0,-2,-1,-1,1.72
345,-1,-1,0,1,-3,-1,-1,-1,1.725
346,-2,0,-1,-1,0,2,2,-1,1.73
347,0,-1,-1,-11,1,-1,0,0,1.735
348,0,0,0,-19,-2,0,-1,-1,1.74
349,-2,-3,-1,32,6,-2,-1,-2,1.745
350,1,0,0,-1,-5,-1,-2,1,1.75
351,-3,-2,-1,-15,-6,-1,-1,0,1.7550000000000001
352,-2,-3,0,3,-3,1,0,0,1.76
353,0,0,-1,-11,-6,0,-1,-2,1.7650000000000001
354,-2,-2,-3,-19,9,-1,-1,-3,1.77
355,0,-1,0,25,3,0,0,1,1.7750000000000001
356,0,0,0,3,1,-1,-2,0,1.78
357,0,-3,1,7,-6,-2,-3,0,1.7850000000000001
358,1,1,1,-7,1,0,0,1,1.79
359,0,-2,-3,-6,-7,-1,0,-3,1.795
360,-2,-2,-2,0,-1,-2,0,-1,1.8
361,0,0,-1,-1,-9,-3,-2,-1,1.805
362,-3,-1,-1,-11,9,-4,-1,-2,1.81
363,1,-1,0,8,8,5,0,-1,1.815
364,2,0,0,19,17,2,2,0,1.82
365,1,-1,-1,-11,1,1,1,1,1.825
366,-1,-3,-1,-3,-4,1,-2,-1,1.83
367,0,0,0,-22,-12,-5,-2,-1,1.835
368,-2,-2,-2,18,-6,-2,-4,0,1.84
369,-1,1,-1,-4,6,2,1,-1,1.845
370,1,-2,-2,6,-3,-1,0,-1,1.85
371,-1,-1,-2,-4,0,-1,-2,-1,1.855
372,-1,0,1,-12,-11,-1,-2,0,1.86
373,-1,-2,-1,12,3,-1,0,-1,1.865
374,-1,0,0,8,-1,-1,-1,-1,1.87
375,-1,-1,-2,-6,0,-1,1,-3,1.875
376,0,0,-3,-3,-1,-3,-1,-1,1.8800000000000001
377,0,0,0,-9,-4,1,0,0,1.885
378,0,0,0,1,-4,-2,0,2,1.8900000000000001
379,-1,0,0,-23,-22,-5,0,2,1.895
380,0,-1,-1,5,19,1,2,-2,1.9000000000000001
381,-1,-3,0,5,0,-4,-1,0,1.905
382,-1,-1,-1,12,11,2,1,0,1.9100000000000001
383,-1,-1,-1,-16,-4,-3,-1,-2,1.915
384,-2,-1,-1,-12,-13,-2,1,0,1.92
385,-2,-2,-1,-3,1,0,-2,-1,1.925
386,0,0,0,1,-4,0,-1,-1,1.93
387,0,0,-1,1,-1,0,-2,1,1.935
388,-1,0,0,-3,-7,-2,-1,0,1.94
389,-1,-2,-1,-1,6,-1,-1,0,1.945
390,0,0,1,-16,-15,-4,-1,-1,1.95
391,0,-1,-2,12,17,3,0,-3,1.955
392,-1,-1,1,3,-4,0,0,-1,1.96
393,-1,0,0,-6,-10,-2,-1,-1,1.965
394,0,-3,-3,-4,5,-2,-1,-3,1.97
395,0,0,0,-18,-13,0,1,1,1.975
396,-1,0,0,3,-1,0,-1,-1,1.98
397,-1,-2,1,3,8,1,-1,-1,1.985
398,-3,-1,-3,-2,0,1,-1,-1,1.99
399,-3,0,-1,8,-6,0,-1,-2,1.995
400,0,-2,-3,-15,-11,-1,-2,0,2.0
401,0,3,-1,5,3,-3,0,0,2.005
402,1,0,0,-4,1,3,0,0,2.0100000000000002
403,-1,-2,-3,-4,-4,-4,-2,-2,2.015
404,1,2,0,-7,3,0,-1,-2,2.02
405,0,-1,-2,3,-5,-2,0,-1,2.025
406,-3,-3,0,4,-2,-1,-1,-1,2.0300000000000002
407,0,-1,-1,-15,1,2,-1,-1,2.035
408,0,-2,0,13,4,-2,1,-1,2.04
409,-2,-1,-3,-18,-4,-1,0,-1,2.045
410,0,0,1,38,18,1,-1,0,2.05
411,-2,1,1,-11,-8,-2,-2,2,2.055
412,-1,-4,-2,17,-2,1,-1,-1,2.06
413,0,-1,0,-2,-1,-1,-1,-1,2.065
414,-1,0,-3,-6,-2,-1,-1,-1,2.07
415,0,-2,1,12,0,1,-1,0,2.075
416,-1,0,-1,-2,2,-2,-2,0,2.08
417,1,0,1,8,-4,0,-1,-1,2.085
418,-3,-3,-3,-5,2,-1,-2,-2,2.09
419,-1,-3,-2,7,3,1,0,0,2.095
420,-1,-2,-2,-17,-6,0,-1,-1,2.1
421,-1,-1,-3,-6,-5,-2,0,-1,2.105
422,0,-1,-3,2,-15,-3,-1,-2,2.11
423,0,-1,-1,-11,8,0,0,-1,2.115
424,1,2,0,2,-1,1,-1,-1,2.12
425,-1,-2,-1,8,3,-1,-1,0,2.125
426,0,2,0,-8,-4,-1,-2,-1,2.13
427,-2,-3,-3,-6,-2,-1,-2,0,2.1350000000000002
428,-2,-2,0,5,-1,-1,0,-2,2.14
429,-1,0,-1,-7,-2,-2,-1,-1,2.145
430,1,-1,0,-5,-4,-1,-2,-2,2.15
431,-2,-3,-1,9,-3,-1,-1,-1,2.1550000000000002
432,-1,1,-2,-8,-1,-2,-2,-1,2.16
433,0,0,-1,6,9,1,0,0,2.165
434,-3,-2,-2,-2,3,-1,-1,-1,2.17
435,1,1,1,9,7,0,0,2,2.1750000000000003
436,-1,-1,-4,-2,2,-1,0,1,2.18
437,-1,-2,0,-10,-6,-1,-1,-1,2.185
438,-1,1,0,16,3,1,0,0,2.19
439,0,-1,-3,-14,-5,-3,-1,-1,2.195
440,-1,0,-1,-23,3,3,0,1,2.2
441,0,0,-3,20,6,-1,-1,1,2.205
442,0,-1,-1,-10,-3,-3,-2,-1,2.21
443,1,1,1,13,-10,0,0,-1,2.215
444,-1,-2,-2,-3,11,1,1,-1,2.22
445,-1,0,-1,-10,-6,-3,0,-1,2.225
446,1,1,-2,-7,-6,-3,0,1,2.23
447,0,-1,1,3,7,0,-1,-2,2.235
448,-2,-4,-2,8,-13,-5,-1,-1,2.24
449,-2,-1,0,-19,-4,-1,-2,-3,2.245
450,0,-2,1,20,7,2,2,2,2.25
451,-2,0,-2,2,1,0,0,-1,2.255
452,-1,-2,-2,-4,-13,-3,-2,0,2.2600000000000002
453,-2,0,0,-5,14,2,-1,0,2.265
454,-1,-2,-4,-5,-15,1,0,-1,2.27
455,-1,-1,-2,-1,3,-3,-1,-2,2.275
456,-1,0,2,14,3,0,-2,-2,2.2800000000000002
457,-1,-2,-2,-20,-8,1,0,-2,2.285
458,1,-1,0,22,-2,-4,-1,-1,2.29
459,-1,-2,-1,6,-3,-1,-2,-2,2.295
460,0,0,-2,-6,15,0,-1,-1,2.3000000000000003
461,1,-2,-2,-1,-2,-1,-2,0,2.305
462,0,0,-1,-9,2,-1,0,0,2.31
463,-1,-1,-2,-20,-8,-2,-3,-2,2.315
464,-2,-1,-1,36,10,3,0,-1,2.32
465,-1,0,0,-3,-7,0,1,-2,2.325
466,1,-1,0,-9,-4,-1,0,-1,2.33
467,-2,-3,-2,9,13,2,0,0,2.335
468,0,-1,-1,-12,-3,-3,-2,0,2.34
469,-1,-3,1,3,-5,0,-1,-2,2.345
470,-2,1,-1,-3,6,0,-2,0,2.35
471,-2,-1,-1,-3,-9,-4,-1,-2,2.355
472,0,2,0,-3,14,2,1,-1,2.36
473,-2,-2,-4,2,3,-1,-2,0,2.365
474,-1,-1,-1,0,-9,-5,-2,0,2.37
475,0,0,2,4,5,-2,-1,1,2.375
476,-1,-2,-2,-24,-13,0,-2,0,2.38
477,-2,1,-2,18,7,-1,1,-1,2.3850000000000002
478,-1,-1,-2,-15,-3,1,-1,0,2.39
479,-1,1,0,5,-4,0,-2,-1,2.395
480,0,-2,1,-3,-9,-3,0,-1,2.4
481,1,0,0,-16,2,0,1,0,2.4050000000000002
482,-1,-1,2,16,4,-1,1,-3,2.41
483,-1,-3,-2,4,2,-2,-1,-1,2.415
484,0,-3,-3,-4,-10,-2,-2,0,2.42
485,0,-2,0,2,3,2,-1,1,2.4250000000000003
486,-1,-1,-2,-3,7,1,1,-1,2.43
487,-1,0,2,1,2,1,2,0,2.435
488,-1,0,-2,4,-4,-1,-1,-2,2.44
489,-1,-1,0,3,0,-1,-1,-1,2.445
490,0,0,2,-10,-2,-1,0,0,2.45
491,-1,-1,-1,-39,-12,-5,-1,-1,2.455
492,3,0,0,37,16,2,0,0,2.46
493,-1,-1,-1,2,-5,-1,-1,-1,2.465
494,-1,-1,-1,-6,0,0,-1,-1,2.47
495,-1,-1,-2,-2,-8,-3,-4,-1,2.475
496,1,2,2,-12,-2,1,0,0,2.48
497,-2,-1,-2,-2,-5,-2,-3,-2,2.485
498,0,-3,-1,7,-1,-2,-2,-1,2.49
499,0,1,0,7,-1,0,-1,0,2.495
500,-2,0,1,-10,-9,-1,-1,-1,2.5
501,1,0,1,12,-1,-1,1,0,2.505
502,-1,-2,-3,-20,-5,0,-1,-1,2.5100000000000002
503,0,1,-1,12,-2,-1,-2,0,2.515
504,1,0,1,-2,10,2,2,-2,2.52
505,1,-1,1,-11,1,-1,-1,-2,2.525
506,-1,0,0,4,-3,0,-1,0,2.5300000000000002
507,1,-2,0,6,3,1,0,-1,2.535
508,-2,-2,-3,-5,-12,-4,-1,-2,2.54
509,-1,-1,0,6,8,-1,1,-1,2.545
510,-1,1,-2,-5,4,0,-2,-1,2.5500000000000003
511,0,0,1,4,3,1,1,-1,2.555
512,-2,-3,-1,-2,-4,-1,-1,-2,2.56
513,0,-1,-1,-5,-7,-1,0,-1,2.565
514,-1,-1,-4,-2,0,-3,0,-1,2.57
515,0,1,-1,-14,2,-1,-2,-1,2.575
516,-1,-1,-1,20,8,-1,0,0,2.58
517,-2,-3,-3,-10,-7,-4,-1,-1,2.585
518,0,-1,0,30,8,1,0,-1,2.59
519,-1,-1,-2,-13,-10,-1,-2,-1,2.595
520,0,1,-2,-12,4,0,-1,0,2.6
521,1,0,0,5,-5,-1,0,-1,2.605
522,0,-2,1,-10,0,-1,-1,-1,2.61
523,-1,0,-2,2,-4,1,1,0,2.615
524,-1,-2,0,5,-10,-4,0,-1,2.62
525,0,1,-1,-2,3,-3,-1,-1,2.625
526,0,-1,0,-13,-16,-2,-3,-1,2.63
527,1,1,-1,12,14,1,0,-1,2.6350000000000002
528,0,-1,-2,-20,-1,-1,-1,-3,2.64
529,-2,-3,-2,4,-3,1,0,0,2.645
530,-2,0,-3,-12,3,0,1,0,2.65
531,-1,-2,0,1,-8,-2,1,-1,2.6550000000000002
532,0,1,-1,17,5,-1,-1,-1,2.66
533,-2,-1,0,0,0,-3,-1,-1,2.665
534,-1,0,1,4,4,2,-1,0,2.67
535,-1,-2,-3,-6,1,-1,-2,0,2.6750000000000003
536,0,0,-1,-14,-17,-3,-2,0,2.68
537,1,0,0,3,5,3,0,0,2.685
538,0,0,-1,5,11,-1,1,-1,2.69
539,-2,0,-1,0,-13,0,1,-2,2.695
540,0,-2,-1,-1,5,0,0,0,2.7
541,-2,-1,-3,1,-9,0,-1,-1,2.705
542,-1,0,0,-8,-3,-3,0,-1,2.71
543,-2,1,-2,4,-6,0,-2,0,2.715
544,-2,-1,0,-13,17,1,0,-1,2.72
545,0,0,-2,-3,-3,0,0,0,2.725
546,-1,-3,-3,-3,-5,-1,0,-1,2.73
547,0,-2,-1,7,4,1,-1,-1,2.735
548,0,0,0,6,-10,-1,-2,0,2.74
549,-1,-3,-1,-5,-4,0,-1,-1,2.745
550,0,0,-1,-5,-3,-1,1,0,2.75
551,0,0,0,9,14,-1,-2,0,2.755
552,-1,-1,-2,-13,-9,-3,-2,-2,2.7600000000000002
553,-1,0,-1,14,-10,-2,1,-1,2.765
554,0,-1,-1,7,20,2,0,-1,2.77
555,-1,-1,-2,-16,-7,1,1,-1,2.775
556,0,-1,-1,-3,4,0,1,-1,2.7800000000000002
557,0,1,1,5,0,0,-1,-1,2.785
558,-1,-2,-2,-13,-13,-3,-4,0,2.79
559,-2,-3,-3,20,5,-1,-1,-1,2.795
560,-2,-2,-1,0,4,2,-1,-2,2.8000000000000003
561,-1,0,-3,-3,-4,-3,0,0,2.805
562,-1,0,1,-11,-3,1,0,1,2.81
563,-1,-2,0,10,3,-1,-1,-1,2.815
564,-1,1,-2,8,-7,-1,-1,-1,2.82
565,-2,-2,0,1,9,0,0,0,2.825
566,0,1,-1,-8,-8,-1,0,-2,2.83
567,-1,-1,0,21,10,-2,-2,-1,2.835
568,1,-1,2,-1,-14,-3,0,-1,2.84
569,1,0,-1,-6,4,5,0,1,2.845
570,-1,-3,-1,3,1,-3,0,0,2.85
571,-2,-3,-1,-12,-6,-1,-1,-1,2.855
572,-1,0,0,-1,5,1,0,0,2.86
573,-1,-1,-1,-3,-3,-2,-1,-2,2.865
574,0,-1,1,3,-2,-2,-2,1,2.87
575,2,-1,-1,-7,-9,-2,2,-1,2.875
576,-2,-3,-3,-3,-5,-3,0,-2,2.88
577,-1,-2,0,-4,7,0,0,-1,2.8850000000000002
578,0,0,-1,9,6,-1,0,-1,2.89
579,-1,0,-1,-37,-9,0,-1,-2,2.895
580,-1,-1,-2,21,3,-1,-2,0,2.9
581,0,1,1,-20,-3,-1,0,-1,2.9050000000000002
582,-1,-2,0,30,-4,-1,-4,-3,2.91
583,0,-1,-1,-7,8,1,0,0,2.915
584,0,-1,-2,-14,0,-1,-2,0,2.92
585,-1,-1,-1,6,2,1,-2,-2,2.9250000000000003
586,-3,-1,-2,-5,-9,-4,-1,-2,2.93
587,-1,0,1,-2,-2,2,0,0,2.935
588,-1,-2,0,1,7,4,0,0,2.94
589,-1,-1,-2,-16,0,-4,-3,0,2.945
590,-2,-1,1,18,3,-1,0,-1,2.95
591,0,0,0,0,-6,-3,-2,-1,2.955
592,-2,-2,-1,-10,-5,-2,-1,-2,2.96
593,0,-2,0,-1,-2,-2,-1,-1,2.965
594,1,0,1,-4,1,0,0,-1,2.97
595,-1,0,0,-5,0,-1,1,-2,2.975
596,-1,0,0,-10,-6,-1,0,2,2.98
597,-2,0,-1,7,-4,-3,0,-1,2.985
598,-1,-1,-1,-8,-4,-1,-1,1,2.99
599,-2,0,-1,7,3,-2,0,-2,2.995
600,0,-2,-1,0,12,-1,0,0,3.0
601,0,1,0,4,-18,-3,0,1,3.005
602,1,1,0,-4,18,4,0,0,3.0100000000000002
603,-1,-1,-1,-9,-6,1,-1,-1,3.015
604,0,-2,2,5,-3,-3,-2,-1,3.02
605,-1,0,-2,-17,6,2,-1,-1,3.025
606,-1,1,-3,27,-3,-2,-1,-2,3.0300000000000002
607,0,0,0,-17,1,0,-1,0,3.035
608,-1,-2,-2,27,5,1,0,0,3.04
609,-1,-1,1,4,-10,-3,-1,-1,3.045
610,-3,1,0,-45,-15,-3,0,0,3.0500000000000003
611,0,-1,-3,39,16,1,-1,-1,3.055
612,1,0,-2,-7,-5,-1,-1,1,3.06
613,-1,-1,-1,3,-3,-2,-1,0,3.065
614,-3,-3,-2,2,-10,-1,0,0,3.0700000000000003
615,-1,-1,-1,-5,4,-3,-1,-1,3.075
616,1,0,1,-8,-13,-3,-1,-1,3.08
617,1,-1,0,-7,-1,2,1,-1,3.085
618,1,2,0,30,15,2,-1,0,3.09
619,0,0,-1,1,-8,-1,-1,1,3.095
620,-1,-1,-2,-6,-1,-2,-2,-2,3.1
621,0,0,0,0,7,1,0,0,3.105
622,-1,-1,-3,-34,-16,-3,0,-1,3.11
623,-1,-1,0,12,-3,-2,-2,-1,3.115
624,0,-1,-2,-2,7,3,-1,-1,3.12
625,-2,-3,-1,5,-2,-4,-1,-2,3.125
626,0,1,1,-6,10,2,-1,1,3.13
627,-3,-4,-3,-11,-2,-2,-2,-1,3.1350000000000002
628,-3,0,0,13,0,0,0,1,3.14
629,0,-3,-2,4,6,0,-1,-1,3.145
630,-1,-1,-1,8,-3,-3,-1,-2,3.15
631,2,-1,-2,-4,-5,0,0,0,3.1550000000000002
632,-1,0,0,-7,1,1,-1,-2,3.16
633,-4,-2,-3,3,-5,-1,-2,-1,3.165
634,0,-1,0,4,-6,-1,0,0,3.17
635,1,-1,0,-5,29,3,-1,-1,3.1750000000000003
636,-1,-2,2,-8,-9,-1,1,-1,3.18
637,0,1,1,6,0,0,-2,-1,3.185
638,1,-1,-1,-7,-1,-3,-1,-1,3.19
639,-1,0,-2,-20,-11,-2,-3,-1,3.1950000000000003
640,0,-1,-1,26,2,0,0,-1,3.2
641,-2,-1,-2,-1,6,-1,-3,-2,3.205
642,-2,-2,0,-16,-15,-3,-2,-1,3.21
643,0,0,1,24,25,6,1,1,3.215
644,0,2,0,23,4,-2,-1,-1,3.22
645,-2,0,0,-6,-5,-2,-2,0,3.225
646,0,0,-3,7,6,2,-1,-3,3.23
647,-1,-2,-2,-6,-18,-6,-1,-1,3.235
648,-2,0,0,-18,1,1,-1,-1,3.24
649,-1,0,-1,11,-10,1,1,-2,3.245
650,-1,1,-1,-4,16,4,0,1,3.25
651,-2,-1,-1,3,-19,-3,-2,0,3.255
652,0,-2,-3,-14,7,-3,-1,1,3.2600000000000002
653,1,2,0,-5,-6,2,1,2,3.265
654,-3,-2,1,1,-2,-1,-1,-2,3.27
655,0,-1,-1,-15,-16,-3,1,-3,3.275
656,-1,-1,0,29,6,0,0,1,3.2800000000000002
657,-1,0,0,-2,6,0,-1,0,3.285
658,-1,-1,-2,6,-1,0,-1,-2,3.29
659,-3,-1,0,-6,2,-1,0,1,3.295
660,-1,-1,-2,-32,-14,-3,-4,-2,3.3000000000000003
661,-2,-1,-2,10,15,1,0,-1,3.305
662,-1,-2,0,-5,-5,-2,1,-1,3.31
663,0,0,-3,5,-3,-2,-1,-2,3.315
664,2,1,0,-18,-10,2,1,-1,3.3200000000000003
665,-1,0,-1,4,0,-2,-2,-2,3.325
666,-1,-1,-3,-17,-17,-1,-2,-2,3.33
667,-1,0,1,25,5,-2,-4,-2,3.335
668,-1,0,0,2,9,1,-1,0,3.34
669,0,-1,-1,-11,-1,0,0,0,3.345
670,0,-2,0,4,3,-2,-2,0,3.35
671,1,-1,-1,6,-7,-3,1,1,3.355
672,0,1,0,0,-2,-4,0,-1,3.36
673,0,-1,1,-1,-2,1,0,-1,3.365
674,-1,0,-1,0,2,-1,-1,-1,3.37
675,-1,-1,0,-7,-1,1,0,0,3.375
676,0,0,1,-3,-10,-1,-1,-3,3.38
677,0,0,-2,-4,6,1,-1,-1,3.3850000000000002
678,-1,-1,-3,-5,5,-4,-3,-1,3.39
679,0,-1,-1,6,7,6,-1,2,3.395
680,-1,-1,0,-6,-2,-2,-3,1,3.4
681,-2,0,-2,-7,-7,-4,-2,-1,3.4050000000000002
682,-1,-1,-1,10,2,0,-1,-2,3.41
683,-1,-1,-3,-10,-15,-2,-1,-3,3.415
684,-2,-2,-4,-3,15,-1,-1,-2,3.42
685,-1,-1,0,6,-1,-1,0,-1,3.4250000000000003
686,0,0,-1,-4,5,0,0,-1,3.43
687,-2,-1,-2,-2,12,0,-1,0,3.435
688,-1,-2,-1,-4,-12,-1,0,0,3.44
689,-2,-1,-1,13,0,0,-3,0,3.4450000000000003
690,0,-2,1,2,-2,-2,-1,0,3.45
691,-1,0,0,-10,-10,-2,0,-1,3.455
692,-1,-1,-3,13,1,1,-1,-1,3.46
693,-1,-3,-2,-26,-10,-6,0,-1,3.465
694,-2,-1,0,22,0,3,1,1,3.47
695,-1,1,0,7,0,0,-1,0,3.475
696,0,1,-1,-16,0,1,-1,1,3.48
697,1,-1,0,-2,-5,0,-2,0,3.485
698,-1,-1,-2,-11,-2,-2,1,-2,3.49
699,-2,-2,0,-8,-2,-4,-1,-3,3.495
700,-2,-2,-2,12,7,-1,-1,-1,3.5
701,0,2,1,-11,-5,0,1,1,3.505
702,1,-1,1,7,-17,-4,-2,0,3.5100000000000002
703,1,-3,0,-3,22,2,1,-2,3.515
704,-1,1,-1,-6,-11,-3,-2,-1,3.52
705,-2,0,-1,-17,7,0,-1,-1,3.525
706,1,0,0,3,8,0,-1,0,3.5300000000000002
707,-1,1,-1,11,-4,-3,-1,-1,3.535
708,-1,-2,-1,-10,-8,1,1,-2,3.54
709,1,-2,0,2,-2,-4,0,0,3.545
710,0,1,-2,-31,-8,-1,0,-1,3.5500000000000003
711,0,0,-2,16,5,0,-1,0,3.555
712,-1,-3,0,4,3,-1,-1,-1,3.56
713,-4,-2,-2,6,0,-2,-3,-2,3.565
714,0,0,-4,-3,-3,0,2,0,3.5700000000000003
715,-1,2,0,-4,-3,0,-1,-1,3.575
716,2,0,0,-4,-3,-1,0,0,3.58
717,-1,-1,-2,9,7,0,-1,-2,3.585
718,0,0,2,6,-2,2,-1,1,3.59
719,-2,-2,1,-7,-8,-1,-1,0,3.595
720,0,0,-1,5,3,0,-1,-2,3.6
721,-1,-2,-1,-18,-13,-3,-1,-2,3.605
722,-1,-2,-1,14,9,-2,-1,0,3.61
723,-1,-1,-2,-21,-13,-1,-1,1,3.615
724,-1,1,-1,-2,2,1,-1,0,3.62
725,-1,-2,-1,2,-8,-2,-1,0,3.625
726,-1,-2,-1,3,5,1,-2,-2,3.63
727,0,-1,-2,-9,-6,-1,0,0,3.6350000000000002
728,0,-1,-2,13,2,-3,-1,-2,3.64
729,0,1,-2,7,10,2,0,-1,3.645
730,-3,-2,-2,-5,-3,-4,-2,-2,3.65
731,-1,0,-1,-1,-2,2,1,0,3.6550000000000002
732,-2,-3,0,-10,-9,-2,-1,0,3.66
733,-1,-3,-1,6,1,-3,-1,-3,3.665
734,1,-1,-1,-2,2,0,1,-1,3.67
735,0,-1,-2,-2,0,-2,-2,-2,3.6750000000000003
736,-2,0,-1,-5,-2,0,0,-1,3.68
737,-1,-1,1,8,-1,-1,0,-1,3.685
738,-2,1,-1,-19,-5,-4,0,-1,3.69
739,-1,-2,-1,19,0,-2,-1,-3,3.6950000000000003
740,-2,-2,-2,-1,8,0,-3,0,3.7
741,0,1,0,2,2,1,0,0,3.705
742,0,1,-1,-5,1,0,0,0,3.71
743,-1,-1,-2,-22,-9,-3,-1,-2,3.715
744,1,-2,1,35,-4,-1,1,0,3.72
745,-2,1,-2,5,21,3,0,-1,3.725
746,-1,-1,-2,-4,0,0,-1,1,3.73
747,1,-2,0,-15,5,-2,-1,0,3.735
748,1,-1,-2,24,4,-3,0,-1,3.74
749,0,0,0,-3,-13,-1,-2,0,3.745
750,-1,-2,-1,15,6,2,-1,0,3.75
751,0,-1,-1,-3,7,1,-2,-1,3.755
752,1,0,1,-22,-12,-2,0,-1,3.7600000000000002
753,0,0,-3,2,-3,-1,-1,-1,3.765
754,-2,-1,1,2,-1,-1,0,1,3.77
755,0,1,1,-6,-11,-3,-2,-2,3.775
756,-1,-3,0,-13,2,0,-2,0,3.7800000000000002
757,0,-2,0,8,4,0,1,-1,3.785
758,-1,0,-3,-2,-9,0,-1,-2,3.79
759,-2,0,-1,1,13,4,1,1,3.795
760,-2,0,-2,-9,1,1,-1,1,3.8000000000000003
761,0,0,1,0,1,-3,-1,0,3.805
762,0,-2,-2,0,5,-1,0,-1,3.81
763,0,0,1,6,-7,1,-1,0,3.815
764,-2,-1,0,-17,-9,-4,-1,-1,3.8200000000000003
765,-1,-1,0,5,-1,2,-1,0,3.825
766,-1,-1,-3,9,18,-2,-1,-1,3.83
767,-1,-1,-1,14,4,-1,1,-1,3.835
768,-2,-2,0,0,0,-1,0,-1,3.84
769,1,0,-1,-16,-10,-3,0,-1,3.845
770,0,0,0,-8,-6,0,-2,-1,3.85
771,-1,-2,-2,-6,-18,-2,-1,0,3.855
772,0,1,-1,18,23,2,0,0,3.86
773,1,-5,-3,1,1,-2,-2,-1,3.865
774,-2,1,0,-2,-7,-3,-2,-2,3.87
775,-1,1,0,1,9,0,0,0,3.875
776,-1,-1,-1,-11,-12,-2,0,-3,3.88
777,-1,1,0,5,4,0,-1,0,3.8850000000000002
778,-1,0,1,5,2,1,0,0,3.89
779,-2,-1,-1,-6,-6,-2,0,-2,3.895
780,-2,0,-1,-6,-1,-2,-2,-1,3.9
781,-2,1,-1,-13,1,0,0,-1,3.9050000000000002
782,-1,-1,-1,22,2,0,0,-1,3.91
783,-1,-2,-2,7,2,0,1,-1,3.915
784,-1,-2,-1,5,5,-3,-2,-1,3.92
785,-1,-2,-2,-26,-15,0,-1,0,3.9250000000000003
786,0,-1,0,-4,-10,-3,-1,0,3.93
787,0,-1,-2,-23,4,-2,0,1,3.935
788,-2,-1,1,44,8,2,0,-1,3.94
789,-2,-1,0,-7,3,-4,-1,-1,3.9450000000000003
790,1,-1,0,-10,-7,-1,-1,-2,3.95
791,0,0,0,6,-1,0,-1,-1,3.955
792,-2,-3,-2,-28,-17,-2,-2,0,3.96
793,-2,0,0,10,5,1,0,0,3.9650000000000003
794,-2,-3,-3,-4,-2,0,-1,-2,3.97
795,-2,-2,-1,5,-8,-3,-3,-3,3.975
796,1,1,1,-5,8,3,2,1,3.98
797,-1,0,-2,2,-2,1,-1,-1,3.985
798,0,-1,-2,5,2,-1,-3,-1,3.99
799,-1,0,1,2,-4,-2,-1,0,3.995
800,0,-1,-2,-7,-7,-3,-1,-1,4.0
801,-2,-1,0,5,10,0,-1,-1,4.005
802,-1,0,-1,-8,-6,-2,0,-2,4.01
803,-1,-1,0,-10,4,2,0,-1,4.015
804,0,-3,-2,25,3,-2,-1,-1,4.0200000000000005
805,1,-1,0,-16,-5,-1,-2,-2,4.025
806,-2,0,0,-4,3,0,-1,-1,4.03
807,-2,-3,-2,18,8,0,-2,-2,4.035
808,-1,1,0,-14,-2,1,3,0,4.04
809,-1,-1,-2,0,-5,-3,-1,-1,4.045
810,-1,1,-1,-9,-12,0,1,1,4.05
811,-1,-2,-2,2,14,-1,0,0,4.055
812,-2,0,-2,-11,-3,-1,-1,-1,4.0600000000000005
813,-1,-1,-3,6,5,0,-2,-1,4.065
814,-1,-1,0,-5,4,0,-2,0,4.07
815,-1,1,-2,8,-5,-1,-1,-1,4.075
816,1,0,0,-7,-5,-1,-1,0,4.08
817,-1,0,2,5,-5,-3,0,0,4.085
818,-1,-2,-2,5,4,-3,-1,-2,4.09
819,0,0,-1,-15,-7,0,2,1,4.095
820,-1,0,-2,17,6,-1,-2,-2,4.1
821,1,-1,1,3,-4,-1,1,-1,4.105
822,-2,0,-1,-16,-8,-2,-2,-1,4.11
823,0,-2,0,11,2,-1,0,-2,4.115
824,-1,0,0,-12,-2,-1,-2,0,4.12
825,-1,-2,-2,-14,-3,-1,-1,-2,4.125
826,0,-2,-2,17,3,-1,1,0,4.13
827,0,-2,-3,-7,-4,0,-1,-1,4.135
828,1,0,-1,2,-3,-3,0,0,4.14
829,0,-2,-2,-7,-1,3,1,1,4.1450000000000005
830,0,-1,1,-9,2,0,0,-1,4.15
831,1,0,0,-1,-6,-1,-1,-1,4.155
832,-2,-2,-2,-6,1,0,-1,-1,4.16
833,-3,-2,-2,11,0,-2,-2,-3,4.165
834,1,-2,0,-1,-4,1,0,0,4.17
835,-2,0,-1,2,0,-2,-1,0,4.175
836,-2,-2,-1,-10,-12,-2,-1,-3,4.18
837,0,-2,-3,4,16,0,1,-1,4.1850000000000005
838,-2,-2,-1,6,-1,-1,-3,-2,4.19
839,0,-2,0,-3,-2,-1,0,0,4.195
840,-2,-2,-1,-5,-10,-3,-2,-1,4.2
841,0,0,1,6,11,5,1,0,4.205
842,-1,0,-1,-2,-1,-2,-1,0,4.21
843,-1,0,-1,1,2,-1,0,0,4.215
844,0,1,0,-3,0,1,-1,0,4.22
845,-2,-3,0,4,-12,-3,1,-1,4.225
846,-1,0,-1,-2,2,0,1,-1,4.23
847,-1,-1,-1,0,-3,-1,-1,-1,4.235
848,0,1,0,-3,0,3,2,1,4.24
849,0,-1,0,0,-9,-4,-2,1,4.245
850,-1,-1,-1,1,-2,0,0,0,4.25
851,-3,1,-1,-34,-20,-4,0,-3,4.255
852,-1,-2,-3,-11,6,0,0,-2,4.26
853,-1,0,0,31,5,0,-1,0,4.265
854,1,0,0,6,9,0,0,0,4.2700000000000005
855,-2,-4,0,-3,-4,-1,-4,0,4.275
856,-2,0,0,-7,-8,-1,0,-1,4.28
857,-2,-2,-1,-11,-4,-2,-2,0,4.285
858,-2,0,-1,-11,-9,-1,-2,-1,4.29
859,-3,-1,-1,11,15,3,2,-3,4.295
860,-1,-1,-2,5,13,1,-1,-1,4.3
861,0,-1,-1,1,-6,-3,-1,0,4.305
862,0,-1,0,-4,3,1,-1,-3,4.3100000000000005
863,-2,0,1,4,-3,-2,0,-1,4.315
864,-1,-1,0,41,5,1,0,-1,4.32
865,-1,-2,0,-10,1,0,0,-1,4.325
866,-1,-1,-1,-10,0,-2,-2,0,4.33
867,2,1,1,1,0,-1,0,1,4.335
868,0,-1,-2,-24,-10,-3,-2,0,4.34
869,1,-2,-3,3,0,0,-1,-2,4.345
870,-1,-2,-2,10,0,2,-1,-1,4.3500000000000005
871,-2,-2,-2,4,2,0,-3,-4,4.355
872,0,1,0,-5,-11,-1,-2,0,4.36
873,0,0,-1,-10,8,-1,-1,-1,4.365
874,-1,-1,0,-2,-4,-3,-1,-1,4.37
875,0,-2,-2,-4,-10,-3,-1,-1,4.375
876,0,-2,0,0,5,3,-1,0,4.38
877,-2,0,-2,-7,-11,-3,-1,-1,4.385
878,0,0,0,3,-3,-1,-1,0,4.39
879,0,1,0,7,13,-1,-2,1,4.3950000000000005
880,0,-1,-2,-8,-8,-2,-2,-1,4.4
881,0,1,-1,4,3,0,-1,-1,4.405
882,0,0,0,-8,-9,-3,-1,-1,4.41
883,-1,-2,-1,3,5,1,1,-1,4.415
884,-1,1,-1,-24,-2,-5,-1,0,4.42
885,-2,0,1,11,7,3,-1,1,4.425
886,-1,-2,-2,-31,-11,-1,-1,-2,4.43
887,0,-1,1,32,3,1,1,0,4.4350000000000005
888,-2,-2,-1,-3,-2,-2,-2,-2,4.44
889,0,0,0,-3,-5,0,1,1,4.445
890,-2,0,0,1,-1,-1,-1,-1,4.45
891,-1,0,-1,-13,-2,-1,0,0,4.455
892,1,0,-1,5,1,-1,1,0,4.46
893,-2,-1,-2,2,-5,-1,-1,-2,4.465
894,0,-2,-3,3,3,-1,0,-1,4.47
895,-2,-1,0,-7,-14,-2,0,0,4.4750000000000005
896,1,0,-1,5,9,0,1,-1,4.48
897,-1,-3,-3,-10,-8,-1,0,0,4.485
898,-2,-1,0,2,-1,-1,-1,-1,4.49
899,0,-1,-2,6,8,0,-3,0,4.495
900,-1,-1,-2,-6,-4,-1,-2,0,4.5
901,0,0,0,-3,-3,-1,0,-1,4.505
902,-1,-1,-2,5,1,-1,0,0,4.51
903,-2,0,1,-14,-6,0,-1,1,4.515
904,-1,-2,0,20,3,-1,-2,-3,4.5200000000000005
905,0,0,0,-18,-5,1,-2,0,4.525
906,-2,0,-1,31,-2,-2,0,1,4.53
907,-1,0,-1,5,2,0,1,-1,4.535
908,-1,-1,-1,-8,4,-1,-1,0,4.54
909,-1,-1,1,-2,-9,-6,-2,-1,4.545
910,1,0,-2,-3,0,0,0,0,4.55
911,1,-2,-2,-11,-2,-4,-2,-2,4.555
912,0,-1,-2,-3,0,0,0,-1,4.5600000000000005
913,0,-2,-2,20,0,-3,0,-1,4.565
914,0,-3,-1,-8,-8,-2,-1,-2,4.57
915,0,1,0,4,19,3,0,-3,4.575
916,-2,0,0,10,-4,0,1,-1,4.58
917,-1,-1,-2,-9,2,0,-1,0,4.585
918,-1,-2,1,-9,-6,0,0,-1,4.59
919,-2,-3,-1,8,-1,-1,-2,0,4.595
920,1,1,1,1,-1,0,-1,0,4.6000000000000005
921,-1,-2,-1,0,13,1,-1,-2,4.605
922,0,1,0,1,5,0,-1,0,4.61
923,-3,0,-4,-10,-11,-2,-1,0,4.615
924,0,-2,-1,-2,-10,-4,-1,0,4.62
925,0,-2,-1,-9,1,0,2,0,4.625
926,-1,0,1,23,2,0,1,-2,4.63
927,0,-1,-1,-5,2,1,-2,-1,4.635
928,-1,-1,1,-19,-6,0,-1,-1,4.64
929,-1,0,-1,28,6,1,0,0,4.6450000000000005
930,0,-1,-2,-8,-3,-1,0,-3,4.65
931,1,0,0,-11,-9,-4,-3,-2,4.655
932,-1,-3,-1,4,12,0,-3,-1,4.66
933,0,-1,0,-6,-5,-2,0,-1,4.665
934,-1,0,-1,-1,4,0,-2,0,4.67
935,-1,0,0,-1,-5,-2,0,1,4.675
936,-2,0,-4,-2,-3,-2,-1,-1,4.68
937,0,1,-1,-4,-2,2,-1,-1,4.6850000000000005
938,-3,-3,-3,4,13,-1,-1,-1,4.69
939,0,-2,-1,-19,2,0,1,-2,4.695
940,1,0,1,37,4,1,0,1,4.7
941,-2,0,0,-2,10,1,-1,0,4.705
942,1,0,-1,-7,-9,-1,-1,1,4.71
943,-2,-1,0,-2,0,-2,1,0,4.715
944,-1,-1,-2,3,-8,-1,1,-2,4.72
945,-1,-1,-2,-5,-16,-3,1,0,4.7250000000000005
946,-2,1,1,-4,21,3,-1,0,4.73
947,-1,-3,-3,13,4,1,1,0,4.735
948,-2,-2,-2,-8,3,-3,0,0,4.74
949,2,-1,-1,-8,-7,-1,-2,-2,4.745
950,-2,-1,0,2,-11,-2,-1,-2,4.75
951,-1,-1,-1,-6,12,3,0,1,4.755
952,-2,-1,0,-9,-2,0,-2,-2,4.76
953,-2,-4,-2,-1,-1,-2,-1,-2,4.765
954,0,-2,-1,-7,-3,-2,-1,0,4.7700000000000005
955,0,0,-1,5,-6,-2,-1,-1,4.775
956,0,1,0,-2,-1,-1,-2,1,4.78
957,0,1,1,1,-6,0,-1,0,4.785
958,-1,-1,-1,1,14,1,1,-1,4.79
959,1,-1,0,7,-8,0,1,-1,4.795
960,0,-1,0,-15,-2,0,0,-1,4.8
961,-4,2,1,6,4,1,-2,0,4.805
962,1,0,0,-2,-4,-3,-1,-1,4.8100000000000005
963,0,-2,-2,-7,-9,-3,-1,-2,4.815
964,-2,-2,-2,-13,5,0,-1,0,4.82
965,1,-1,-2,8,-4,3,0,-1,4.825
966,-2,0,2,1,3,1,-1,0,4.83
967,0,0,-1,-6,-3,-1,1,0,4.835
968,0,0,-1,13,-15,-2,-2,-1,4.84
969,-2,-3,-4,-12,13,-2,0,0,4.845
970,1,-1,-1,2,6,2,-1,1,4.8500000000000005
971,0,-1,0,3,-3,-2,-2,-2,4.855
972,-2,-2,-1,4,-1,0,-1,-1,4.86
973,-1,-2,1,-8,8,0,0,-1,4.865
974,-1,0,1,-7,-15,-2,-1,0,4.87
975,-1,-1,-1,1,6,1,-1,0,4.875
976,0,-1,-3,-16,-3,-2,1,0,4.88
977,-1,-1,-4,3,0,-2,-2,-1,4.885
978,-1,-2,-2,30,1,-2,0,-2,4.89
979,-1,-3,-1,3,3,1,-2,-2,4.8950000000000005
980,1,2,0,1,3,0,1,-1,4.9
981,0,0,1,-5,-6,-1,0,-1,4.905
982,-1,-1,-2,-13,-4,-3,-1,0,4.91
983,-2,0,0,2,-6,0,-2,-1,4.915
984,0,-1,-1,-1,0,0,-1,-1,4.92
985,-1,-2,0,-20,1,-2,-1,-2,4.925
986,-1,-3,0,29,7,-1,-3,-2,4.93
987,0,0,1,0,-4,2,1,0,4.9350000000000005
988,1,0,-1,-1,1,-2,0,-1,4.94
989,0,1,0,-21,-13,-2,0,-2,4.945
990,-2,0,-1,23,10,3,0,-1,4.95
991,-1,-2,-2,-2,19,0,0,-1,4.955
992,-2,-2,0,4,3,1,-2,0,4.96
993,-1,-1,1,8,-1,0,0,-1,4.965
994,1,-4,-2,-18,-16,-5,-2,-2,4.97
995,-1,-1,-1,-2,-3,0,0,0,4.9750000000000005
996,-1,0,-3,-14,7,0,0,0,4.98
997,-1,-1,-3,30,1,-3,-1,0,4.985
998,-1,-1,-1,-13,-10,-3,-3,1,4.99
999,-3,0,0,0,-3,-3,-1,-2,4.995
1000,-1,-2,0,0,-1,-2,-1,-1,5.0
1001,-2,-1,-3,0,-5,-1,0,0,5.005
1002,0,2,-1,-10,-4,-1,1,1,5.01
1003,0,-3,-1,1,-3,0,-3,0,5.015
1004,-1,-1,-1,-17,-1,1,-1,1,5.0200000000000005
1005,1,1,1,11,0,0,0,-1,5.025
1006,1,0,-1,-26,-13,-2,0,-2,5.03
1007,1,0,-1,33,18,1,-1,-2,5.035
1008,0,-2,-2,-3,-7,-1,0,0,5.04
1009,-1,-2,-3,-4,8,0,-2,1,5.045
1010,-1,-2,-1,-11,-5,-1,0,0,5.05
1011,0,0,0,-13,-11,-3,-3,0,5.055
1012,-1,-2,1,12,-9,0,-1,-2,5.0600000000000005
1013,1,-2,-1,5,23,2,0,0,5.065
1014,-4,-1,-1,-1,1,-2,-2,-2,5.07
1015,-1,0,1,-26,-11,1,-1,1,5.075
1016,-3,-1,-2,38,13,0,0,0,5.08
1017,-2,-1,0,-17,-18,-1,0,0,5.085
1018,1,0,0,-3,4,-1,1,-2,5.09
1019,-1,-2,-2,-3,-2,-2,-1,0,5.095
1020,0,0,1,-5,-2,-2,-1,-1,5.1000000000000005
1021,-1,0,-1,3,-6,-1,-2,-2,5.105
1022,0,-2,0,-14,-1,0,0,0,5.11
1023,0,-1,-2,15,2,-2,-1,0,5.115
1024,-2,-2,0,-8,-3,-1,-1,0,5.12
1025,-1,0,2,4,-5,-1,0,2,5.125
1026,-2,0,-2,-13,-1,1,0,-1,5.13
1027,-2,0,-2,-1,-10,-2,-1,-1,5.135
1028,-2,1,1,-2,5,3,1,0,5.14
1029,-1,-2,0,0,0,-1,-1,-1,5.1450000000000005
1030,0,0,2,0,4,2,0,-1,5.15
1031,0,0,-2,-5,-7,-1,0,-1,5.155
1032,0,0,1,10,7,0,-1,-1,5.16
1033,0,0,-3,-11,-5,-1,-1,0,5.165
1034,1,-1,-1,7,2,1,-2,-1,5.17
1035,-1,0,-1,-2,2,0,0,0,5.175
1036,1,0,0,-3,-7,-2,-1,-1,5.18
1037,1,-3,-1,-3,1,-3,0,-1,5.1850000000000005
1038,0,-1,-3,11,4,-1,1,-1,5.19
1039,-3,-1,0,-21,-4,-1,0,-1,5.195
1040,0,-2,0,6,-1,-2,-1,-2,5.2
1041,-2,-1,1,10,-9,-2,-2,-1,5.205
1042,-1,-2,-1,-10,-3,0,0,0,5.21
1043,-1,0,-1,15,23,1,1,1,5.215
1044,-1,-3,-3,-1,-7,-5,-2,0,5.22
1045,1,2,2,-5,4,3,0,0,5.2250000000000005
1046,-2,-2,0,-4,-5,-1,-1,-1,5.23
1047,1,0,1,-7,-15,-2,0,0,5.235
1048,2,2,0,1,14,4,-1,0,5.24
1049,0,0,-1,9,4,-2,-1,0,5.245
1050,0,-1,1,0,-7,0,0,0,5.25
1051,0,-2,0,-7,-1,-1,-2,-2,5.255
1052,0,-1,-3,-7,-11,-4,-1,0,5.26
1053,-1,-2,0,-8,-3,-1,0,-2,5.265
1054,0,1,-1,1,3,0,-1,0,5.2700000000000005
1055,-2,0,-2,-24,-7,-2,-1,0,5.275
1056,-3,0,0,36,13,0,0,-1,5.28
1057,0,-1,-2,-3,-9,-1,0,-1,5.285
1058,-1,0,0,-3,-3,-5,-1,-1,5.29
1059,2,0,1,12,5,1,-1,0,5.295
1060,0,-2,-4,-13,-12,-2,0,-1,5.3
1061,1,0,1,10,20,0,0,0,5.305
1062,-3,1,-1,0,7,0,0,0,5.3100000000000005
1063,-1,-3,-1,3,-18,-3,-2,-2,5.315
1064,1,1,1,-9,28,3,-1,-1,5.32
1065,-2,-1,-2,-12,-18,-4,0,-1,5.325
1066,1,1,0,7,7,3,-1,0,5.33
1067,-2,-2,-2,6,1,-2,-1,-1,5.335
1068,0,-1,0,-5,-10,-3,-2,-2,5.34
1069,-2,-2,-5,-11,-6,0,-2,-2,5.345
1070,0,-2,0,-16,-4,0,-1,-1,5.3500000000000005
1071,0,0,-1,23,8,-1,0,0,5.355
1072,-1,-3,-2,-9,-14,-1,1,-1,5.36
1073,-1,-2,-3,-2,10,-1,-3,-2,5.365
1074,0,-1,2,-3,-19,0,1,0,5.37
1075,0,-1,0,1,7,1,-1,0,5.375
1076,-1,-1,-1,-5,-10,-3,-2,-1,5.38
1077,0,0,1,-2,-3,-2,-1,1,5.385
1078,-1,-3,-1,12,15,0,0,-1,5.39
1079,1,-2,-1,-10,-6,-1,-1,-2,5.3950000000000005
1080,0,2,1,5,0,0,0,1,5.4
1081,-1,-2,-3,-3,-9,-1,2,1,5.405
1082,-2,0,-1,11,-3,-4,-2,-1,5.41
1083,-1,1,0,-4,8,-1,-2,0,5.415
1084,-2,-1,-2,-20,-1,0,-1,-3,5.42
1085,0,0,2,17,-6,1,-1,0,5.425
1086,-1,-1,0,-6,0,-3,-3,-3,5.43
1087,0,-1,-3,-1,0,-1,-1,-1,5.4350000000000005
1088,-1,-1,-2,-8,-11,0,-2,-1,5.44
1089,-1,1,-1,-1,3,-1,-2,-2,5.445
1090,0,-1,-2,2,1,0,-1,-1,5.45
1091,-1,-1,-1,0,-4,-3,-1,-1,5.455
1092,0,-1,0,-6,1,-4,-1,0,5.46
1093,-2,-1,-3,-21,-1,4,0,0,5.465
1094,-1,-2,-2,41,13,-1,-2,-2,5.47
1095,0,0,1,-8,-2,4,0,0,5.4750000000000005
1096,-1,-1,0,8,1,-3,-2,-1,5.48
1097,-1,-1,1,3,-2,-2,-2,-3,5.485
1098,-3,-4,-4,-14,-8,-2,2,0,5.49
1099,-2,-1,0,3,2,1,0,-3,5.495
1100,0,-3,0,2,-1,0,0,-1,5.5
1101,-1,1,1,-2,3,-2,-1,1,5.505
1102,0,2,-2,-6,-3,1,-2,-2,5.51
1103,1,-3,-2,-3,-14,-5,0,-1,5.515
1104,0,0,-2,-1,12,1,-3,1,5.5200000000000005
1105,0,-2,-1,-6,-1,-3,-1,-2,5.525
1106,0,-1,0,-1,-2,-1,-1,1,5.53
1107,-2,-1,-2,17,-1,-1,-2,-1,5.535
1108,-2,1,1,9,-10,1,0,-1,5.54
1109,1,0,-1,0,9,0,1,-1,5.545
1110,-1,-1,-1,-2,1,2,2,-2,5.55
1111,-2,0,-1,-1,-5,-4,0,0,5.555
1112,-1,-2,-1,-13,5,0,0,-1,5.5600000000000005
1113,-1,0,0,10,-13,-1,-2,-1,5.565
1114,1,-1,-1,-9,6,-3,-1,-1,5.57
1115,1,0,-1,-12,2,-2,0,-1,5.575
1116,-2,-1,0,13,-4,0,1,-1,5.58
1117,-2,-2,0,-1,0,0,-1,0,5.585
1118,-1,-2,-1,-4,2,-2,-1,-1,5.59
1119,-2,0,-1,3,3,-1,-1,0,5.595
1120,-1,-1,0,-7,-8,-2,-2,1,5.6000000000000005
1121,-1,-1,-2,1,0,-2,-1,-1,5.605
1122,-1,-1,-2,0,-5,-1,-2,-1,5.61
1123,-1,-2,0,-3,-6,-2,-1,-1,5.615
1124,0,1,1,-17,2,3,1,0,5.62
1125,0,-1,-2,25,14,2,1,-1,5.625
1126,-1,0,-1,-2,-5,-1,-3,-1,5.63
1127,-1,-1,1,-2,12,1,0,0,5.635
1128,-1,-1,-4,-6,-7,-6,-4,-2,5.64
1129,0,-1,-1,-4,-13,1,0,-1,5.6450000000000005
1130,-1,1,0,-1,2,-1,1,1,5.65
1131,-2,-3,-3,-4,-2,-1,-3,-3,5.655
1132,-1,1,1,12,4,-1,-1,-1,5.66
1133,-1,-1,-2,-9,-5,-2,-2,0,5.665
1134,0,-3,-1,8,-12,-3,-1,-1,5.67
1135,-1,1,0,-17,15,3,0,-1,5.675
1136,0,-2,-2,-2,-7,-1,0,-2,5.68
1137,-1,1,-1,1,3,-1,0,0,5.6850000000000005
1138,0,0,0,2,0,0,0,-1,5.69
1139,1,-1,-2,-3,-4,1,-1,0,5.695
1140,-1,-2,-1,3,2,-3,-1,0,5.7
1141,0,0,0,0,0,-2,0,-1,5.705
1142,-1,-1,-2,-5,-2,0,-1,-1,5.71
1143,-2,1,0,0,-3,-1,-1,-1,5.715
1144,-1,-1,-2,-7,-2,0,0,-1,5.72
1145,-1,-1,0,-1,-10,-4,-1,-1,5.7250000000000005
1146,-2,1,-1,0,-1,0,0,-1,5.73
1147,1,0,1,12,9,0,0,-2,5.735
1148,0,0,0,-2,0,-1,-1,0,5.74
1149,-3,-2,-3,-2,6,1,-2,0,5.745
1150,-2,-2,1,-3,0,-1,0,-1,5.75
1151,-1,-1,-2,-1,-7,0,1,-1,5.755
1152,0,-1,-1,3,-2,-1,-1,-1,5.76
1153,-1,-1,0,-7,2,-1,-2,-1,5.765
1154,0,2,0,4,-3,-1,0,-1,5.7700000000000005
1155,2,-1,-1,3,0,0,1,0,5.775
1156,-2,0,0,-5,-13,-4,-1,-1,5.78
1157,1,0,0,8,3,1,-1,-2,5.785
1158,-1,-1,-3,-30,-5,-3,-2,0,5.79
1159,-2,-3,-1,35,9,-1,-2,-1,5.795
1160,-1,-1,-3,2,-9,0,0,0,5.8
1161,-2,-1,-1,-15,-2,-2,0,-2,5.805
1162,-3,-3,-4,-1,6,1,-1,-2,5.8100000000000005
1163,-1,-2,-1,-10,-9,-5,-3,-1,5.815
1164,-1,0,0,1,11,5,0,-1,5.82
1165,-1,-1,0,8,5,1,1,0,5.825
1166,-1,1,-2,2,-4,-1,0,-1,5.83
1167,-2,-2,-3,-12,-10,-3,-4,-1,5.835
1168,-3,-3,-2,23,10,1,-1,-2,5.84
1169,-1,0,-1,-7,3,-1,-1,-1,5.845
1170,1,-1,0,2,0,-1,0,-1,5.8500000000000005
1171,-1,0,0,-4,-1,1,-1,-1,5.855
1172,-1,-1,0,-10,0,-5,0,0,5.86
1173,-1,-3,-1,-3,-6,-1,-1,-1,5.865
1174,0,-1,-1,9,6,-1,-1,-1,5.87
1175,-1,-2,1,-7,-7,-1,0,-3,5.875
1176,0,1,2,-6,1,-1,-2,-2,5.88
1177,-2,-1,-3,1,-6,-2,-1,-2,5.885
1178,-1,0,-1,-1,-15,-4,-2,0,5.89
1179,0,1,0,3,22,3,0,-1,5.8950000000000005
1180,0,-2,-4,-29,-8,1,-1,0,5.9
1181,-1,-1,-1,32,-1,-3,0,0,5.905
1182,-1,0,0,-2,-8,2,-1,0,5.91
1183,-1,-2,-2,6,1,-2,0,-2,5.915
1184,-2,0,0,5,1,1,-2,-1,5.92
1185,1,1,0,-22,-7,-4,0,1,5.925
1186,0,-2,-2,-18,-2,-1,-1,-1,5.93
1187,-1,-1,1,19,4,0,0,-1,5.9350000000000005
1188,-1,-2,-4,-4,-10,-3,-1,0,5.94
1189,-1,-1,0,-1,1,1,-1,1,5.945
1190,0,0,0,1,5,0,-1,0,5.95
1191,-2,3,0,-9,-1,0,0,0,5.955
1192,1,-1,-3,0,-10,-3,-1,-1,5.96
1193,0,-1,-2,5,3,2,0,-2,5.965
1194,-2,-1,0,5,1,-2,1,-2,5.97
1195,1,-2,-1,-6,-8,-3,0,1,5.9750000000000005
1196,-1,0,1,7,4,0,0,-2,5.98
1197,1,0,0,-6,-1,0,-1,-1,5.985
1198,-1,1,0,-4,-2,0,-2,-1,5.99
1199,-1,-1,-2,-7,-17,-5,-1,-1,5.995
1200,-2,-4,-2,3,14,3,1,0,6.0
1201,1,-2,-2,-11,-4,-2,-1,-1,6.005
1202,-2,0,-1,9,7,-1,-1,0,6.01
1203,0,1,1,-23,-16,-2,-2,-1,6.015000000000001
1204,0,-1,-1,21,9,0,1,-1,6.0200000000000005
1205,-1,1,-2,-5,-1,-2,0,0,6.025
1206,-1,-1,-2,2,-10,-3,-1,-1,6.03
1207,-1,-1,-1,0,12,1,-1,0,6.035
1208,0,-1,0,-19,-4,-1,-2,-1,6.04
1209,-1,0,0,14,6,1,0,0,6.045
1210,-2,-2,1,4,4,2,-2,0,6.05
1211,0,0,-3,2,-5,0,-2,-1,6.055
1212,0,0,-1,-5,-1,-4,-2,-1,6.0600000000000005
1213,-1,-1,-2,0,6,1,0,-1,6.065
1214,0,-1,1,-6,0,0,0,-1,6.07
1215,-1,-2,-2,3,-7,-3,0,-1,6.075
1216,-3,-1,-2,1,6,0,0,-1,6.08
1217,-1,-2,-1,-5,-6,-2,-1,-1,6.085
1218,0,0,1,6,3,-2,0,0,6.09
1219,-1,-2,-3,-5,-1,1,-1,-2,6.095
1220,-2,0,1,3,-11,-2,0,-1,6.1000000000000005
1221,-1,-1,-1,-5,-1,-4,0,-1,6.105
1222,-1,-2,-2,2,5,1,-1,-1,6.11
1223,-1,0,1,1,-1,-2,0,0,6.115
1224,-1,-1,0,-3,-5,-1,-1,0,6.12
1225,-2,-3,-1,-9,-1,0,-1,-1,6.125
1226,-1,0,0,23,5,-1,-2,-1,6.13
1227,0,-1,-2,-1,-3,-2,-3,1,6.135
1228,0,-1,0,5,7,-1,0,-2,6.140000000000001
1229,1,0,2,-3,-8,1,1,0,6.1450000000000005
1230,-1,-1,-3,-28,-9,-2,-1,-2,6.15
1231,-1,0,-1,25,6,1,1,0,6.155
1232,0,0,-2,7,9,0,-2,0,6.16
1233,-3,-1,0,-19,-6,-2,-1,-1,6.165
1234,-1,-2,-4,8,5,-1,-1,-1,6.17
1235,0,0,-1,-7,-11,-3,-2,0,6.175
1236,0,0,0,-1,10,3,-1,0,6.18
1237,-3,1,0,3,-11,-2,-3,-2,6.1850000000000005
1238,-1,0,1,-14,0,2,0,-1,6.19
1239,-3,-2,0,-4,-1,-2,0,-2,6.195
1240,0,-2,-1,-3,-12,-3,1,-2,6.2
1241,-1,-1,1,3,5,-1,-2,0,6.205
1242,0,-1,-2,2,0,1,1,0,6.21
1243,-1,-2,-2,2,-1,-2,-3,-1,6.215
1244,-1,0,1,-13,-5,2,0,1,6.22
1245,0,-2,-1,9,1,-1,0,-1,6.2250000000000005
1246,-1,1,1,-3,-6,1,0,1,6.23
1247,0,-2,-1,-9,-5,1,1,0,6.235
1248,-2,-2,-3,3,5,3,-1,0,6.24
1249,1,-1,-1,1,-3,-2,-2,-1,6.245
1250,0,0,-2,-23,-5,-2,1,-1,6.25
1251,-2,-1,0,13,10,0,1,0,6.255
1252,-1,-2,1,20,4,-2,0,-1,6.26
1253,-1,-1,-1,4,16,1,-2,-1,6.265000000000001
1254,-1,0,-1,2,-5,-4,-1,-1,6.2700000000000005
1255,0,-1,-5,-15,-1,0,-2,-2,6.275
1256,-1,0,-1,-4,-6,0,0,0,6.28
1257,-1,2,-2,2,0,0,0,-1,6.285
1258,-1,-2,-2,-17,-3,-1,-1,-1,6.29
1259,0,0,2,35,1,-2,1,0,6.295
1260,-1,-1,-3,-8,-1,0,-1,1,6.3
1261,-1,-1,-1,8,7,-1,1,-2,6.305
1262,-1,-1,-1,7,-3,-2,0,0,6.3100000000000005
1263,-1,-1,0,-11,16,3,-2,-2,6.315
1264,0,0,-1,-10,-13,0,-1,0,6.32
1265,0,0,0,-1,-13,-1,-1,0,6.325
1266,1,0,-1,5,-1,-2,1,-1,6.33
1267,0,0,0,-21,-6,0,-2,0,6.335
1268,-2,-2,-2,30,12,-2,-1,-1,6.34
1269,0,-1,-3,-31,-5,1,0,-1,6.345
1270,-2,-2,2,21,5,0,-1,-1,6.3500000000000005
1271,-3,-1,-1,-9,-2,0,0,-1,6.355
1272,0,2,0,-11,-2,-2,-3,-1,6.36
1273,0,0,1,2,-6,-2,1,0,6.365
1274,-2,-2,0,1,3,-1,-2,-1,6.37
1275,0,1,1,-2,-6,0,-1,-1,6.375
1276,0,-1,-2,-8,-5,-2,0,-2,6.38
1277,-1,-2,-4,8,11,-1,-2,-1,6.385
1278,-1,2,1,-12,-3,1,0,0,6.390000000000001
1279,0,-2,-3,15,-1,0,0,-1,6.3950000000000005
1280,0,0,0,6,-2,-3,-1,-2,6.4
1281,0,0,1,1,8,4,0,0,6.405
1282,0,-4,-2,1,-1,-2,-1,-1,6.41
1283,-1,0,-1,-12,-8,-4,-1,0,6.415
1284,0,0,-2,-9,-18,1,0,0,6.42
1285,-1,-1,-1,9,23,-2,-2,-1,6.425
1286,-2,-1,0,0,-1,0,-2,-2,6.43
1287,0,-2,0,0,6,1,2,-2,6.4350000000000005
1288,0,-1,0,-2,0,-4,-2,-2,6.44
1289,0,0,0,-27,-23,-3,-1,-2,6.445
1290,1,0,3,24,6,1,-1,0,6.45
1291,-2,-2,-3,-11,4,-1,-1,-1,6.455
1292,-1,1,-2,-4,-1,0,1,-2,6.46
1293,-3,-2,-3,-2,-10,-2,-2,-1,6.465
1294,-2,-1,-2,-4,-6,-1,-2,-1,6.47
1295,0,0,2,2,-6,-1,-1,-1,6.4750000000000005
1296,-1,-1,-2,-14,1,-3,-2,-1,6.48
1297,0,-2,-2,24,6,-1,0,-1,6.485
1298,-1,-2,-2,-2,1,-4,-2,-2,6.49
1299,-1,-1,-1,-1,-9,-3,0,-1,6.495
1300,-1,-1,-1,2,17,5,-2,2,6.5
1301,-1,-1,1,-9,-11,0,-1,0,6.505
1302,0,-1,-2,-2,0,-1,-1,-2,6.51
1303,-1,0,-2,1,-1,-1,-3,0,6.515000000000001
1304,-2,0,1,-3,5,-5,-2,-1,6.5200000000000005
1305,0,-1,-2,-14,-8,-2,1,0,6.525
1306,0,-1,-1,3,12,0,2,-1,6.53
1307,-1,-1,-1,-4,-5,-2,-2,-2,6.535
1308,0,1,0,-6,6,0,1,0,6.54
1309,-3,-1,-1,40,8,-1,-2,-1,6.545
1310,1,0,-1,-14,-2,4,1,0,6.55
1311,1,-3,-2,9,0,0,-1,1,6.555
1312,0,0,-2,1,-4,-1,0,0,6.5600000000000005
1313,-1,0,0,-25,-7,-3,-1,0,6.565
1314,0,0,0,29,5,-1,-2,-1,6.57
1315,-2,1,1,8,11,-3,-1,-2,6.575
1316,-2,-4,-1,-4,3,5,0,-2,6.58
1317,0,-2,0,2,4,1,0,-1,6.585
1318,-2,2,-1,-18,-13,-3,0,-1,6.59
1319,0,-1,0,-3,1,-1,0,-2,6.595
1320,0,0,1,14,-12,-4,0,-2,6.6000000000000005
1321,1,0,-2,-6,12,0,0,0,6.605
1322,-2,-2,-2,-3,2,-2,-1,1,6.61
1323,2,0,1,-14,-14,-2,-1,0,6.615
1324,-3,-3,-3,-19,5,-3,-3,-2,6.62
1325,-1,-1,0,35,6,3,0,-1,6.625
1326,1,1,-1,-3,-7,-2,0,-3,6.63
1327,-2,-2,-3,-9,3,-1,-1,-2,6.635
1328,1,-2,-1,0,-7,-3,0,-1,6.640000000000001
1329,-4,-1,0,-19,-5,1,-1,-2,6.6450000000000005
1330,0,-3,-2,3,12,1,-1,-1,6.65
1331,1,1,1,-4,-12,-1,1,0,6.655
1332,1,-1,-1,9,7,-2,0,-1,6.66
1333,1,0,-1,1,0,-3,-1,-1,6.665
1334,-3,-2,1,-19,-25,-1,-1,0,6.67
1335,-2,-1,-3,29,19,2,0,0,6.675
1336,1,1,5,1,-7,-3,0,0,6.68
1337,0,-1,0,-4,7,0,1,0,6.6850000000000005
1338,1,-2,-4,-9,0,-1,-1,0,6.69
1339,-1,1,0,-17,-6,0,-2,-1,6.695
1340,-2,-2,-2,6,-1,1,-1,-2,6.7
1341,-1,-1,5,2,-7,-4,0,-3,6.705
1342,1,1,1,3,0,2,2,-1,6.71
1343,-1,-2,-3,-4,11,2,0,-1,6.715
1344,0,-1,3,0,-7,-2,0,-2,6.72
1345,-1,-1,-4,-10,-5,-2,-1,0,6.7250000000000005
1346,0,-1,-3,1,-2,-3,-2,-2,6.73
1347,-1,0,0,-8,-5,-1,0,-2,6.735
1348,-1,1,-1,-15,-13,-2,-2,-1,6.74
1349,1,-2,-4,29,3,0,-2,-1,6.745
1350,-1,-1,-1,0,3,-3,-2,1,6.75
1351,-3,-3,-3,-16,-4,-2,-1,-1,6.755
1352,-1,0,-1,16,-6,-4,-3,1,6.76
1353,0,-2,-5,-19,-6,-1,0,-1,6.765000000000001
1354,-5,1,2,0,2,3,0,-1,6.7700000000000005
1355,4,-2,-1,-18,-2,0,-1,-1,6.775
1356,-1,-2,-1,20,4,1,1,-1,6.78
1357,-1,-3,-4,-1,-9,-2,-3,-2,6.785
1358,2,0,0,0,-1,-3,-3,-1,6.79
1359,-1,1,1,-2,1,-2,-1,-2,6.795
1360,-2,-3,-4,-6,6,1,0,-1,6.8
1361,-1,-1,1,-17,-8,-3,-2,0,6.805
1362,-1,-2,-2,16,6,0,-1,-1,6.8100000000000005
1363,-1,2,-1,8,0,-1,-3,-1,6.815
1364,2,2,1,1,-11,-2,-1,0,6.82
1365,-2,-1,0,-10,-2,0,0,-1,6.825
1366,-4,-3,-5,-7,11,0,-1,-3,6.83
1367,-1,0,1,-3,-8,0,1,-1,6.835
1368,-2,-2,-3,24,7,1,-1,-1,6.84
1369,-2,-2,-2,-4,-12,-5,0,-1,6.845
1370,0,0,-2,-10,-11,0,-2,-2,6.8500000000000005
1371,0,-2,-2,18,8,1,-1,0,6.855
1372,-2,0,-3,-19,-1,-1,-2,-3,6.86
1373,2,-1,0,-21,-5,-3,-1,0,6.865
1374,1,-2,1,27,4,-1,0,-2,6.87
1375,0,-1,-3,-18,-7,-2,-2,1,6.875
1376,-3,2,3,0,8,3,-1,0,6.88
1377,0,0,-2,-9,-17,-1,-2,-1,6.885
1378,-2,-1,0,-5,10,1,0,0,6.890000000000001
1379,-2,-2,-1,3,5,-2,-1,-2,6.8950000000000005
1380,-2,-1,0,-10,-11,-2,1,0,6.9
1381,0,1,2,-11,9,2,1,1,6.905
1382,1,-2,-3,30,-2,-3,0,0,6.91
1383,-2,-3,-3,0,-3,-1,-2,-3,6.915
1384,-2,-1,-2,-9,-6,-3,-2,0,6.92
1385,-4,-1,-1,16,1,4,-1,-2,6.925
1386,0,0,0,-20,-17,-5,1,0,6.93
1387,1,0,4,0,5,1,0,0,6.9350000000000005
1388,0,-2,-1,26,9,0,1,-1,6.94
1389,-2,1,0,0,1,-1,-2,-1,6.945
1390,-2,0,-1,-11,3,1,0,0,6.95
1391,-2,2,2,13,1,1,-1,-2,6.955
1392,0,-4,-4,-26,-4,-1,-1,-1,6.96
1393,3,1,1,0,-4,-4,0,-1,6.965
1394,-7,-3,-4,-3,-2,1,0,-2,6.97
1395,-1,-1,0,-14,7,-1,1,-2,6.9750000000000005
1396,3,2,-1,6,0,3,3,2,6.98
1397,-2,-1,0,25,22,1,-1,-1,6.985
1398,1,0,-1,-8,-7,-1,-2,0,6.99
1399,-4,1,-1,1,-8,-4,-2,1,6.995
1400,0,-2,-1,-30,-10,-4,-1,-3,7.0
1401,-2,-1,-3,35,6,-1,0,-3,7.005
1402,-1,2,1,-7,1,-1,0,2,7.01
1403,-1,-2,-4,5,4,-1,-1,0,7.015000000000001
1404,0,0,1,4,-2,0,0,0,7.0200000000000005
1405,-1,0,-1,-8,-3,3,0,-2,7.025
1406,1,-2,-3,-7,1,0,-1,-3,7.03
1407,0,-1,-1,8,-2,-3,-1,0,7.035
1408,-1,-1,-1,-6,-3,-2,-1,0,7.04
1409,-2,0,-2,-22,-4,-2,-2,-1,7.045
1410,2,-1,0,17,17,3,-1,1,7.05
1411,1,0,1,-6,-11,-1,0,-2,7.055
1412,-3,-1,-3,15,-6,1,0,1,7.0600000000000005
1413,-7,-3,-1,-9,-3,-4,-1,-2,7.065
1414,-2,-6,-2,-33,-23,-3,-2,-3,7.07
1415,-3,0,-2,-21,25,2,0,0,7.075
1416,13,15,3,34,-19,-2,0,1,7.08
1417,5,3,9,29,-4,5,-1,1,7.085
1418,-2,-17,-23,-18,-16,-13,-2,0,7.09
1419,0,4,-2,56,66,10,0,-1,7.095
1420,6,0,-4,-40,-27,-10,-3,-3,7.1000000000000005
1421,-6,-21,-2,17,-11,5,2,1,7.105
1422,-12,19,8,-24,38,9,0,-2,7.11
1423,-2,-3,-2,-28,-21,-6,-1,0,7.115
1424,12,4,1,40,2,-5,0,-3,7.12
1425,-28,-13,-6,-28,-44,-14,-4,-4,7.125
1426,1,-3,1,24,40,5,-1,-2,7.13
1427,11,12,1,-15,-7,4,3,2,7.135
1428,-2,1,6,6,84,17,2,1,7.140000000000001
1429,-3,-5,-3,16,-37,-8,-2,-4,7.1450000000000005
1430,-14,-13,-5,-2,64,12,1,-4,7.15
1431,-6,-14,-3,-5,-31,-11,-5,-1,7.155
1432,3,3,-2,5,-8,3,-1,1,7.16
1433,28,13,-4,-35,26,7,-1,0,7.165
1434,-49,0,5,-34,-77,-19,-4,-6,7.17
1435,11,11,5,88,42,4,2,5,7.175
1436,-15,-23,-5,-42,15,13,2,-17,7.18
1437,-1,-14,-1,-16,-21,-11,-5,5,7.1850000000000005
1438,11,2,2,-29,-27,-7,-2,-3,7.19
1439,5,5,-1,-7,-52,-16,-3,-7,7.195
1440,24,22,5,18,2,3,-4,7,7.2
1441,9,9,1,-13,16,2,6,1,7.205
1442,43,-16,4,-60,-39,-5,-3,2,7.21
1443,-41,12,8,25,-40,-6,0,-4,7.215
1444,1,-32,-4,4,-5,-1,8,0,7.22
1445,-10,-9,-15,45,-24,-2,-8,-4,7.2250000000000005
1446,-27,-20,-1,41,42,-2,-6,-2,7.23
1447,-3,17,7,-59,-75,-21,-8,-7,7.235
1448,28,10,-6,20,76,28,5,6,7.24
1449,-5,2,-4,59,47,0,2,0,7.245
1450,19,11,0,-66,-55,-7,2,2,7.25
1451,28,0,14,45,22,-2,1,1,7.255
1452,-55,11,-17,-98,-68,-11,-2,-3,7.26
1453,11,-6,3,-42,13,-3,-1,1,7.265000000000001
1454,0,8,0,76,-55,2,-1,-6,7.2700000000000005
1455,6,-34,-3,30,127,29,8,5,7.275
1456,-6,-15,0,-8,-62,-15,-3,2,7.28
1457,-4,8,-5,-59,-90,-49,-8,-16,7.285
1458,-5,-7,25,89,109,61,13,11,7.29
1459,0,-8,-24,-103,-81,-11,-3,-5,7.295
1460,2,-1,14,30,-22,-4,-3,-5,7.3
1461,-7,31,-6,-12,23,20,10,15,7.305
1462,12,11,2,-41,-47,-21,0,-6,7.3100000000000005
1463,-6,-1,1,-36,-12,-8,-4,-1,7.315
1464,13,23,10,69,66,19,6,11,7.32
1465,-1,-30,-8,-36,-9,2,-1,-8,7.325
1466,-9,20,-1,-27,-25,-9,-11,-2,7.33
1467,-4,-5,-2,65,5,6,4,1,7.335
1468,-6,-34,-22,3,4,-12,-9,-7,7.34
1469,5,35,19,74,38,17,8,5,7.345
1470,-9,-32,-28,-78,-48,-12,3,-3,7.3500000000000005
1471,15,31,4,-2,-23,-9,-4,2,7.355
1472,-14,38,5,-81,-62,-18,-5,0,7.36
1473,19,-45,-2,34,24,8,1,-20,7.365
1474,-2,6,11,49,0,0,3,12,7.37
1475,11,-11,-7,-20,-47,-2,-2,-7,7.375
1476,-2,-34,7,-22,55,5,6,4,7.38
1477,0,32,8,53,-19,-1,-5,2,7.385
1478,-24,0,6,88,70,19,6,-1,7.390000000000001
1479,-5,0,9,59,57,14,2,-2,7.3950000000000005
1480,8,9,-10,14,-33,-10,-2,3,7.4
1481,23,-13,9,41,64,13,0,6,7.405
1482,6,24,-8,-19,-40,-23,-11,-9,7.41
1483,-10,-29,-17,-57,-52,1,1,3,7.415
1484,-13,12,10,0,29,7,-1,-3,7.42
1485,-10,-9,-8,-84,-3,-10,-4,1,7.425
1486,6,-16,-2,-109,-62,-11,1,-1,7.43
1487,-1,10,3,39,80,28,4,4,7.4350000000000005
1488,-7,-3,-13,-41,-63,-24,-10,-11,7.44
1489,-8,11,10,70,-54,-12,-1,0,7.445
1490,32,35,7,0,32,12,9,17,7.45
1491,-48,-69,-13,-16,-64,-28,-10,-35,7.455
1492,-24,7,11,-2,47,14,3,9,7.46
1493,11,16,-2,-26,6,10,1,3,7.465
1494,-3,4,0,-13,-33,-12,-1,-1,7.47
1495,8,20,-1,1,19,1,-1,5,7.4750000000000005
1496,0,-26,13,85,20,5,1,-3,7.48
1497,-15,-1,-2,-26,81,17,-1,-4,7.485
1498,-9,-33,-7,42,-52,-18,-7,-6,7.49
1499,-6,16,-22,-98,35,8,2,5,7.495
1500,20,34,8,21,-35,-2,1,3,7.5
1501,-11,-30,-3,4,-57,-13,-4,2,7.505
1502,6,15,-4,-72,26,5,2,-3,7.51
1503,18,-9,7,28,-41,-11,-3,5,7.515000000000001
1504,-21,-11,7,60,93,26,5,-2,7.5200000000000005
1505,-6,48,-26,-78,-26,-7,-6,-1,7.525
1506,-4,-53,2,-25,-72,-15,-4,-7,7.53
1507,-5,-25,9,17,-17,11,7,5,7.535
1508,-14,30,-9,-77,-48,-17,-2,2,7.54
1509,10,-3,10,26,-11,-6,0,-1,7.545
1510,-30,-9,4,52,-21,3,-8,-6,7.55
1511,8,40,6,31,9,-6,0,6,7.555
1512,-2,-44,-9,-11,-21,-9,-1,-4,7.5600000000000005
1513,8,31,-7,21,-2,5,4,9,7.565
1514,19,-7,-5,-46,27,-1,-4,-1,7.57
1515,-4,18,6,82,37,1,-1,-5,7.575
1516,-5,-10,-7,58,11,3,-4,1,7.58
1517,-4,-14,-4,35,-27,-8,0,-3,7.585
1518,-6,8,0,45,-19,-2,2,-3,7.59
1519,20,14,8,30,61,15,0,9,7.595
1520,6,-19,-19,26,37,0,-4,-6,7.6000000000000005
1521,-28,7,15,-104,-5,-1,0,1,7.605
1522,25,21,-6,9,-12,4,4,2,7.61
1523,-24,-17,9,-93,-27,-8,-3,-1,7.615
1524,3,7,-5,12,-42,-3,-2,-7,7.62
1525,-9,-9,2,36,1,9,4,-3,7.625
1526,9,19,8,63,14,6,3,5,7.63
1527,24,10,-17,-11,13,6,1,2,7.635
1528,-40,-104,-4,-100,-28,-10,-4,0,7.640000000000001
1529,29,33,16,64,49,13,1,8,7.6450000000000005
1530,-17,29,0,48,37,-5,-4,-32,7.65
1531,20,-10,10,-19,-33,-2,1,14,7.655
1532,17,34,0,-15,-27,-8,-1,2,7.66
1533,-10,-48,-10,-23,18,7,-2,-4,7.665
1534,-11,6,8,29,56,13,8,9,7.67
1535,11,32,-2,9,-27,-7,-4,-9,7.675
1536,-41,-28,-1,22,27,7,3,-2,7.68
1537,1,-16,-12,-128,-37,-13,-8,-6,7.6850000000000005
1538,25,9,-1,-5,17,5,-4,0,7.69
1539,-36,-23,-11,-121,9,-9,-4,-5,7.695
1540,60,26,0,-15,-29,-7,-2,3,7.7
1541,-42,-3,-1,13,2,-1,-2,-6,7.705
1542,-4,-38,-7,-64,-20,-4,-2,6,7.71
1543,-1,-3,-6,13,-48,-6,3,2,7.715
1544,7,25,10,-13,-3,-1,-2,-2,7.72
1545,2,-20,3,-59,-7,-3,0,0,7.7250000000000005
1546,7,-2,-15,-40,93,12,-2,3,7.73
1547,-37,-16,10,59,-50,-8,-3,8,7.735
1548,-11,22,-4,-36,39,16,1,-30,7.74
1549,12,1,-8,30,-30,-4,-2,7,7.745
1550,13,8,4,0,-18,-10,-4,1,7.75
1551,-2,-5,-11,27,-15,0,2,2,7.755
1552,15,10,-1,-34,18,-1,-1,3,7.76
1553,0,23,-2,69,-7,-4,-5,-4,7.765000000000001
1554,13,-16,4,82,-7,0,2,0,7.7700000000000005
1555,-12,-34,-3,-69,29,7,-2,-5,7.775
1556,11,27,-5,8,-27,-10,-4,2,7.78
1557,6,-6,-2,-118,-27,-6,3,-2,7.785
1558,9,4,-4,27,74,9,0,7,7.79
1559,-10,9,8,-33,16,1,0,-7,7.795
1560,-14,-5,5,-4,-18,-9,-2,2,7.8
1561,4,-1,3,39,-17,-6,0,0,7.805000000000001
1562,-3,18,2,-8,-30,-1,3,2,7.8100000000000005
1563,4,-20,-8,20,40,0,-3,-5,7.815
1564,11,9,2,-12,-21,-8,-3,1,7.82
1565,7,19,-4,55,-16,-4,0,-1,7.825
1566,-10,-43,3,2,-12,-5,-1,0,7.83
1567,20,52,0,-25,-1,-1,1,0,7.835
1568,-5,-42,21,12,-7,3,0,4,7.84
1569,-13,-11,-49,-40,-19,-3,0,-5,7.845
1570,-20,-2,-5,-70,-4,-3,1,-1,7.8500000000000005
1571,2,8,-1,30,1,1,-4,17,7.855
1572,16,32,4,1,-41,-12,-2,-20,7.86
1573,13,-21,15,33,65,19,4,11,7.865
1574,-9,-10,-8,-7,-11,-1,-3,-4,7.87
1575,2,-2,-4,-18,9,-1,0,0,7.875
1576,-21,-12,-2,10,5,-2,-1,2,7.88
1577,-2,10,7,4,5,-3,0,-4,7.885
1578,-6,12,-6,-10,-9,0,-1,-2,7.890000000000001
1579,10,-8,4,-19,-1,-1,0,-7,7.8950000000000005
1580,5,10,-8,-7,-13,2,1,7,7.9
1581,-8,-11,-1,-6,12,1,-2,-3,7.905
1582,3,-2,1,7,-9,-3,1,3,7.91
1583,1,4,-4,16,1,-3,-2,-7,7.915
1584,-3,-12,-7,-44,17,5,2,5,7.92
1585,-4,0,2,30,8,0,-1,1,7.925
1586,1,10,3,-40,0,-1,0,-1,7.930000000000001
1587,-1,-3,-3,4,-19,0,0,-3,7.9350000000000005
1588,-3,-2,-4,58,10,-3,-2,0,7.94
1589,3,0,9,-8,1,-3,-1,-1,7.945
1590,-6,-1,-6,18,-23,-4,-6,-2,7.95
1591,2,-4,2,7,-3,2,0,-2,7.955
1592,3,-2,-4,10,9,1,0,4,7.96
1593,1,0,8,-19,23,6,0,-1,7.965
1594,-3,4,1,22,5,1,-2,-1,7.97
1595,-3,-2,-6,3,0,-2,0,-2,7.9750000000000005
1596,0,-2,-5,8,-1,-1,-1,0,7.98
1597,-4,-9,-2,17,-5,0,1,-2,7.985
1598,-2,5,1,-1,-3,-2,0,0,7.99
1599,1,-2,4,1,-3,-1,-2,-2,7.995
1600,0,2,-1,9,8,0,-2,0,8.0
1601,-1,2,5,-29,-14,-4,-3,-1,8.005
1602,1,-2,-5,4,2,-5,-3,-2,8.01
1603,-3,-1,0,24,-5,0,1,-2,8.015
1604,0,1,0,-8,-1,0,-1,1,8.02
1605,-2,-4,-1,7,5,-1,-1,-1,8.025
1606,1,6,5,32,-3,2,2,0,8.03
1607,-5,-13,-8,-36,-10,-6,-5,-3,8.035
1608,0,4,-1,-6,4,1,2,0,8.040000000000001
1609,1,-2,0,10,-2,-1,0,-1,8.045
1610,-1,0,-2,-25,-1,-2,-2,0,8.05
1611,-2,0,2,39,-5,-2,-2,-1,8.055
1612,0,-2,-1,-15,0,1,1,1,8.06
1613,-1,0,-3,-22,-1,-1,0,-3,8.065
1614,-2,-4,-3,-5,0,0,-2,0,8.07
1615,1,3,1,0,0,1,0,0,8.075
1616,-1,-5,-3,-7,-9,-4,-2,0,8.08
1617,-1,0,1,10,10,1,-1,-2,8.085
1618,-1,2,-2,-2,-4,-2,-1,-3,8.09
1619,0,1,1,0,7,0,0,-2,8.095
1620,-1,-4,-5,-9,-3,1,0,0,8.1
1621,-1,-2,1,-21,5,-2,-2,0,8.105
1622,0,-4,-3,8,-4,-1,-1,-1,8.11
1623,-2,0,-2,-11,-5,1,1,-1,8.115
1624,-2,-2,1,12,23,3,1,0,8.120000000000001
1625,-1,-3,-1,-15,-18,-6,-2,-1,8.125
1626,-1,2,3,-2,7,1,0,2,8.13
1627,-1,0,1,18,5,-1,1,-1,8.135
1628,-1,-1,-2,-24,-17,-3,-2,1,8.14
1629,-1,-2,-2,14,-3,-2,-2,0,8.145
1630,1,-1,0,-5,8,2,0,0,8.15
1631,-1,-3,-2,-26,-17,-3,-3,-2,8.155
1632,-1,-2,1,44,11,2,-3,-2,8.16
1633,0,-2,-3,-4,9,2,0,1,8.165000000000001
1634,-1,1,0,-6,3,1,3,-1,8.17
1635,0,-1,2,-2,5,-1,-1,-1,8.175
1636,0,1,0,0,-9,-4,-1,0,8.18
1637,0,1,1,-7,0,1,0,0,8.185
1638,-2,-4,-4,14,2,-1,-3,-1,8.19
1639,0,-4,-5,-2,-4,2,0,-1,8.195
1640,1,0,1,10,-2,-3,0,-1,8.2
1641,0,-1,-3,-19,-8,-1,-3,-2,8.205
1642,-2,1,1,0,4,0,-1,-2,8.21
1643,-1,-1,-2,-32,-14,-2,0,-1,8.215
1644,-2,-2,-1,37,13,-1,-2,0,8.22
1645,0,-1,-1,9,-8,-2,0,0,8.225
1646,2,1,-1,-14,8,-1,0,-1,8.23
1647,-1,-2,1,13,4,3,-1,-1,8.235
1648,-2,-6,-5,-22,-9,-2,-2,0,8.24
1649,3,4,5,1,-4,2,2,1,8.245000000000001
1650,-2,-3,-5,1,6,-3,-2,-2,8.25
1651,-3,-2,-4,-4,-2,-3,-2,-2,8.255
1652,0,1,1,-16,-6,-1,0,-2,8.26
1653,-3,-2,-2,13,-1,-1,-2,-2,8.265
1654,-1,-2,1,0,-7,-6,-4,0,8.27
1655,1,3,1,-1,-9,2,2,1,8.275
1656,-1,3,3,5,13,1,-1,-1,8.28
1657,-2,-3,-1,1,0,-1,-1,-1,8.285
1658,-1,0,1,-7,2,2,-1,-1,8.290000000000001
1659,-1,-2,0,3,-5,-5,-2,-1,8.295
1660,1,1,1,-10,15,2,0,0,8.3
1661,0,-2,-3,-8,9,3,-1,-1,8.305
1662,1,0,-2,27,0,-2,-2,-1,8.31
1663,2,0,1,16,17,0,-2,-1,8.315
1664,-1,3,1,-13,-17,-1,-1,-1,8.32
1665,-1,-5,-6,1,-3,-2,0,1,8.325
1666,-1,-1,-1,-23,-12,-1,1,0,8.33
1667,-2,-3,-5,3,7,-1,-1,-1,8.335
1668,0,2,-1,-7,-9,0,1,-2,8.34
1669,-1,-2,-1,6,-1,-1,1,-1,8.345
1670,0,1,3,-2,-6,-1,-1,-1,8.35
1671,-1,1,3,5,-3,-1,1,0,8.355
1672,-3,-6,-8,-22,-16,-8,-2,-2,8.36
1673,-1,1,-1,4,3,2,-3,-1,8.365
1674,1,0,-1,-5,-4,-2,-2,-2,8.370000000000001
1675,2,3,2,-17,8,1,-1,1,8.375
1676,-2,-3,-3,20,8,0,0,0,8.38
1677,0,0,2,12,-6,0,-1,-1,8.385
1678,0,1,1,-3,5,-1,0,-2,8.39
1679,-1,-4,-3,2,-11,-4,-2,-2,8.395
1680,0,0,1,-4,2,0,-1,-2,8.4
1681,0,0,0,-5,0,2,1,1,8.405
1682,-1,-3,-3,6,-2,-1,0,-1,8.41
1683,-1,-1,-3,-6,7,0,-1,0,8.415000000000001
1684,-1,-2,-3,2,-10,0,1,0,8.42
1685,-1,3,0,0,11,0,-2,-2,8.425
1686,-1,-2,-2,-4,-4,0,1,0,8.43
1687,-1,0,1,0,-4,-4,-2,-1,8.435
1688,1,-3,1,-13,-1,4,-1,-1,8.44
1689,-1,0,-1,-9,-7,0,1,0,8.445
1690,-1,-2,-1,32,11,2,0,0,8.45
1691,-2,-1,-2,1,20,1,0,0,8.455
1692,-2,-4,-4,-10,-9,-2,-2,-2,8.46
1693,0,-1,-1,-7,-10,-5,-2,0,8.465
1694,0,2,2,-9,-1,1,-1,-2,8.47
1695,-3,-3,-5,1,-10,-2,1,-2,8.475
1696,0,4,0,0,-5,-4,-2,-2,8.48
1697,-2,-4,-2,11,2,-3,0,-2,8.485
1698,0,0,-1,-12,-2,1,0,-1,8.49
1699,-2,-2,1,11,-2,1,-2,-1,8.495000000000001
1700,-1,1,-1,-11,1,1,-1,1,8.5
1701,0,-1,-1,7,-5,-2,-2,0,8.505
1702,-1,-1,-1,-7,-3,-3,-1,1,8.51
1703,-1,1,-1,-3,-3,0,0,0,8.515
1704,-1,-1,-1,7,-1,-1,-1,0,8.52
1705,-1,1,0,1,4,1,-1,-1,8.525
1706,-1,-2,-2,-5,-6,-1,-1,-1,8.53
1707,0,-2,-1,-15,-8,2,-1,0,8.535
1708,0,1,2,11,-2,-1,-1,-1,8.540000000000001
1709,-3,-2,-6,-11,2,-2,-1,-3,8.545
1710,-1,0,0,13,-3,-2,-1,1,8.55
1711,0,1,-1,-1,-3,-2,-1,-3,8.555
1712,0,-1,-2,-5,0,1,-1,-1,8.56
1713,-1,0,-1,3,0,1,0,0,8.565
1714,0,2,3,-4,-3,-3,-2,-1,8.57
1715,-1,-4,-4,-10,2,0,-1,0,8.575000000000001
1716,-1,1,0,14,-9,-4,-1,0,8.58
1717,0,1,0,9,20,5,1,-1,8.585
1718,-3,-4,-3,-9,-9,0,0,-1,8.59
1719,0,0,-1,5,5,-2,1,0,8.595
1720,0,-1,-1,-10,0,1,-1,-1,8.6
1721,0,-1,0,-2,-11,-6,-2,0,8.605
1722,-1,1,0,0,2,0,-2,0,8.61
1723,0,0,2,2,5,1,-1,-1,8.615
1724,-1,0,-2,1,-4,-2,0,0,8.620000000000001
1725,0,-3,-4,-2,-4,-1,-2,-2,8.625
1726,1,-1,-1,-2,3,0,-2,-1,8.63
1727,1,0,0,2,-13,-3,0,-2,8.635
1728,-3,-5,-2,6,18,1,-1,-2,8.64
1729,1,0,2,-20,-7,-1,0,2,8.645
1730,-1,-3,-1,4,-6,2,0,0,8.65
1731,0,-2,-3,-4,10,2,-2,-1,8.655
1732,-1,-1,0,-1,-9,-2,-2,-1,8.66
1733,-1,-1,-1,5,11,-3,0,-3,8.665000000000001
1734,0,0,1,-16,-9,-2,-1,-1,8.67
1735,-1,-1,1,28,1,-2,-1,1,8.675
1736,1,-1,1,-7,-1,-1,0,-2,8.68
1737,-1,-1,-3,-6,-10,-2,-2,0,8.685
1738,0,2,-4,-21,-9,-4,0,1,8.69
1739,0,0,1,22,19,7,1,-1,8.695
1740,0,-3,-4,-12,-4,-1,0,0,8.700000000000001
1741,-1,0,1,12,-4,0,-2,-1,8.705
1742,-2,-3,-1,1,5,0,-2,-2,8.71
1743,-2,-2,-1,-18,-7,-4,-4,-2,8.715
1744,0,-1,-1,2,-4,-1,1,0,8.72
1745,0,-1,0,-2,-1,-1,1,-1,8.725
1746,-1,0,0,6,4,0,0,1,8.73
1747,-2,0,0,-8,-4,-2,-1,-1,8.735
1748,-2,-1,-3,3,3,-2,-2,-1,8.74
1749,-1,-3,-2,-12,-7,1,0,-1,8.745000000000001
1750,-1,-1,-3,9,8,-1,0,-1,8.75
1751,0,-1,-1,0,-2,-3,-1,-1,8.755
1752,0,1,-1,3,2,-3,0,0,8.76
1753,-3,0,0,-8,-6,-2,0,-1,8.765
1754,1,-2,-1,2,1,1,0,-2,8.77
1755,0,1,-1,0,-3,-1,0,0,8.775
1756,-1,1,1,-4,-5,0,-1,-1,8.78
1757,-2,-1,-1,0,14,1,-2,-2,8.785
1758,-3,-6,-4,4,-16,-5,-2,-2,8.790000000000001
1759,1,2,-1,2,-1,-1,0,0,8.795
1760,-1,-3,-4,-10,-7,0,-1,-2,8.8
1761,-1,0,-1,12,0,1,-2,-1,8.805
1762,-1,-1,0,-5,-6,-2,-2,-2,8.81
1763,0,-1,0,-11,-8,-2,-2,-1,8.815
1764,-2,-4,-2,5,11,3,-1,-3,8.82
1765,-1,1,2,-2,-9,-1,-1,-1,8.825000000000001
1766,-1,0,-2,-2,3,1,-1,0,8.83
1767,-1,-3,-1,-4,-1,-1,0,-1,8.835
1768,1,1,-1,7,1,-1,0,0,8.84
1769,0,-1,-4,-9,-11,-5,-2,-1,8.845
1770,0,0,1,-12,-2,-2,1,-1,8.85
1771,-1,-2,-3,5,-1,1,0,-1,8.855
1772,-1,0,2,8,-9,-2,0,1,8.86
1773,-1,-1,-5,-7,4,-1,0,-1,8.865
1774,-1,-2,-1,-5,-3,-2,0,1,8.870000000000001
1775,0,0,1,-8,-6,-2,-1,1,8.875
1776,0,0,-1,-7,-5,-3,-2,-2,8.88
1777,1,1,1,6,-6,-2,-3,-1,8.885
1778,0,-1,-2,9,8,3,1,-1,8.89
1779,-1,-3,0,-11,-15,-6,-2,-1,8.895
1780,-1,0,1,7,19,4,1,0,8.9
1781,-1,-1,0,8,6,-1,1,-1,8.905
1782,1,1,0,4,-1,1,-1,0,8.91
1783,-2,-3,1,0,9,1,-2,-2,8.915000000000001
1784,-2,0,-2,-12,-7,0,-1,-2,8.92
1785,-2,-5,-2,-3,1,0,-1,-2,8.925
1786,-2,0,-1,3,2,-2,-1,0,8.93
1787,-2,2,1,3,-12,-4,0,0,8.935
1788,-1,1,1,-40,-1,0,-2,0,8.94
1789,1,-1,1,52,21,1,0,0,8.945
1790,-2,-2,-5,2,11,-1,-1,0,8.950000000000001
1791,0,-1,-3,-2,0,1,0,-1,8.955
1792,-2,-3,-3,-6,-8,-3,-1,-1,8.96
1793,1,3,0,-17,-14,0,2,0,8.965
1794,1,-1,-1,3,-2,0,0,0,8.97
1795,-1,0,0,7,7,0,-2,-2,8.975
1796,-1,-2,-1,8,2,0,-1,1,8.98
1797,-1,2,1,-5,-7,-2,-3,-1,8.985
1798,-1,-1,0,0,-20,-6,-1,-3,8.99
1799,0,-3,-4,-27,-9,3,-1,0,8.995000000000001
1800,2,3,4,8,21,4,3,1,9.0
1801,-1,-3,-4,20,-7,-3,-1,1,9.005
1802,-1,0,2,-9,-2,-1,-1,-1,9.01
1803,0,2,0,-11,-9,-3,-2,1,9.015
1804,-1,-4,-1,18,-4,-2,-2,-1,9.02
1805,-2,1,1,-17,7,-1,0,-1,9.025
1806,-1,-3,-1,4,0,1,1,0,9.03
1807,1,-2,1,16,8,-1,2,0,9.035
1808,-1,0,-3,-9,-6,-4,-2,-1,9.040000000000001
1809,1,0,1,-8,-4,2,0,0,9.045
1810,-1,0,0,-3,-1,-1,-1,-2,9.05
1811,-3,-2,-3,3,5,1,-1,0,9.055
1812,-2,-1,-2,-1,-5,-2,1,-1,9.06
1813,0,-1,-2,-3,-3,0,0,0,9.065
1814,0,1,1,4,2,0,-2,-1,9.07
1815,-2,-2,0,-3,0,-2,-1,-3,9.075000000000001
1816,0,1,0,9,0,-3,-3,-1,9.08
1817,-3,-5,-6,-14,-8,-4,-1,-1,9.085
1818,-1,-1,0,-2,6,2,-2,-1,9.09
1819,-2,-2,-4,3,-25,-5,-1,-1,9.095
1820,0,-2,-1,3,30,3,-2,0,9.1
1821,0,4,3,-10,-3,1,-1,-1,9.105
1822,-2,-2,-2,23,1,-4,-1,-2,9.11
1823,1,-2,0,-8,-1,0,-1,-2,9.115
1824,-2,-1,-2,-1,-14,-4,0,0,9.120000000000001
1825,1,2,2,5,5,0,2,1,9.125
1826,-2,-1,-3,-23,-2,0,-1,-1,9.13
1827,1,2,3,14,0,-2,-1,-1,9.135
1828,0,-3,-2,-4,-5,0,0,1,9.14
1829,1,0,0,-1,19,1,-1,-1,9.145
1830,-3,-4,-4,-5,-3,0,-1,1,9.15
1831,0,0,1,0,5,0,-1,0,9.155
1832,-1,1,2,8,-2,-1,-1,-1,9.16
1833,0,-3,-4,-9,-10,-3,-2,-1,9.165000000000001
1834,-1,1,-1,2,6,0,2,-1,9.17
1835,-2,-1,-1,-4,0,-2,-1,-1,9.175
1836,-2,-1,0,5,4,4,1,-1,9.18
1837,-1,-1,-1,-20,1,2,0,-1,9.185
1838,-1,0,-1,37,0,-2,-2,-3,9.19
1839,1,-1,1,-1,6,1,0,2,9.195
1840,-3,-3,-6,-9,-23,-8,-3,-1,9.200000000000001
1841,1,0,1,-2,18,3,1,0,9.205
1842,-2,1,0,-11,2,0,-1,1,9.21
1843,-1,2,0,1,1,-1,0,0,9.215
1844,-1,-1,-1,0,-6,-5,-4,-1,9.22
1845,-2,-2,-3,0,-3,1,-1,0,9.225
1846,3,-1,1,-9,-8,-3,-1,-2,9.23
1847,-2,-1,-3,6,9,-1,-1,0,9.235
1848,1,0,-1,-13,-10,-2,2,0,9.24
1849,2,3,1,10,-3,-2,-1,-2,9.245000000000001
1850,1,2,1,-9,-3,0,-2,-1,9.25
1851,-1,-2,-4,-2,11,2,-1,-2,9.255
1852,-1,0,0,9,1,1,-1,-1,9.26
1853,-2,-2,0,-17,-11,-3,-2,-2,9.265
1854,0,2,0,10,14,1,0,0,9.27
1855,1,-3,-2,-17,-13,-1,-1,-1,9.275
1856,-2,-1,-1,5,-15,-2,-3,-2,9.28
1857,-1,-4,-6,-7,-2,2,-1,0,9.285
1858,0,1,0,-3,-10,-2,-2,0,9.290000000000001
1859,-1,0,-1,-8,0,-1,0,-1,9.295
1860,0,-1,0,-2,4,0,0,0,9.3
1861,-2,-1,-1,7,-7,-1,-2,-2,9.305
1862,-1,-3,-1,-10,4,-1,-2,-1,9.31
1863,0,1,0,4,-4,0,1,1,9.315
1864,1,0,1,-7,-2,1,1,0,9.32
1865,-1,0,-1,30,7,-4,0,-2,9.325000000000001
1866,1,-3,-3,-1,4,4,1,0,9.33
1867,-2,-3,-5,4,8,1,2,-2,9.335
1868,-1,-1,0,-4,-2,-1,-1,-1,9.34
1869,-1,0,2,-4,2,-1,-3,-1,9.345
1870,-1,-1,-1,-19,-12,-4,-1,-1,9.35
1871,-1,-1,0,29,12,-1,1,0,9.355
1872,-1,0,0,-3,-7,4,1,1,9.36
1873,0,-1,-1,3,8,1,-1,-1,9.365
1874,-1,-1,1,3,-1,-1,0,-1,9.370000000000001
1875,0,-2,0,-39,-15,-3,-3,-1,9.375
1876,-1,2,-1,19,5,-4,-2,-1,9.38
1877,-1,1,1,4,-6,1,-1,0,9.385
1878,0,1,-1,-5,11,0,1,1,9.39
1879,0,1,-1,10,-2,-1,-2,-1,9.395
1880,-3,-2,-2,0,1,0,0,0,9.4
1881,-1,0,-2,-12,-7,-2,-1,-1,9.405
1882,-2,-1,0,3,-2,-3,-2,-1,9.41
1883,1,2,1,-6,-16,-3,-1,-1,9.415000000000001
1884,0,0,0,18,20,6,-1,-2,9.42
1885,-1,-1,-1,4,-3,-2,1,1,9.425
1886,-4,-3,-4,-17,-4,0,-2,-3,9.43
1887,-2,-1,0,36,2,-1,-1,-2,9.435
1888,2,-1,-1,-17,2,-3,-2,-1,9.44
1889,-1,2,2,-32,-21,-1,-2,0,9.445
1890,0,-3,1,19,-1,2,0,-1,9.450000000000001
1891,-2,-2,-2,-16,-7,-4,-2,-1,9.455
1892,-1,0,-2,-8,0,0,0,-1,9.46
1893,0,-3,-3,0,-2,-3,-1,-1,9.465
1894,0,1,-3,-25,-18,-3,-3,-1,9.47
1895,-4,-1,2,27,25,4,-1,0,9.475
1896,1,3,3,17,-19,-3,-1,0,9.48
1897,-1,0,-1,-10,8,1,0,-1,9.485
1898,-1,0,1,12,-2,2,2,0,9.49
1899,1,-3,-3,-8,25,3,0,-1,9.495000000000001
1900,-1,-4,-4,-11,-9,-4,-1,0,9.5
1901,1,0,-1,7,-2,-1,-1,-2,9.505
1902,2,1,1,-11,-9,-4,0,-2,9.51
1903,0,1,0,2,-4,2,0,-2,9.515
1904,-2,-2,0,0,-6,-4,-2,-1,9.52
1905,0,-1,-1,-5,7,0,-1,-1,9.525
1906,0,-1,-3,-6,-2,-4,0,1,9.53
1907,1,0,-3,-8,-4,-1,-1,0,9.535
1908,-1,-2,-2,-6,10,0,-1,0,9.540000000000001
1909,-1,1,-2,5,-5,-1,-1,0,9.545
1910,-2,-1,-1,2,0,-1,0,-2,9.55
1911,0,1,0,9,-7,-1,-1,-1,9.555
1912,-1,1,0,5,11,0,0,-2,9.56
1913,-3,-6,-4,1,-4,-1,-2,-2,9.565
1914,-2,0,-2,-1,2,-5,-3,-2,9.57
1915,0,-2,-1,-5,-10,0,1,0,9.575000000000001
1916,-1,0,1,10,1,0,-1,1,9.58
1917,-1,0,-1,8,3,-1,1,-2,9.585
1918,1,1,-1,0,10,3,1,0,9.59
1919,-1,-2,-3,-15,-14,-5,-3,-1,9.595
1920,-1,1,-1,-20,13,-2,-2,-1,9.6
1921,-3,-3,-3,31,-1,0,-1,-2,9.605
1922,-3,-4,-3,4,-4,-5,-2,-1,9.61
1923,-1,-1,0,-4,4,1,-1,-1,9.615
1924,-2,-2,-2,-3,-6,-3,-1,0,9.620000000000001
1925,1,1,0,-8,-6,0,-1,0,9.625
1926,-1,0,0,3,5,1,1,0,9.63
1927,-2,-1,-1,0,-7,-5,0,-2,9.635
1928,-2,-2,-1,-6,0,1,0,-1,9.64
1929,0,-1,0,-19,-2,0,2,0,9.645
1930,-1,1,1,30,-8,-2,-3,-1,9.65
1931,2,4,5,4,18,6,3,2,9.655
1932,-2,-5,-6,7,3,1,-2,-3,9.66
1933,0,-3,-2,-12,3,-2,-1,0,9.665000000000001
1934,0,-1,0,-16,-7,1,-1,-1,9.67
1935,-3,1,-2,5,-5,-1,-3,-2,9.675
1936,0,0,2,-9,-4,-3,-1,-1,9.68
1937,-2,-1,1,12,0,0,0,0,9.685
1938,1,1,1,6,7,0,0,-1,9.69
1939,-1,-2,-2,-9,-4,-3,-3,-1,9.695
1940,0,0,0,-3,-1,0,0,-2,9.700000000000001
1941,0,-3,-1,1,0,-1,-2,-1,9.705
1942,-3,-1,-1,-2,0,1,-2,-2,9.71
1943,-2,-3,-2,-8,-1,-1,0,0,9.715
1944,1,-2,-3,-21,-5,-3,-1,0,9.72
1945,-1,-1,-1,30,-7,-2,0,-2,9.725
1946,0,1,1,-21,-9,0,-1,1,9.73
1947,1,2,0,9,20,3,1,1,9.735
1948,-1,0,2,31,22,3,3,-1,9.74
1949,-3,-4,-7,-13,-2,-3,-2,-2,9.745000000000001
1950,-3,-7,-5,-2,-6,-2,-2,-2,9.75
1951,-1,-2,-6,-22,-4,-1,-2,-2,9.755
1952,1,1,1,-5,-15,-6,-2,-1,9.76
1953,0,1,3,-18,-6,-2,-1,0,9.765
1954,1,1,3,26,22,4,3,1,9.77
1955,-2,-2,1,-1,-7,-1,0,-1,9.775
1956,-2,0,-3,2,-2,2,0,-1,9.78
1957,0,0,1,-12,-19,-1,-1,0,9.785
1958,-1,-1,-2,-12,2,-4,-4,-1,9.790000000000001
1959,-1,-1,0,-2,-2,-2,-1,-2,9.795
1960,0,-2,-2,-2,5,1,0,-1,9.8
1961,-1,0,0,-2,-1,-3,1,-2,9.805
1962,-2,-4,-4,2,-11,0,0,-1,9.81
1963,0,-1,-2,1,2,-2,-3,0,9.815
1964,1,2,1,-11,-5,-1,-1,0,9.82
1965,-1,0,-1,9,2,3,-1,-1,9.825000000000001
1966,-1,0,1,1,2,-2,-1,-1,9.83
1967,1,-2,-2,-10,-16,0,0,1,9.835
1968,-1,-4,-1,10,1,-1,-5,-1,9.84
1969,-2,1,-3,6,7,-2,0,-1,9.845
1970,-1,0,-3,-5,2,0,1,-2,9.85
1971,-2,-2,1,-1,-1,-1,0,0,9.855
1972,0,0,-4,2,-12,-2,-1,0,9.86
1973,-2,-2,0,-10,3,-1,-2,-1,9.865
1974,1,2,2,-11,1,-2,0,1,9.870000000000001
1975,-1,0,-1,8,-14,-3,-1,-2,9.875
1976,-1,-1,-1,6,12,0,0,-2,9.88
1977,0,1,0,2,2,2,-2,0,9.885
1978,1,-3,0,-1,-1,1,-1,-1,9.89
1979,-1,0,-2,-10,-3,0,-2,-2,9.895
1980,-2,-3,-2,-17,-11,-3,-1,-2,9.9
1981,-1,0,0,32,2,0,0,0,9.905
1982,1,-1,2,6,11,2,-2,0,9.91
1983,2,0,1,6,2,-3,-3,0,9.915000000000001
1984,-1,-1,1,-1,-6,2,1,0,9.92
1985,0,-2,-4,-6,-7,-6,-2,-2,9.925
1986,-2,-3,-6,-17,6,3,0,-2,9.93
1987,-1,-1,1,10,-2,-3,1,-3,9.935
1988,0,-2,1,-3,-2,-1,0,-1,9.94
1989,0,1,2,-9,1,0,-1,0,9.945
1990,-1,1,-1,8,-14,-4,-2,0,9.950000000000001
1991,-2,1,0,-5,8,0,-1,-1,9.955
1992,-4,-9,-6,0,-4,-2,0,-1,9.96
1993,1,2,2,-13,-2,-2,-2,0,9.965
1994,0,-2,-3,22,-1,1,2,-1,9.97
1995,-2,-2,1,5,18,2,0,-2,9.975
1996,-1,1,-2,-14,-13,-3,-2,0,9.98
1997,0,-2,1,5,30,2,1,0,9.985
1998,0,0,0,-6,-3,-2,0,1,9.99
1999,2,1,-1,0,8,5,-1,1,9.995000000000001
2000,0,-1,-2,15,2,1,-1,-2,10.0
2001,1,0,0,-4,-9,-1,0,-2,10.005
2002,-1,1,-1,-6,-2,-2,0,0,10.01
2003,-2,-4,-5,10,-14,-2,-1,-1,10.015
2004,-1,0,0,-10,19,2,0,1,10.02
2005,-1,-2,-4,-5,-5,2,2,-1,10.025
2006,-2,1,1,-8,0,-2,-1,-1,10.03
2007,-1,-1,-1,6,-14,-4,0,-2,10.035
2008,1,1,0,0,-7,0,0,0,10.040000000000001
2009,-1,-2,0,7,1,-3,-3,-1,10.045
2010,-2,-2,-2,-4,8,0,0,-3,10.05
2011,-1,-2,-1,-9,1,-4,-2,-2,10.055
2012,1,-1,-2,-5,-4,2,0,0,10.06
2013,-1,-1,-2,5,11,-1,-2,-1,10.065
2014,-1,0,-1,-5,-21,-1,0,0,10.07
2015,2,1,1,1,8,-2,1,3,10.075000000000001
2016,-2,1,-1,-15,-6,-1,0,-1,10.08
2017,0,-1,-1,-4,-5,-1,0,0,10.085
2018,0,-3,-2,4,13,2,-2,0,10.09
2019,-2,-2,0,-6,-2,3,-1,0,10.095
2020,-1,1,0,14,7,-1,-2,0,10.1
2021,-3,-2,0,-15,-9,0,-1,-2,10.105
2022,-2,-1,0,0,-5,-4,-2,0,10.11
2023,2,2,1,0,-6,0,1,0,10.115
2024,-1,-5,-3,3,-4,-2,-2,-4,10.120000000000001
2025,0,-1,-1,3,-4,0,1,0,10.125
2026,-1,-2,-1,2,-4,-1,-1,-3,10.13
2027,-2,-2,-4,-3,0,-1,-2,-1,10.135
2028,0,2,2,-7,-11,2,2,1,10.14
2029,2,0,1,0,3,-1,-1,0,10.145
2030,-2,-2,-1,5,-2,0,-1,0,10.15
2031,-2,-1,-1,-10,-5,-1,0,0,10.155
2032,-1,-1,-2,-2,-2,-3,-2,-2,10.16
2033,-3,0,-1,7,3,-3,0,-1,10.165000000000001
2034,1,3,1,-22,6,2,0,-1,10.17
2035,-2,0,-1,9,-3,0,-1,-2,10.175
2036,1,2,2,4,1,-1,-2,0,10.18
2037,-1,-1,-1,2,-1,0,-2,-1,10.185
2038,2,0,0,-38,-25,-3,0,0,10.19
2039,0,2,2,36,24,3,-1,0,10.195
2040,1,0,2,15,-5,0,0,0,10.200000000000001
2041,-2,-5,-5,-13,3,0,-1,-3,10.205
2042,0,0,-2,6,-5,-2,-1,-1,10.21
2043,0,-1,-2,-8,-3,-1,-1,0,10.215
2044,-1,-2,0,-7,8,-1,-1,0,10.22
2045,0,2,2,4,-11,-2,1,-1,10.225
2046,0,-1,-1,21,-1,-1,-4,-1,10.23
2047,-1,0,0,-22,1,-2,-1,-2,10.235
2048,-1,1,0,-3,-14,-1,-1,-1,10.24
2049,-2,-1,0,-2,8,2,-1,0,10.245000000000001
2050,-2,-2,0,6,10,-2,0,-1,10.25
2051,-1,-1,0,9,-4,0,0,-1,10.255
2052,-3,-4,-4,-9,-2,-1,-1,0,10.26
2053,1,2,1,11,2,3,1,0,10.265
2054,-1,1,2,-11,-1,-2,1,1,10.27
2055,-2,-4,-6,4,-16,-3,-3,-3,10.275
2056,-1,1,0,13,20,4,0,0,10.28
2057,0,1,0,26,-10,-6,-3,-1,10.285
2058,-1,-3,-3,-5,-1,1,-1,-2,10.290000000000001
2059,0,-1,-1,-15,-12,-2,1,-1,10.295
2060,-1,-1,-2,-5,4,-2,-2,-1,10.3
2061,-1,0,1,-10,-4,-2,-1,-1,10.305
2062,-1,-2,-3,4,-2,-4,-3,-2,10.31
2063,-1,0,0,-1,-3,-1,-2,0,10.315
2064,1,0,0,-5,4,1,0,-1,10.32
2065,-2,-2,1,-11,5,2,1,-1,10.325000000000001
2066,-2,0,-1,12,-3,0,0,0,10.33
2067,0,0,0,-7,3,1,-2,0,10.335
2068,-1,-2,-1,4,2,-2,-2,-2,10.34
2069,0,-2,-4,-16,-5,1,0,0,10.345
2070,-1,1,2,19,7,0,0,-1,10.35
2071,-2,0,2,-1,-5,-1,0,0,10.355
2072,0,1,-1,-25,-10,-5,-1,-1,10.36
2073,-1,3,-1,11,5,4,1,0,10.365
2074,0,-3,1,-4,3,0,-2,-1,10.370000000000001
2075,-1,0,-2,-1,7,0,1,-1,10.375
2076,-2,0,0,-30,-20,-4,-2,0,10.38
2077,-1,-1,-4,29,6,0,0,0,10.385
2078,-1,0,0,3,-9,0,0,-1,10.39
2079,0,-2,0,-4,-3,0,-1,-1,10.395
2080,0,-2,-1,2,24,0,0,-1,10.4
2081,0,-1,-1,-19,-7,0,0,0,10.405
2082,-1,1,-3,5,-7,-1,-1,-1,10.41
2083,1,-1,-1,5,6,-1,-1,-1,10.415000000000001
2084,-1,1,-1,9,-6,0,-2,-1,10.42
2085,-1,-2,-4,-2,-1,-1,-1,0,10.425
2086,0,-2,-1,-4,0,-1,-2,-1,10.43
2087,-1,-2,-3,-29,6,0,0,-1,10.435
2088,0,-1,1,35,13,2,0,-1,10.44
2089,0,3,2,6,1,-2,0,0,10.445
2090,-3,-1,-2,-9,-3,2,-1,1,10.450000000000001
2091,0,0,1,2,0,0,-1,0,10.455
2092,-1,-3,-3,-4,-8,-2,-1,-2,10.46
2093,0,-2,-1,-29,-10,-3,-2,0,10.465
2094,2,3,0,27,12,1,0,1,10.47
2095,-2,-3,-2,7,-4,-3,-1,-1,10.475
2096,0,1,-3,-4,-5,4,2,0,10.48
2097,-1,-1,0,-21,-10,-4,-2,0,10.485
2098,0,1,-2,12,3,-1,0,-3,10.49
2099,0,-4,0,13,-8,-3,-2,-3,10.495000000000001
2100,0,1,1,-1,5,-2,0,-1,10.5
2101,-2,-1,-1,-10,-6,-2,-1,0,10.505
2102,0,1,-1,-5,-9,0,2,0,10.51
2103,-1,-2,-3,-10,7,2,-1,0,10.515
2104,-2,-2,0,10,-3,-1,-1,-1,10.52
2105,-3,-4,0,8,-2,-1,-1,-2,10.525
2106,-2,-3,-3,-16,-1,-1,-1,-2,10.53
2107,-1,0,-1,-1,-3,1,1,-1,10.535
2108,0,-1,-2,-3,-3,1,-1,0,10.540000000000001
2109,-2,-1,-4,-10,-5,-5,-1,-2,10.545
2110,0,0,1,4,-6,-1,-1,-2,10.55
2111,1,1,0,-7,6,1,-1,1,10.555
2112,-1,-1,-2,11,5,-1,-1,-1,10.56
2113,0,-1,1,5,1,1,1,-1,10.565
2114,0,1,0,25,2,-2,-1,-1,10.57
2115,-1,0,1,-2,1,2,-1,0,10.575000000000001
2116,-2,-1,-2,-11,-5,-1,0,0,10.58
2117,0,-1,1,-4,2,1,1,-1,10.585
2118,-2,-3,-1,11,10,-1,-2,0,10.59
2119,-1,-1,-1,-17,-39,-7,-3,-2,10.595
2120,2,-1,-1,16,29,0,0,-2,10.6
2121,2,4,3,-2,-3,2,1,1,10.605
2122,-1,-2,-3,-17,9,0,2,1,10.61
2123,-1,-3,-2,9,-3,-2,-1,-2,10.615
2124,-1,-1,-2,-5,-14,-2,-2,0,10.620000000000001
2125,0,-1,-5,-3,-2,-1,-3,-1,10.625
2126,1,3,2,-13,0,2,1,-1,10.63
2127,0,1,2,7,14,2,0,0,10.635
2128,-1,-2,-1,-7,-5,-1,-2,-2,10.64
2129,-1,-1,0,8,2,-3,-1,-2,10.645
2130,0,-3,-2,-4,-3,2,1,-1,10.65
2131,-2,-1,-3,-1,5,-1,-1,-2,10.655
2132,0,1,2,8,-4,0,-2,-1,10.66
2133,0,0,-1,-31,-3,-3,-2,-2,10.665000000000001
2134,0,-3,-2,30,4,0,-2,-3,10.67
2135,-2,0,-1,0,-2,-2,0,1,10.675
2136,-1,-1,-2,-17,-7,-3,-1,-1,10.68
2137,-2,-2,-2,15,7,1,-2,-2,10.685
2138,0,-1,-2,-36,-11,-3,-2,1,10.69
2139,-1,0,0,30,9,-1,1,1,10.695
2140,-1,0,-1,-2,-11,-4,1,0,10.700000000000001
2141,1,-1,0,10,4,1,0,0,10.705
2142,-1,1,2,-13,-1,-2,-1,-1,10.71
2143,-1,0,-2,-1,-14,0,0,-1,10.715
2144,0,0,-2,-14,2,1,0,-1,10.72
2145,0,-1,0,20,18,2,0,2,10.725
2146,-2,-2,-1,-7,2,-4,-1,-3,10.73
2147,0,0,-3,-13,-7,-1,1,-2,10.735
2148,0,0,1,13,4,1,0,1,10.74
2149,0,0,-1,-9,-25,-4,0,1,10.745000000000001
2150,0,0,-1,0,9,-1,-1,-1,10.75
2151,-1,1,2,-16,-7,-4,0,-1,10.755
2152,-1,-2,-2,28,10,4,0,0,10.76
2153,-1,-1,-1,-1,-5,0,-1,0,10.765
2154,-2,-1,-2,-14,-17,-5,0,-1,10.77
2155,1,2,0,3,12,2,0,0,10.775
2156,-1,-3,-2,-9,-6,-1,-2,-2,10.78
2157,-2,0,1,8,6,-2,-1,-1,10.785
2158,1,3,1,-12,-8,0,-2,2,10.790000000000001
2159,-1,-3,-1,-1,-3,-2,-1,-2,10.795
2160,0,0,-2,-6,-1,-3,-1,-1,10.8
2161,-2,-4,-1,3,3,-1,-1,-1,10.805
2162,-2,-4,-6,-11,-6,-1,-2,0,10.81
2163,0,-1,-2,-4,4,1,0,-1,10.815
2164,-4,0,-2,-8,-14,-3,-4,-1,10.82
2165,0,2,1,-5,5,1,0,-1,10.825000000000001
2166,0,-1,0,1,-7,-1,0,-1,10.83
2167,-2,-3,-1,3,-2,-1,-3,-1,10.835
2168,-1,-3,-4,-8,-3,0,0,-2,10.84
2169,0,2,1,-2,-3,1,-1,0,10.845
2170,-3,-2,-2,-35,-19,-1,-1,-1,10.85
2171,0,0,2,35,5,-3,-2,0,10.855
2172,0,-2,0,2,12,3,-1,-1,10.86
2173,-1,1,-3,0,-6,-3,-2,1,10.865
2174,-2,-1,0,4,11,0,-2,-1,10.870000000000001
2175,0,0,1,-14,-19,-2,-1,1,10.875
2176,-1,0,0,-1,0,2,1,0,10.88
2177,0,-2,-3,-1,3,-1,-1,-2,10.885
2178,-2,1,1,14,11,-1,1,0,10.89
2179,-1,-2,-4,-9,3,-1,-3,-2,10.895
2180,1,2,2,-4,-11,-2,0,-1,10.9
2181,-2,-5,-2,12,22,2,-2,-2,10.905
2182,0,0,0,19,0,-1,1,1,10.91
2183,0,2,0,-5,3,1,0,0,10.915000000000001
2184,-1,1,0,-4,-3,-2,-1,1,10.92
2185,-1,-1,2,-25,-22,-4,-2,-1,10.925
2186,0,0,-2,15,12,2,0,0,10.93
2187,-3,0,0,12,-9,0,-1,0,10.935
2188,-2,0,-2,0,11,1,0,0,10.94
2189,0,-1,1,-24,-7,0,1,1,10.945
2190,0,-1,1,40,12,-2,-2,-2,10.950000000000001
2191,-3,-4,-4,-29,-6,-4,-2,-2,10.955
2192,-2,-1,-1,5,-2,-1,-1,0,10.96
2193,1,3,-2,11,3,-1,0,-2,10.965
2194,-2,0,0,-10,-11,-1,0,-2,10.97
2195,0,-1,0,-1,5,1,-1,0,10.975
2196,0,-2,-1,3,0,-3,-1,-1,10.98
2197,-3,-3,-3,1,4,-1,-2,-1,10.985
2198,0,2,-2,-7,-4,-2,-1,-1,10.99
2199,-2,-2,0,-2,-3,-3,-1,-2,10.995000000000001
2200,0,-2,-1,-31,-6,-1,0,0,11.0
2201,-1,1,-1,31,-1,-1,-1,-2,11.005
2202,0,-2,0,-9,6,1,-2,-1,11.01
2203,-1,0,1,-15,-16,-1,1,0,11.015
2204,-1,0,0,24,19,1,-1,-2,11.02
2205,0,0,-2,-3,-6,-1,-1,0,11.025
2206,-3,-2,-1,-3,-10,-6,-1,-2,11.03
2207,2,2,1,5,24,5,0,-1,11.035
2208,0,0,-1,-38,-31,-5,-2,0,11.040000000000001
2209,2,3,2,25,16,1,0,0,11.045
2210,-2,-4,-2,0,0,0,1,0,11.05
2211,-3,-5,-5,-7,1,-1,-1,-3,11.055
2212,-2,-4,-3,-7,-12,-4,-1,0,11.06
2213,1,-1,-1,-3,1,1,-1,-1,11.065
2214,-2,-2,0,-8,-10,-3,-2,0,11.07
2215,-2,-1,-2,6,-3,0,0,0,11.075000000000001
2216,3,-1,0,14,12,2,-2,-3,11.08
2217,0,-1,-1,-27,-15,-1,-1,-2,11.085
2218,2,0,-3,17,-3,-2,-2,-2,11.09
2219,-2,-2,0,1,5,1,-1,0,11.095
2220,-3,2,0,12,-11,-1,0,0,11.1
2221,-2,1,0,0,12,0,-2,0,11.105
2222,2,3,-3,-24,-16,-1,2,-1,11.11
2223,-1,2,0,-5,-5,-3,-2,1,11.115
2224,-2,-11,-1,30,14,-4,-2,-2,11.120000000000001
2225,-1,3,-2,-7,6,4,2,2,11.125
2226,-1,1,1,0,9,4,1,0,11.13
2227,0,-4,-1,12,5,0,-1,0,11.135
2228,4,3,2,-15,-13,-2,-1,-1,11.14
2229,9,-1,1,7,-2,-3,-3,-2,11.145
2230,-11,-1,-1,-3,11,0,0,-1,11.15
2231,2,2,-1,-2,-20,-2,1,-1,11.155
2232,-4,-1,-2,-35,-19,-1,-2,-1,11.16
2233,0,-5,-3,24,13,2,1,0,11.165000000000001
2234,10,5,5,27,-2,0,0,-2,11.17
2235,-1,-2,-3,-60,-11,-5,-2,-1,11.175
2236,4,5,-1,1,14,0,2,1,11.18
2237,-5,-5,-1,-1,-33,-3,-2,-1,11.185
2238,-1,-4,-3,-11,31,5,0,-1,11.19
2239,-3,-5,-2,17,-1,-3,-1,-3,11.195
2240,-3,1,-3,7,7,0,-2,-3,11.200000000000001
2241,-8,-3,-3,-106,-42,-12,-2,-3,11.205
2242,2,10,0,92,39,13,0,0,11.21
2243,11,6,1,27,9,1,0,2,11.215
2244,0,-7,2,-16,-13,-7,1,1,11.22
2245,-6,-12,-2,43,42,8,-1,-2,11.225
2246,6,12,-4,-68,-48,-8,-4,-3,11.23
2247,-22,-15,4,-10,-23,-10,-2,-5,11.235
2248,-1,5,-8,45,71,18,1,-1,11.24
2249,11,-6,0,4,6,3,2,3,11.245000000000001
2250,8,8,5,19,-45,-15,-3,0,11.25
2251,8,9,-2,46,54,13,2,0,11.255
2252,3,10,2,-35,-70,-12,-4,-1,11.26
2253,-10,-12,1,62,-23,-2,-2,-2,11.265
2254,-10,-14,-4,-20,104,26,5,4,11.27
2255,5,-1,-12,-58,-16,-15,0,2,11.275
2256,-5,-2,1,14,34,14,1,-1,11.28
2257,5,20,-8,28,-5,-8,-4,-3,11.285
2258,-20,0,3,-30,-43,-11,-2,-3,11.290000000000001
2259,-10,-53,5,71,27,11,-1,2,11.295
2260,1,11,-12,-66,12,-3,-2,-4,11.3
2261,13,23,-3,-15,22,10,-2,2,11.305
2262,-13,-7,3,-22,-26,-9,-3,-2,11.31
2263,23,30,5,-13,-22,-6,-2,-2,11.315
2264,-22,-47,-17,-3,-28,-11,0,-2,11.32
2265,5,12,9,33,-50,-8,-1,-2,11.325000000000001
2266,1,-5,-2,14,71,15,-1,-5,11.33
2267,-24,-20,7,-27,-20,2,4,0,11.335
2268,37,51,23,28,-30,3,0,3,11.34
2269,-21,-12,3,30,32,-4,0,-2,11.345
2270,-1,0,-5,-54,-18,-9,-3,0,11.35
2271,8,-12,-10,-9,34,13,0,-3,11.355
2272,-20,-4,-12,23,20,-3,-2,-3,11.36
2273,24,7,-4,-86,-88,-24,-3,-2,11.365
2274,-38,-26,7,83,31,29,9,6,11.370000000000001
2275,7,15,12,52,20,3,1,0,11.375
2276,17,19,5,32,-35,7,3,4,11.38
2277,-7,-11,0,-54,5,1,-1,-2,11.385
2278,-9,-14,-1,16,-8,-13,-5,-2,11.39
2279,9,25,5,3,-18,-3,0,1,11.395
2280,-8,-12,3,11,-17,0,-3,-1,11.4
2281,-3,7,0,32,-9,-2,1,3,11.405
2282,22,3,0,5,77,10,1,0,11.41
2283,-5,-3,-11,-8,23,1,0,-2,11.415000000000001
2284,-8,-4,2,-31,10,-13,-5,-4,11.42
2285,-7,-6,10,18,28,11,5,3,11.425
2286,26,1,-6,-105,-85,-11,-4,-4,11.43
2287,-32,-18,-7,19,-15,-2,-3,-2,11.435
2288,-1,7,9,57,39,-2,-2,-1,11.44
2289,-2,-18,-7,29,18,4,-4,-3,11.445
2290,28,32,10,-21,-77,-10,3,6,11.450000000000001
2291,-17,-20,-21,-14,-44,-11,-6,-4,11.455
2292,23,2,10,98,76,15,2,-1,11.46
2293,-26,-17,1,3,-5,-8,-4,-2,11.465
2294,-7,17,-54,-49,-65,-18,-8,-9,11.47
2295,9,-6,15,31,49,11,2,2,11.475
2296,-29,9,-1,-13,-15,0,2,-4,11.48
2297,19,-32,-1,-101,-93,-18,-4,-2,11.485
2298,11,4,8,127,39,-1,2,1,11.49
2299,8,29,-5,-50,47,13,3,3,11.495000000000001
2300,-14,-21,4,19,-18,-6,-3,-2,11.5
2301,-13,30,-17,-12,62,18,1,-4,11.505
2302,-2,-15,11,14,-23,-8,-2,-2,11.51
2303,26,9,-5,17,-40,-9,-2,-1,11.515
2304,13,-9,4,-1,-24,-11,-3,1,11.52
2305,-11,-13,2,-71,-19,-3,-2,1,11.525
2306,7,24,4,88,88,22,5,4,11.53
2307,-2,9,11,57,-32,-9,-1,-1,11.535
2308,4,-38,-10,28,-28,10,5,2,11.540000000000001
2309,9,-4,-1,1,-23,-11,-2,-3,11.545
2310,-21,-14,2,24,75,16,0,-2,11.55
2311,21,43,12,-30,-39,-7,-3,-1,11.555
2312,-6,-15,-9,-121,17,-7,-5,-4,11.56
2313,-19,-24,-6,-12,6,-4,-1,-1,11.565
2314,-23,1,4,-78,-84,-28,-8,-8,11.57
2315,23,65,7,-34,35,16,7,3,11.575000000000001
2316,27,-7,-4,83,29,7,2,5,11.58
2317,-30,13,-4,-60,-63,-15,-6,-7,11.585
2318,10,-43,-2,28,33,13,7,5,11.59
2319,-26,-28,-7,-16,-40,-16,-5,-6,11.595
2320,6,4,-6,-128,-24,1,1,1,11.6
2321,13,23,10,94,19,4,2,2,11.605
2322,-3,19,-1,-13,-73,-12,-3,1,11.61
2323,-15,-25,2,59,16,2,-2,-4,11.615
2324,-22,16,-18,-50,-1,-11,-6,-5,11.620000000000001
2325,-8,-37,8,86,76,25,8,2,11.625
2326,20,25,1,-90,-9,-9,-2,-2,11.63
2327,12,-1,2,-3,-12,-4,-3,1,11.635
2328,3,14,-8,-44,-16,-7,-4,-1,11.64
2329,11,-32,-2,41,100,23,5,2,11.645
2330,-20,-18,-23,-60,-64,-14,-7,-2,11.65
2331,14,16,4,6,45,9,-1,1,11.655
2332,-43,-24,16,101,-50,-14,-4,-8,11.66
2333,0,16,-18,-39,34,2,1,-3,11.665000000000001
2334,6,-2,13,43,-12,0,1,2,11.67
2335,1,-3,-13,-17,28,-3,-2,0,11.675
2336,9,20,8,17,9,4,3,1,11.68
2337,23,23,8,59,-17,3,3,4,11.685
2338,-1,-40,1,43,50,15,-2,-4,11.69
2339,-17,-3,10,-2,-55,-16,-2,-1,11.695
2340,14,10,-1,64,27,20,4,2,11.700000000000001
2341,-12,-25,-2,25,9,-3,-2,0,11.705
2342,9,24,1,-39,-39,-11,-4,-2,11.71
2343,-25,-2,24,28,12,5,3,2,11.715
2344,30,-12,-40,-62,-3,6,1,0,11.72
2345,-66,-14,-4,-50,-25,-21,-9,-12,11.725
2346,1,-8,-2,-37,10,1,-2,-2,11.73
2347,-4,-18,-4,28,60,24,6,0,11.735
2348,9,29,19,6,-54,-15,0,0,11.74
2349,20,21,12,-55,-17,-4,-3,1,11.745000000000001
2350,12,23,-11,21,7,11,4,3,11.75
2351,-20,-46,-6,-67,-42,-4,-1,-3,11.755
2352,15,-8,-10,-42,83,16,0,0,11.76
2353,3,35,5,48,-14,1,0,-2,11.765
2354,-4,-14,4,0,27,6,0,0,11.77
2355,29,9,-15,-51,-46,-10,-3,0,11.775
2356,-26,-16,9,-13,-34,-10,-6,-3,11.78
2357,20,19,7,16,-22,-7,1,0,11.785
2358,-8,3,-2,35,-20,-12,-4,-3,11.790000000000001
2359,16,-10,10,28,21,3,0,1,11.795
2360,7,17,5,12,21,9,1,5,11.8
2361,-4,-14,-7,-48,7,2,-1,1,11.805
2362,2,-4,-1,1,-60,-16,-2,-5,11.81
2363,-2,2,12,14,45,8,2,0,11.815
2364,-31,-5,-22,-25,-52,-19,-7,-7,11.82
2365,26,33,9,-4,-11,4,2,3,11.825000000000001
2366,-6,-14,-1,-17,19,12,4,3,11.83
2367,-3,0,-13,-26,-29,-12,-6,-7,11.835
2368,7,6,-3,-93,-9,-3,1,-1,11.84
2369,1,7,7,65,-9,2,-2,-1,11.845
2370,2,-12,-5,-3,-1,-5,1,0,11.85
2371,-9,5,5,-8,-72,-10,-1,-1,11.855
2372,9,0,4,17,84,19,6,6,11.86
2373,12,8,-7,23,-12,-6,-3,-1,11.865
2374,3,-23,-1,-53,-18,-4,-3,-1,11.870000000000001
2375,-12,-7,-7,39,-8,-4,-2,-5,11.875
2376,-14,-8,2,-17,-46,-7,-3,-5,11.88
2377,-13,-25,-11,-44,-13,-5,-2,-3,11.885
2378,-4,34,4,1,20,4,2,1,11.89
2379,2,-17,-11,-42,-12,-6,-2,-1,11.895
2380,-2,-20,2,61,-18,-5,-4,-4,11.9
2381,1,3,-22,-45,6,1,-1,3,11.905
2382,-14,10,7,18,8,-4,-1,-3,11.91
2383,-1,-4,-13,7,15,2,1,2,11.915000000000001
2384,-10,-2,10,52,21,-4,0,0,11.92
2385,10,-18,2,-7,-5,0,0,0,11.925
2386,2,10,-6,-2,-3,0,-2,-1,11.93
2387,-6,-24,0,3,7,-1,-2,-2,11.935
2388,4,18,-21,-45,-17,-8,-1,0,11.94
2389,5,7,7,31,25,9,3,4,11.945
2390,1,-8,2,-12,-26,-8,-3,-3,11.950000000000001
2391,5,8,-3,8,5,3,0,0,11.955
2392,-5,-11,2,6,-8,-2,-1,-2,11.96
2393,2,-2,-2,-43,-25,-9,-3,-1,11.965
2394,-9,3,4,-38,-1,0,-2,0,11.97
2395,10,5,-6,-4,6,0,0,-1,11.975
2396,1,4,8,4,-6,3,1,0,11.98
2397,-3,9,5,5,1,2,0,0,11.985
2398,2,-14,-5,15,-6,-4,-5,-3,11.99
2399,-7,5,-3,-9,27,3,0,0,11.995000000000001
2400,-2,1,4,40,7,-4,-1,-2,12.0
2401,-3,-2,-2,-19,15,3,-1,-2,12.005
2402,-1,-10,-1,24,20,2,0,1,12.01
2403,1,12,-1,-11,-17,-6,-2,-1,12.015
2404,-2,-2,0,-12,11,5,-1,0,12.02
2405,-1,-9,0,7,-5,-2,-2,-3,12.025
2406,-1,2,1,8,5,1,2,1,12.030000000000001
2407,-4,5,-1,-11,-5,-4,-1,-2,12.035
2408,2,-3,25,-1,-8,1,0,0,12.040000000000001
2409,-3,-9,-49,-4,-3,-3,-2,-1,12.045
2410,0,0,2,2,5,1,0,-2,12.05
2411,-4,1,-5,-17,-2,3,1,1,12.055
2412,-1,-3,10,23,4,-3,-3,-2,12.06
2413,4,6,12,5,11,2,1,0,12.065
2414,-3,-4,6,7,9,-1,1,0,12.07
2415,-3,-4,-15,-11,4,2,-1,-1,12.075000000000001
2416,0,-6,-7,-12,-23,-6,-3,-2,12.08
2417,-1,0,5,2,20,1,-2,-1,12.085
2418,2,4,1,-20,-32,-4,0,-1,12.09
2419,-2,0,11,62,21,-1,1,-2,12.095
2420,0,1,-7,-26,1,2,-1,-1,12.1
2421,-1,-5,-4,-2,-4,-2,0,-1,12.105
2422,1,1,3,8,3,1,0,1,12.11
2423,-1,3,0,-31,-12,-1,1,-1,12.115
2424,-1,-2,-7,-12,-3,-2,0,0,12.120000000000001
2425,-1,-1,5,25,-3,-3,-2,-2,12.125
2426,-2,-1,-5,2,4,0,1,-1,12.13
2427,0,-1,-5,-23,-17,-4,-1,-1,12.135
2428,0,-2,-3,-12,4,2,1,1,12.14
2429,-1,-2,10,20,11,4,3,0,12.145
2430,-1,2,-4,3,8,2,-3,0,12.15
2431,-1,-1,-3,-10,-2,-1,-2,-2,12.155000000000001
2432,-1,-3,3,4,-2,-1,-1,-1,12.16
2433,0,4,5,-9,-11,-4,-1,0,12.165000000000001
2434,0,1,0,3,5,2,-1,0,12.17
2435,-2,-2,-3,2,6,-2,-2,0,12.175
2436,0,1,0,4,-9,1,-2,0,12.18
2437,-3,-1,-2,-6,2,-2,-1,-2,12.185
2438,-1,-2,-2,10,7,-1,1,0,12.19
2439,-1,0,1,-12,-8,-4,-2,-1,12.195
2440,-2,-5,-4,4,-8,-1,-2,-1,12.200000000000001
2441,-2,1,0,-7,0,-1,0,-3,12.205
2442,-1,-6,-6,-10,2,-1,-2,-2,12.21
2443,1,6,4,10,19,4,1,1,12.215
2444,-3,-4,-4,-3,-2,-3,-1,-2,12.22
2445,0,-2,-2,-2,-10,-1,-1,-3,12.225
2446,-1,-3,-3,0,12,-1,-3,-2,12.23
2447,-2,-2,-2,-23,-15,-3,0,-1,12.235
2448,0,2,-1,11,2,-2,-1,-1,12.24
2449,-1,-3,-3,-12,-2,0,-2,0,12.245000000000001
2450,0,1,0,0,6,1,1,1,12.25
2451,-1,0,2,7,-8,-1,-3,-2,12.255
2452,-1,-2,1,-13,6,1,1,0,12.26
2453,1,-1,-3,4,-19,-3,-2,-2,12.265
2454,-1,0,-2,-4,-19,-9,-2,0,12.27
2455,-4,-8,-4,6,12,3,-1,-1,12.275
2456,-1,-1,-3,5,5,-1,1,-1,12.280000000000001
2457,0,-1,1,-28,-13,-3,-2,-2,12.285
2458,1,1,1,26,2,-2,1,0,12.290000000000001
2459,-2,-1,-3,3,-8,-1,-2,-1,12.295
2460,-2,-1,0,30,-22,-6,-2,-1,12.3
2461,-3,-2,-2,-35,20,0,-2,0,12.305
2462,0,-1,1,17,16,8,2,1,12.31
2463,2,-1,-1,7,10,-1,-1,-2,12.315
2464,-1,-1,-1,3,-4,-4,-1,0,12.32
2465,2,1,1,16,-8,-5,-1,1,12.325000000000001
2466,-2,0,0,-2,-8,-3,-1,-1,12.33
2467,0,0,0,-4,15,2,-1,1,12.335
2468,1,0,-1,-10,-5,0,0,1,12.34
2469,-3,1,3,11,6,1,-2,-2,12.345
2470,-1,-2,-5,-14,-10,-3,-2,-3,12.35
2471,1,-3,-2,-8,-23,-3,0,-1,12.355
2472,-1,-1,-4,-15,9,0,1,-1,12.36
2473,-1,-4,-3,17,-10,-1,-1,0,12.365
2474,1,3,2,4,5,2,0,0,12.370000000000001
2475,-3,-1,0,-11,-15,-4,-3,-1,12.375
2476,-1,-1,-3,3,-7,-1,-2,-1,12.38
2477,-1,-3,-2,4,39,9,1,0,12.385
2478,-2,-2,-2,-29,-18,-6,-3,-1,12.39
2479,1,8,3,22,17,4,2,1,12.395
2480,2,1,1,-11,-13,-3,-1,-1,12.4
2481,-1,0,-2,9,8,0,0,-1,12.405000000000001
2482,-1,-10,-1,-4,-1,-2,-1,-2,12.41
2483,-1,-10,-1,-8,3,0,0,0,12.415000000000001
2484,-2,4,2,19,7,-3,-1,-1,12.42
2485,1,3,-1,-20,-13,3,-1,0,12.425
2486,-1,4,0,22,16,2,-2,-2,12.43
2487,1,2,0,7,-8,-5,0,-1,12.435
2488,0,-2,0,1,-4,2,-1,-2,12.44
2489,1,1,4,1,-17,-2,0,1,12.445
2490,-2,-4,-6,-1,7,2,0,-1,12.450000000000001
2491,-2,-1,-1,-6,-14,-2,-1,-1,12.455
2492,-2,-3,0,0,6,0,0,-2,12.46
2493,2,2,-1,-13,-9,-3,-1,0,12.465
2494,-1,-1,0,2,2,1,0,-1,12.47
2495,-1,-2,-2,-1,-8,-5,-2,-3,12.475
2496,2,1,1,10,-5,-2,1,0,12.48
2497,-1,-1,-3,4,6,-2,0,-2,12.485
2498,0,1,5,-8,1,2,0,0,12.49
2499,-3,-1,-3,18,9,2,-1,0,12.495000000000001
2500,0,-2,-1,-20,-16,-2,-3,-2,12.5
2501,-2,-5,-4,11,6,-3,-2,-2,12.505
2502,0,-1,-1,-4,-5,-1,-2,0,12.51
2503,2,3,1,-24,-3,-1,0,-1,12.515
2504,-1,1,-2,-2,-3,1,-2,0,12.52
2505,-1,-3,2,-14,-20,-6,-1,0,12.525
2506,0,1,-1,-7,16,3,-1,0,12.530000000000001
2507,0,-2,-2,34,6,0,0,1,12.535
2508,0,0,-4,-3,27,0,-2,-2,12.540000000000001
2509,-1,-1,0,-8,-17,1,-1,1,12.545
2510,-2,-1,-2,-7,-14,0,-2,-1,12.55
2511,-1,-1,-4,-4,-3,-4,-2,-2,12.555
2512,-2,0,3,-3,9,1,1,1,12.56
2513,-2,-2,-3,14,-2,-3,-1,0,12.565
2514,-2,0,-2,-11,-7,-2,1,0,12.57
2515,-1,-4,-3,-7,-2,-2,-2,-1,12.575000000000001
2516,-1,-3,-2,-6,10,1,-1,-1,12.58
2517,-2,1,1,-7,4,1,0,-1,12.585
2518,-1,-2,0,12,-16,-5,-1,-2,12.59
2519,1,0,2,6,11,0,-1,1,12.595
2520,-1,-1,0,-1,-7,2,-2,0,12.6
2521,-1,-1,-2,43,-6,-4,-1,-3,12.605
2522,-3,-1,-4,-87,3,0,-2,-2,12.61
2523,1,0,1,-7,-13,-1,0,0,12.615
2524,0,1,2,8,11,2,2,1,12.620000000000001
2525,-1,0,-1,-33,-13,-3,-1,0,12.625
2526,-1,1,-1,38,-8,-7,-3,-1,12.63
2527,-3,-5,-1,-1,9,5,-2,-1,12.635
2528,-1,-1,-3,-14,-6,-1,-2,0,12.64
2529,0,-1,0,-9,0,-2,-2,-1,12.645
2530,-1,-1,-1,13,-4,-1,0,-1,12.65
2531,-1,2,1,-11,-12,-2,-2,-1,12.655000000000001
2532,-2,-2,0,5,6,0,-1,-1,12.66
2533,-1,-1,-3,2,6,1,-1,-2,12.665000000000001
2534,-1,0,1,-1,-4,0,-2,0,12.67
2535,-2,-4,-7,-6,-14,-3,-1,-1,12.675
2536,-1,0,1,4,6,0,1,0,12.68
2537,-1,0,-2,-4,-3,-2,-1,-1,12.685
2538,0,0,-2,6,-3,-1,-1,0,12.69
2539,0,4,3,-5,-2,-3,-1,-1,12.695
2540,-2,-5,-7,-3,-6,-3,-2,-1,12.700000000000001
2541,0,-1,1,32,10,1,0,-1,12.705
2542,1,1,0,22,3,-1,0,-1,12.71
2543,0,0,1,-16,-16,-2,-2,0,12.715
2544,-1,-2,0,5,18,3,-1,-2,12.72
2545,-3,0,-2,-17,-2,-2,0,-1,12.725
2546,1,-2,0,23,-7,1,1,1,12.73
2547,1,-2,0,-1,23,6,1,-2,12.735
2548,0,1,0,2,4,-2,0,0,12.74
2549,-1,-3,-1,-5,-2,0,-2,-1,12.745000000000001
2550,0,2,1,-8,2,1,1,1,12.75
2551,-1,-1,-2,1,4,-1,0,-1,12.755
2552,-2,0,0,10,-4,0,-1,-1,12.76
2553,0,0,-2,-5,9,3,1,0,12.765
2554,-3,-2,-1,-8,-10,-4,-2,-1,12.77
2555,0,-6,-2,10,-7,-2,-1,-2,12.775
2556,2,2,-1,-11,-2,-1,1,-1,12.780000000000001
2557,-1,0,0,-5,-13,-4,0,-1,12.785
2558,-1,1,0,-4,11,3,-1,-1,12.790000000000001
2559,-2,1,0,-9,-2,-1,0,-2,12.795
2560,0,-2,-2,13,-8,-2,0,-2,12.8
2561,0,-2,0,-9,16,0,-1,-1,12.805
2562,1,0,-1,0,5,-2,0,0,12.81
2563,-2,0,-2,17,-7,-2,-2,1,12.815
2564,-2,-1,1,16,-5,-3,-2,-1,12.82
2565,0,0,-2,-1,-7,0,2,0,12.825000000000001
2566,-2,-2,1,-9,3,0,1,-1,12.83
2567,1,1,-2,-8,-2,-4,0,1,12.835
2568,-2,-2,1,-22,-16,-3,-3,-2,12.84
2569,-1,-2,-2,15,2,0,0,0,12.845
2570,0,-3,-2,-2,2,-1,-1,-1,12.85
2571,-1,2,2,-13,-2,-1,2,1,12.855
2572,-1,-3,-3,-2,-4,-3,-1,-2,12.86
2573,0,-2,-2,-6,-12,-5,-2,0,12.865
2574,1,2,2,6,19,4,1,-2,12.870000000000001
2575,-1,-4,-5,-1,1,-1,0,-1,12.875
2576,0,0,1,1,2,-1,-1,0,12.88
2577,-2,-4,-1,-6,-7,-1,-2,-1,12.885
2578,-1,-2,-5,-1,-5,-2,0,0,12.89
2579,-1,0,1,9,16,-1,-2,-1,12.895
2580,0,3,4,0,-3,-1,-1,0,12.9
2581,1,-2,0,1,-12,-1,-2,-1,12.905000000000001
2582,-1,-3,-3,-27,-2,4,-2,0,12.91
2583,-1,1,0,-1,-5,-3,-1,-1,12.915000000000001
2584,-1,1,1,0,-4,-2,0,0,12.92
2585,0,0,-2,-15,-3,1,0,1,12.925
2586,-2,0,-1,75,-2,-3,-1,-2,12.93
2587,0,-3,-3,-19,33,6,0,-2,12.935
2588,0,1,-3,-9,-5,0,-1,-1,12.94
2589,-2,-1,-1,1,-2,-3,-2,-1,12.945
2590,0,0,0,-16,-4,0,1,0,12.950000000000001
2591,0,-1,1,1,-13,-2,-2,-1,12.955
2592,0,-1,0,15,10,1,0,0,12.96
2593,-2,-2,-3,-8,2,-1,-1,-3,12.965
2594,-1,-1,-1,-4,-24,-5,-3,-2,12.97
2595,-1,2,0,21,20,1,-3,1,12.975
2596,0,-1,-1,-26,-6,-2,-1,0,12.98
2597,1,1,-1,6,-2,-3,-2,0,12.985
2598,-2,0,0,-3,1,-1,0,-1,12.99
2599,-2,-2,-2,-2,-10,-1,-1,-1,12.995000000000001
2600,-1,-2,0,2,-9,-2,1,-1,13.0
2601,-1,1,2,7,18,3,-1,-2,13.005
2602,-2,-2,-3,-22,5,0,1,-2,13.01
2603,0,-2,-3,10,1,-5,0,-2,13.015
2604,-1,0,-1,-6,1,2,0,0,13.02
2605,-1,1,2,-1,-16,-1,0,0,13.025
2606,0,-1,0,-1,14,3,-1,2,13.030000000000001
2607,-1,-3,-2,11,-6,-2,0,0,13.035
2608,0,-1,-1,0,6,0,0,-1,13.040000000000001
2609,1,1,-2,-19,-25,0,-2,-1,13.045
2610,-1,0,-1,15,17,-1,-1,-3,13.05
2611,0,1,0,-10,-11,-1,-2,0,13.055
2612,-1,-2,-2,7,-5,-1,-1,-1,13.06
2613,-2,-1,-2,-11,1,-1,0,0,13.065
2614,0,-1,-1,-6,-6,-4,-3,-2,13.07
2615,0,2,2,-1,-3,2,2,0,13.075000000000001
2616,-1,-2,-3,-12,-7,-3,-3,-2,13.08
2617,-1,-3,0,4,4,1,-1,-2,13.085
2618,-2,-2,-1,6,5,-2,-3,-1,13.09
2619,-1,-3,-3,-7,1,-3,1,-1,13.095
2620,1,-1,1,1,9,2,0,1,13.1
2621,0,-1,-3,-3,4,0,-1,1,13.105
2622,-1,0,0,12,-2,-2,-1,0,13.11
2623,1,-1,-3,-10,-5,0,-1,-2,13.115
2624,-3,-2,-2,-24,-4,-3,-1,-1,13.120000000000001
2625,-1,-2,-2,34,16,4,2,-2,13.125
2626,1,-1,0,-17,-26,-4,0,-1,13.13
2627,-1,0,1,9,25,4,1,-1,13.135
2628,-3,-1,-3,0,4,1,1,0,13.14
2629,-1,0,-1,-3,-9,0,-1,0,13.145
2630,-2,1,0,1,16,2,1,-1,13.15
2631,-1,-1,3,11,-22,-4,-1,-1,13.155000000000001
2632,-2,-1,0,1,19,5,0,-3,13.16
2633,-2,-1,1,-8,0,-3,0,-2,13.165000000000001
2634,-2,-4,-4,1,-9,-4,-1,-2,13.17
2635,0,-1,-1,-12,-9,0,-1,-1,13.175
2636,-1,-1,0,-13,-6,-2,-2,-1,13.18
2637,-1,-1,-2,14,0,1,0,0,13.185
2638,0,-2,0,-4,3,1,-2,-1,13.19
2639,-1,0,-1,-1,-1,-1,-1,-1,13.195
2640,-1,-2,-3,-5,-7,-5,-1,-2,13.200000000000001
2641,0,-2,-1,-7,2,1,1,-1,13.205
2642,1,0,0,-5,-6,0,0,2,13.21
2643,-1,1,0,-10,-7,-5,-2,-1,13.215
2644,2,2,-1,15,-3,-2,-1,-1,13.22
2645,1,-2,-1,3,-8,-4,-2,-2,13.225
2646,-1,-2,-3,-12,3,-2,-2,-2,13.23
2647,-1,-2,1,3,-1,2,-1,-1,13.235
2648,0,1,1,10,5,1,1,1,13.24
2649,-1,2,0,7,8,0,0,2,13.245000000000001
2650,-1,-1,-2,-18,-19,-2,0,0,13.25
2651,-1,-1,-1,-4,2,1,-2,-1,13.255
2652,0,2,2,6,-3,-3,-1,-1,13.26
2653,-1,-1,-2,-16,-10,-3,0,0,13.265
2654,1,2,3,8,-4,-1,2,-1,13.27
2655,-2,-4,-3,-4,-10,-4,-1,-2,13.275
2656,1,-1,-5,8,0,0,-1,0,13.280000000000001
2657,-1,-2,0,-25,5,-2,0,-1,13.285
2658,0,-3,-1,14,1,2,0,0,13.290000000000001
2659,-1,-1,-1,1,2,1,1,0,13.295
2660,-1,1,0,-2,-10,-3,-1,0,13.3
2661,0,-3,0,6,5,0,-1,-1,13.305
2662,-2,-3,-4,-3,2,-2,-1,-2,13.31
2663,-1,-1,-1,-4,-4,-2,-2,-2,13.315
2664,-2,-2,2,-5,-12,-3,-1,-1,13.32
2665,2,3,-1,2,8,2,1,-1,13.325000000000001
2666,-3,-3,-1,-4,-1,-3,-1,-3,13.33
2667,0,1,-3,13,6,2,0,-2,13.335
2668,-3,-2,-1,-9,-13,-3,0,2,13.34
2669,-2,2,1,16,-3,1,-1,0,13.345
2670,0,-1,-4,2,5,-1,-1,-2,13.35
2671,-1,1,0,-15,-12,-3,0,0,13.355
2672,-2,-2,-3,4,4,0,0,-2,13.36
2673,-2,-3,0,5,3,-1,-1,-1,13.365
2674,0,2,2,-5,5,2,1,3,13.370000000000001
2675,-2,0,2,-2,-4,-2,-2,0,13.375
2676,0,-3,-1,3,1,3,1,0,13.38
2677,0,-3,-2,-5,0,-4,-2,1,13.385
2678,-1,2,2,-1,-8,-1,-3,-1,13.39
2679,0,-1,-2,-4,-13,-1,-1,1,13.395
2680,0,-1,-1,3,19,2,-1,-1,13.4
2681,-2,-1,-2,-4,-6,-2,-1,-1,13.405000000000001
2682,-3,-3,-3,1,-1,-3,-1,-1,13.41
2683,-1,-1,0,-12,-2,-1,1,0,13.415000000000001
2684,1,0,-1,-1,-5,-2,1,-1,13.42
2685,-3,-3,0,-1,1,0,-2,0,13.425
2686,0,-1,-2,2,-1,0,0,-1,13.43
2687,2,0,0,-1,2,-2,-1,-1,13.435
2688,-1,-2,0,-7,-3,-1,-1,-2,13.44
2689,0,2,0,-2,6,0,0,-1,13.445
2690,-1,-1,1,6,-18,-5,-1,1,13.450000000000001
2691,-2,-1,-1,0,27,6,0,-1,13.455
2692,-3,-2,-5,-21,7,0,-2,-3,13.46
2693,0,1,-1,9,-5,1,0,0,13.465
2694,-2,-3,-1,-5,4,-2,-1,-1,13.47
2695,-1,-2,0,12,5,0,0,-2,13.475
2696,-1,1,1,-1,-8,-2,0,1,13.48
2697,-1,2,-1,-1,4,1,0,-1,13.485
2698,-1,-3,-2,-8,1,0,-1,-3,13.49
2699,0,0,-1,-5,-26,-7,-2,1,13.495000000000001
2700,0,2,2,9,19,6,1,0,13.5
2701,-1,-3,-2,-2,6,0,0,-1,13.505
2702,-1,-3,-1,6,-1,-4,-1,0,13.51
2703,0,-1,-2,-10,-2,1,1,-1,13.515
2704,1,-1,1,0,-25,-4,0,-1,13.52
2705,-2,-1,1,15,27,1,0,-1,13.525
2706,-1,1,-2,-11,-2,1,1,0,13.530000000000001
2707,-1,-3,-2,2,3,-2,-2,-1,13.535
2708,-2,-3,-3,0,-7,-2,-2,-1,13.540000000000001
2709,0,-2,-1,-11,-4,-2,0,-2,13.545
2710,1,-1,-1,-9,-6,0,0,1,13.55
2711,0,0,0,-3,-1,-1,-1,-1,13.555
2712,0,2,1,11,2,0,0,2,13.56
2713,-1,-1,-3,-2,-18,-3,-3,-2,13.565
2714,0,1,-1,2,6,2,1,0,13.57
2715,-2,-1,-2,-10,-3,-1,-1,-2,13.575000000000001
2716,-1,0,-2,4,1,-4,-1,-1,13.58
2717,0,0,-1,-3,3,2,2,0,13.585
2718,0,0,0,-3,-10,-1,-1,0,13.59
2719,0,-1,0,7,14,0,0,-1,13.595
2720,-2,-2,-1,-7,-4,-2,-1,0,13.6
2721,0,-1,0,5,-7,-3,0,-1,13.605
2722,-1,-1,-2,0,-6,1,-1,-1,13.61
2723,-2,-2,0,-9,1,1,0,-1,13.615
2724,-1,-1,-3,7,4,1,-3,-1,13.620000000000001
2725,-1,-1,0,-6,-8,-2,-2,0,13.625
2726,-2,-2,-3,4,4,-3,-1,-3,13.63
2727,-1,-2,-5,-7,0,-3,-3,-2,13.635
2728,0,0,1,-3,3,1,1,0,13.64
2729,-1,2,-1,-2,-4,-1,-1,0,13.645
2730,-2,0,2,8,-3,0,-1,-1,13.65
2731,-2,0,0,4,3,-1,-1,0,13.655000000000001
2732,1,-1,0,-5,-9,-2,0,-1,13.66
2733,0,-2,-3,-3,1,-2,-2,-1,13.665000000000001
2734,1,2,1,-1,-1,-5,-1,-1,13.67
2735,0,0,-1,-5,-11,-1,-2,0,13.675
2736,-2,-2,-2,3,2,-1,-1,0,13.68
2737,-1,-3,-3,-9,-6,-4,-1,-1,13.685
2738,-1,0,-1,-10,7,1,1,1,13.69
2739,0,-1,0,37,2,1,-1,-1,13.695
2740,-1,4,2,-4,3,0,1,0,13.700000000000001
2741,-3,-5,-2,3,-13,-1,-1,-3,13.705
2742,-1,-1,-5,-12,6,-2,0,-1,13.71
2743,-1,0,-1,0,10,1,0,0,13.715
2744,0,0,-1,-4,0,0,0,1,13.72
2745,0,2,1,7,3,0,1,0,13.725
2746,1,-1,3,-3,-12,-2,-2,-1,13.73
2747,0,1,0,-7,-6,-1,2,0,13.735
2748,0,-4,-2,4,8,-2,-4,-2,13.74
2749,1,-1,-4,-18,-20,-3,-1,0,13.745000000000001
2750,-3,-6,-4,9,7,1,0,1,13.75
2751,0,0,0,-3,1,-2,-1,0,13.755
2752,-2,-1,-1,5,2,0,-1,-1,13.76
2753,-3,-2,-1,6,9,0,-1,-1,13.765
2754,-1,0,-3,-3,-3,2,-1,0,13.77
2755,1,0,0,-2,-7,0,-1,-2,13.775
2756,-2,0,-1,-3,-1,-1,-1,0,13.780000000000001
2757,-1,1,3,5,-1,1,-2,0,13.785
2758,-1,1,0,-26,8,1,-1,-2,13.790000000000001
2759,1,-2,2,22,0,1,-1,-1,13.795
2760,-1,-3,-2,-1,-4,-3,0,-1,13.8
2761,-1,-2,1,15,14,3,1,-1,13.805
2762,1,1,4,13,2,-1,0,0,13.81
2763,-1,-1,-5,-17,-5,-3,0,0,13.815
2764,0,-1,1,1,-3,-1,0,-1,13.82
2765,0,-1,-2,-6,-2,-2,0,0,13.825000000000001
2766,-1,1,0,1,-1,-2,0,-2,13.83
2767,-1,-2,0,9,4,0,-1,0,13.835
2768,0,-1,-2,-1,-4,-2,-1,-1,13.84
2769,-1,0,-3,-5,12,1,-2,0,13.845
2770,-2,-2,-3,3,-1,2,-1,-1,13.85
2771,-2,-2,-1,-10,-5,-4,-1,-2,13.855
2772,-2,0,0,-13,-8,-1,-2,-2,13.86
2773,-2,0,-1,13,10,2,2,-1,13.865
2774,0,-2,-2,2,-11,-2,0,0,13.870000000000001
2775,-1,1,-2,-4,9,2,-1,-1,13.875
2776,-3,-4,-3,-2,-1,-1,-1,-1,13.88
2777,0,1,2,-9,-7,-1,-1,-2,13.885
2778,0,1,-2,14,3,0,-1,-1,13.89
2779,-1,1,2,-6,-5,-3,-1,-1,13.895
2780,0,1,0,17,-17,-3,-1,0,13.9
2781,-1,1,-1,-46,5,4,-1,1,13.905000000000001
2782,-1,-3,-2,25,12,-1,0,-1,13.91
2783,-2,-2,-1,-2,1,0,-1,-2,13.915000000000001
2784,1,2,0,8,-1,2,0,0,13.92
2785,0,-1,0,-5,-10,-5,-2,1,13.925
2786,-1,-1,-1,-16,-6,-2,-2,-1,13.93
2787,-2,-2,-2,0,-6,-1,-2,0,13.935
2788,-1,-1,0,-7,8,0,0,0,13.94
2789,-2,-1,-1,5,-5,-2,0,-2,13.945
2790,-2,0,1,3,-8,-3,-1,0,13.950000000000001
2791,0,-1,-4,-1,-5,-2,0,0,13.955
2792,0,-1,4,-2,2,-1,-2,0,13.96
2793,-3,-3,-3,-2,-12,-4,-1,-1,13.965
2794,-4,-1,-2,-6,4,-1,0,-1,13.97
2795,-2,-1,2,21,3,-1,0,1,13.975
2796,-2,0,-5,-6,3,2,0,0,13.98
2797,0,0,1,5,-8,-3,-1,-1,13.985
2798,-1,-2,-1,-11,0,0,-3,-2,13.99
2799,0,-1,1,0,4,0,-3,-1,13.995000000000001
2800,-1,0,-3,-10,-5,2,1,0,14.0
2801,-2,-2,-1,14,8,1,0,-1,14.005
2802,2,1,0,-3,9,0,0,-1,14.01
2803,0,-2,-2,-4,-3,-2,-1,-1,14.015
2804,0,-2,0,5,2,-1,-1,-1,14.02
2805,-1,-4,-2,2,0,-1,0,-2,14.025
2806,0,1,0,-20,-3,-1,-1,-1,14.030000000000001
2807,-1,-1,0,11,-3,-1,-2,0,14.035
2808,-3,0,3,-2,-2,-2,-2,-2,14.040000000000001
2809,1,-1,-3,2,2,-1,-2,-1,14.045
2810,-1,-3,-2,-1,-4,-1,-1,0,14.05
2811,-1,-2,-2,-8,-1,-1,-2,-2,14.055
2812,1,-4,-3,-4,-3,-1,-1,-1,14.06
2813,0,2,1,-3,5,-1,0,0,14.065
2814,0,-1,-2,9,1,0,1,-2,14.07
2815,0,-1,1,-4,-1,-1,-2,-1,14.075000000000001
2816,-2,-4,-3,11,16,4,-1,-1,14.08
2817,1,0,-2,-7,-7,-1,0,-1,14.085
2818,-2,-1,-1,-1,-1,-1,-1,-2,14.09
2819,0,2,1,-6,-1,1,2,0,14.095
2820,-1,-1,-3,-13,-10,-3,-2,-2,14.1
2821,1,1,1,9,6,1,-1,0,14.105
2822,-1,-3,-4,-5,-4,0,0,0,14.11
2823,-1,-1,0,2,-5,-1,0,-1,14.115
2824,0,1,0,-2,-3,-3,-1,0,14.120000000000001
2825,-2,-3,-3,-5,-6,-2,-1,-3,14.125
2826,-2,-1,-1,-9,-9,-3,-2,-2,14.13
2827,-1,-1,-4,-11,-4,0,1,-1,14.135
2828,-2,0,-3,16,13,0,0,-1,14.14
2829,0,-1,0,4,-12,-5,-3,0,14.145
2830,-1,2,1,-7,6,2,0,0,14.15
2831,0,-1,3,-5,-6,-2,-2,0,14.155000000000001
2832,-1,-1,-3,-3,4,-1,-2,-2,14.16
2833,-1,-1,2,5,-7,-2,-2,0,14.165000000000001
2834,1,1,2,2,-9,-4,-1,-1,14.17
2835,-1,-2,-4,3,10,4,0,-1,14.175
2836,-1,-1,-1,-24,-5,-1,-1,-2,14.18
2837,-1,0,-2,21,10,0,-1,0,14.185
2838,-2,-3,0,9,-3,-2,-2,-1,14.19
2839,-2,3,0,-1,8,0,-1,-1,14.195
2840,0,-2,2,-8,-10,-4,1,-3,14.200000000000001
2841,-3,-2,-2,-12,3,3,1,-1,14.205
2842,0,-3,-3,5,-1,0,0,-2,14.21
2843,-2,-1,-2,-2,-7,-5,-2,-2,14.215
2844,0,1,-1,4,3,0,-1,2,14.22
2845,0,1,0,-2,0,-2,-1,-2,14.225
2846,-1,1,2,-6,-3,-2,0,-1,14.23
2847,0,0,-3,19,3,1,-1,-1,14.235
2848,0,1,0,-2,-7,-2,-1,0,14.24
2849,-1,-3,-3,4,4,0,-1,-1,14.245000000000001
2850,0,-1,-2,-4,0,3,-1,0,14.25
2851,-2,-2,-3,-10,-8,0,-1,-1,14.255
2852,0,-2,-1,5,3,0,-2,0,14.26
2853,0,0,-1,-1,0,-1,0,0,14.265
2854,-2,-2,0,6,1,0,-3,-1,14.27
2855,-1,-1,-3,-22,-9,-2,-2,-2,14.275
2856,0,3,1,6,2,2,3,0,14.280000000000001
2857,-1,-5,-2,-6,-13,-4,-2,1,14.285
2858,0,-1,-1,16,12,6,2,-1,14.290000000000001
2859,0,1,-1,-8,-2,-2,1,1,14.295
2860,-4,-4,-2,2,4,-3,-2,-2,14.3
2861,0,2,2,-1,3,5,1,-3,14.305
2862,-1,-3,-3,-11,-7,-4,-1,0,14.31
2863,-2,-4,-2,-2,-2,0,-2,0,14.315
2864,0,1,1,3,-3,-1,-2,-1,14.32
2865,-1,-1,-1,-11,-1,-3,-2,-2,14.325000000000001
2866,1,0,1,5,1,0,-1,0,14.33
2867,-2,-2,1,2,6,0,0,0,14.335
2868,-2,-4,-1,-1,-5,-5,-2,0,14.34
2869,0,3,0,0,-5,2,1,0,14.345
2870,-1,-2,-1,4,2,0,1,-1,14.35
2871,0,0,-3,-1,-2,-1,-1,-1,14.355
2872,-1,1,-1,1,-4,-3,-1,-1,14.36
2873,-4,-6,-7,-12,0,-1,-3,-1,14.365
2874,-2,1,-1,1,1,-3,-1,1,14.370000000000001
2875,-1,0,1,-5,-5,0,0,-1,14.375
2876,-1,0,1,17,6,1,-1,-3,14.38
2877,1,1,2,1,-2,1,1,-1,14.385
2878,0,0,0,-7,11,-1,-1,0,14.39
2879,-1,-2,0,10,10,1,2,-1,14.395
2880,0,-2,-1,-4,-4,1,0,-1,14.4
2881,0,1,0,-21,-3,-2,0,0,14.405000000000001
2882,-2,0,-1,29,1,-3,-1,-3,14.41
2883,1,2,1,-8,-5,-1,-1,-1,14.415000000000001
2884,-2,-5,-4,-5,-2,0,0,0,14.42
2885,0,0,0,6,4,-1,0,0,14.425
2886,-1,-2,0,-16,-12,-1,-1,0,14.43
2887,-3,-3,-1,6,-20,-5,-2,-3,14.435
2888,1,0,-2,-3,29,4,1,-1,14.44
2889,-1,-2,-2,5,-5,-3,-3,0,14.445
2890,-2,1,0,-25,-7,-1,-1,0,14.450000000000001
2891,-2,-1,1,39,9,2,0,0,14.455
2892,-1,0,0,-4,-9,-1,0,-2,14.46
2893,-1,-1,-2,-8,-2,-2,-1,0,14.465
2894,0,0,-1,-23,-10,-1,0,-1,14.47
2895,-1,-2,-2,3,6,-3,-1,-1,14.475
2896,-2,-1,-1,-4,-8,-2,-1,0,14.48
2897,-1,0,3,19,7,2,0,0,14.485
2898,-2,-3,-1,2,2,-1,-2,-1,14.49
2899,0,-2,-2,-13,-3,0,-1,-2,14.495000000000001
2900,-1,-1,0,1,-1,-3,-3,-2,14.5
2901,0,0,-2,-11,-6,-2,0,-1,14.505
2902,-1,-2,0,20,12,3,0,-1,14.51
2903,-1,-1,-1,-12,-14,-2,0,0,14.515
2904,-3,-1,-3,5,17,3,0,-2,14.52
2905,0,0,-1,-7,-1,1,0,-1,14.525
2906,-1,-1,-2,21,-1,-3,-2,0,14.530000000000001
2907,1,0,0,-7,-3,-2,-2,1,14.535
2908,1,0,2,-4,-10,-3,0,3,14.540000000000001
2909,-1,-1,1,8,6,-1,-1,-1,14.545
2910,-1,-1,-4,-6,-7,0,-1,-2,14.55
2911,-2,2,0,-25,-2,-2,-1,-1,14.555
2912,1,-2,-3,26,1,2,0,1,14.56
2913,-2,-2,-2,-6,8,-1,-1,-2,14.565
2914,-1,-2,-4,-11,-3,-2,-1,0,14.57
2915,-1,-2,0,3,-2,0,-1,1,14.575000000000001
2916,-1,-2,-3,-20,1,0,-2,-1,14.58
2917,0,2,2,5,-21,-4,-1,0,14.585
2918,0,4,1,-7,-1,2,0,0,14.59
2919,-1,-4,-4,9,6,0,-1,-1,14.595
2920,-1,-1,-3,-5,-5,-4,-2,-2,14.6
2921,2,1,4,8,-7,0,1,0,14.605
2922,-1,-2,-1,-7,-5,-5,-4,0,14.61
2923,0,3,0,-6,3,2,-3,1,14.615
2924,-2,-2,-2,-2,-9,-3,0,-2,14.620000000000001
2925,-1,0,1,-6,5,0,-1,-1,14.625
2926,-2,0,1,4,0,0,0,0,14.63
2927,-2,-3,0,-12,-1,-2,-1,-2,14.635
2928,0,0,-1,5,-2,2,0,0,14.64
2929,-3,-4,-4,1,-3,-3,-3,-3,14.645
2930,1,0,1,7,-1,2,1,-1,14.65
2931,1,0,-1,-28,-5,-1,0,-1,14.655000000000001
2932,0,-1,2,17,5,-1,-2,0,14.66
2933,-1,-1,-1,-5,8,0,0,0,14.665000000000001
2934,0,0,0,3,1,-1,1,-1,14.67
2935,0,0,-2,-2,1,2,-1,0,14.675
2936,-1,-1,0,-8,-6,-1,-1,-1,14.68
2937,-1,0,-1,3,0,-1,-1,0,14.685
2938,-1,-2,-1,3,4,0,-1,-2,14.69
2939,0,-1,-1,6,0,0,1,-1,14.695
2940,-1,1,-1,-10,-8,-1,1,0,14.700000000000001
2941,0,-1,-2,12,5,-1,0,-1,14.705
2942,-1,1,1,-9,-4,-1,0,1,14.71
2943,-3,0,-1,8,-10,-3,-2,0,14.715
2944,-1,-2,1,-6,8,1,-2,0,14.72
2945,-1,0,0,-4,6,0,-2,-3,14.725
2946,1,0,1,4,-13,-1,0,-2,14.73
2947,-1,-2,-1,2,6,0,-2,-2,14.735
2948,1,-1,-1,-5,-2,0,-1,-2,14.74
2949,-1,-3,-1,-4,-11,-4,1,-1,14.745000000000001
2950,0,-2,-4,-2,0,-2,-1,-2,14.75
2951,1,-1,2,-25,-3,-2,-1,0,14.755
2952,-1,-1,-3,40,8,-1,-3,-1,14.76
2953,-2,-2,-1,6,-4,0,-3,1,14.765
2954,-1,-3,-3,-3,0,-3,-1,-2,14.77
2955,0,2,3,-2,2,-1,2,-1,14.775
2956,-1,-2,-2,-12,-7,-2,-2,-1,14.780000000000001
2957,0,-2,0,-13,-5,0,-1,-1,14.785
2958,-2,0,-1,10,7,1,0,-1,14.790000000000001
2959,-1,0,-1,9,2,0,1,-1,14.795
2960,-1,0,-1,-11,1,-1,-2,-2,14.8
2961,0,-2,-3,11,-3,-2,-2,0,14.805
2962,-2,-1,-4,-25,-1,1,-1,-1,14.81
2963,-1,-2,-1,10,3,-2,-1,-2,14.815
2964,1,0,1,-4,-4,1,0,0,14.82
2965,-1,0,-2,-6,3,0,0,-1,14.825000000000001
2966,-1,0,0,4,-2,-1,-2,-1,14.83
2967,-2,-2,-4,9,-13,-6,-3,-1,14.835
2968,-2,0,1,-5,12,4,0,-1,14.84
2969,-1,-1,-1,-2,-2,-1,-2,-1,14.845
2970,1,1,1,2,-5,-2,1,0,14.85
2971,0,2,0,5,0,0,-3,0,14.855
2972,-2,-3,-2,-9,-12,-4,-3,-1,14.86
2973,0,0,-2,-8,0,-1,0,-1,14.865
2974,0,1,0,20,-5,-3,-3,-2,14.870000000000001
2975,-1,-2,-1,2,5,3,-2,0,14.875
2976,-1,0,0,-13,-13,-4,-1,-1,14.88
2977,-1,0,-1,4,7,0,-1,-1,14.885
2978,-2,-3,-4,-4,-1,-1,-1,-1,14.89
2979,0,1,1,-6,1,0,-1,0,14.895
2980,-1,-4,-2,18,-5,-1,-2,-1,14.9
2981,-1,-3,-2,-3,-2,-2,-1,-1,14.905000000000001
2982,0,1,2,0,4,-2,-1,0,14.91
2983,-1,-1,-5,4,1,2,0,0,14.915000000000001
2984,-1,-3,-1,-15,-4,-1,0,-1,14.92
2985,1,1,1,5,1,1,2,-1,14.925
2986,-2,-3,1,6,-1,-1,-2,-2,14.93
2987,-1,0,-1,-11,-3,0,1,-2,14.935
2988,1,3,-1,-7,3,-1,1,-2,14.94
2989,-2,-2,-1,4,-3,-1,-1,-1,14.945
2990,1,-1,-1,3,3,3,1,-1,14.950000000000001
2991,-2,1,6,6,-8,0,-1,-2,14.955
2992,1,0,-1,-6,10,4,1,1,14.96
2993,0,-4,-2,0,4,-1,-1,-1,14.965
2994,-1,0,-4,-13,-7,-2,-1,1,14.97
2995,1,0,0,10,4,1,0,0,14.975
2996,-4,-5,-4,-7,-9,-3,-1,-1,14.98
2997,-2,1,-1,15,0,-1,-4,0,14.985
2998,-2,0,1,8,11,1,0,-1,14.99
2999,0,-4,-4,-3,1,-1,-1,-2,14.995000000000001
3000,0,1,1,8,4,-4,-1,-1,15.0
3001,0,0,-1,-17,-13,1,1,1,15.005
3002,-1,-4,-1,-8,-5,0,-1,-1,15.01
3003,0,2,1,10,13,1,0,2,15.015
3004,-1,-2,-2,-4,-11,0,-2,-2,15.02
3005,-3,1,0,-13,12,0,0,-1,15.025
3006,-2,-1,0,18,-7,-2,-1,-2,15.030000000000001
3007,-1,-3,0,13,3,-2,0,0,15.035
3008,2,0,1,-9,-8,3,3,2,15.040000000000001
3009,1,0,1,-3,1,0,-2,0,15.045
3010,-1,0,1,11,-1,0,-2,-2,15.05
3011,-1,-1,-3,-10,1,-1,1,-1,15.055
3012,-3,-3,0,8,4,-4,-3,-1,15.06
3013,2,0,1,0,-9,-1,0,-1,15.065
3014,0,-2,-4,-14,7,2,0,-2,15.07
3015,-1,0,0,-3,-10,-1,-2,-1,15.075000000000001
3016,0,1,1,1,2,0,0,-1,15.08
3017,-1,-3,-2,-1,4,-2,-2,-1,15.085
3018,0,0,0,1,-4,-3,-2,0,15.09
3019,-1,-1,-2,-6,-1,-1,3,0,15.095
3020,0,1,0,3,3,0,-1,-1,15.1
3021,-1,0,-3,1,-7,-4,-2,0,15.105
3022,1,-1,-3,-5,7,2,0,-1,15.11
3023,-1,-2,-3,-2,-3,-2,-4,-1,15.115
3024,-1,-1,3,4,-5,-2,0,0,15.120000000000001
3025,0,-2,0,-1,5,1,0,-2,15.125
3026,0,-1,-2,-11,-3,-2,-2,-1,15.13
3027,-2,0,1,-2,-1,0,-2,-3,15.135
3028,0,0,0,-5,-1,-1,1,0,15.14
3029,-2,-3,-1,-4,-17,-3,-1,0,15.145
3030,-2,-1,-1,8,24,2,-1,-2,15.15
3031,0,-2,-3,-10,-2,1,-1,0,15.155000000000001
3032,-1,-1,0,8,-2,-2,-2,-1,15.16
3033,0,2,0,-4,-13,-2,-1,-1,15.165000000000001
3034,0,0,0,12,9,2,-1,0,15.17
3035,-3,-3,-2,3,-16,-9,-1,-2,15.175
3036,-1,0,-1,-1,24,5,0,0,15.18
3037,2,0,-1,1,2,3,0,1,15.185
3038,-1,1,-2,-12,-15,-4,-2,1,15.19
3039,-2,0,0,6,1,-1,0,-2,15.195
3040,1,1,0,-8,-11,0,-1,-1,15.200000000000001
3041,-2,-2,-1,9,10,-3,-1,-1,15.205
3042,-4,-5,-2,-7,-1,-2,-3,-3,15.21
3043,-5,-3,0,-6,2,1,-2,-2,15.215
3044,-4,-2,-1,11,-6,-3,-1,-1,15.22
3045,3,3,-1,-11,1,-2,-1,-1,15.225
3046,16,9,1,-7,2,-2,1,6,15.23
3047,4,2,0,-12,-6,1,0,1,15.235
3048,-12,-5,-4,-4,-16,-5,1,-2,15.24
3049,-6,-7,0,40,22,6,0,-4,15.245000000000001
3050,-2,-4,-2,-5,-12,-1,1,1,15.25
3051,4,2,2,0,33,4,2,-1,15.255
3052,5,3,-6,15,-24,-7,-2,-2,15.26
3053,2,5,1,13,36,5,3,5,15.265
3054,0,0,7,9,-11,0,0,-1,15.27
3055,-5,10,-10,-42,-42,-6,-4,0,15.275
3056,8,-3,6,16,72,10,1,1,15.280000000000001
3057,2,-7,2,-7,-39,-3,-1,-4,15.285
3058,-9,-14,-3,-8,35,11,0,-1,15.290000000000001
3059,10,-4,-1,27,33,-1,2,3,15.295
3060,-3,10,1,-35,-25,-13,-1,2,15.3
3061,-9,3,-6,-22,-30,-3,-5,-6,15.305
3062,0,-4,-1,30,12,1,4,-2,15.31
3063,0,5,1,15,5,4,3,3,15.315
3064,16,7,-8,29,4,1,3,0,15.32
3065,-16,4,1,-16,29,-1,-6,-2,15.325000000000001
3066,-8,-20,-4,-28,-17,0,3,5,15.33
3067,-7,-7,-3,7,13,1,-7,-20,15.335
3068,16,0,1,-58,-105,-16,-4,6,15.34
3069,-18,-18,-12,-7,8,8,2,-1,15.345
3070,3,8,0,9,-23,-12,-3,-1,15.35
3071,0,-16,2,51,6,4,3,0,15.355
3072,0,23,-2,-117,-41,4,-2,-2,15.36
3073,17,-14,3,9,39,7,5,6,15.365
3074,1,5,-9,-5,-51,-10,-6,-7,15.370000000000001
3075,-3,-13,-1,35,15,0,-3,-1,15.375
3076,-22,8,7,83,17,0,-1,-4,15.38
3077,12,-7,3,20,-5,6,5,3,15.385
3078,-41,-6,-8,-55,-49,-12,-5,-5,15.39
3079,-2,-1,-9,36,58,2,3,-1,15.395
3080,-5,-5,-4,31,28,7,1,-1,15.4
3081,8,-1,5,-17,5,-3,1,0,15.405000000000001
3082,4,4,-5,-69,-57,-10,-3,0,15.41
3083,4,5,8,13,-7,3,0,1,15.415000000000001
3084,-17,-18,-14,-73,-3,-5,-6,-7,15.42
3085,-1,3,-14,-41,-82,-15,-4,-3,15.425
3086,8,-7,12,116,77,14,0,-3,15.43
3087,-1,1,1,-29,13,0,2,4,15.435
3088,4,2,4,-35,22,7,1,-1,15.44
3089,7,9,-2,24,-15,-2,-1,0,15.445
3090,19,37,5,61,-40,-14,0,0,15.450000000000001
3091,4,-9,-4,-114,-9,5,1,4,15.455
3092,-10,-16,3,-6,-2,-7,-5,-4,15.46
3093,-7,2,0,1,-17,-9,-5,-5,15.465
3094,8,-4,2,-10,2,6,3,1,15.47
3095,1,15,6,32,-11,-5,-1,0,15.475
3096,-11,-5,0,103,-49,-17,-2,0,15.48
3097,1,2,9,-4,46,4,-1,-1,15.485000000000001
3098,3,1,-5,10,37,11,5,1,15.49
3099,-2,2,2,6,-62,-8,-1,1,15.495000000000001
3100,-3,-6,-4,-30,-5,-12,-8,-3,15.5
3101,-5,3,-8,-39,-33,-2,0,-1,15.505
3102,17,6,1,-52,-31,-10,-3,1,15.51
3103,8,4,2,33,10,2,1,1,15.515
3104,-4,-9,-3,16,-19,4,0,-4,15.52
3105,7,11,14,-7,77,14,5,5,15.525
3106,-16,-10,-8,-44,-16,-10,-6,-7,15.530000000000001
3107,-3,14,-15,-93,21,-2,-9,-3,15.535
3108,14,5,8,38,30,22,11,7,15.540000000000001
3109,-3,-12,-4,-79,-26,-7,-3,-1,15.545
3110,-17,-24,0,25,35,1,-2,-2,15.55
3111,-5,0,0,-11,-28,-6,-3,-1,15.555
3112,-6,-15,-10,50,-27,-11,-5,-5,15.56
3113,7,21,14,119,44,15,3,1,15.565
3114,13,-12,-12,-66,-27,-7,-6,-3,15.57
3115,-28,-19,-5,-31,0,-4,-1,-6,15.575000000000001
3116,9,15,5,-110,0,1,0,3,15.58
3117,-4,18,-4,-67,-44,-16,-3,-22,15.585
3118,7,-19,4,26,13,9,1,11,15.59
3119,10,-23,-2,55,-18,-9,-4,-4,15.595
3120,-27,-4,-6,-110,17,4,1,-6,15.6
3121,-6,9,-4,92,2,-11,-4,7,15.605
3122,8,1,8,81,124,43,9,6,15.610000000000001
3123,1,-3,-10,-22,-44,-9,-4,-13,15.615
3124,4,1,3,49,30,7,-1,7,15.620000000000001
3125,0,-7,-3,-96,-35,-8,-1,-4,15.625
3126,-4,25,5,-88,-54,-16,7,12,15.63
3127,7,-3,13,127,105,22,-10,7,15.635
3128,20,16,-5,1,-5,-2,2,0,15.64
3129,-24,-23,5,21,-35,-11,3,17,15.645
3130,-10,-8,-8,-38,26,3,-16,-19,15.65
3131,-8,2,-2,-128,-128,-11,2,3,15.655000000000001
3132,11,1,7,52,29,-2,0,-9,15.66
3133,19,4,-14,-7,-20,0,-4,8,15.665000000000001
3134,-12,12,-1,35,-21,-10,3,1,15.67
3135,-24,1,1,14,-50,-11,-3,-7,15.675
3136,1,-27,-1,9,69,14,-3,5,15.68
3137,-12,-33,-14,-24,-25,-12,1,-7,15.685
3138,-20,9,3,24,-2,2,-2,-9,15.69
3139,-5,4,-3,9,-4,-2,-2,0,15.695
3140,7,0,0,21,21,5,6,1,15.700000000000001
3141,6,-2,1,42,-17,-7,-3,-1,15.705
3142,34,12,-1,-67,37,4,-6,0,15.71
3143,-25,-14,4,-35,-13,3,4,2,15.715
3144,0,-8,1,88,6,1,4,3,15.72
3145,4,9,-7,43,34,5,-4,-8,15.725
3146,-6,3,3,-29,-38,-9,-4,0,15.73
3147,5,0,2,58,72,12,8,2,15.735000000000001
3148,-9,-3,-5,26,-5,-2,-4,-2,15.74
3149,16,9,5,-1,19,5,2,4,15.745000000000001
3150,-6,7,2,-41,-22,0,3,1,15.75
3151,4,-20,4,30,22,-6,-6,-8,15.755
3152,0,18,-26,59,-15,-6,-2,-6,15.76
3153,-6,-35,-6,-12,5,7,-3,1,15.765
3154,-3,3,8,20,-4,-4,2,-3,15.77
3155,15,14,0,-78,-62,-16,-5,-3,15.775
3156,7,10,9,23,33,13,1,1,15.780000000000001
3157,-9,10,0,2,-2,2,1,-2,15.785
3158,6,-3,1,38,44,5,1,2,15.790000000000001
3159,8,-6,-16,-40,17,3,4,6,15.795
3160,30,2,8,-34,-25,-3,1,1,15.8
3161,-39,-29,6,30,20,2,-1,-2,15.805
3162,-17,-20,-12,21,-31,-10,-5,-9,15.81
3163,5,17,-1,-33,-49,-17,-3,-3,15.815
3164,-15,-15,1,-31,3,0,-3,-3,15.82
3165,19,9,7,-18,21,7,-1,0,15.825000000000001
3166,12,3,-8,-29,-16,-4,3,3,15.83
3167,-4,10,3,60,1,1,-1,-4,15.835
3168,-6,-1,1,-54,15,1,0,0,15.84
3169,16,16,2,8,-18,-6,1,0,15.845
3170,-14,-14,-1,27,30,1,1,-3,15.85
3171,-5,21,-1,4,28,8,-2,-2,15.855
3172,-7,-27,-2,-5,-7,-7,-5,2,15.860000000000001
3173,14,20,0,-9,13,6,3,1,15.865
3174,-17,6,3,51,-14,-7,-3,-1,15.870000000000001
3175,4,-10,-6,-34,-56,-7,0,-1,15.875
3176,-11,25,1,-49,31,2,-1,-3,15.88
3177,-3,-23,-1,18,21,7,-1,-1,15.885
3178,17,-12,-11,3,-33,-12,-5,-2,15.89
3179,-14,-1,6,-84,45,14,5,1,15.895
3180,-6,8,-4,12,-57,-11,-2,2,15.9
3181,8,-4,-3,-47,-1,-5,-5,-3,15.905000000000001
3182,-7,-11,-2,27,-8,-1,-4,-2,15.91
3183,0,-6,3,41,40,4,1,-4,15.915000000000001
3184,2,14,2,-44,-72,-9,0,0,15.92
3185,-4,-9,-4,1,23,2,-2,-2,15.925
3186,9,2,0,17,-9,-3,-2,1,15.93
3187,-1,-10,-2,45,54,9,0,0,15.935
3188,-4,-7,1,41,-17,7,1,-2,15.94
3189,-8,5,-1,21,2,-6,-3,-4,15.945
3190,3,-2,-5,-88,-10,1,2,4,15.950000000000001
3191,6,12,-1,40,8,-2,-1,2,15.955
3192,-5,-12,4,-31,19,0,-3,-1,15.96
3193,-6,11,-7,0,-13,-3,-3,-3,15.965
3194,-8,-17,-2,-22,7,7,2,-2,15.97
3195,13,13,1,3,-9,-5,0,5,15.975
3196,-5,-13,-3,-7,-17,-12,-3,-4,15.98
3197,0,-3,-2,-26,-6,1,-2,-2,15.985000000000001
3198,1,13,3,-29,4,2,2,-1,15.99
3199,-2,-4,-3,49,-19,-6,-2,0,15.995000000000001
3200,-4,-12,-6,-48,11,-2,-1,-1,16.0
3201,-3,1,2,-12,-7,-1,-1,-1,16.005
3202,6,8,1,-3,-7,-1,-2,0,16.01
3203,0,-9,-4,3,-7,4,0,0,16.015
3204,1,-1,0,41,1,-3,-3,-2,16.02
3205,-2,5,1,21,10,1,1,-1,16.025
3206,0,1,3,12,8,1,-1,2,16.03
3207,4,-1,1,-10,-10,-1,1,1,16.035
3208,-1,-1,-2,-5,7,1,-2,-2,16.04
3209,-3,-1,0,-18,-18,-5,-3,-1,16.045
3210,-2,1,0,27,7,1,0,-1,16.05
3211,0,-1,4,-7,2,-2,2,0,16.055
3212,0,-1,-2,-9,-4,-1,-1,-2,16.06
3213,-3,3,3,6,-6,-1,1,-1,16.065
3214,0,-1,-2,-3,4,0,1,1,16.07
3215,-1,-4,-4,-18,-10,-3,0,-1,16.075
3216,0,2,0,-5,3,1,0,-1,16.080000000000002
3217,-2,0,-1,9,-9,-1,1,-3,16.085
3218,0,-3,-3,-3,2,-1,-1,-1,16.09
3219,-1,-1,-2,-9,-5,-3,-2,-2,16.095
3220,1,1,6,17,7,2,1,0,16.1
3221,-1,3,-7,-13,-4,-2,0,-1,16.105
3222,-1,2,7,10,3,1,0,-1,16.11
3223,-1,-8,-5,-5,3,2,0,-1,16.115000000000002
3224,-2,0,0,-7,-1,-1,-4,-2,16.12
3225,-3,-1,-4,-3,-3,-1,2,1,16.125
3226,0,0,0,2,-1,-2,1,1,16.13
3227,0,-1,0,-4,-1,2,0,0,16.135
3228,2,1,7,3,0,-1,-2,0,16.14
3229,-1,-3,0,-7,-9,-2,-1,0,16.145
3230,1,4,-3,3,8,1,1,0,16.15
3231,2,-2,4,2,1,0,0,1,16.155
3232,0,0,-2,5,1,0,-1,0,16.16
3233,-1,-7,-4,-13,-5,0,-2,-1,16.165
3234,-2,0,-2,-4,1,-2,0,-2,16.17
3235,0,0,-2,-8,-2,-3,-3,-1,16.175
3236,1,1,0,5,-1,1,1,0,16.18
3237,1,3,3,3,-4,-1,0,-1,16.185
3238,-2,-6,-4,-7,-2,-1,-1,-3,16.19
3239,-1,-2,0,2,-1,1,1,0,16.195
3240,-1,-2,-6,-7,0,1,0,-1,16.2
3241,-2,-2,0,5,-1,-3,-1,0,16.205000000000002
3242,0,-2,-2,3,3,-1,-1,0,16.21
3243,-1,2,0,-6,-2,-1,-1,-2,16.215
3244,-2,0,-2,-1,2,0,-1,0,16.22
3245,-1,2,1,-1,-1,-1,-2,-1,16.225
3246,0,-3,3,2,-2,1,-1,-2,16.23
3247,-1,-3,-4,-4,-8,1,2,0,16.235
3248,0,-2,-6,-28,-2,1,0,0,16.240000000000002
3249,-1,0,2,24,13,0,-1,-1,16.245
3250,-2,0,-3,3,-1,-1,-3,-3,16.25
3251,0,0,1,6,-3,-5,-4,-2,16.255
3252,-1,-3,-4,-11,-3,0,-1,0,16.26
3253,2,2,0,-13,-7,-2,-1,-1,16.265
3254,1,-1,0,5,3,0,-2,0,16.27
3255,1,0,-3,-1,2,0,-1,1,16.275
3256,0,-2,0,10,-3,-4,0,-3,16.28
3257,1,0,-2,-8,-4,-1,-1,-1,16.285
3258,0,2,1,3,-6,-1,-1,2,16.29
3259,0,-1,-2,-5,-2,1,-1,0,16.295
3260,-2,-2,0,-1,1,-2,2,-1,16.3
3261,-3,0,0,-11,-8,1,-2,1,16.305
3262,-1,0,-1,3,5,1,0,-2,16.31
3263,-2,-4,-2,-4,-6,-3,-2,-2,16.315
3264,2,1,1,12,1,-3,0,-1,16.32
3265,-3,-3,-3,-17,-4,-3,-2,-2,16.325
3266,-1,0,3,-8,-6,0,0,0,16.330000000000002
3267,0,1,1,15,6,-2,-1,-1,16.335
3268,0,-1,-4,2,-4,-2,-1,-1,16.34
3269,-2,-2,-4,-3,3,-1,-1,-1,16.345
3270,-2,-2,-3,-4,-1,-2,-1,-1,16.35
3271,0,-1,-1,-2,2,2,0,-2,16.355
3272,1,-1,-1,-5,-3,-1,0,-1,16.36
3273,0,0,1,-22,-2,1,0,0,16.365000000000002
3274,0,0,0,44,13,1,0,0,16.37
3275,0,0,-2,-11,-16,-3,-1,-2,16.375
3276,-3,-2,0,4,17,1,-1,1,16.38
3277,-1,0,1,5,2,0,1,-1,16.385
3278,-1,-1,-1,-15,-6,-4,-2,-2,16.39
3279,1,1,2,1,1,2,1,0,16.395
3280,-1,0,-1,3,-11,-3,-1,0,16.4
3281,1,-2,-1,3,0,1,1,0,16.405
3282,0,-2,-1,-11,-4,-1,-1,0,16.41
3283,0,2,1,7,1,-3,-2,-2,16.415
3284,0,2,0,-4,-4,0,-1,-1,16.42
3285,-1,-1,0,10,-5,-3,-2,-1,16.425
3286,-1,-2,-5,-6,-3,-1,-1,-1,16.43
3287,-2,-2,-3,-4,11,4,0,-2,16.435
3288,-1,0,0,2,2,1,-1,0,16.44
3289,-1,-1,-1,12,0,-1,-1,0,16.445
3290,-2,-2,-4,-9,-1,-1,-2,-1,16.45
3291,-5,0,0,2,-10,-4,-2,0,16.455000000000002
3292,0,1,2,-5,11,4,0,-1,16.46
3293,-2,-1,-2,3,-1,-2,-1,1,16.465
3294,-1,-2,-1,-6,-3,-2,0,0,16.47
3295,1,0,0,4,2,1,-1,-1,16.475
3296,0,-2,-4,-6,-7,-5,-4,-3,16.48
3297,-1,-1,-1,-1,1,1,0,-1,16.485
3298,-2,-1,1,-1,-5,-2,-1,-1,16.490000000000002
3299,-1,0,-3,-3,0,-2,1,0,16.495
3300,-1,-1,1,0,-4,-4,-2,0,16.5
3301,-1,-4,-2,0,-2,0,-1,-2,16.505
3302,-2,-5,-4,-27,-7,-1,1,0,16.51
3303,-1,7,1,26,9,2,0,-1,16.515
3304,-1,-4,-1,7,-3,0,0,-1,16.52
3305,-2,-3,0,0,-10,-4,1,-1,16.525
3306,-1,-1,-2,2,6,1,0,-2,16.53
3307,0,-3,-2,-13,-1,0,2,1,16.535
3308,-3,0,-4,-12,-3,1,0,0,16.54
3309,-2,-4,-2,9,-2,-3,-3,-1,16.545
3310,0,0,2,1,-3,-2,-1,1,16.55
3311,1,0,-1,-7,-2,-1,-3,0,16.555
3312,-2,-1,-1,4,-3,-3,1,-1,16.56
3313,0,-1,1,0,-1,1,0,0,16.565
3314,0,2,-1,4,3,-2,-1,-3,16.57
3315,0,0,2,-20,-11,-3,-2,-1,16.575
3316,1,-2,-4,16,17,3,1,-1,16.580000000000002
3317,-1,2,0,-2,-8,-4,1,1,16.585
3318,-1,-1,-2,5,8,5,1,-2,16.59
3319,-2,0,0,-2,0,-2,-1,1,16.595
3320,0,0,1,-8,-9,-2,0,-1,16.6
3321,1,4,-1,-4,1,-1,0,0,16.605
3322,-1,1,1,5,-6,-2,-2,-1,16.61
3323,-1,-3,0,-1,0,-1,-1,-1,16.615000000000002
3324,-1,0,0,-2,0,-2,-2,1,16.62
3325,-1,-2,-1,2,1,2,-2,-1,16.625
3326,1,0,0,-4,-3,-1,-1,0,16.63
3327,0,2,3,8,2,2,0,-1,16.635
3328,-3,-9,-4,-15,-15,-5,0,-1,16.64
3329,-1,-1,-2,6,5,4,3,0,16.645
3330,-1,-3,-5,-4,2,-1,1,1,16.65
3331,0,-1,-2,-1,1,-1,-1,1,16.655
3332,1,3,2,-4,-1,-1,-2,1,16.66
3333,-1,1,1,-4,-1,-2,-2,-1,16.665
3334,-1,-1,1,7,-1,0,1,0,16.67
3335,-2,-2,-3,-1,2,-1,-1,-1,16.675
3336,-1,1,1,3,-3,0,-2,-2,16.68
3337,-2,-3,-5,-8,-1,0,0,-3,16.685
3338,1,-1,-2,-13,-6,0,-2,0,16.69
3339,-2,-3,-2,17,6,1,1,-1,16.695
3340,1,0,2,4,5,-1,1,-1,16.7
3341,-1,0,-3,4,0,0,-1,-3,16.705000000000002
3342,1,1,-1,-6,2,-1,-2,-2,16.71
3343,-3,-4,-4,-10,-9,-3,-1,-2,16.715
3344,0,0,-1,0,-3,-1,-1,-2,16.72
3345,1,0,-2,-2,1,-1,-3,-1,16.725
3346,-1,0,-1,8,-3,-3,-2,-1,16.73
3347,-1,1,-1,-3,-1,1,-1,0,16.735
3348,-2,-2,-4,-3,-1,0,0,-2,16.740000000000002
3349,1,2,3,1,3,0,1,0,16.745
3350,-4,-6,-5,-1,-2,-2,-2,-1,16.75
3351,0,-1,0,-4,0,-2,0,-2,16.755
3352,-1,-2,-1,-2,-5,-1,0,0,16.76
3353,-1,1,-1,-1,-2,0,0,-2,16.765
3354,-1,1,0,7,0,0,0,0,16.77
3355,1,-2,-4,-4,-3,-1,-2,-1,16.775
3356,0,-1,1,1,-6,-3,-1,0,16.78
3357,-2,-4,-4,-8,-1,-4,-2,-3,16.785
3358,0,2,3,4,2,0,0,-1,16.79
3359,-2,-2,-2,-5,-2,0,0,-2,16.795
3360,0,-1,-1,0,2,1,-1,-1,16.8
3361,1,1,0,-2,1,-1,-3,0,16.805
3362,-1,-2,2,-3,-10,-4,-1,-1,16.81
3363,1,-1,1,-9,3,2,0,1,16.815
3364,-2,-2,-2,8,6,0,-1,0,16.82
3365,-1,0,-1,2,6,-1,0,1,16.825
3366,0,0,-1,-1,-3,-1,0,0,16.830000000000002
3367,-1,-1,-1,-6,0,2,1,0,16.835
3368,-1,1,0,-2,-7,-1,-1,-1,16.84
3369,0,0,-1,-3,-5,-3,-2,-2,16.845
3370,-1,0,2,2,1,1,-2,-3,16.85
3371,-2,-2,-2,5,-4,-1,1,0,16.855
3372,3,1,1,-8,-5,1,1,0,16.86
3373,-2,-2,0,3,0,0,0,-2,16.865000000000002
3374,-2,-2,-2,-4,12,2,0,-1,16.87
3375,-1,0,-2,2,-2,-5,-2,-2,16.875
3376,-2,1,0,-1,1,-1,0,-2,16.88
3377,0,-2,0,-3,-5,-1,-1,-2,16.885
3378,0,0,-1,0,-3,-2,0,0,16.89
3379,-2,-1,-2,2,-1,1,-1,-2,16.895
3380,-3,-3,-2,-1,-1,-2,-2,-1,16.9
3381,-1,0,0,0,-1,0,0,-2,16.905
3382,-2,3,2,3,-1,0,0,0,16.91
3383,2,2,2,2,-4,-3,1,-1,16.915
3384,-2,-3,-2,0,-11,-2,-1,-1,16.92
3385,-1,-2,-3,-3,12,3,0,1,16.925
3386,1,-2,-2,3,2,0,0,0,16.93
3387,-1,-1,-1,-15,-6,0,-2,1,16.935
3388,-1,0,-1,26,9,0,1,0,16.94
3389,-1,0,-1,-1,-2,0,-1,-2,16.945
3390,1,2,3,3,-2,0,0,-1,16.95
3391,0,0,-1,-6,-2,-4,-2,-1,16.955000000000002
3392,-1,-3,-3,-9,-1,2,-3,0,16.96
3393,-1,-1,-2,-2,-4,0,0,0,16.965
3394,-2,-3,-4,2,-3,1,-1,-1,16.97
3395,-1,-2,-1,2,-2,0,-1,-1,16.975
3396,1,1,0,-6,2,1,-1,-1,16.98
3397,-1,-3,0,14,-4,-2,-1,1,16.985
3398,0,1,0,-14,-2,-1,0,-2,16.990000000000002
3399,-1,-3,-5,-1,-1,0,0,0,16.995
3400,-1,-1,-5,-1,9,3,0,0,17.0
3401,-1,0,-1,-5,-1,-2,-2,-3,17.005
3402,-1,0,-1,2,0,-2,-2,0,17.01
3403,-2,0,-1,4,1,-1,-1,-1,17.015
3404,0,0,-1,-6,-2,-1,-2,-1,17.02
3405,-1,0,-1,-4,-5,0,1,1,17.025
3406,-2,-2,-2,-2,-1,-1,-3,-1,17.03
3407,0,0,0,11,-3,-1,-1,-1,17.035
3408,0,0,2,-17,-1,-2,-1,-1,17.04
3409,-1,-1,1,10,1,-3,-2,-2,17.045
3410,-1,-4,-4,-9,-7,1,-1,-1,17.05
3411,-1,-2,-2,1,1,-1,1,0,17.055
3412,-1,0,-1,0,-12,-3,0,-1,17.06
3413,0,2,1,-3,2,0,1,1,17.065
3414,-2,-3,0,0,-4,-3,-2,-3,17.07
3415,-1,-1,-1,-6,-4,-2,-2,0,17.075
3416,-2,-2,0,16,-1,-1,-2,-2,17.080000000000002
3417,0,0,-2,-5,-7,-2,-2,0,17.085
3418,0,0,0,1,-3,0,0,-2,17.09
3419,0,-1,1,0,1,1,0,-2,17.095
3420,0,-1,-1,-6,1,-1,-1,-1,17.1
3421,-1,0,-1,-3,-1,0,-2,-1,17.105
3422,0,-1,-1,5,3,-1,0,0,17.11
3423,0,1,1,-2,1,-1,0,1,17.115000000000002
3424,-1,-1,3,2,2,-1,1,0,17.12
3425,-1,-2,-4,-5,-11,-6,-2,-1,17.125
3426,0,-4,-1,-2,4,-1,-1,-1,17.13
3427,-3,-5,-4,0,-1,0,-3,-3,17.135
3428,1,0,-3,-8,0,-1,-2,0,17.14
3429,-2,0,-2,0,-1,-1,-1,-1,17.145
3430,0,1,1,-1,-1,0,-1,-1,17.150000000000002
3431,0,0,-1,2,1,0,-2,0,17.155
3432,-1,-1,0,3,0,0,-2,-1,17.16
3433,1,-1,0,-5,1,0,0,-1,17.165
3434,-2,-2,-2,1,-2,-2,0,0,17.17
3435,0,-1,2,2,0,1,-1,-1,17.175
3436,0,0,-3,-4,-2,-2,0,0,17.18
3437,-1,-3,0,1,2,0,0,0,17.185
3438,0,0,-1,-18,-6,-1,1,0,17.19
3439,-1,1,2,17,-10,0,0,-2,17.195
3440,-1,-5,-5,-12,-6,-4,-2,1,17.2
3441,-1,-4,-6,15,9,3,0,-2,17.205000000000002
3442,0,-2,-2,8,5,-1,0,0,17.21
3443,-1,-1,-1,-15,-1,-2,-2,1,17.215
3444,-2,1,0,-3,-2,0,0,-1,17.22
3445,1,1,1,2,-3,-3,0,-1,17.225
3446,-1,-1,0,-4,0,0,-2,0,17.23
3447,0,-1,-2,1,-1,-2,1,-1,17.235
3448,0,1,0,6,4,1,1,0,17.240000000000002
3449,-2,0,1,-10,-1,-1,-1,0,17.245
3450,-2,1,1,6,-1,-1,-1,-1,17.25
3451,-1,0,-1,-5,5,-1,0,-1,17.255
3452,-1,-1,-1,-3,-5,-1,-1,-1,17.26
