slno,emg1,emg2,emg3,emg4,emg5,emg6,emg7,emg8,Time
0,-1,-2,1,8,5,-1,-1,-1,0.0
1,0,-1,1,26,0,-1,-1,-1,0.005
2,0,-1,-1,-35,-2,-1,-2,-1,0.01
3,-1,-1,0,-16,-1,-2,-2,-1,0.015
4,0,0,-2,5,1,0,-1,0,0.02
5,0,-2,-1,2,-1,0,-1,0,0.025
6,-1,-1,0,13,1,-2,-1,-2,0.03
7,0,-1,-1,-21,-6,-2,-1,-1,0.035
8,0,0,-1,4,0,2,0,-1,0.04
9,-1,-1,-3,-17,-1,-1,0,0,0.045
10,-2,-1,-2,7,-1,-1,-1,-2,0.05
11,0,0,0,-2,-2,-1,-2,-2,0.055
12,1,-1,-1,-1,-3,0,0,1,0.06
13,-2,0,-4,-9,-8,-1,0,0,0.065
14,0,0,0,2,9,0,0,0,0.07
15,0,1,-1,11,2,-1,0,-2,0.075
16,-1,-1,-3,-8,-1,-3,-2,-3,0.08
17,-1,-2,-2,-3,0,-1,0,-1,0.085
18,1,-1,-2,-6,-13,-2,0,-1,0.09
19,-2,-1,1,13,8,1,0,-1,0.095
20,-2,-1,-2,-1,-3,-3,1,-3,0.1
21,-2,-3,0,-13,2,0,-1,-2,0.105
22,-2,0,0,-10,-2,-1,-1,0,0.11
23,-1,-1,-1,22,2,-1,-1,1,0.115
24,0,0,0,10,4,3,0,0,0.12
25,0,0,0,-3,-6,-2,0,-2,0.125
26,-1,-1,-1,-12,-2,0,0,-1,0.13
27,1,-1,-1,7,-4,-3,1,1,0.135
28,-1,-1,0,-10,1,0,1,1,0.14
29,0,-1,0,1,-5,-1,-1,-2,0.145
30,-1,-1,1,6,3,-1,-1,-2,0.15
31,-1,-1,1,-2,3,0,-1,-1,0.155
32,-1,-1,-3,-4,-4,-2,-1,-1,0.16
33,-2,-1,-2,-7,0,1,-1,0,0.165
34,0,-1,-1,-6,-4,-1,1,-1,0.17
35,-1,-1,-2,1,3,-1,-1,-2,0.17500000000000002
36,-1,-3,-2,-2,-13,-3,-3,-3,0.18
37,0,-1,0,1,8,2,0,-2,0.185
38,-1,0,-2,3,-6,-3,-2,-1,0.19
39,0,0,-3,-1,2,0,-1,0,0.195
40,-1,-1,0,-16,-5,-3,0,0,0.2
41,-1,-1,-1,17,6,-1,-1,1,0.20500000000000002
42,-2,0,0,-3,-5,-2,-1,1,0.21
43,-1,-2,0,1,3,-1,0,0,0.215
44,-2,-1,1,-6,-1,-1,1,-1,0.22
45,0,0,0,-3,-1,1,0,0,0.225
46,0,-1,0,-3,-8,-2,-1,-1,0.23
47,-2,2,0,0,3,1,-1,0,0.23500000000000001
48,-1,-1,-1,1,-2,0,0,1,0.24
49,-1,-2,1,3,9,0,0,-1,0.245
50,0,-1,-1,9,-7,-1,0,-1,0.25
51,-1,-1,-3,-11,-7,-1,-2,-2,0.255
52,0,-1,-2,3,1,-1,-1,-1,0.26
53,0,2,-1,-1,-11,-2,-2,0,0.265
54,-2,-2,-1,-6,5,0,1,-1,0.27
55,-1,-1,-1,-4,-6,-1,0,-1,0.275
56,-1,-1,-3,7,2,0,-2,-3,0.28
57,-1,-1,-2,-1,-3,-2,-2,0,0.28500000000000003
58,1,0,-2,-5,14,3,-2,-1,0.29
59,-1,-1,0,-29,-8,0,-1,0,0.295
60,-1,-2,-1,32,9,-1,-1,1,0.3
61,-3,-1,0,-9,-9,-1,-1,0,0.305
62,0,-2,-1,-5,-7,-2,-2,-1,0.31
63,0,0,1,15,6,0,-1,-1,0.315
64,0,0,-1,-11,2,0,-1,-3,0.32
65,0,-1,-1,0,0,-2,1,-1,0.325
66,-1,-1,-2,-13,-5,-1,-1,0,0.33
67,-1,-2,-2,8,-6,-2,0,1,0.335
68,0,0,0,-28,1,0,-1,-2,0.34
69,-1,-1,-2,4,2,-1,-1,-1,0.34500000000000003
70,-3,-1,-2,2,-3,-2,0,0,0.35000000000000003
71,-1,-1,-1,2,-6,-3,-2,-3,0.355
72,0,-1,-1,1,-4,1,-1,-1,0.36
73,-1,-1,-1,-6,2,0,0,0,0.365
74,-2,-1,-1,3,3,-1,-1,-2,0.37
75,-1,0,-1,3,-9,-3,-1,-1,0.375
76,0,-1,0,11,15,2,1,0,0.38
77,0,0,0,-2,0,-2,-3,-1,0.385
78,-1,-2,-1,8,1,-1,-4,0,0.39
79,-1,-1,-1,-1,2,-1,0,0,0.395
80,-1,-1,0,-16,-11,-4,-2,0,0.4
81,-1,-1,-2,14,0,-1,0,-2,0.405
82,1,0,0,-16,-7,-2,1,-1,0.41000000000000003
83,-1,-1,0,27,8,-1,-2,-1,0.41500000000000004
84,-1,0,-1,-6,-10,-1,-1,-1,0.42
85,-1,-2,-2,-20,4,1,-2,-1,0.425
86,-2,-1,-2,46,3,-1,0,0,0.43
87,0,-3,0,-10,4,1,1,-2,0.435
88,-1,-1,-2,-4,-4,-2,-1,0,0.44
89,-1,0,0,-1,-7,-2,0,0,0.445
90,1,-2,0,-6,10,1,-1,-2,0.45
91,0,-1,-3,-11,-6,-1,-2,0,0.455
92,-1,-1,2,17,1,-1,-1,0,0.46
93,0,0,-2,-9,-7,1,2,-2,0.465
94,-1,-1,0,-1,0,0,0,-1,0.47000000000000003
95,-1,-2,0,-3,-4,0,0,-1,0.47500000000000003
96,0,0,2,-7,1,-1,-1,-2,0.48
97,0,-1,-1,-1,1,-2,-1,1,0.485
98,0,0,0,-19,-11,-1,0,1,0.49
99,0,1,0,17,7,1,-1,0,0.495
100,-2,-2,-1,3,-1,0,0,1,0.5
101,0,0,1,-15,-9,-2,-1,1,0.505
102,0,0,-2,28,10,1,0,-2,0.51
103,-1,-1,-2,-22,-16,-4,-1,0,0.515
104,0,-1,0,2,17,2,0,-1,0.52
105,0,-1,0,38,4,-1,-2,-2,0.525
106,-2,-2,-1,-8,2,-4,1,-1,0.53
107,-2,0,-1,-18,-1,2,-1,0,0.535
108,-1,-1,0,5,-6,-3,-1,0,0.54
109,0,-1,-2,-13,-5,-1,-2,0,0.545
110,-3,0,1,-7,-2,2,-1,-1,0.55
111,0,-2,1,12,2,-2,0,-1,0.555
112,-1,-2,-1,-21,-15,-2,-1,-1,0.56
113,-1,-1,0,12,13,2,2,-1,0.5650000000000001
114,0,-1,0,-1,-4,-2,0,-2,0.5700000000000001
115,-1,-2,0,26,1,-1,-1,-2,0.5750000000000001
116,0,1,-2,-18,-2,-1,-1,0,0.58
117,-1,-1,0,-7,-4,-3,-1,-1,0.585
118,0,-2,-2,-4,-1,0,-2,0,0.59
119,-1,-1,0,-7,-3,-2,0,-1,0.595
120,-2,-2,-2,3,-4,-4,-1,-2,0.6
121,-1,-1,0,30,2,0,0,-1,0.605
122,0,0,1,-2,-7,-2,-1,0,0.61
123,-1,-1,-2,-22,5,1,0,-2,0.615
124,0,-1,-1,35,3,-1,-2,-1,0.62
125,0,0,-1,-18,-14,-3,-1,0,0.625
126,-1,-1,-1,-5,8,0,0,1,0.63
127,-1,1,-1,4,-1,0,0,-2,0.635
128,-1,-2,-1,-6,-4,0,-1,0,0.64
129,-1,-2,-1,-18,-2,1,-2,0,0.645
130,-1,-2,0,-7,-2,-3,0,-1,0.65
131,0,0,1,18,-9,-2,-2,-1,0.655
132,0,-1,-1,4,10,2,1,0,0.66
133,0,-2,1,-2,1,-2,-1,-3,0.665
134,0,0,-2,-1,0,0,0,0,0.67
135,-2,-1,-1,-11,0,-1,-1,-1,0.675
136,-1,1,1,-2,-7,-2,-2,-1,0.68
137,0,0,1,5,4,-1,-2,0,0.685
138,-1,1,-1,-7,-5,-2,-1,-3,0.6900000000000001
139,0,-1,-4,-14,-4,-3,0,0,0.6950000000000001
140,-1,-2,0,-1,2,0,0,-3,0.7000000000000001
141,0,0,-2,-9,-4,-1,0,-2,0.705
142,0,-1,-1,23,-1,0,-2,0,0.71
143,0,-1,-4,-44,-3,-1,-2,-2,0.715
144,-2,0,0,12,1,1,0,0,0.72
145,-2,-2,-1,-14,-5,-1,1,0,0.725
146,-2,-2,-1,-5,-9,-2,-1,0,0.73
147,0,-1,0,34,17,2,-2,-1,0.735
148,1,0,-1,-14,-7,-4,-3,-1,0.74
149,-2,0,-1,-2,2,-1,0,-1,0.745
150,-1,-1,-2,7,5,2,0,-1,0.75
151,-2,0,-1,-12,-5,-1,-2,0,0.755
152,0,0,-1,-3,3,1,1,0,0.76
153,-2,-1,1,14,0,-1,-3,-3,0.765
154,0,-1,-1,-13,-2,-1,0,0,0.77
155,-2,-1,0,3,-4,-1,-1,0,0.775
156,-3,0,0,2,-2,1,0,-1,0.78
157,0,0,-2,4,-8,-2,-1,-1,0.785
158,-2,-2,-1,-11,6,-1,0,0,0.79
159,-1,0,0,-4,0,0,1,-2,0.795
160,-2,0,-1,23,-3,-3,-1,0,0.8
161,-1,0,-1,-13,0,0,1,-1,0.805
162,-1,0,-1,-11,-2,-1,-2,1,0.81
163,0,-1,0,15,-4,0,1,0,0.8150000000000001
164,1,-3,0,-3,9,-1,-3,-1,0.8200000000000001
165,0,-1,0,-16,-4,0,0,-1,0.8250000000000001
166,0,0,-2,-5,-6,0,-2,1,0.8300000000000001
167,-1,-3,0,30,10,-1,-1,-1,0.835
168,-2,-1,-2,-35,-6,-2,0,0,0.84
169,-1,-2,-1,-4,0,-2,-2,-1,0.845
170,1,0,0,-1,7,1,-1,-2,0.85
171,0,-1,-1,-8,-4,-1,-2,0,0.855
172,-1,-2,-2,2,-1,-2,-1,-2,0.86
173,0,0,-2,11,4,-1,0,0,0.865
174,1,-1,-1,-6,-4,-2,-1,-1,0.87
175,-1,0,-2,-19,-7,-2,1,0,0.875
176,0,-1,1,24,9,1,1,0,0.88
177,-1,-2,0,-7,-8,-1,0,0,0.885
178,0,-2,0,9,1,2,-1,-2,0.89
179,0,-1,-2,-1,-3,-2,-2,-2,0.895
180,1,-1,0,-5,-8,-1,-1,-1,0.9
181,1,1,-1,-18,-3,0,0,-1,0.905
182,0,-1,0,41,8,-1,-1,-2,0.91
183,-2,-1,0,-24,-1,0,0,-1,0.915
184,-1,0,0,16,-4,0,0,0,0.92
185,-1,-1,0,24,17,0,0,-2,0.925
186,-2,1,-1,-17,-5,0,-1,0,0.93
187,1,-1,-1,-9,-4,-2,-1,-1,0.935
188,0,-2,0,2,-10,-3,-2,0,0.9400000000000001
189,-1,0,-2,-9,-5,0,-1,-1,0.9450000000000001
190,-1,0,-2,5,6,-3,-1,0,0.9500000000000001
191,0,-1,-1,15,10,3,1,0,0.9550000000000001
192,-1,-1,-2,-19,-6,-3,0,0,0.96
193,1,-2,-1,9,3,-1,-1,1,0.965
194,-2,-2,-1,3,-7,-4,-1,-1,0.97
195,-2,-1,1,-25,-8,-3,0,-2,0.975
196,-1,-1,0,14,8,-1,-1,0,0.98
197,0,-2,1,32,0,-3,-1,-1,0.985
198,-1,-1,0,-4,4,1,-1,-1,0.99
199,0,0,-1,-8,-2,-1,0,-2,0.995
200,-1,-1,-1,-3,-9,-1,0,-1,1.0
201,-1,-1,1,-9,7,0,0,-1,1.0050000000000001
202,-2,-1,0,8,-5,0,0,-1,1.01
203,-1,-1,0,8,-1,-3,-2,-2,1.0150000000000001
204,1,0,-2,-10,7,0,0,-2,1.02
205,0,-1,-1,-3,-7,-2,-2,0,1.025
206,-1,-1,-1,-36,-14,-2,-2,0,1.03
207,0,0,1,42,19,2,1,1,1.035
208,-1,-1,-1,-1,-6,-2,-1,-1,1.04
209,-2,0,-1,3,-4,-3,-2,-2,1.045
210,-1,-2,1,-26,-2,-1,1,-1,1.05
211,-1,0,-1,23,4,0,-1,0,1.055
212,-1,0,-2,-10,-1,-1,-1,1,1.06
213,0,-1,-1,-1,-1,-1,1,-1,1.065
214,-2,-2,-1,10,0,-2,-1,0,1.07
215,0,0,-1,-26,-13,-2,-1,0,1.075
216,0,0,-2,15,-6,-2,-1,-1,1.08
217,-1,0,-2,-5,0,2,0,-1,1.085
218,0,-1,-1,8,4,-1,1,-2,1.09
219,-2,-2,-1,-13,-13,-3,-1,-1,1.095
220,-1,0,-1,0,5,1,-1,-1,1.1
221,1,-2,-2,-7,-1,-1,-1,0,1.105
222,-2,0,-2,4,1,0,-2,-1,1.11
223,-2,-1,-1,11,-3,0,0,-1,1.115
224,-1,1,1,-12,-5,-3,-2,-1,1.12
225,0,0,-1,-5,8,1,0,-1,1.125
226,0,-1,1,16,0,-1,-1,0,1.1300000000000001
227,-1,-3,-1,-19,-1,-1,-1,0,1.135
228,-1,-2,0,-4,5,-1,2,0,1.1400000000000001
229,-2,-1,-2,-23,-13,0,-1,-1,1.145
230,-1,-1,0,18,-5,-1,-1,-1,1.1500000000000001
231,0,-1,-1,4,3,1,-1,-1,1.155
232,-1,-2,0,-6,5,0,-3,-2,1.16
233,0,-2,0,2,3,-1,0,-1,1.165
234,1,-1,-2,-15,-12,-5,0,-2,1.17
235,-1,0,-1,10,10,1,0,0,1.175
236,1,-1,0,-1,-2,-1,-1,-2,1.18
237,-1,0,-1,-1,-4,-2,-1,1,1.185
238,-1,0,-2,-7,1,1,0,-1,1.19
239,1,-2,0,2,1,-2,-2,-1,1.195
240,-1,0,-3,-24,-17,-3,-2,-1,1.2
241,-2,-2,1,48,13,3,1,-1,1.205
242,0,0,-1,-35,-5,2,1,1,1.21
243,1,1,-1,35,12,0,0,1,1.215
244,-1,0,-2,-6,-6,-1,0,-1,1.22
245,-1,-3,-2,6,-5,-3,-2,0,1.225
246,-2,-3,-2,5,0,-2,-2,0,1.23
247,0,0,-1,-18,-6,-1,-1,-1,1.235
248,0,-1,-2,4,0,0,-1,1,1.24
249,-1,0,0,-1,1,-1,1,-1,1.245
250,-1,-1,-1,12,-2,-2,0,0,1.25
251,-3,0,0,-24,-15,-3,-1,-1,1.2550000000000001
252,-1,-1,-1,7,-1,-2,-2,0,1.26
253,0,-1,0,-9,13,1,-1,-1,1.2650000000000001
254,-1,-3,-1,-21,-5,1,0,0,1.27
255,-2,-1,-1,29,6,0,-2,-1,1.2750000000000001
256,-2,-2,-1,3,0,-2,-2,-1,1.28
257,0,0,0,-10,-12,-2,-1,0,1.285
258,0,-1,-1,-12,-9,-2,-1,-2,1.29
259,-1,-1,-1,15,18,3,1,-1,1.295
260,1,-1,0,10,-4,-3,1,-1,1.3
261,-1,-1,-1,-9,14,2,-1,1,1.305
262,1,1,0,5,-10,-4,-1,0,1.31
263,-1,0,1,-10,-9,-1,0,-1,1.315
264,-2,0,1,3,25,6,0,0,1.32
265,-1,-2,-2,13,-9,-3,-2,0,1.325
266,-2,-1,1,-8,0,1,0,0,1.33
267,1,0,1,-12,-12,-3,-1,0,1.335
268,-2,-1,-1,-14,-14,-1,-2,-1,1.34
269,0,-1,-2,-26,7,1,1,-2,1.345
270,-2,-1,-1,36,-1,-2,-2,-1,1.35
271,0,0,-3,-14,-9,-3,-1,-2,1.355
272,0,0,-1,22,19,1,1,0,1.36
273,-2,1,-1,-11,-18,-2,-2,-2,1.365
274,-1,-1,-2,6,5,0,-1,-2,1.37
275,-1,-1,0,6,-3,-2,-1,-2,1.375
276,-2,0,-1,-12,-10,-1,0,-1,1.3800000000000001
277,-2,-1,-1,-1,-5,-3,-1,-1,1.385
278,0,-1,-1,-26,6,1,-2,-1,1.3900000000000001
279,-1,-1,-1,17,0,1,3,2,1.395
280,-1,-1,-2,-5,0,-1,1,-1,1.4000000000000001
281,0,-1,0,16,-5,-1,-2,-2,1.405
282,1,-1,-1,-19,3,1,-2,-1,1.41
283,-1,-3,1,19,0,-5,-2,-1,1.415
284,-1,-2,0,-8,-5,-2,0,-2,1.42
285,0,-2,-1,2,4,-2,1,-1,1.425
286,0,-2,-2,8,0,0,1,-2,1.43
287,-2,0,-2,-14,-19,-3,-1,-3,1.435
288,1,0,0,13,16,1,1,-1,1.44
289,1,-1,-1,-2,5,1,-1,1,1.445
290,-3,-1,-2,5,7,0,-1,0,1.45
291,-2,-1,-2,-19,-3,-1,-3,-2,1.455
292,-2,-1,-2,3,-4,-1,-1,-1,1.46
293,-1,-1,-2,-8,-10,-2,-1,-1,1.465
294,0,0,-1,3,10,-1,0,-1,1.47
295,0,-1,0,1,6,3,2,-1,1.475
296,-1,-2,-1,-6,-3,1,-1,-1,1.48
297,-3,-1,0,-13,-4,-2,-1,-1,1.485
298,-2,-1,1,26,-7,-3,-3,0,1.49
299,1,1,-1,-1,23,5,-1,-1,1.495
300,0,0,-1,-2,-2,-1,0,1,1.5
301,-2,-1,1,-1,-8,-2,0,0,1.5050000000000001
302,-1,1,0,-10,-3,-1,0,-1,1.51
303,-1,0,-1,-10,-4,-3,-1,0,1.5150000000000001
304,-2,0,0,-2,-8,0,-2,-1,1.52
305,0,-2,0,3,6,0,-1,-1,1.5250000000000001
306,-1,-2,-1,1,-5,0,0,-2,1.53
307,-2,-1,0,-2,-2,0,-2,0,1.5350000000000001
308,-2,-2,0,18,-6,-2,-2,-1,1.54
309,1,0,1,-9,-8,-2,-1,-1,1.545
310,1,0,-1,2,5,1,-1,0,1.55
311,-1,0,-1,-7,-4,-3,-1,0,1.555
312,0,1,-2,-12,-9,-2,0,1,1.56
313,-2,-2,-1,12,3,0,-2,-1,1.565
314,-1,-2,-3,4,2,0,-1,-2,1.57
315,0,-3,-1,-19,0,-2,-1,-1,1.575
316,-1,-1,1,18,-6,-1,-1,-1,1.58
317,-2,-2,-1,-17,-8,0,-1,-1,1.585
318,-1,0,0,16,-5,-2,1,1,1.59
319,1,-2,-2,5,0,0,-1,0,1.595
320,0,0,-2,-8,1,-1,1,0,1.6
321,-1,-1,-2,-1,2,-2,0,0,1.605
322,-2,-2,-1,-7,-2,-2,-1,0,1.61
323,-1,0,-2,-9,-3,-1,0,-1,1.615
324,0,-1,-2,-7,-5,1,-1,-1,1.62
325,-1,-1,-2,5,8,2,-1,-1,1.625
326,0,-1,1,-4,-1,0,0,0,1.6300000000000001
327,-2,-2,0,7,-2,-1,0,-1,1.635
328,1,-2,1,-9,3,-2,0,-1,1.6400000000000001
329,0,0,-1,5,-4,0,1,-1,1.645
330,-1,0,-2,0,6,1,-4,-1,1.6500000000000001
331,-1,0,-1,-1,-2,-1,-1,0,1.655
332,-1,-1,-1,-1,2,-1,0,-1,1.6600000000000001
333,-1,0,1,0,-1,-1,-1,-1,1.665
334,0,-1,0,-1,1,-1,-2,-2,1.67
335,0,-1,-1,0,-1,0,-3,0,1.675
336,-1,0,-2,-21,-1,-2,0,0,1.68
337,-1,-1,-2,32,5,-1,-1,0,1.685
338,0,-1,-1,-4,-1,0,2,-1,1.69
339,0,-1,-1,-1,-1,0,-1,-2,1.695
340,-1,-3,-1,0,-1,0,1,0,1.7
341,0,-1,-2,-6,-5,-2,0,0,1.705
342,0,0,-1,-1,-3,-1,0,0,1.71
343,-1,0,-1,3,0,0,1,0,1.715
344,-3,-2,-2,-2,6,-1,1,-1,1.72
345,0,-1,0,-27,-9,-2,-2,-2,1.725
346,-1,-1,-1,13,2,1,-2,-3,1.73
347,1,-2,0,-1,1,-1,0,0,1.735
348,0,0,0,4,2,0,-2,-2,1.74
349,-1,-2,-1,-20,-17,-4,0,-2,1.745
350,-1,-1,0,-5,8,2,0,0,1.75
351,-2,-1,1,13,0,1,2,-1,1.7550000000000001
352,-1,0,-1,9,-1,0,-2,-1,1.76
353,-1,0,0,-2,2,1,0,-1,1.7650000000000001
354,0,0,-1,-6,-4,-1,0,-1,1.77
355,1,0,-2,-6,0,-3,-2,-1,1.7750000000000001
356,-1,-3,-1,-1,0,-2,-1,0,1.78
357,0,1,-1,4,-3,-1,1,0,1.7850000000000001
358,-1,-2,-1,6,1,-2,-1,-2,1.79
359,-3,1,-1,4,10,3,-2,1,1.795
360,0,-1,-2,-4,-2,-1,0,-1,1.8
361,0,-1,0,12,2,1,-3,-2,1.805
362,-3,-1,-3,-25,-11,0,-1,-1,1.81
363,0,-2,0,1,-8,-3,0,0,1.815
364,1,1,0,13,12,2,0,1,1.82
365,-2,-1,0,4,4,0,0,0,1.825
366,0,0,-1,-4,-4,-1,1,-1,1.83
367,-1,-3,0,-10,-7,-2,-4,-2,1.835
368,-1,-2,-2,-7,-7,-2,-1,-3,1.84
369,-1,0,-2,3,-3,-5,-1,-1,1.845
370,-1,-1,-1,-20,-15,-3,-3,-2,1.85
371,-1,-1,0,21,28,5,4,0,1.855
372,1,-2,1,21,-5,0,0,-2,1.86
373,-1,-1,-4,-51,3,0,1,-1,1.865
374,0,-2,-2,21,-1,-3,-3,-1,1.87
375,0,0,-2,-8,-9,-4,-1,-1,1.875
376,0,0,0,-1,2,-1,0,0,1.8800000000000001
377,0,-1,1,-1,-6,-3,-2,1,1.885
378,1,0,-1,5,-1,0,1,1,1.8900000000000001
379,-1,-1,-1,-16,-5,0,-1,-2,1.895
380,-1,-1,-1,2,1,-1,-1,-2,1.9000000000000001
381,0,0,0,-8,-10,1,0,-1,1.905
382,1,-2,-1,-7,5,-1,-1,1,1.9100000000000001
383,-1,0,0,4,-12,-1,0,-2,1.915
384,-1,1,-2,-9,3,-1,0,0,1.92
385,-1,-2,-3,14,4,0,0,-1,1.925
386,-2,0,0,-3,2,-1,0,0,1.93
387,-1,-1,-2,11,0,-2,-1,0,1.935
388,-1,-2,-2,-11,-4,0,-2,0,1.94
389,0,0,-2,0,2,3,1,-1,1.945
390,-1,-1,1,45,-4,-3,0,0,1.95
391,1,2,-2,-59,1,1,0,-1,1.955
392,-1,0,0,11,2,0,-1,-2,1.96
393,-1,-1,-1,41,17,-2,-1,1,1.965
394,-3,1,-1,-6,-4,-1,1,-3,1.97
395,0,0,-2,-1,-1,0,-2,0,1.975
396,-1,-2,1,-4,-5,-1,-1,0,1.98
397,1,-3,-1,1,1,-3,-2,0,1.985
398,-2,-1,0,-4,3,-1,-1,0,1.99
399,-1,-2,-1,8,-2,-2,-1,-1,1.995
400,-1,1,-2,-24,-4,-3,-1,0,2.0
401,-1,0,1,30,6,1,-1,-2,2.005
402,0,0,-1,-10,4,1,0,-1,2.0100000000000002
403,0,-1,-2,2,-9,-1,0,0,2.015
404,-1,-2,0,5,1,-1,-1,0,2.02
405,-1,-1,0,-7,0,-1,0,-2,2.025
406,0,-2,-3,-11,2,2,-1,-3,2.0300000000000002
407,-2,-1,-1,18,0,-3,0,-1,2.035
408,-2,0,-3,2,1,0,-1,-1,2.04
409,-1,0,-1,-27,-11,-2,-4,0,2.045
410,2,-1,2,14,10,1,-2,1,2.05
411,-1,-3,0,31,-2,-2,0,-1,2.055
412,0,-1,-2,-19,2,3,0,-1,2.06
413,-2,-1,-1,-28,-11,-3,-1,-2,2.065
414,-1,-1,-2,10,7,2,0,-1,2.07
415,-2,-1,0,-4,-5,-3,-3,-1,2.075
416,1,-2,-1,-4,-5,-3,-1,-1,2.08
417,-1,-2,-3,11,9,0,-2,0,2.085
418,-2,0,-1,-9,-7,-1,-1,-1,2.09
419,0,0,-1,3,2,-1,-2,0,2.095
420,-3,-2,-1,-2,-5,-2,-1,-1,2.1
421,-1,1,-2,-2,3,3,-1,-2,2.105
422,0,-3,-1,-12,-6,-3,0,0,2.11
423,-1,-1,-1,5,3,0,-2,-1,2.115
424,-1,-1,-1,-4,-5,-3,1,-1,2.12
425,0,1,-2,-18,-23,-7,-2,-1,2.125
426,-1,1,2,20,26,3,1,-1,2.13
427,0,0,-2,-16,-3,1,0,-2,2.1350000000000002
428,0,-1,0,7,-3,-1,-2,-1,2.14
429,-1,-2,-2,7,-7,-2,0,0,2.145
430,-1,-2,-1,-9,-12,-1,-1,0,2.15
431,0,-1,-1,-3,0,0,-1,-1,2.1550000000000002
432,0,0,-1,-8,-2,1,-1,-2,2.16
433,-1,-1,0,4,0,0,1,-1,2.165
434,0,1,-2,-25,-10,1,-1,0,2.17
435,0,-2,0,26,18,0,0,-1,2.1750000000000003
436,-1,-1,-3,-8,-5,0,-1,-1,2.18
437,-1,-1,1,16,4,1,0,1,2.185
438,-2,-1,-3,-4,-8,-3,1,-2,2.19
439,0,-2,-1,-16,-7,-1,0,-1,2.195
440,-2,0,0,-12,-4,0,0,-1,2.2
441,-1,-2,0,50,24,3,0,-1,2.205
442,0,-2,-1,-6,-1,-2,0,-1,2.21
443,-1,-2,-3,-15,-7,0,-1,-1,2.215
444,2,0,0,-9,5,0,-1,1,2.22
445,-1,-1,-1,13,1,-1,-2,0,2.225
446,-1,-1,-1,-4,-3,-1,-2,-1,2.23
447,-3,-1,-1,3,-12,-2,-1,-2,2.235
448,1,-1,0,11,21,2,1,1,2.24
449,0,0,1,21,-7,-2,-1,0,2.245
450,-1,0,0,-46,5,3,-2,0,2.25
451,-2,-1,-1,19,-2,-3,-1,0,2.255
452,-2,-2,-3,1,-9,-4,-1,0,2.2600000000000002
453,-1,0,1,-11,-4,1,0,1,2.265
454,0,-2,0,15,-8,-4,-3,-2,2.27
455,-1,1,-1,-31,1,1,0,-1,2.275
456,1,-2,0,29,9,0,1,-1,2.2800000000000002
457,-2,-1,-2,-5,8,0,-2,-2,2.285
458,0,1,-1,-5,-10,-3,-1,-1,2.29
459,-2,0,-2,-3,-2,-1,0,0,2.295
460,0,0,0,-7,7,-1,-1,-1,2.3000000000000003
461,-2,-2,-2,-15,-8,0,0,-1,2.305
462,-1,-2,-2,18,10,2,1,2,2.31
463,-1,-1,1,3,-2,-3,-2,-1,2.315
464,-2,-1,0,4,-7,-2,-1,-1,2.32
465,-1,-1,-2,-26,-5,-1,0,-2,2.325
466,-2,-1,-1,1,2,-2,-1,-2,2.33
467,-2,-2,-1,5,-1,0,-1,-3,2.335
468,-1,-1,-1,30,0,-1,-2,0,2.34
469,1,0,-1,-64,-9,-1,1,0,2.345
470,-1,-2,1,30,7,-1,-1,-2,2.35
471,-1,-2,-2,-10,-1,-1,-1,1,2.355
472,-3,-1,-1,5,-8,0,-2,-2,2.36
473,1,0,1,11,-2,-1,-3,0,2.365
474,1,-1,-2,-6,-1,-2,-2,-1,2.37
475,-1,0,-2,-22,-2,1,-1,-1,2.375
476,0,-1,-2,-23,-17,-5,-2,0,2.38
477,-1,0,-1,15,10,1,0,-1,2.3850000000000002
478,-1,1,-1,1,-1,-2,-2,-1,2.39
479,-1,-1,0,1,-9,-2,0,0,2.395
480,-1,1,-2,-7,7,0,0,0,2.4
481,-1,-3,-2,3,3,-1,-2,-2,2.4050000000000002
482,-2,-2,-1,2,-10,-3,0,-1,2.41
483,-2,-1,-1,-18,-7,-3,1,0,2.415
484,-2,-1,0,29,19,3,0,-1,2.42
485,-1,0,-2,2,-1,-3,0,0,2.4250000000000003
486,-1,-1,-1,-9,1,0,-1,-1,2.43
487,0,-2,-1,3,2,-1,-1,-1,2.435
488,-2,-1,-2,-25,-9,1,-2,-2,2.44
489,-1,-1,-1,12,1,-1,0,-1,2.445
490,-1,-3,-2,-17,-15,-1,0,-1,2.45
491,0,0,0,10,-9,-2,1,-1,2.455
492,1,-1,-1,-8,16,1,1,-2,2.46
493,-2,-2,-2,-6,-5,-2,-1,1,2.465
494,-2,-1,0,2,-2,-2,-3,-2,2.47
495,-2,1,0,14,14,1,0,1,2.475
496,-2,-2,-1,2,0,0,-1,0,2.48
497,-2,0,-2,-10,-7,-2,0,-2,2.485
498,-1,0,0,-26,1,-1,-2,0,2.49
499,0,-1,-1,32,15,2,0,-2,2.495
500,-2,0,-2,-7,-15,-5,-1,0,2.5
501,0,0,-1,3,14,1,0,0,2.505
502,-2,-4,-1,-3,-17,-4,-3,0,2.5100000000000002
503,-1,0,1,30,3,1,-3,0,2.515
504,1,-2,-1,-35,-12,-1,-1,-2,2.52
505,0,0,-1,0,-2,0,2,-1,2.525
506,1,1,-2,6,3,0,0,-2,2.5300000000000002
507,0,0,-1,-13,-17,-4,1,-1,2.535
508,0,1,-1,31,12,2,1,-1,2.54
509,-2,-2,0,-3,-5,-4,-4,-2,2.545
510,0,-1,-1,8,0,-1,0,-3,2.5500000000000003
511,0,0,-1,-17,5,1,-3,0,2.555
512,-2,-2,-1,-3,-10,-2,-2,-1,2.56
513,0,-1,0,-24,0,-2,-1,-1,2.565
514,-2,-1,1,36,13,2,0,2,2.57
515,-1,-1,-1,-10,0,-2,-1,-2,2.575
516,-2,-1,-1,-1,-9,-2,0,-1,2.58
517,-2,-1,0,-10,-4,1,0,-1,2.585
518,-1,0,-2,-14,-3,0,-1,0,2.59
519,-1,-3,-2,8,2,-1,-2,-1,2.595
520,0,0,-1,-37,16,2,0,1,2.6
521,-1,-1,-1,-6,-10,-2,-1,-1,2.605
522,0,0,-2,23,16,2,0,-2,2.61
523,-2,-2,-3,-16,-8,-2,-1,0,2.615
524,-1,-1,0,6,-9,-3,0,0,2.62
525,-1,-1,-1,9,5,0,-3,-2,2.625
526,0,-1,-2,-11,-6,0,-1,1,2.63
527,0,-2,0,-3,3,0,-2,-1,2.6350000000000002
528,-1,-1,-1,9,-5,-3,0,-1,2.64
529,-1,0,-1,-34,-3,0,-1,-1,2.645
530,-1,-2,-1,52,13,1,-2,-1,2.65
531,0,-1,0,-5,0,-4,1,0,2.6550000000000002
532,1,-1,1,6,-8,1,0,0,2.66
533,-1,0,-2,1,-5,0,0,1,2.665
534,-1,-1,0,-21,-11,-2,0,-1,2.67
535,-1,0,2,42,1,-2,1,0,2.6750000000000003
536,-1,-2,-1,-34,3,0,-1,-1,2.68
537,0,-1,-1,10,-9,-3,0,-2,2.685
538,-1,-1,0,1,19,4,0,0,2.69
539,0,-1,-2,-17,-14,0,-1,-1,2.695
540,-1,-1,-1,14,5,-2,-1,-1,2.7
541,0,-1,-2,11,5,0,0,0,2.705
542,-1,-2,0,-36,-13,-2,0,1,2.71
543,0,-1,-1,18,11,3,0,-1,2.715
544,1,-1,0,25,-7,-1,0,0,2.72
545,-1,-1,-2,-16,7,1,-1,-2,2.725
546,-1,1,-2,-1,-9,-4,-2,-1,2.73
547,-2,-2,-2,-14,10,2,0,-1,2.735
548,-1,-3,0,-1,-11,-1,-2,-1,2.74
549,0,-3,0,21,1,-2,0,0,2.745
550,1,0,-1,-5,-3,0,-1,0,2.75
551,-1,1,-1,-9,-1,1,0,-1,2.755
552,0,-2,-2,4,-6,-5,0,-3,2.7600000000000002
553,0,0,-1,-12,-6,-4,0,0,2.765
554,0,-1,1,-5,12,4,0,-2,2.77
555,-1,0,-2,11,-3,1,-1,-2,2.775
556,-1,-1,1,-3,6,0,-1,-2,2.7800000000000002
557,-1,-1,0,14,-1,1,0,0,2.785
558,-1,0,-2,-1,-5,-1,0,0,2.79
559,-1,-2,-2,-11,-6,0,-1,0,2.795
560,-1,1,-1,-13,-3,0,-2,-1,2.8000000000000003
561,0,-1,-1,42,4,-1,-2,-1,2.805
562,-2,-1,-2,-6,-3,-4,1,0,2.81
563,2,-2,-1,-14,5,0,-2,1,2.815
564,-2,0,-3,1,-1,-2,-1,0,2.82
565,-1,0,0,-17,-2,0,1,-1,2.825
566,1,0,0,-11,-5,-3,0,0,2.83
567,-2,-1,-1,16,10,-1,0,-2,2.835
568,0,1,1,1,2,-1,0,1,2.84
569,-1,-2,-2,12,20,3,0,-1,2.845
570,-2,-1,-1,20,-7,-2,-1,-1,2.85
571,-3,1,0,-21,-9,-1,-2,0,2.855
572,-2,0,-1,11,2,-2,-1,-2,2.86
573,0,-1,2,-21,-18,-1,-1,1,2.865
574,-1,0,-1,-4,12,1,-2,-1,2.87
575,1,-1,0,10,4,-4,-1,1,2.875
576,0,-2,-3,-6,-6,-2,0,-1,2.88
577,-1,-1,0,14,-5,-2,1,-1,2.8850000000000002
578,-2,-1,-2,-19,-10,-2,-2,-2,2.89
579,-2,0,-1,-9,-13,0,1,-1,2.895
580,-3,1,2,9,11,3,0,-1,2.9
581,-2,-2,0,-6,-1,-2,-1,-1,2.9050000000000002
582,0,-2,1,5,9,-1,1,0,2.91
583,-1,-1,-1,-17,-7,-4,-2,-1,2.915
584,-1,-1,-1,10,-3,-1,-3,-1,2.92
585,-1,-1,-2,11,7,0,-1,-1,2.9250000000000003
586,2,0,0,12,3,6,0,-2,2.93
587,-1,-1,0,-3,0,-1,-1,0,2.935
588,0,-2,-2,-13,1,-1,-2,-1,2.94
589,-3,0,0,-22,-10,-4,-2,0,2.945
590,-1,-1,-1,14,-2,-1,-2,-1,2.95
591,-2,-1,-2,-5,2,1,1,-1,2.955
592,0,-1,-1,2,-14,-4,0,-1,2.96
593,-1,-3,-2,-22,-9,-1,-3,-2,2.965
594,1,-2,-1,-15,-5,-4,-2,0,2.97
595,-1,-1,-1,-3,-3,0,-1,-2,2.975
596,0,0,-2,-1,6,1,0,0,2.98
597,-2,0,-2,5,1,0,1,-2,2.985
598,-1,-2,-1,-8,-1,-1,-2,0,2.99
599,2,0,1,-3,-5,1,-1,0,2.995
600,-1,-1,0,13,-9,-5,-1,-1,3.0
601,1,0,0,4,22,6,0,0,3.005
602,-1,-1,-3,-29,-1,-2,-1,0,3.0100000000000002
603,-2,-1,0,-7,2,0,0,-2,3.015
604,-1,-2,-1,1,-6,-1,-2,-1,3.02
605,-1,-2,-3,-5,-9,-1,-1,0,3.025
606,-2,-2,0,10,-3,-1,1,-2,3.0300000000000002
607,-3,1,0,-12,-8,-3,-3,-2,3.035
608,-1,-1,-2,-6,10,3,2,1,3.04
609,-1,-2,-3,9,-9,-3,-1,-3,3.045
610,-2,-2,0,13,11,-1,-2,0,3.0500000000000003
611,0,0,1,-7,-8,-1,0,-2,3.055
612,-2,0,-2,0,2,0,0,1,3.06
613,1,-1,0,7,5,1,-1,0,3.065
614,-1,-1,-1,-14,-9,-3,-1,1,3.0700000000000003
615,1,-2,-1,22,1,-1,0,0,3.075
616,-1,-2,0,-2,-5,0,-3,-2,3.08
617,2,0,1,4,18,4,-2,-1,3.085
618,1,-1,-1,-5,-3,0,-2,-2,3.09
619,-2,-2,-2,-17,-5,-5,-3,-1,3.095
620,0,-2,0,16,4,2,-2,-2,3.1
621,-2,-1,0,6,-14,-3,-1,0,3.105
622,-1,-1,-1,0,10,1,0,-1,3.11
623,0,-2,-1,10,-3,-2,0,0,3.115
624,-2,-1,-1,-6,-6,0,-1,-1,3.12
625,-2,0,-1,-10,0,-3,0,0,3.125
626,-1,0,0,21,1,-3,2,0,3.13
627,-1,0,-1,-5,6,1,0,0,3.1350000000000002
628,-1,0,-1,-14,-3,-2,-2,0,3.14
629,-1,-2,1,18,4,-1,-3,-3,3.145
630,0,-1,-2,-16,-13,-4,-3,-3,3.15
631,-1,-1,0,-17,2,5,0,-1,3.1550000000000002
632,-1,0,-2,16,13,0,1,1,3.16
633,-2,-2,-2,-3,-5,0,0,1,3.165
634,0,-1,0,-15,1,-1,-1,-1,3.17
635,-2,-2,-1,25,15,0,0,-1,3.1750000000000003
636,-1,-1,1,-7,-4,2,0,-2,3.18
637,0,-1,-1,-5,0,-2,0,-1,3.185
638,-2,-1,-1,-11,-4,-1,-2,-2,3.19
639,-1,-1,-1,8,-3,-1,0,0,3.1950000000000003
640,0,-1,-2,-12,-4,-2,-3,-1,3.2
641,-2,0,-2,4,-1,-2,0,0,3.205
642,-1,-1,-2,11,-3,2,1,1,3.21
643,-1,-3,-1,-5,8,0,-2,-1,3.215
644,-2,0,-2,3,1,-2,-1,-2,3.22
645,0,-2,-2,-14,-8,0,2,-1,3.225
646,-2,-1,-1,-11,-8,-3,-2,-2,3.23
647,0,-1,-2,0,9,2,0,0,3.235
648,-1,-1,0,16,1,2,-1,-1,3.24
649,-1,0,1,6,1,-3,-1,0,3.245
650,-1,-2,-1,-7,-8,-3,-1,-1,3.25
651,-1,0,-2,-2,-5,-3,-2,-2,3.255
652,1,1,1,-10,-7,1,3,0,3.2600000000000002
653,0,-1,-2,-3,-4,-3,-3,-1,3.265
654,0,-1,-1,3,1,0,0,-1,3.27
655,0,-2,-2,-9,-5,-2,0,-1,3.275
656,0,-2,-2,-8,1,-1,0,-1,3.2800000000000002
657,-1,-1,-2,-4,-6,-1,-1,-2,3.285
658,0,-1,-1,21,7,-1,-1,1,3.29
659,0,1,-1,5,-1,0,-2,-1,3.295
660,-3,-1,-1,-11,-11,-2,0,1,3.3000000000000003
661,0,0,-1,2,18,2,1,-1,3.305
662,0,-1,-2,-9,-9,1,-2,-1,3.31
663,0,0,-1,0,-7,-1,0,-1,3.315
664,-2,-2,-2,-15,-13,-3,-4,0,3.3200000000000003
665,-1,-1,0,-7,8,3,1,0,3.325
666,0,0,-1,17,2,0,2,0,3.33
667,-1,-1,-1,0,-4,-2,0,-2,3.335
668,0,-1,0,23,3,-1,0,-2,3.34
669,-2,-2,-3,-39,-9,-2,-1,-1,3.345
670,0,-1,0,-4,4,0,-2,-2,3.35
671,0,-2,0,-13,-1,0,-2,-2,3.355
672,1,0,0,17,-2,-3,0,-1,3.36
673,1,0,2,9,-9,1,1,0,3.365
674,-3,-1,0,3,6,1,1,-2,3.37
675,-1,0,-1,-6,-12,-3,0,-1,3.375
676,0,-1,-4,-13,6,-1,0,-1,3.38
677,-2,-1,-2,4,-13,-3,-1,0,3.3850000000000002
678,0,-1,1,10,26,3,-1,1,3.39
679,-3,-1,-1,-3,-20,-3,-2,0,3.395
680,0,0,-1,-2,24,4,0,-2,3.4
681,1,-2,-1,5,1,-2,-2,-1,3.4050000000000002
682,-2,-2,0,-23,-21,-1,0,-1,3.41
683,-1,-3,-1,12,5,1,-2,-1,3.415
684,-1,0,1,-6,-2,0,0,-1,3.42
685,-1,-1,-1,25,9,-1,0,-2,3.4250000000000003
686,-1,-2,-2,-21,-18,-3,-2,-1,3.43
687,-1,-1,-1,2,10,-1,0,-1,3.435
688,-2,-2,-3,-29,-4,-3,-2,-2,3.44
689,0,-1,-2,-11,-8,-1,-1,-2,3.4450000000000003
690,-3,0,-1,-2,-3,0,0,-1,3.45
691,-1,-1,0,-8,2,1,-1,0,3.455
692,0,-1,-2,13,-2,-2,-2,0,3.46
693,-1,1,-1,-10,-14,-1,-2,-2,3.465
694,0,-2,-1,9,12,-1,-1,0,3.47
695,1,-1,-2,11,-11,0,0,0,3.475
696,-2,0,-1,0,17,1,0,0,3.48
697,0,-1,0,-20,-11,-2,-3,0,3.485
698,1,0,0,38,-4,-1,0,1,3.49
699,-1,-1,-2,-7,6,-3,-1,-2,3.495
700,0,-1,0,9,-3,-2,-2,-1,3.5
701,0,-2,-1,-7,-1,0,0,-1,3.505
702,-1,1,-1,-1,3,-2,-2,-2,3.5100000000000002
703,1,0,0,-5,-1,0,-2,-2,3.515
704,-2,0,0,1,-7,-2,1,-1,3.52
705,0,-2,-2,-9,0,-1,-3,-1,3.525
706,0,0,-2,-9,-1,2,-3,-1,3.5300000000000002
707,0,-1,0,12,12,0,1,1,3.535
708,-1,-2,-3,-17,-4,1,0,-1,3.54
709,-1,1,0,14,-1,-1,0,1,3.545
710,-1,-1,-1,-14,2,-2,-1,-1,3.5500000000000003
711,0,-1,-1,16,7,-1,0,0,3.555
712,0,0,1,0,-15,-3,-2,0,3.56
713,0,-1,0,31,33,5,-1,0,3.565
714,0,-1,-1,-7,-12,-5,1,-3,3.5700000000000003
715,0,0,-1,-16,-5,1,0,0,3.575
716,-1,-2,0,27,-1,-2,-2,-1,3.58
717,0,0,-4,1,-6,-2,-2,-1,3.585
718,0,1,-1,-2,0,0,0,0,3.59
719,-1,0,-1,5,-3,1,0,1,3.595
720,0,0,0,-4,-20,-2,-1,-2,3.6
721,-1,-2,0,-11,3,0,1,-2,3.605
722,-1,-3,0,10,7,1,-1,-1,3.61
723,-2,-1,-1,-2,-4,-2,0,0,3.615
724,0,0,0,-2,-6,-2,-2,-1,3.62
725,-1,-1,-1,-9,-9,-4,-1,-2,3.625
726,0,-1,-1,0,1,-1,0,1,3.63
727,0,-1,-2,-7,-4,-1,-2,0,3.6350000000000002
728,-1,-1,-1,3,12,4,2,0,3.64
729,-2,-1,-1,5,8,2,0,-1,3.645
730,-1,-1,-2,-3,-6,-3,0,-1,3.65
731,1,-1,1,8,1,-2,-2,0,3.6550000000000002
732,-3,-2,-2,-10,-1,-4,0,1,3.66
733,0,-2,-1,-2,-12,0,-1,-1,3.665
734,-1,-1,-2,0,4,3,1,-1,3.67
735,-3,-1,-1,5,1,-2,-1,-2,3.6750000000000003
736,0,-2,-1,-3,3,-1,0,-1,3.68
737,0,1,-1,-39,-19,-5,-1,-1,3.685
738,1,-1,0,29,6,-2,-2,-1,3.69
739,-2,0,-1,4,-11,0,0,1,3.6950000000000003
740,-1,-1,1,-6,16,1,-2,0,3.7
741,-2,-1,-1,45,-1,-1,0,0,3.705
742,-1,0,-2,-30,-6,0,-1,-1,3.71
743,2,-1,-1,-6,0,-4,-1,-1,3.715
744,1,0,0,-11,-7,1,0,-1,3.72
745,0,-2,-2,35,16,1,-2,1,3.725
746,0,-1,-1,8,-2,-1,1,0,3.73
747,-1,-2,0,-10,0,-1,-1,0,3.735
748,1,0,-2,-25,-13,-3,-1,-1,3.74
749,-2,-2,1,40,10,-1,0,0,3.745
750,-1,-2,-2,-6,-9,-3,-2,-2,3.75
751,-1,-1,-1,-3,7,2,-1,-2,3.755
752,-2,-1,0,17,5,2,-1,-1,3.7600000000000002
753,-1,-1,-1,-26,-5,0,-1,-2,3.765
754,0,0,0,0,-6,-3,-2,-2,3.77
755,-2,-1,-2,6,3,-1,-1,-1,3.775
756,-1,-1,-1,-1,-2,-1,-2,-1,3.7800000000000002
757,0,-1,0,-6,2,0,-1,0,3.785
758,-1,-2,0,7,2,0,-2,-1,3.79
759,0,-2,-1,-13,-4,-1,-2,-1,3.795
760,0,0,-1,5,0,0,-3,0,3.8000000000000003
761,-2,0,-1,-12,-3,-2,-2,0,3.805
762,-1,0,0,-36,-6,-2,-1,-1,3.81
763,-1,-3,-1,27,13,-1,-1,0,3.815
764,1,-1,-2,-16,2,0,2,0,3.8200000000000003
765,0,0,0,-21,-8,-2,0,-2,3.825
766,-2,-1,-2,15,11,1,0,-2,3.83
767,-1,0,-2,-46,-29,-3,1,0,3.835
768,-1,-2,-1,41,6,-3,-1,0,3.84
769,0,-1,-1,-6,14,4,0,-1,3.845
770,-1,-1,0,0,-4,0,0,0,3.85
771,0,-1,0,2,-6,-1,-1,-1,3.855
772,-1,0,-2,-5,-1,-2,0,-2,3.86
773,0,0,1,-4,-8,-1,0,0,3.865
774,-1,1,-1,-2,2,0,1,-1,3.87
775,0,-1,0,20,7,0,-3,-1,3.875
776,-1,1,-2,-9,-7,1,0,0,3.88
777,-1,-1,-2,6,7,-1,-2,-1,3.8850000000000002
778,-1,0,2,-12,-6,3,0,0,3.89
779,-2,-1,-1,28,6,0,-1,-1,3.895
780,0,-2,0,-7,-2,-2,0,-3,3.9
781,-1,-1,-2,-5,2,1,-2,0,3.9050000000000002
782,0,-1,0,26,-12,-4,-1,-2,3.91
783,0,1,0,-4,12,4,0,-1,3.915
784,-2,-2,0,-2,-13,-4,-1,-2,3.92
785,0,-1,1,0,20,3,0,-1,3.9250000000000003
786,-1,1,-1,-2,-4,-2,-2,0,3.93
787,-1,-1,-1,-4,0,1,1,-1,3.935
788,0,-1,-2,-3,-6,-2,-3,0,3.94
789,-1,0,-3,-7,-12,-3,-1,-1,3.9450000000000003
790,0,0,-1,3,3,-3,-1,0,3.95
791,1,-2,-1,-11,-10,0,0,-2,3.955
792,1,-1,2,-1,18,4,0,1,3.96
793,1,-2,-1,-21,-12,-2,-1,-1,3.9650000000000003
794,-2,1,-2,14,13,2,-1,1,3.97
795,-1,-1,-1,19,5,-1,2,0,3.975
796,-1,-1,-1,-4,-4,-2,-2,-2,3.98
797,0,-1,-1,10,-2,1,1,0,3.985
798,-1,-2,0,6,6,-1,-2,-1,3.99
799,-1,0,0,-30,-20,-5,-3,-1,3.995
800,-1,-1,-1,35,8,0,-1,-1,4.0
801,0,-1,-1,-40,3,-4,-1,-1,4.005
802,-1,1,-2,-11,-14,-2,0,-1,4.01
803,-1,0,0,7,8,0,-1,-1,4.015
804,-1,0,-2,-12,-1,0,0,-1,4.0200000000000005
805,-2,1,-1,6,-5,-3,-2,0,4.025
806,-1,-2,-3,7,-4,-1,0,0,4.03
807,0,0,-2,-39,-7,-3,-1,0,4.035
808,0,-1,0,6,3,0,-1,-2,4.04
809,-1,0,0,12,-7,0,-2,-2,4.045
810,-2,0,1,0,-1,-1,-1,-3,4.05
811,0,-1,-1,-1,-10,-1,-1,0,4.055
812,-3,-2,-2,1,5,0,-1,-1,4.0600000000000005
813,-1,0,0,6,-6,-2,0,0,4.065
814,0,-2,0,-14,2,-2,-1,-1,4.07
815,0,1,-3,-11,-9,-2,-1,1,4.075
816,1,0,0,13,7,1,-2,-2,4.08
817,-1,-1,-3,0,-16,-4,-1,-2,4.085
818,-1,1,0,5,14,3,0,1,4.09
819,-1,-1,-1,-32,-3,-1,1,-2,4.095
820,-3,-1,0,-9,9,-1,1,-1,4.1
821,0,-2,-2,27,3,-1,-2,-1,4.105
822,0,-1,-1,-6,6,0,0,1,4.11
823,-1,-1,-2,31,7,-2,-3,-2,4.115
824,1,1,-1,-33,-5,1,0,2,4.12
825,0,-1,0,-7,5,-1,-1,-1,4.125
826,0,-1,-1,6,-6,-2,0,-1,4.13
827,-1,-2,0,11,4,1,-1,-1,4.135
828,0,0,-1,0,-10,-3,-1,-2,4.14
829,-2,-1,0,-5,4,0,-1,0,4.1450000000000005
830,0,-2,-1,-13,-20,-3,0,-2,4.15
831,0,-2,1,10,21,1,0,-1,4.155
832,0,-2,0,-14,-9,0,-2,0,4.16
833,0,1,-1,3,-2,-3,-1,0,4.165
834,-3,-1,-2,-35,-5,-1,-2,-2,4.17
835,-2,-2,-3,3,-6,-1,0,-1,4.175
836,-2,-1,-2,1,-2,-4,-2,-2,4.18
837,0,-1,0,4,-5,2,2,0,4.1850000000000005
838,1,-2,-1,3,7,1,-1,-1,4.19
839,0,0,0,-3,-1,-1,-3,-1,4.195
840,0,-1,0,-15,-13,-2,-2,-1,4.2
841,-1,-1,-1,31,6,0,-1,0,4.205
842,-2,-1,-1,8,5,-2,1,-1,4.21
843,-1,-2,-1,-2,1,1,0,0,4.215
844,-1,-1,-3,7,-3,0,2,0,4.22
845,-2,-3,-1,-9,-3,-3,-1,-1,4.225
846,0,0,-1,-9,-8,0,-2,-1,4.23
847,-2,-1,0,-9,22,1,-1,0,4.235
848,-1,-1,-1,32,11,0,-1,-1,4.24
849,-1,1,0,-7,-6,1,0,-2,4.245
850,-1,-2,0,8,-4,0,-2,0,4.25
851,-2,1,-2,-10,-13,-3,-1,-2,4.255
852,0,-1,-1,-8,-7,-1,-1,0,4.26
853,-1,0,-1,-3,8,-2,0,-3,4.265
854,1,-1,-1,6,-2,0,0,-1,4.2700000000000005
855,-1,0,0,10,-9,-2,0,1,4.275
856,-1,-1,-2,-28,0,-2,-2,-1,4.28
857,0,-1,0,-1,1,0,-2,1,4.285
858,-1,1,0,0,-1,-1,-2,-1,4.29
859,0,0,-1,2,-1,-1,-1,0,4.295
860,0,0,1,2,-4,-1,1,-1,4.3
861,0,-2,-1,-2,11,-2,-1,-1,4.305
862,0,-1,0,-16,-1,0,-1,1,4.3100000000000005
863,-1,-2,0,20,-5,2,-4,-2,4.315
864,-1,0,1,0,8,1,0,0,4.32
865,-1,-1,-1,4,-5,-1,1,-1,4.325
866,1,1,-1,-15,-2,-3,0,-1,4.33
867,0,0,1,6,0,-1,-1,0,4.335
868,-3,-1,-2,-4,-18,-4,-1,-2,4.34
869,-1,-2,-3,-23,2,-1,-3,-1,4.345
870,1,0,0,12,17,3,2,0,4.3500000000000005
871,1,0,0,-7,-9,-2,2,-1,4.355
872,0,-1,-2,2,8,1,-2,-2,4.36
873,-1,0,0,-9,-7,0,-2,0,4.365
874,-2,-2,0,16,-2,-3,-2,-1,4.37
875,0,1,-2,36,-1,0,0,-4,4.375
876,2,0,1,-26,2,2,2,0,4.38
877,-1,0,-2,4,-8,-3,-2,-1,4.385
878,0,0,-1,-16,-4,1,0,1,4.39
879,0,-2,-1,3,0,-1,1,1,4.3950000000000005
880,-1,0,-2,42,27,0,-1,-2,4.4
881,0,1,-1,8,-4,0,-1,-1,4.405
882,-2,-1,-2,5,0,-4,0,0,4.41
883,-1,-2,0,-13,1,-2,2,-2,4.415
884,-1,-2,-1,-8,-18,-2,-1,-2,4.42
885,-1,-1,0,-20,2,0,1,-2,4.425
886,-1,1,1,50,25,3,0,0,4.43
887,-1,0,0,-22,3,3,-1,0,4.4350000000000005
888,-2,-1,-2,6,-2,-2,0,1,4.44
889,-2,-1,-1,-8,-12,-2,0,0,4.445
890,0,-1,-1,1,-6,-3,-3,-1,4.45
891,-1,-2,-1,-11,10,2,0,-1,4.455
892,-1,-1,-1,34,-1,-2,-1,0,4.46
893,1,1,-1,-37,1,-1,0,1,4.465
894,-2,-1,-2,-34,-13,-3,0,0,4.47
895,-2,-1,-1,36,9,-1,-1,-2,4.4750000000000005
896,0,-3,-2,-13,-11,-1,-1,-1,4.48
897,1,-1,0,23,-1,0,0,0,4.485
898,0,0,-2,-8,0,-2,0,-2,4.49
899,-2,-1,-1,-15,-1,-1,-1,0,4.495
900,-2,0,-1,-16,-11,-2,-1,0,4.5
901,-1,0,-1,18,9,2,0,-2,4.505
902,-1,-2,-2,-11,-16,-1,-2,-1,4.51
903,2,1,0,-14,10,3,-1,1,4.515
904,-1,1,-1,27,11,1,0,-1,4.5200000000000005
905,-1,-1,0,0,-5,-1,0,-1,4.525
906,-3,-1,0,6,-4,1,-1,-1,4.53
907,-1,-2,-3,3,-9,-6,-1,0,4.535
908,0,0,1,-28,-5,-2,-2,-1,4.54
909,0,-2,-2,11,10,0,-1,-2,4.545
910,-1,-1,-1,3,-3,-3,-2,0,4.55
911,-2,0,-1,-4,-10,-2,-1,-1,4.555
912,0,-1,0,-8,5,1,-1,-1,4.5600000000000005
913,0,-1,0,2,-2,-1,0,-1,4.565
914,0,-1,0,-20,0,0,0,-4,4.57
915,-1,-1,0,27,2,-2,-3,-1,4.575
916,-1,0,-2,-2,-2,-2,-2,0,4.58
917,-1,0,-1,3,-3,0,-2,0,4.585
918,-1,-3,-3,-28,-2,-2,-1,-1,4.59
919,1,1,0,-8,2,0,1,-1,4.595
920,0,-2,-2,-8,-5,0,0,1,4.6000000000000005
921,-1,-3,-2,3,0,-2,-1,-3,4.605
922,0,0,-1,17,-3,-1,0,-2,4.61
923,-1,-2,-2,-4,20,1,-2,-1,4.615
924,0,0,0,-10,-4,1,1,0,4.62
925,-1,-1,0,-18,1,0,-1,-1,4.625
926,0,0,-1,31,3,1,-1,1,4.63
927,-1,-2,-1,-9,-30,-4,2,0,4.635
928,0,0,1,12,6,1,-1,-1,4.64
929,-1,0,-1,-4,-4,-1,1,0,4.6450000000000005
930,0,-1,-1,-6,1,2,0,0,4.65
931,0,0,-1,-17,-11,-3,-1,0,4.655
932,-2,-1,-1,3,3,-1,0,-1,4.66
933,-1,1,-1,-4,-8,0,1,1,4.665
934,-1,-1,1,-1,0,-1,-3,0,4.67
935,-2,-1,-2,0,-5,-3,-1,0,4.675
936,-1,-2,-1,10,0,-1,1,-2,4.68
937,0,-1,-2,-23,2,0,-1,-1,4.6850000000000005
938,1,-1,-1,-4,-7,-1,-1,0,4.69
939,-2,-2,0,-5,0,-3,-1,0,4.695
940,-1,0,0,-7,10,3,-1,0,4.7
941,-1,-1,0,13,-10,-3,0,-2,4.705
942,-2,-2,0,31,22,2,-2,-1,4.71
943,2,-1,-2,-26,-4,-1,0,0,4.715
944,-1,-1,0,40,1,-3,-2,-1,4.72
945,0,-1,-2,3,-3,-2,0,-1,4.7250000000000005
946,1,-1,-1,-7,-8,-3,0,-3,4.73
947,0,-1,-1,4,-5,0,-1,-1,4.735
948,-1,-1,-2,4,3,1,0,-2,4.74
949,2,-1,-1,-1,2,-1,-2,-1,4.745
950,-2,-1,-1,-4,-3,0,0,-2,4.75
951,1,-1,-1,9,5,2,-2,-1,4.755
952,1,-1,-2,-13,-18,-4,-2,1,4.76
953,-1,-2,2,4,3,1,-2,0,4.765
954,-1,0,0,5,-2,1,3,0,4.7700000000000005
955,-1,-2,-1,-9,11,3,-1,-1,4.775
956,-1,0,-1,37,-4,-3,-2,-2,4.78
957,-1,0,-1,-9,-2,-1,0,0,4.785
958,-1,1,-1,1,2,-2,-2,-2,4.79
959,-2,0,-2,-8,-11,-2,-1,-1,4.795
960,0,0,0,-24,1,-1,-1,-1,4.8
961,-1,0,-1,34,2,0,-1,-1,4.805
962,-1,-1,1,-33,-6,-1,-1,-1,4.8100000000000005
963,0,-1,-1,35,7,-2,-1,-3,4.815
964,0,-2,-2,-8,-7,0,0,0,4.82
965,0,-1,-2,-14,3,1,-1,-2,4.825
966,-1,-1,-2,-12,-7,-1,-1,0,4.83
967,-1,-1,0,15,23,2,0,-1,4.835
968,-1,-1,-1,-15,-8,-3,1,0,4.84
969,1,-3,0,-8,-4,-2,-1,-1,4.845
970,-1,-2,-1,37,25,4,0,0,4.8500000000000005
971,1,0,-1,-4,-13,-3,0,-2,4.855
972,-3,0,0,1,-8,1,-1,0,4.86
973,-2,-2,-2,2,16,-1,0,-2,4.865
974,-1,0,-2,-18,-17,-2,0,-1,4.87
975,0,1,-1,2,-1,-1,-1,1,4.875
976,1,0,-3,-9,4,-2,-1,0,4.88
977,-3,-4,-2,-5,-15,-1,-3,1,4.885
978,0,0,0,1,-4,-2,-1,0,4.89
979,-1,1,-2,-8,1,-2,-1,0,4.8950000000000005
980,0,-1,-1,-12,-8,-2,-1,-1,4.9
981,-1,-1,-1,-7,0,0,0,-1,4.905
982,-1,-2,-1,19,5,-1,1,-1,4.91
983,-2,-2,0,-34,-22,-5,-1,-1,4.915
984,-2,-4,-1,-2,18,0,1,-1,4.92
985,-1,-1,0,14,-15,-4,-1,0,4.925
986,1,0,-1,29,12,2,0,0,4.93
987,-2,0,-2,-31,-6,1,1,-2,4.9350000000000005
988,-3,0,0,-2,-2,-1,-1,-1,4.94
989,1,-1,-1,6,-11,-3,1,-1,4.945
990,-1,-1,-1,-3,12,-1,0,0,4.95
991,-1,-2,1,13,1,-1,1,1,4.955
992,-1,-1,0,0,-5,-1,0,-1,4.96
993,-2,0,-2,-29,5,1,-1,0,4.965
994,0,0,1,17,-7,0,0,-1,4.97
995,-1,-1,-2,11,1,-1,-1,-2,4.9750000000000005
996,0,0,-1,-20,3,2,0,1,4.98
997,0,0,0,-21,2,2,-1,-1,4.985
998,-3,-2,-1,8,-6,0,-1,-1,4.99
999,-3,-1,-2,-7,-8,-2,-1,-1,4.995
1000,0,0,1,-1,1,2,1,0,5.0
1001,-2,0,0,11,3,-1,2,-1,5.005
1002,0,-1,-3,-20,-3,-2,-3,-1,5.01
1003,-1,1,0,17,0,0,-1,-1,5.015
1004,0,0,-2,-13,-14,-4,-1,-1,5.0200000000000005
1005,-1,-1,0,8,-3,0,1,1,5.025
1006,-3,0,-1,-39,9,1,0,-1,5.03
1007,-1,-2,-1,18,-3,-2,-2,-1,5.035
1008,-1,-1,-1,11,2,2,-1,-2,5.04
1009,-1,0,-2,-5,-6,-2,-1,0,5.045
1010,-1,0,1,-1,-8,-3,-1,-1,5.05
1011,0,1,0,-13,-2,0,-1,1,5.055
1012,-1,-2,-1,15,-1,-4,-1,-2,5.0600000000000005
1013,0,-2,-1,-9,5,0,-1,-1,5.065
1014,0,-1,-1,-6,-16,-5,0,-1,5.07
1015,0,0,0,-7,19,2,0,-1,5.075
1016,0,-1,0,2,-6,-3,1,1,5.08
1017,0,-1,-1,4,-9,-3,-1,-1,5.085
1018,0,0,-3,-5,4,1,-1,1,5.09
1019,0,-1,0,6,5,2,1,0,5.095
1020,0,0,-2,-10,-7,0,-2,-1,5.1000000000000005
1021,-2,-2,-2,19,-1,-1,-1,-2,5.105
1022,-1,-1,0,-13,-9,-1,-1,0,5.11
1023,-3,0,-2,32,-8,-2,0,-1,5.115
1024,-1,-1,-2,-9,15,0,-2,-1,5.12
1025,0,-1,0,3,11,2,-1,-1,5.125
1026,0,-1,0,0,-9,1,0,-1,5.13
1027,0,0,-1,-9,7,0,-2,-2,5.135
1028,-2,-1,0,-11,-8,-2,-2,-2,5.14
1029,-1,0,0,14,5,-1,0,0,5.1450000000000005
1030,-1,0,-2,-12,-5,-2,-1,-2,5.15
1031,-1,-1,-2,-21,-6,-1,-1,0,5.155
1032,0,0,-2,-11,2,0,0,0,5.16
1033,-1,-1,-1,30,24,1,-3,1,5.165
1034,-2,-2,-3,-12,-5,-2,-3,-1,5.17
1035,-1,-1,0,-9,-4,0,1,0,5.175
1036,-1,-2,-3,16,-4,-1,-2,-1,5.18
1037,-1,-1,-1,-17,-3,-1,1,0,5.1850000000000005
1038,1,-2,-2,-8,-10,-2,-1,0,5.19
1039,0,0,-1,20,22,3,-1,0,5.195
1040,-1,0,1,-2,-1,-1,-2,-1,5.2
1041,0,-1,-1,6,-5,-4,-2,-1,5.205
1042,-1,0,1,8,-3,1,0,0,5.21
1043,-1,-1,-2,-19,-9,-1,-2,-2,5.215
1044,-1,-2,-2,2,-1,-1,0,-2,5.22
1045,-3,1,0,-14,-8,0,-1,-2,5.2250000000000005
1046,0,-2,-1,3,13,2,0,-2,5.23
1047,-1,-2,-2,-2,-11,-2,-2,-1,5.235
1048,-2,-1,-1,7,7,1,2,1,5.24
1049,-2,-1,0,0,-5,-1,-2,-3,5.245
1050,0,0,-1,14,4,1,-1,0,5.25
1051,1,-1,0,41,1,2,-1,0,5.255
1052,0,-1,0,-31,-14,-2,-1,-3,5.26
1053,-1,-1,-1,-11,21,0,1,-1,5.265
1054,-3,-2,0,33,-7,-1,-2,-1,5.2700000000000005
1055,1,0,2,-5,10,-2,0,1,5.275
1056,0,-1,-1,10,1,-1,-1,0,5.28
1057,1,0,-1,-2,-4,0,1,0,5.285
1058,0,-1,-1,-8,4,0,-2,-2,5.29
1059,-3,-4,-3,-7,-9,-3,-1,-2,5.295
1060,0,0,-1,-6,0,1,1,-1,5.3
1061,-1,-1,-1,-11,-7,0,-1,0,5.305
1062,-2,-2,0,16,-5,-3,1,0,5.3100000000000005
1063,0,0,0,-6,4,-1,-1,1,5.315
1064,-1,1,-1,-1,-4,0,-1,-1,5.32
1065,-1,-1,-2,1,-9,0,-3,-1,5.325
1066,2,0,0,6,6,-1,2,0,5.33
1067,0,-1,-2,-10,-1,0,0,1,5.335
1068,-2,-2,0,16,3,0,-1,0,5.34
1069,-1,0,-2,-44,-3,-3,0,-1,5.345
1070,-1,-1,-1,14,2,-1,-1,-2,5.3500000000000005
1071,0,-1,0,-10,-12,-3,-1,-2,5.355
1072,-2,-1,-2,8,18,0,-1,1,5.36
1073,-1,-2,-2,-5,-19,-4,-2,-1,5.365
1074,-1,-1,-1,12,15,1,-1,-1,5.37
1075,-2,-2,0,4,1,-1,-1,-1,5.375
1076,-2,-2,1,1,-9,-1,-1,-1,5.38
1077,-1,1,0,6,3,0,-1,0,5.385
1078,-3,-1,-3,-19,-14,-5,-1,-1,5.39
1079,-2,0,0,-9,1,-2,-1,0,5.3950000000000005
1080,-2,-2,-2,-4,-11,-2,-1,0,5.4
1081,-1,-2,1,13,1,1,-1,-2,5.405
1082,1,-1,-1,-22,15,2,0,0,5.41
1083,-3,0,-3,3,-1,-1,-1,-1,5.415
1084,0,1,-2,-4,-3,1,0,0,5.42
1085,0,-2,1,16,7,1,0,-1,5.425
1086,1,-1,0,-7,-4,-2,-1,0,5.43
1087,0,-2,-1,39,-3,-1,0,-1,5.4350000000000005
1088,3,0,-1,-60,-3,0,-1,-3,5.44
1089,-4,-1,0,60,-11,-1,-2,-1,5.445
1090,-3,0,0,-11,20,3,-1,1,5.45
1091,-1,-2,0,1,1,-1,-2,-1,5.455
1092,1,-1,-2,3,2,1,-1,-1,5.46
1093,0,1,1,-8,-9,-2,1,-2,5.465
1094,-1,0,-1,-12,2,3,-2,-1,5.47
1095,0,1,-1,-4,1,-2,0,-2,5.4750000000000005
1096,-2,-2,-1,8,-5,-2,0,0,5.48
1097,0,-3,1,-12,12,-2,-2,-1,5.485
1098,-2,0,-1,7,-13,-2,-1,-1,5.49
1099,0,-2,-2,-19,-10,-1,-2,-2,5.495
1100,-2,1,0,8,17,-1,-1,1,5.5
1101,-1,0,-2,5,5,2,2,0,5.505
1102,-1,-2,0,0,-15,-5,-1,1,5.51
1103,2,0,0,-27,1,3,-1,0,5.515
1104,0,-1,-1,7,-1,-2,-2,0,5.5200000000000005
1105,0,0,-2,-10,-8,-2,0,-2,5.525
1106,-1,-1,-1,-3,1,-2,0,-2,5.53
1107,-1,-1,-2,-11,2,2,-1,-1,5.535
1108,0,-2,0,15,-5,-3,-1,-1,5.54
1109,1,-1,1,4,10,0,-1,-1,5.545
1110,-1,-1,-1,-18,-4,1,0,-2,5.55
1111,-1,1,-1,5,6,1,0,0,5.555
1112,-3,2,-1,-2,-4,0,-1,-1,5.5600000000000005
1113,-2,-3,0,-5,-8,-3,-4,0,5.565
1114,-1,-1,-1,3,-4,-1,0,0,5.57
1115,-1,0,-2,-12,9,-1,0,0,5.575
1116,-1,0,-1,46,15,0,0,-2,5.58
1117,-2,1,-1,-19,-18,-1,1,0,5.585
1118,0,-1,0,-18,0,-2,-1,0,5.59
1119,-1,0,0,52,4,0,-1,-1,5.595
1120,-1,-2,-1,-47,8,1,0,-1,5.6000000000000005
1121,-2,1,-2,3,2,-2,0,-2,5.605
1122,-2,-1,-4,-18,-10,-3,-1,-2,5.61
1123,-1,0,-1,2,2,-2,0,-1,5.615
1124,-1,-1,-2,10,-1,-1,-2,-1,5.62
1125,-1,-2,-2,4,-2,0,-1,-1,5.625
1126,0,-1,-2,-2,8,3,0,0,5.63
1127,-3,-2,-2,-9,-20,-6,-1,-1,5.635
1128,-1,-1,1,16,18,5,2,-1,5.64
1129,-1,-1,-3,-28,2,-2,-1,-1,5.6450000000000005
1130,0,0,1,-6,-10,-1,-1,-1,5.65
1131,-1,-1,-2,15,0,-1,-1,-1,5.655
1132,-2,0,-1,-4,-10,-4,-3,-1,5.66
1133,-2,-1,-2,-1,-15,-3,-2,0,5.665
1134,-1,-1,0,8,14,0,0,0,5.67
1135,-1,-2,0,-32,-9,0,0,-1,5.675
1136,-2,-2,-2,15,-7,-2,1,-1,5.68
1137,-2,-1,-1,-26,3,1,0,0,5.6850000000000005
1138,-1,-1,-1,39,-1,-2,-2,-2,5.69
1139,0,-1,-1,-6,0,-1,1,-1,5.695
1140,1,-2,-1,-10,-2,3,0,-3,5.7
1141,0,0,-1,18,6,1,-2,-1,5.705
1142,-1,-4,0,-5,-12,-1,-2,-1,5.71
1143,-2,-2,-1,3,13,0,0,-2,5.715
1144,0,-2,-2,-9,-6,-1,-2,-1,5.72
1145,1,-1,1,6,7,1,2,-1,5.7250000000000005
1146,-1,-1,0,4,0,-2,0,0,5.73
1147,0,0,-1,-17,-10,0,0,0,5.735
1148,-1,-2,-1,17,0,-4,0,-1,5.74
1149,1,-1,1,-2,2,1,-1,-1,5.745
1150,-2,1,-2,4,-1,-1,-1,-1,5.75
1151,-2,-2,0,-19,-16,-4,-1,-1,5.755
1152,0,1,-2,-17,-8,1,1,1,5.76
1153,0,-2,0,13,7,1,-1,0,5.765
1154,0,1,-2,6,2,1,0,1,5.7700000000000005
1155,-2,0,-1,0,-7,-2,0,-1,5.775
1156,0,-1,2,42,-4,-2,-4,-1,5.78
1157,-2,-1,-2,-29,18,2,0,-3,5.785
1158,-1,-1,0,20,-2,0,-1,-1,5.79
1159,-2,-1,-2,-6,3,1,-1,0,5.795
1160,-2,-1,-2,-20,-18,-5,0,-1,5.8
1161,-1,-1,-2,39,6,1,0,-2,5.805
1162,1,0,1,-12,15,2,0,-1,5.8100000000000005
1163,-2,0,-1,2,1,0,1,0,5.815
1164,0,0,-1,-11,-6,-2,-2,-1,5.82
1165,-2,0,-1,1,-14,-2,-3,-2,5.825
1166,-1,-1,0,-10,2,0,2,0,5.83
1167,-1,-1,0,17,5,2,-2,0,5.835
1168,-2,-1,0,-22,-13,-2,0,-2,5.84
1169,-1,-2,-1,-4,3,-1,-2,-2,5.845
1170,2,-1,0,3,-7,-1,-1,0,5.8500000000000005
1171,0,0,-2,-4,-1,-1,-1,-1,5.855
1172,-1,0,-2,1,4,2,-1,0,5.86
1173,0,0,-1,-7,-9,-2,-1,-2,5.865
1174,-2,-1,-2,1,-5,-1,0,-1,5.87
1175,0,0,0,-4,2,-1,-1,0,5.875
1176,0,-1,-1,-1,7,-1,0,-1,5.88
1177,-1,-1,0,-7,-6,-1,0,0,5.885
1178,0,-1,-2,36,0,-1,-1,0,5.89
1179,-2,-2,-1,-16,-12,-4,-4,-3,5.8950000000000005
1180,-1,1,1,9,31,5,0,1,5.9
1181,-2,-1,0,0,-10,-3,0,0,5.905
1182,0,-1,-1,-10,14,-2,-1,-1,5.91
1183,1,-1,-2,-4,-3,0,2,-1,5.915
1184,0,-1,-1,9,-7,-2,-1,-2,5.92
1185,0,-1,-1,2,10,0,-1,0,5.925
1186,-3,-2,-3,-20,-16,0,-1,-1,5.93
1187,0,0,0,4,3,2,-2,-1,5.9350000000000005
1188,-1,-1,-1,-14,-3,-1,0,0,5.94
1189,0,0,-2,-3,-6,-1,0,1,5.945
1190,-1,0,-2,-4,-1,-2,0,-2,5.95
1191,-1,-1,-1,1,5,-1,-1,0,5.955
1192,-2,0,-1,11,-2,0,0,0,5.96
1193,-2,-2,1,-13,-2,0,-2,-1,5.965
1194,1,0,-3,17,-3,-1,-3,-1,5.97
1195,-1,-1,-2,43,14,3,0,0,5.9750000000000005
1196,-1,-1,0,-25,-13,0,-1,-1,5.98
1197,-2,-1,-2,-6,5,-4,-1,-1,5.985
1198,1,0,0,-40,-5,0,2,0,5.99
1199,-1,0,0,12,-16,-2,-1,-1,5.995
1200,-1,-2,-2,12,18,0,-1,-1,6.0
1201,-2,-1,-1,-1,11,0,-1,0,6.005
1202,0,-1,0,-1,-7,-1,0,1,6.01
1203,-1,-2,-2,-5,-1,-1,-2,-2,6.015000000000001
1204,-1,0,0,-7,-16,-1,0,0,6.0200000000000005
1205,-1,-1,-1,6,-6,-2,-2,0,6.025
1206,-1,0,1,-6,10,2,-1,-1,6.03
1207,-1,-1,0,4,-12,-6,0,0,6.035
1208,0,0,0,-16,1,0,0,0,6.04
1209,0,0,-1,16,-5,1,2,-1,6.045
1210,-2,-2,0,0,-12,-2,-1,0,6.05
1211,-1,0,-1,10,11,2,-1,-1,6.055
1212,-1,0,0,-2,-11,-2,-1,0,6.0600000000000005
1213,1,0,0,-11,8,-2,-1,0,6.065
1214,0,1,0,-1,9,-2,-1,1,6.07
1215,-2,-1,-3,0,12,1,0,-3,6.075
1216,-2,-1,-3,-7,-4,-3,-1,-1,6.08
1217,-1,-1,-1,-5,-3,2,-1,-1,6.085
1218,-1,-1,-1,-10,-4,-1,0,0,6.09
1219,-1,1,2,4,-1,0,1,1,6.095
1220,-1,-2,-1,9,0,-2,1,-1,6.1000000000000005
1221,-1,0,-2,-4,-7,-2,0,-1,6.105
1222,-2,-3,-2,-10,1,-2,1,-1,6.11
1223,0,-2,-1,-10,-3,-3,-2,1,6.115
1224,-2,-1,-2,-8,-3,2,-2,-2,6.12
1225,0,-1,-1,1,-5,0,-1,-2,6.125
1226,-1,-1,-2,17,0,1,0,-1,6.13
1227,-2,0,-2,-31,-15,-2,-1,-1,6.135
1228,0,-1,1,22,1,-2,-1,-1,6.140000000000001
1229,-1,2,-2,20,13,2,2,0,6.1450000000000005
1230,0,0,0,17,14,-1,-2,-2,6.15
1231,1,-1,-1,-19,-5,0,-2,-2,6.155
1232,0,-1,0,-9,-10,-7,-3,-2,6.16
1233,1,-2,1,14,-12,0,0,0,6.165
1234,-2,-1,-4,-13,-10,-2,-2,-2,6.17
1235,-1,0,-1,-2,6,1,0,0,6.175
1236,-3,-2,-3,-5,0,-2,-2,-1,6.18
1237,1,0,2,-5,-4,-1,-2,1,6.1850000000000005
1238,-2,0,-1,-9,-6,-1,-1,1,6.19
1239,-2,-2,-2,4,9,0,-2,-2,6.195
1240,0,-2,-1,-1,-1,-2,-1,0,6.2
1241,-2,0,-1,-17,-1,-1,-1,-1,6.205
1242,0,-1,-1,0,-6,-3,-1,-1,6.21
1243,-2,-1,0,2,5,1,1,0,6.215
1244,-1,-2,0,46,6,0,1,0,6.22
1245,0,-2,-2,-1,14,2,0,0,6.2250000000000005
1246,1,-2,1,-7,-4,-3,-1,0,6.23
1247,0,-1,0,-18,-11,-1,1,0,6.235
1248,1,1,-2,-3,-5,1,1,-2,6.24
1249,-2,-1,-1,6,16,1,-1,-1,6.245
1250,-1,-1,-1,3,-6,-2,0,-3,6.25
1251,-2,0,0,-1,11,2,0,0,6.255
1252,0,0,1,-15,5,-2,-2,0,6.26
1253,0,-1,0,20,-5,-1,-2,0,6.265000000000001
1254,-1,0,0,0,-11,-2,0,0,6.2700000000000005
1255,-1,-1,-2,5,12,1,-1,-2,6.275
1256,-1,-1,-1,-15,-1,2,-1,-3,6.28
1257,-3,-2,-1,1,-6,-3,0,-2,6.285
1258,-1,0,0,6,0,-2,-4,-1,6.29
1259,1,-1,-1,-19,-3,-3,-2,-1,6.295
1260,0,0,-1,-6,5,1,0,1,6.3
1261,0,-1,-1,-9,-2,0,0,-1,6.305
1262,1,-2,-2,1,2,1,1,0,6.3100000000000005
1263,-1,-1,-1,0,-15,-3,-1,-1,6.315
1264,0,0,-2,-2,2,2,0,-2,6.32
1265,-1,-1,-3,-20,-8,-3,-2,-1,6.325
1266,-1,-2,1,17,15,0,-1,-1,6.33
1267,1,-1,0,-3,-12,0,1,1,6.335
1268,-1,-1,0,8,6,3,0,0,6.34
1269,-2,-1,-1,13,-12,-3,-2,-1,6.345
1270,-1,0,-3,-14,-1,-1,-2,-1,6.3500000000000005
1271,-3,-2,-2,3,-10,-1,0,0,6.355
1272,-1,0,-2,-21,15,1,0,-3,6.36
1273,0,-2,-1,-2,-3,-2,0,-1,6.365
1274,-1,0,1,-5,-7,-1,-2,0,6.37
1275,-1,-1,0,35,5,0,-3,0,6.375
1276,-3,-1,-1,-11,-10,0,0,0,6.38
1277,0,-1,-2,0,10,-1,-2,-2,6.385
1278,0,-2,-1,-14,0,3,1,1,6.390000000000001
1279,0,-2,-1,10,2,-2,-2,-3,6.3950000000000005
1280,-1,-1,-1,11,-25,-6,-2,-2,6.4
1281,0,0,2,-9,20,5,-1,0,6.405
1282,-1,0,-3,3,-6,-1,0,-1,6.41
1283,-1,0,0,-12,1,-1,-1,-2,6.415
1284,0,-1,-1,3,4,-2,-1,0,6.42
1285,0,-1,0,-1,-20,-4,0,0,6.425
1286,-1,0,-1,-2,2,0,-4,-2,6.43
1287,1,-1,-1,-4,2,0,1,-1,6.4350000000000005
1288,0,0,0,7,5,-2,1,0,6.44
1289,-1,1,-1,-11,-11,-4,-1,-2,6.445
1290,-2,-1,0,4,3,-1,0,0,6.45
1291,0,0,0,1,-1,0,-1,-1,6.455
1292,0,-1,-3,-4,-1,0,0,1,6.46
1293,-2,-3,-2,-4,-2,-2,-1,0,6.465
1294,-1,0,-2,6,-1,0,-1,-2,6.47
1295,-1,0,1,4,0,-1,0,0,6.4750000000000005
1296,-1,-2,-1,-16,-3,-3,-3,-1,6.48
1297,0,-1,-2,-8,8,-1,-1,0,6.485
1298,-2,-1,-1,30,1,-2,-1,-1,6.49
1299,0,0,-2,-6,-1,-2,0,-1,6.495
1300,0,-1,1,32,-6,-2,-3,-2,6.5
1301,0,1,-1,-10,3,5,2,0,6.505
1302,1,-2,0,-4,10,-1,-1,-2,6.51
1303,-1,-1,-1,-11,-14,-2,0,-1,6.515000000000001
1304,0,-2,0,14,3,1,-2,-2,6.5200000000000005
1305,0,0,-1,-8,-9,-5,0,-1,6.525
1306,-1,0,0,-7,-4,0,-1,0,6.53
1307,0,0,-1,-2,-1,0,-1,0,6.535
1308,-1,-1,-2,-14,-1,-1,0,0,6.54
1309,-1,-1,-1,5,0,1,-2,0,6.545
1310,0,-1,-3,-9,-1,-1,-1,-1,6.55
1311,-2,-1,-2,-8,-13,-5,-1,0,6.555
1312,-1,-2,1,0,11,1,2,0,6.5600000000000005
1313,0,-2,-2,-1,2,-2,0,-2,6.565
1314,-2,-2,-2,-11,-8,-1,-1,-1,6.57
1315,-1,-1,-3,-25,-1,0,-2,-3,6.575
1316,1,-1,-3,47,9,0,1,0,6.58
1317,-1,1,2,14,1,1,1,1,6.585
1318,1,-1,1,-5,4,-1,-2,2,6.59
1319,0,-2,-1,23,-6,0,0,1,6.595
1320,-1,-1,-1,-32,-6,-2,-3,-3,6.6000000000000005
1321,-1,-2,-2,2,2,0,-2,-2,6.605
1322,-2,-2,0,-2,-15,-3,1,-1,6.61
1323,-1,1,0,1,13,0,0,1,6.615
1324,-1,-2,-1,-2,-5,-1,-1,0,6.62
1325,0,-1,-2,-4,-6,-1,0,-2,6.625
1326,-1,0,-1,7,5,-2,-1,0,6.63
1327,0,-1,0,0,2,-1,-1,-1,6.635
1328,-2,-1,-2,-9,-9,-3,-2,0,6.640000000000001
1329,-3,0,-2,-10,-9,-2,1,0,6.6450000000000005
1330,-1,1,-1,1,19,2,-1,0,6.65
1331,-1,-2,0,-11,-9,-3,-2,-1,6.655
1332,-1,-1,-1,-10,2,-1,-1,0,6.66
1333,1,-1,1,20,4,0,-1,0,6.665
1334,-1,-2,-1,1,-7,-2,0,0,6.67
1335,-2,-1,0,1,-1,-1,0,0,6.675
1336,0,0,-1,-20,-7,-1,-1,-1,6.68
1337,-3,-3,-2,8,-11,-3,0,-1,6.6850000000000005
1338,-1,1,-1,3,11,0,0,-2,6.69
1339,0,-1,-2,-3,-7,0,-1,-2,6.695
1340,0,-2,-1,-5,12,0,-1,1,6.7
1341,0,-1,0,5,4,0,1,0,6.705
1342,0,-3,-1,-3,-12,-1,1,0,6.71
1343,-1,-2,-2,7,3,-1,-2,-2,6.715
1344,0,0,0,8,-1,1,1,-1,6.72
1345,0,-1,-1,-3,-6,-2,-2,-2,6.7250000000000005
1346,0,1,-1,-18,-3,-3,-1,0,6.73
1347,-2,-2,-2,5,7,1,-2,-2,6.735
1348,-1,0,-1,-23,-6,-1,-1,-1,6.74
1349,-1,-1,-2,25,8,0,-2,-2,6.745
1350,0,-1,-2,-37,-8,0,-1,-2,6.75
1351,0,-1,1,18,4,0,1,0,6.755
1352,-2,-1,-1,4,4,0,-2,-3,6.76
1353,-1,-1,-2,-8,-6,-2,0,1,6.765000000000001
1354,-1,0,-1,10,-12,-2,-1,-1,6.7700000000000005
1355,1,-2,-1,-8,3,2,0,0,6.775
1356,-2,-1,-1,36,-10,-4,-1,1,6.78
1357,-1,-1,1,-11,12,5,0,0,6.785
1358,-1,-3,-1,14,2,-1,-1,-2,6.79
1359,-1,0,0,-19,-4,-1,-2,-2,6.795
1360,0,0,0,12,0,0,1,0,6.8
1361,1,-1,0,-2,-2,-2,-2,0,6.805
1362,1,-1,-3,-19,-4,0,-1,0,6.8100000000000005
1363,-2,-1,-3,11,4,-1,-1,0,6.815
1364,0,-1,-1,-15,-3,-1,0,0,6.82
1365,0,-1,-3,-9,-9,-3,-2,-2,6.825
1366,-1,-2,-1,10,8,3,0,-1,6.83
1367,0,1,1,15,-7,-3,1,0,6.835
1368,-3,-1,-2,-37,3,-1,-1,-1,6.84
1369,0,0,0,-12,-9,-1,0,-2,6.845
1370,-1,-1,0,61,23,0,1,-1,6.8500000000000005
1371,-1,0,-1,-1,7,0,-1,-2,6.855
1372,0,-1,-1,-4,-1,-2,0,-1,6.86
1373,-2,-3,-2,-3,-15,-4,-3,-2,6.865
1374,-1,-1,-1,-11,-3,1,-1,-1,6.87
1375,1,1,1,1,4,3,2,1,6.875
1376,0,0,0,-7,0,0,1,-1,6.88
1377,0,-1,-3,-1,3,-2,-3,1,6.885
1378,-2,-2,-1,0,-7,-1,-2,-1,6.890000000000001
1379,-2,-2,-3,-6,-7,-3,-2,-1,6.8950000000000005
1380,-2,-1,0,16,2,1,-1,-2,6.9
1381,-1,0,-1,-1,2,0,-1,-1,6.905
1382,-1,-1,-2,-14,6,1,0,-1,6.91
1383,-1,-1,-1,-1,-7,-2,-2,-2,6.915
1384,0,0,-2,1,-5,0,-1,0,6.92
1385,-2,-2,-1,-9,2,0,-1,-1,6.925
1386,0,-1,1,-9,-7,-5,-2,0,6.93
1387,-2,-4,-1,14,-3,-3,-2,-2,6.9350000000000005
1388,0,-1,0,12,2,2,-1,1,6.94
1389,-2,1,0,-6,1,-2,-3,-1,6.945
1390,-1,0,-2,-23,-22,-4,-2,-1,6.95
1391,-1,0,-1,11,15,3,2,0,6.955
1392,-1,-2,-1,4,-8,-4,-2,-2,6.96
1393,0,-2,-1,-6,8,3,0,-2,6.965
1394,-2,-2,-2,1,-5,-5,-3,-2,6.97
1395,0,1,1,-17,-1,2,0,1,6.9750000000000005
1396,0,-2,-2,3,-3,-1,-1,-3,6.98
1397,-1,0,0,0,-10,-2,0,0,6.985
1398,-1,-2,-1,14,4,-2,1,-1,6.99
1399,0,-1,0,-6,-7,-3,-3,-1,6.995
1400,-1,-1,-1,-6,3,-1,1,0,7.0
1401,0,-2,-1,-1,-3,-2,-2,-1,7.005
1402,-1,0,-1,-27,6,2,1,-1,7.01
1403,0,-1,-1,-2,-10,-3,-2,2,7.015000000000001
1404,-1,0,-1,30,9,2,1,-1,7.0200000000000005
1405,0,-3,-1,-4,4,-1,1,0,7.025
1406,-1,-1,-3,4,-2,-1,-1,-1,7.03
1407,-1,-1,-1,-1,3,0,0,-1,7.035
1408,-1,0,-2,-29,-9,-3,0,-2,7.04
1409,-2,0,-1,5,-5,-1,1,1,7.045
1410,0,-2,-3,9,2,-1,-1,0,7.05
1411,-2,0,-3,-30,-1,-2,-1,-2,7.055
1412,-1,-1,0,5,23,1,-1,0,7.0600000000000005
1413,-2,-2,-1,4,2,-1,-2,0,7.065
1414,0,1,-1,-7,-5,-2,1,0,7.07
1415,-2,-1,-2,10,-1,-1,0,-1,7.075
1416,0,-1,-3,-8,-5,1,-2,0,7.08
1417,0,-1,0,-4,1,-2,0,-1,7.085
1418,0,0,0,5,-6,0,-2,0,7.09
1419,-1,-1,-1,5,-5,-1,0,0,7.095
1420,-1,-1,0,-8,-9,-2,1,-1,7.1000000000000005
1421,1,-1,-1,6,7,1,-1,-1,7.105
1422,0,1,1,-7,-16,-3,-1,-2,7.11
1423,0,1,-1,26,14,2,-2,-1,7.115
1424,0,-2,-3,-18,-10,-3,-1,-1,7.12
1425,-1,-1,-1,14,-1,-3,0,-1,7.125
1426,-2,1,0,10,5,2,1,1,7.13
1427,-1,1,-1,-23,-7,-2,0,-1,7.135
1428,-1,-1,0,13,-16,-2,1,-1,7.140000000000001
1429,1,0,0,29,23,4,2,-2,7.1450000000000005
1430,1,-1,-1,-49,2,-1,-1,0,7.15
1431,-2,-4,-2,-3,-15,-3,-1,-1,7.155
1432,0,0,-2,9,16,1,-1,1,7.16
1433,-3,1,-2,-19,-17,-1,0,0,7.165
1434,-2,-1,-1,17,1,0,0,-1,7.17
1435,0,0,0,-17,0,-2,1,0,7.175
1436,-1,-1,0,19,4,2,-2,-1,7.18
1437,-1,-1,0,-10,-7,-1,0,-1,7.1850000000000005
1438,0,-3,-1,16,8,-3,-2,-3,7.19
1439,-1,-1,1,-5,7,1,-1,-2,7.195
1440,0,-1,-1,-15,-6,-1,0,-1,7.2
1441,-1,0,0,11,-6,0,0,0,7.205
1442,-2,0,1,5,-11,-1,0,-1,7.21
1443,-1,-2,-2,0,3,0,0,-1,7.215
1444,0,-1,-1,-11,-3,-2,-2,0,7.22
1445,-2,0,-1,-1,4,0,0,0,7.2250000000000005
1446,1,-1,-1,-2,-3,3,-1,-2,7.23
1447,1,0,-2,-14,-2,-2,0,-1,7.235
1448,-3,-1,0,22,0,-1,-1,-1,7.24
1449,0,-3,-1,-13,3,-2,-1,-1,7.245
1450,0,-2,0,28,-6,-4,0,-1,7.25
1451,0,1,0,-6,3,-1,0,0,7.255
1452,-1,2,-3,-25,-16,-1,-1,-1,7.26
1453,-2,-1,-1,-2,10,0,-2,0,7.265000000000001
1454,-1,0,-2,8,8,1,-3,0,7.2700000000000005
1455,0,-1,-1,13,-12,-2,-2,-3,7.275
1456,-1,0,0,-15,3,0,-1,0,7.28
1457,1,-1,-1,4,-10,0,0,-1,7.285
1458,-1,1,-1,-12,0,-1,-1,-1,7.29
1459,-2,-2,-2,3,6,0,0,-1,7.295
1460,-1,-1,1,3,-2,1,1,-1,7.3
1461,-1,-1,0,-12,-5,-4,-2,-1,7.305
1462,-1,0,-1,-1,3,1,-2,1,7.3100000000000005
1463,-2,-1,-1,1,-4,-2,-2,-1,7.315
1464,-1,-2,-2,0,0,-3,-2,0,7.32
1465,1,-2,0,-9,2,1,-3,-1,7.325
1466,-1,-2,-1,16,-12,-1,1,0,7.33
1467,0,-2,0,12,25,2,-1,0,7.335
1468,-2,-2,-2,-7,-13,-3,-2,-2,7.34
1469,-1,-1,0,20,5,0,2,0,7.345
1470,-1,-1,-2,-39,15,2,2,-1,7.3500000000000005
1471,0,1,-3,-10,-10,-3,-2,-2,7.355
1472,1,-1,0,8,7,1,2,1,7.36
1473,0,-1,-1,-6,-15,-3,-1,-2,7.365
1474,-2,-1,-2,6,-1,0,0,0,7.37
1475,1,1,1,-13,5,-1,1,0,7.375
1476,-1,-2,-2,7,1,-2,-1,-1,7.38
1477,-2,-2,-2,-5,-8,-2,-1,0,7.385
1478,0,-3,-1,-1,7,2,-2,0,7.390000000000001
1479,-3,-3,-1,9,-6,1,-2,-2,7.3950000000000005
1480,1,0,0,-7,-4,-1,1,-1,7.4
1481,0,1,-1,-4,8,1,-2,0,7.405
1482,-3,-1,0,5,-15,-5,-3,-2,7.41
1483,-1,0,-1,-5,-3,1,1,0,7.415
1484,-1,-1,-1,-36,-17,-3,-1,-1,7.42
1485,-1,-1,-1,58,22,2,0,-1,7.425
1486,1,0,-1,-9,1,0,-1,-1,7.43
1487,-2,-1,-1,26,5,-2,0,-1,7.4350000000000005
1488,-1,-1,0,-6,0,1,-1,0,7.44
1489,-1,0,-2,-21,-14,-2,-1,-1,7.445
1490,0,0,0,-29,-1,-3,-2,-2,7.45
1491,-3,-2,-2,35,14,1,0,0,7.455
1492,-2,-2,-1,-1,1,-1,-3,-3,7.46
1493,-2,-1,0,0,-13,-5,0,-1,7.465
1494,0,-2,0,13,-6,-1,1,0,7.47
1495,-7,-5,-2,-42,-5,-4,-2,-4,7.4750000000000005
1496,-5,0,-1,9,-3,-2,0,-1,7.48
1497,10,10,0,4,12,4,2,5,7.485
1498,5,-3,-2,-69,-10,-5,-3,-2,7.49
1499,2,-5,-1,46,-7,-3,-2,0,7.495
1500,-1,-4,-1,16,25,-4,-2,-2,7.5
1501,-7,-3,-1,-27,1,6,-1,-4,7.505
1502,0,6,-4,-61,-39,-19,-6,-5,7.51
1503,11,1,-1,33,62,23,5,6,7.515000000000001
1504,-4,-1,3,5,10,0,1,1,7.5200000000000005
1505,-8,-4,-3,33,-21,-9,-2,-3,7.525
1506,3,-5,-3,-63,0,2,-1,-2,7.53
1507,-6,3,-3,10,-35,-12,-4,-4,7.535
1508,7,-9,-3,-6,-23,-11,0,-1,7.54
1509,1,12,4,-22,14,16,5,1,7.545
1510,-10,-19,-3,110,-1,-2,-3,-3,7.55
1511,1,12,0,-84,-35,-17,-7,-3,7.555
1512,18,22,7,44,59,31,9,7,7.5600000000000005
1513,-3,-10,-3,5,-87,-28,-7,-4,7.565
1514,18,19,9,70,86,25,13,6,7.57
1515,-23,-95,1,22,-52,-11,2,2,7.575
1516,-21,-3,-7,20,95,31,9,-11,7.58
1517,21,14,0,-38,-62,-29,-23,13,7.585
1518,-12,14,4,112,74,18,-1,-10,7.59
1519,23,18,1,-8,-2,2,-5,-5,7.595
1520,-24,-7,-12,-31,-43,-9,0,-4,7.6000000000000005
1521,-5,-10,-10,-76,64,15,10,5,7.605
1522,17,15,9,-127,-127,-28,-2,3,7.61
1523,-4,60,-4,104,76,22,-3,-17,7.615
1524,14,-47,-3,-17,-12,-17,-16,3,7.62
1525,-29,-11,0,-1,-5,3,10,0,7.625
1526,-14,-26,-37,-44,-13,-13,-16,7,7.63
1527,4,-2,7,-59,-13,13,10,14,7.635
1528,16,38,11,-5,-49,-9,-4,-19,7.640000000000001
1529,-3,-12,4,4,-17,-6,-1,-3,7.6450000000000005
1530,-11,-29,-10,-105,-59,2,-12,-9,7.65
1531,-16,7,7,94,5,1,-3,0,7.655
1532,25,34,-7,-98,3,-9,0,3,7.66
1533,27,-14,3,-25,44,16,2,3,7.665
1534,-32,-14,2,95,-9,8,2,3,7.67
1535,27,82,-17,-43,18,-4,0,14,7.675
1536,-22,-59,0,-53,-52,-19,-12,4,7.68
1537,9,2,13,16,56,21,12,-13,7.6850000000000005
1538,-9,9,-11,-31,-92,-26,0,10,7.69
1539,-19,-11,20,-13,15,8,12,-39,7.695
1540,-30,10,2,-61,-108,-32,-18,2,7.7
1541,16,10,-13,116,86,30,7,-5,7.705
1542,46,13,4,-53,15,-5,7,5,7.71
1543,-28,-5,6,53,55,6,-7,9,7.715
1544,-6,-25,11,63,-30,-1,10,6,7.72
1545,-6,1,6,-54,-80,-20,-7,-16,7.7250000000000005
1546,-6,-22,1,96,121,18,7,5,7.73
1547,40,22,-15,-68,-36,-8,2,2,7.735
1548,7,12,-13,-28,-23,-3,-1,-1,7.74
1549,6,31,2,18,4,-7,1,9,7.745
1550,8,50,6,-4,22,10,2,1,7.75
1551,-44,-101,-1,-72,-51,-19,-4,-1,7.755
1552,-11,14,1,41,54,17,-6,-14,7.76
1553,25,-25,-16,-88,-18,1,0,12,7.765000000000001
1554,-49,-23,6,-80,-55,-14,3,0,7.7700000000000005
1555,-19,-19,-16,34,36,-1,-7,-31,7.775
1556,31,92,14,-66,47,6,0,10,7.78
1557,-4,-13,1,-37,-24,0,-1,0,7.785
1558,1,-27,-12,-8,14,-2,0,-8,7.79
1559,-11,-34,-28,-66,-21,-7,-1,11,7.795
1560,-2,-12,0,-21,-50,-23,4,-4,7.8
1561,20,58,16,126,97,41,5,12,7.805000000000001
1562,13,-1,1,25,-24,-2,-2,-5,7.8100000000000005
1563,-50,-52,12,-45,-55,-6,-3,4,7.815
1564,24,7,-4,-12,8,3,1,0,7.82
1565,-14,34,3,66,17,-17,-4,-18,7.825
1566,-24,-26,1,15,80,24,5,14,7.83
1567,-8,-6,-3,-72,-1,-6,-6,2,7.835
1568,30,3,24,127,65,31,12,-1,7.84
1569,-47,-18,-40,-84,-75,-23,-8,2,7.845
1570,21,-20,13,8,22,9,0,-12,7.8500000000000005
1571,13,18,-2,-44,-69,-14,-1,1,7.855
1572,1,38,-3,-2,-31,0,5,9,7.86
1573,19,5,5,-88,4,-7,-5,-5,7.865
1574,-26,-15,1,127,26,0,5,0,7.87
1575,22,-13,-12,-70,9,1,2,-7,7.875
1576,-41,-16,-26,-70,-53,-7,-12,-4,7.88
1577,4,-18,13,116,8,2,4,-4,7.885
1578,16,34,2,-50,-42,-11,-6,-1,7.890000000000001
1579,-42,-49,2,-28,-42,-11,6,1,7.8950000000000005
1580,2,24,6,91,102,29,-1,9,7.9
1581,-11,-2,-12,1,-59,-23,-10,-10,7.905
1582,20,11,7,-23,42,3,6,24,7.91
1583,25,31,16,-50,-6,10,6,-15,7.915
1584,10,-27,-6,7,85,14,5,5,7.92
1585,-12,-16,4,-101,-25,-4,-6,1,7.925
1586,14,17,5,26,-10,3,-1,-3,7.930000000000001
1587,48,78,7,-34,-37,-6,-3,9,7.9350000000000005
1588,-66,-59,3,51,-31,-12,1,-5,7.94
1589,-14,-12,0,-43,-27,-7,-2,-8,7.945
1590,-11,-41,2,47,24,0,-4,-16,7.95
1591,0,40,-1,-7,23,-1,-6,7,7.955
1592,33,-4,-5,-31,-51,-15,3,0,7.96
1593,-1,-4,23,5,18,6,1,2,7.965
1594,-14,19,-36,-77,-69,-17,-7,-8,7.97
1595,50,39,3,127,42,6,1,15,7.9750000000000005
1596,-29,-60,5,91,55,14,10,7,7.98
1597,-11,-39,-19,70,-6,-8,-2,-4,7.985
1598,18,30,-3,43,39,5,-8,-4,7.99
1599,1,-10,-2,4,14,6,2,1,7.995
1600,15,12,-5,-105,-43,-12,-8,-8,8.0
1601,-38,-15,12,110,105,28,12,18,8.005
1602,7,-6,-3,-48,-53,-12,3,-29,8.01
1603,6,15,-2,48,-15,-1,-6,11,8.015
1604,26,-3,-17,-98,-23,-12,0,-4,8.02
1605,-3,27,-7,-95,-54,-15,-7,-6,8.025
1606,-37,-20,2,-6,30,18,1,4,8.03
1607,17,24,-6,76,45,8,3,5,8.035
1608,-12,-45,-3,-82,-128,-32,-19,-8,8.040000000000001
1609,-4,12,-27,6,65,9,0,5,8.045
1610,10,9,15,3,-45,-9,3,-4,8.05
1611,-11,-4,-12,-35,1,2,-7,0,8.055
1612,-3,0,0,-4,-14,-7,3,-2,8.06
1613,24,0,0,-49,41,4,-4,0,8.065
1614,13,55,17,-58,5,4,0,9,8.07
1615,-9,-72,-9,-54,-28,-4,5,-1,8.075
1616,-22,-11,-6,4,-27,6,1,4,8.08
1617,11,-2,7,39,-34,-4,-2,9,8.085
1618,24,35,4,-3,-37,-12,1,0,8.09
1619,-17,5,14,9,28,7,2,1,8.095
1620,-25,8,-5,7,45,2,-2,-2,8.1
1621,11,-35,-11,-10,-78,-17,-3,-2,8.105
1622,11,34,7,0,-26,0,2,7,8.11
1623,38,20,0,7,-58,-8,-2,-1,8.115
1624,5,-6,6,5,43,14,6,4,8.120000000000001
1625,-44,-33,-10,-16,-52,-22,-7,-16,8.125
1626,10,-2,-1,-2,10,4,2,8,8.13
1627,-29,-2,6,12,34,0,4,-8,8.135
1628,17,-4,-2,28,-8,-3,-13,-8,8.14
1629,32,42,11,-24,-22,-3,2,2,8.145
1630,-5,-45,-9,-29,-28,0,-4,-2,8.15
1631,-13,7,7,-17,7,2,-1,2,8.155
1632,14,22,-9,45,13,-1,8,7,8.16
1633,-11,-43,-3,-11,-10,4,-3,-8,8.165000000000001
1634,-18,1,-7,75,22,0,-5,15,8.17
1635,15,-2,3,-39,1,2,0,-14,8.175
1636,-7,14,-3,30,-13,-3,-1,3,8.18
1637,7,4,5,-8,12,1,4,0,8.185
1638,1,-9,-5,-15,-30,-8,-1,0,8.19
1639,8,-11,-6,28,10,-1,-6,-1,8.195
1640,-11,-5,-2,26,7,4,1,-6,8.2
1641,2,17,10,-13,-3,3,2,1,8.205
1642,-3,-10,-18,-45,3,-2,-3,-10,8.21
1643,-9,-11,3,70,50,4,-1,4,8.215
1644,2,4,0,-35,5,1,-1,-5,8.22
1645,3,17,3,6,7,0,1,2,8.225
1646,-8,-32,-3,16,23,2,2,-6,8.23
1647,-4,-1,-7,0,-21,-6,-1,-1,8.235
1648,9,8,3,31,15,3,1,4,8.24
1649,-1,0,-3,-27,9,1,-3,-3,8.245000000000001
1650,-1,-3,-2,4,-3,-4,-4,-5,8.25
1651,-6,-4,-2,-1,-10,-1,0,4,8.255
1652,3,6,5,-16,4,2,0,-3,8.26
1653,0,3,-6,5,-20,-6,-1,-1,8.265
1654,-5,-2,4,-4,13,4,1,-2,8.27
1655,-4,-3,3,-5,-12,-5,-1,1,8.275
1656,1,1,0,-5,3,-2,0,-3,8.28
1657,3,7,3,-15,6,3,1,0,8.285
1658,-4,-10,-3,30,13,-2,-1,-2,8.290000000000001
1659,0,2,2,-28,-2,4,2,1,8.295
1660,1,3,-1,18,0,-4,-2,-1,8.3
1661,-2,-2,-7,-1,2,1,0,-1,8.305
1662,-2,0,4,-3,4,1,0,-2,8.31
1663,0,3,-3,-7,-10,-1,-1,1,8.315
1664,0,1,3,-6,4,2,0,-2,8.32
1665,1,0,-2,5,4,2,1,-1,8.325
1666,-1,-3,-2,-2,5,1,-1,-1,8.33
1667,-2,-4,-3,8,-6,-2,-1,0,8.335
1668,1,-3,1,-6,-2,-1,-1,0,8.34
1669,0,-4,0,8,6,0,0,0,8.345
1670,0,-3,-2,-5,-5,-4,-2,-3,8.35
1671,-2,-2,-1,0,-3,-3,-2,-1,8.355
1672,1,2,1,-4,1,1,-1,0,8.36
1673,0,4,3,5,1,2,-1,0,8.365
1674,-5,-3,-2,-11,-1,0,-1,-2,8.370000000000001
1675,-4,-3,-4,15,-5,-1,-1,-2,8.375
1676,0,0,-4,-10,1,0,-1,-1,8.38
1677,-2,-6,-5,1,-3,-4,-4,-2,8.385
1678,-1,4,7,20,4,1,1,0,8.39
1679,-3,-9,-7,-12,-3,-1,-2,-2,8.395
1680,0,-3,-1,-9,-4,-2,2,0,8.4
1681,-1,0,0,4,1,0,0,0,8.405
1682,0,0,0,2,-4,-2,1,1,8.41
1683,-1,2,1,2,-1,0,-2,-2,8.415000000000001
1684,-1,1,-3,-1,-1,0,-2,-2,8.42
1685,1,-1,3,3,2,1,-3,-2,8.425
1686,0,-1,2,-4,1,0,-3,0,8.43
1687,-1,-2,0,1,-4,-4,0,0,8.435
1688,-1,-3,-5,-7,-2,-1,0,-1,8.44
1689,-2,3,2,6,-6,-2,-1,-1,8.445
1690,-2,-2,-1,-1,-1,-1,-1,0,8.45
1691,-3,0,0,-3,-5,-3,0,0,8.455
1692,-1,-3,-1,-1,0,-2,-2,-1,8.46
1693,0,0,0,0,0,0,2,0,8.465
1694,-2,-1,0,1,0,2,-3,-2,8.47
1695,1,0,0,-8,1,-1,-1,0,8.475
1696,0,2,1,1,1,-1,-1,-1,8.48
1697,-1,-2,-3,1,-5,-1,-2,-1,8.485
1698,-1,0,2,-1,-2,0,0,-1,8.49
1699,-1,-1,-1,1,2,0,-3,-2,8.495000000000001
1700,-2,-1,0,2,0,-2,-1,0,8.5
1701,-2,0,-2,-2,-3,0,-1,-1,8.505
1702,0,-2,-1,-3,7,0,1,0,8.51
1703,0,2,2,5,-1,-2,1,-1,8.515
1704,-2,-2,-2,-3,1,-3,-2,-1,8.52
1705,-1,-1,-2,-2,-4,-2,-1,0,8.525
1706,-1,3,-1,0,3,-1,-1,-1,8.53
1707,0,-2,-4,4,2,0,-1,0,8.535
1708,-2,-2,-3,-21,-4,-2,-2,-1,8.540000000000001
1709,0,1,3,9,3,0,0,0,8.545
1710,-3,-1,-7,-5,-4,-1,-3,0,8.55
1711,1,1,-1,-1,-6,-1,-1,0,8.555
1712,-1,1,3,16,-7,-2,-2,-2,8.56
1713,0,-6,-6,-17,3,-2,-1,-4,8.565
1714,-1,-1,1,-3,-2,0,0,-3,8.57
1715,-1,-1,-1,4,3,1,0,0,8.575000000000001
1716,0,0,0,0,-7,-3,0,-2,8.58
1717,-2,-1,0,1,2,0,-1,-1,8.585
1718,1,0,-1,5,-9,-2,0,1,8.59
1719,0,0,-2,-8,3,1,0,-1,8.595
1720,0,0,2,8,7,1,-2,-1,8.6
1721,0,-1,-1,1,-10,-2,-3,0,8.605
1722,0,-1,-2,-9,1,0,1,-1,8.61
1723,0,-1,-2,-6,-11,-3,-1,-2,8.615
1724,-1,-1,-2,2,-3,0,0,1,8.620000000000001
1725,-1,-2,-3,9,12,0,-2,-2,8.625
1726,0,0,2,4,4,0,2,-1,8.63
1727,-1,-1,-1,-7,-5,-2,-2,-1,8.635
1728,0,-1,-2,-4,-1,0,0,0,8.64
1729,-2,-1,-1,-4,-6,-1,-1,-1,8.645
1730,-2,-1,-3,-5,-4,-3,-2,0,8.65
1731,0,-1,-3,3,1,0,1,-2,8.655
1732,-1,0,-1,0,4,-1,-1,0,8.66
1733,-2,0,3,3,-9,-2,0,0,8.665000000000001
1734,0,0,0,-10,3,1,0,-1,8.67
1735,-2,-1,-3,15,5,-2,0,0,8.675
1736,1,1,0,8,0,0,1,1,8.68
1737,-1,-1,-2,-13,1,-3,-2,0,8.685
1738,-2,-2,-1,-6,-6,-1,0,0,8.69
1739,0,0,2,0,0,0,-1,-1,8.695
1740,-2,-2,0,-5,4,-2,0,-2,8.700000000000001
1741,1,0,-1,-4,1,-1,0,-3,8.705
1742,-1,-1,0,5,2,-2,-1,0,8.71
1743,-2,-2,-2,-2,-1,-1,0,0,8.715
1744,-2,-1,1,4,-1,-1,-2,0,8.72
1745,-2,-2,1,2,-5,-1,0,0,8.725
1746,0,-1,-2,5,-2,2,-1,0,8.73
1747,-1,-1,0,-3,3,0,-1,-1,8.735
1748,0,1,0,-3,0,1,-1,-1,8.74
1749,-1,-1,-2,-3,-3,-2,0,1,8.745000000000001
1750,-1,0,1,2,2,-1,0,-2,8.75
1751,-1,-4,-3,-3,-7,-2,-3,-1,8.755
1752,0,-1,-2,-3,2,-1,-1,0,8.76
1753,0,-1,1,-2,1,2,0,0,8.765
1754,-1,-3,-2,0,-3,-2,-4,-2,8.77
1755,1,-1,0,-2,-5,-2,-1,0,8.775
1756,-1,-1,0,-18,-14,-2,-1,-1,8.78
1757,0,0,-2,-5,6,1,2,0,8.785
1758,-2,0,-1,25,10,0,-2,-2,8.790000000000001
1759,-1,1,0,4,-1,0,0,0,8.795
1760,-2,-3,-1,-4,-7,-3,-3,-3,8.8
1761,-2,-4,-4,-4,2,-1,-3,-3,8.805
1762,0,0,-1,-8,-4,1,0,1,8.81
1763,1,1,2,-4,2,-1,-1,-1,8.815
1764,-1,1,0,17,0,1,-1,-1,8.82
1765,-2,-1,-2,0,4,1,-1,1,8.825000000000001
1766,1,-1,-1,-9,4,-3,0,0,8.83
1767,-2,-3,-2,2,-1,-2,-2,-2,8.835
1768,-1,-1,-1,-4,0,2,0,-1,8.84
1769,0,-1,0,6,-2,0,-1,-1,8.845
1770,-1,0,1,-5,-12,-3,-1,-1,8.85
1771,0,-1,1,-1,-2,0,-1,-2,8.855
1772,-1,-2,-1,-10,1,-1,0,-2,8.86
1773,1,1,1,14,3,1,1,0,8.865
1774,1,0,-3,-3,-1,0,0,1,8.870000000000001
1775,-1,1,0,1,1,0,1,-1,8.875
1776,1,1,0,0,1,-1,-2,2,8.88
1777,-1,0,-1,-6,-4,-1,-1,0,8.885
1778,-1,-2,-2,-2,-2,-2,-2,-1,8.89
1779,-1,-2,-2,-25,-5,-2,-1,0,8.895
1780,-1,-3,-2,36,15,2,-1,-1,8.9
1781,0,1,0,0,0,-2,1,-1,8.905
1782,1,-2,0,2,5,0,0,-1,8.91
1783,0,0,1,-21,-8,1,0,0,8.915000000000001
1784,-3,-2,-2,9,-1,-2,0,0,8.92
1785,-2,-2,-2,0,2,1,-2,0,8.925
1786,-1,-1,1,7,-4,-2,-1,-2,8.93
1787,0,-1,-2,2,5,1,0,-1,8.935
1788,-1,-3,-2,-14,-13,-4,-2,-2,8.94
1789,0,1,1,6,3,0,1,0,8.945
1790,-3,-1,0,-13,9,2,-1,-1,8.950000000000001
1791,-2,-2,-1,8,0,-1,-1,-2,8.955
1792,0,0,-1,-14,0,0,-2,0,8.96
1793,-1,-2,-1,-12,-8,-1,-2,-1,8.965
1794,-2,-1,-2,15,3,0,-2,0,8.97
1795,-1,-2,-1,6,1,-1,0,0,8.975
1796,-1,0,-2,1,5,-2,-2,0,8.98
1797,0,0,0,-5,-7,-3,-1,0,8.985
1798,1,-2,0,-5,-3,-2,-1,-1,8.99
1799,-2,0,-2,5,4,0,0,-1,8.995000000000001
1800,0,0,-2,-11,-7,-1,2,-1,9.0
1801,-2,-3,-2,-1,-4,-1,-1,-2,9.005
1802,-2,0,-2,-6,1,-1,1,-2,9.01
1803,-1,-2,-1,14,-1,-1,-3,0,9.015
1804,1,1,1,-4,-3,-1,1,-1,9.02
1805,-1,1,1,-6,3,0,-2,0,9.025
1806,0,-2,-3,-2,-1,0,0,0,9.03
1807,0,0,1,-2,-11,-3,-1,-3,9.035
1808,0,2,0,-13,-2,-2,0,1,9.040000000000001
1809,-1,-2,-2,4,4,-2,-1,-1,9.045
1810,-2,-2,0,13,1,1,-2,-2,9.05
1811,0,2,-1,8,-5,-1,-1,0,9.055
1812,-2,-1,-2,-4,9,1,-1,-1,9.06
1813,0,0,0,-11,-8,-1,1,0,9.065
1814,0,0,-1,-3,-13,-1,-3,0,9.07
1815,1,0,-1,-2,12,2,0,1,9.075000000000001
1816,-1,-4,0,6,2,0,-2,-1,9.08
1817,-2,-5,-6,-1,-8,-3,-2,-2,9.085
1818,-1,-1,0,-2,4,-1,1,-1,9.09
1819,-4,0,-1,0,-3,-1,-1,0,9.095
1820,-3,-2,-2,0,0,0,-1,-1,9.1
1821,1,2,-1,5,-3,0,1,-1,9.105
1822,-1,-2,-3,-22,-7,-2,-1,-1,9.11
1823,-1,1,1,7,5,0,-1,-1,9.115
1824,0,-3,0,11,-2,-1,0,-1,9.120000000000001
1825,1,0,-1,-7,4,3,1,1,9.125
1826,-2,-1,0,6,3,-3,-1,-2,9.13
1827,2,1,0,-7,4,1,2,-1,9.135
1828,-1,-1,-2,-2,-2,-2,-1,-2,9.14
1829,-1,-1,2,0,-6,-2,-2,-1,9.145
1830,0,-3,-3,-4,-2,-1,-2,-1,9.15
1831,-2,-3,-1,-2,-3,0,-1,0,9.155
1832,0,0,-2,2,0,-2,-1,0,9.16
1833,-2,0,-1,-3,0,-1,-1,-1,9.165000000000001
1834,-1,-2,-1,-3,3,1,1,-1,9.17
1835,-1,-1,0,-25,0,-1,0,-1,9.175
1836,0,0,-2,42,-6,-1,-1,0,9.18
1837,1,0,2,9,16,1,1,-2,9.185
1838,0,0,-1,-7,-13,1,3,2,9.19
1839,-1,-4,-4,-7,-1,-2,-2,0,9.195
1840,1,2,1,-39,-7,-1,-2,-1,9.200000000000001
1841,-1,0,-1,31,12,0,-2,-1,9.205
1842,-1,-1,0,11,-3,-3,-1,-1,9.21
1843,-1,-1,-2,-2,-3,-2,-1,-2,9.215
1844,-1,-2,-1,-8,3,0,1,1,9.22
1845,-2,-1,0,0,-5,-2,0,0,9.225
1846,0,0,-1,-10,-1,-1,-2,-1,9.23
1847,1,-2,-2,-6,-5,0,-2,0,9.235
1848,-1,-2,-1,24,0,-1,0,-1,9.24
1849,0,0,2,2,-2,0,-1,-2,9.245000000000001
1850,-1,-2,-5,-15,8,0,-1,-1,9.25
1851,-4,-2,-3,10,-3,-1,0,-4,9.255
1852,-1,-2,-1,5,19,2,-1,-1,9.26
1853,-1,1,-2,-6,-5,0,-2,-1,9.265
1854,0,-1,2,-1,0,0,-2,0,9.27
1855,-1,1,1,5,-4,-2,0,-2,9.275
1856,0,0,-2,-12,-6,0,-2,0,9.28
1857,-2,-1,-1,-4,-1,-2,-1,-1,9.285
1858,-1,0,-1,5,2,0,0,-1,9.290000000000001
1859,-2,-3,-1,-6,-3,-1,-2,-1,9.295
1860,1,2,3,12,-8,-2,-2,-3,9.3
1861,-2,-4,-3,2,16,3,-1,-1,9.305
1862,-1,-2,-1,2,-11,-5,-4,0,9.31
1863,-2,-5,-5,12,17,5,0,-1,9.315
1864,0,0,-4,-16,-5,-2,2,0,9.32
1865,-2,-1,-1,-10,-10,-2,-1,0,9.325000000000001
1866,-3,1,1,4,1,0,0,-1,9.33
1867,0,-2,1,1,-2,-4,-1,-1,9.335
1868,-2,0,0,-9,-3,-1,-1,-1,9.34
1869,0,-2,0,-2,-3,0,0,0,9.345
1870,-1,1,-1,3,-4,0,1,-1,9.35
1871,0,1,1,-3,-3,-2,-2,0,9.355
1872,-1,-1,-2,-1,1,1,-1,-2,9.36
1873,-1,-1,0,-4,-4,0,-1,-1,9.365
1874,1,0,-1,-6,2,1,0,-2,9.370000000000001
1875,-1,1,0,7,0,-3,-1,0,9.375
1876,-1,0,1,4,7,-1,-1,0,9.38
1877,-1,-3,-3,-11,-9,-2,0,-1,9.385
1878,0,-3,-2,5,0,-2,2,0,9.39
1879,-1,-1,-1,-3,-1,0,-1,-1,9.395
1880,-1,-2,-2,4,-2,-4,0,0,9.4
1881,-1,1,-1,-12,1,0,0,-1,9.405
1882,-1,0,0,1,0,0,0,-1,9.41
1883,0,0,0,-2,-6,-3,-1,-1,9.415000000000001
1884,-1,-1,1,-33,-12,-3,0,-1,9.42
1885,-1,-1,1,52,5,-1,0,-1,9.425
1886,-1,0,-1,-11,-15,-3,-1,-1,9.43
1887,1,0,1,5,20,5,1,0,9.435
1888,0,-2,-1,-12,-8,-1,-3,0,9.44
1889,-1,-1,-2,-5,3,-2,-1,0,9.445
1890,-1,-2,1,-17,-11,-3,-2,-1,9.450000000000001
1891,0,1,1,5,-12,-3,1,0,9.455
1892,-1,-5,-3,10,13,1,0,-1,9.46
1893,-1,-1,0,-5,-5,-2,-3,-1,9.465
1894,-2,0,0,9,7,0,-2,-1,9.47
1895,-2,-2,0,-12,-14,-2,-2,-1,9.475
1896,-1,-1,-1,4,5,1,1,0,9.48
1897,1,-2,-3,-7,-3,-2,-2,-1,9.485
1898,-2,-1,-1,2,1,0,0,0,9.49
1899,1,-1,-2,-4,-3,0,-1,-1,9.495000000000001
1900,-1,0,0,3,0,-2,0,0,9.5
1901,-2,-2,0,9,-7,-3,0,-3,9.505
1902,0,-2,-1,0,-2,-3,-2,-2,9.51
1903,0,-1,0,5,14,5,2,0,9.515
1904,0,-1,0,-6,-10,-1,0,0,9.52
1905,-1,-2,-1,9,1,0,-2,0,9.525
1906,-1,0,-1,3,10,1,0,1,9.53
1907,-3,0,-2,1,-5,-3,-3,-3,9.535
1908,-3,-2,-2,10,0,-1,-2,0,9.540000000000001
1909,-1,0,1,-25,0,-1,0,-2,9.545
1910,1,1,-1,-16,-4,-1,0,0,9.55
1911,0,-2,-4,27,-8,-1,-2,-1,9.555
1912,0,0,-2,-11,9,3,0,-1,9.56
1913,-2,-1,-2,-4,-4,-3,-1,0,9.565
1914,-1,-1,-1,2,5,0,-1,1,9.57
1915,-2,-2,0,-10,-7,-2,0,0,9.575000000000001
1916,-1,0,2,6,5,0,0,0,9.58
1917,0,-2,-4,-8,2,2,-1,0,9.585
1918,0,-1,0,11,5,-3,0,-3,9.59
1919,-2,-1,-2,-23,-24,-2,1,0,9.595
1920,-1,-1,-2,10,7,2,-1,-2,9.6
1921,2,1,2,0,2,4,1,1,9.605
1922,0,-1,-3,4,5,-1,-2,-2,9.61
1923,-1,-2,-2,-13,8,0,0,1,9.615
1924,1,-1,-1,13,2,-1,-2,-2,9.620000000000001
1925,-1,1,0,-17,-10,-3,-1,-1,9.625
1926,0,-1,-1,-3,-9,1,0,0,9.63
1927,-1,1,1,-1,5,-2,-1,-1,9.635
1928,-2,0,-1,-12,-9,-3,-3,-3,9.64
1929,0,0,0,7,-3,0,-1,0,9.645
1930,-2,-2,-2,0,-6,0,-3,-1,9.65
1931,-1,-2,-1,-3,5,0,0,0,9.655
1932,1,0,-1,-4,-9,-1,0,0,9.66
1933,-1,-2,0,1,-2,-1,-1,0,9.665000000000001
1934,-1,0,0,-4,4,3,0,1,9.67
1935,0,1,1,5,0,-1,-1,0,9.675
1936,-2,-2,-1,-17,-12,-3,-2,-2,9.68
1937,0,0,-1,10,13,1,-1,-2,9.685
1938,0,-2,-1,17,5,1,-1,-1,9.69
1939,1,-1,0,8,3,-1,1,0,9.695
1940,-1,1,-1,4,3,-2,-1,0,9.700000000000001
1941,-1,-2,-2,-17,-6,-1,0,-1,9.705
1942,-1,-1,0,-6,-6,-2,-1,0,9.71
1943,2,-1,0,5,2,-2,-2,-1,9.715
1944,0,-2,-2,-2,-1,-1,-1,0,9.72
1945,-2,-1,-1,-3,-9,-1,-1,-2,9.725
1946,-1,-1,0,4,-1,1,0,-1,9.73
1947,0,0,0,3,13,0,0,-2,9.735
1948,-1,-1,-3,-7,-6,-1,0,-1,9.74
1949,1,0,0,-10,-5,-4,-1,-1,9.745000000000001
1950,-2,-4,-2,15,-3,-1,-1,0,9.75
1951,-2,0,-1,-14,-3,-1,-1,1,9.755
1952,-1,0,0,24,-5,-1,-1,-2,9.76
1953,0,1,1,3,13,1,0,-1,9.765
1954,1,-1,0,-18,-8,-1,-1,-1,9.77
1955,-2,-3,-1,-3,-4,-1,-1,0,9.775
1956,-1,0,-2,3,5,-1,0,0,9.78
1957,0,1,0,-8,-11,-2,-1,-1,9.785
1958,-1,-1,-1,14,4,-1,-1,0,9.790000000000001
1959,-1,-2,-1,-19,-3,-2,-1,-1,9.795
1960,1,0,1,-4,0,3,2,1,9.8
1961,-2,-4,-1,10,1,0,-2,-2,9.805
1962,-2,0,-2,-17,-2,-4,-4,-1,9.81
1963,0,-1,-1,10,1,4,0,-1,9.815
1964,-1,0,-1,-3,-10,-5,-1,-2,9.82
1965,0,0,-1,0,18,2,0,0,9.825000000000001
1966,-1,-1,0,-3,-6,-4,-3,-2,9.83
1967,-1,-3,-3,-1,0,-1,-2,-1,9.835
1968,0,2,1,-12,-11,2,1,0,9.84
1969,-2,-5,-6,6,-3,0,-1,1,9.845
1970,1,1,-1,-19,-11,0,1,0,9.85
1971,-1,-2,-2,23,17,0,-1,0,9.855
1972,-1,-4,-3,-8,-1,-1,-3,-3,9.86
1973,-1,-1,0,0,-2,-4,-1,0,9.865
1974,-1,0,1,-7,0,2,0,-2,9.870000000000001
1975,0,-1,-2,-9,-10,-3,-1,0,9.875
1976,0,-1,-2,-3,-1,-1,-1,0,9.88
1977,0,0,1,3,-6,-2,-2,0,9.885
1978,-2,-2,-1,-9,12,4,0,-1,9.89
1979,-1,0,-1,2,-3,-1,-1,-2,9.895
1980,-2,-2,0,8,5,0,-2,-1,9.9
1981,0,-1,-2,3,0,0,0,0,9.905
1982,0,-1,0,1,-1,-2,0,1,9.91
1983,-2,-1,-1,0,-6,-3,-2,-1,9.915000000000001
1984,-1,-1,1,-1,4,1,0,0,9.92
1985,-1,2,0,-3,-5,-2,-1,-3,9.925
1986,-2,0,0,5,0,1,1,0,9.93
1987,-2,-2,0,-2,-2,0,0,0,9.935
1988,-2,-2,0,0,-6,-3,-3,-1,9.94
1989,-3,-5,-4,-23,7,3,0,0,9.945
1990,-1,-2,-3,15,1,-1,1,-1,9.950000000000001
1991,1,1,-2,-13,0,-3,-1,0,9.955
1992,1,0,-1,14,8,1,-1,1,9.96
1993,0,-2,1,2,-8,-5,-4,-2,9.965
1994,-1,1,0,8,15,1,-1,0,9.97
1995,1,2,2,-14,-9,0,-2,1,9.975
1996,-1,-2,-1,-15,-7,-2,-1,-1,9.98
1997,0,0,-1,28,16,3,-1,-2,9.985
1998,-2,-2,-1,0,-11,-4,-2,-3,9.99
1999,-1,0,0,7,5,1,1,-2,9.995000000000001
2000,0,3,-1,-2,2,0,0,0,10.0
2001,0,-2,-1,6,-10,-2,-1,0,10.005
2002,0,0,-1,-8,5,-1,-2,0,10.01
2003,-3,-2,0,14,1,-1,-1,-1,10.015
2004,0,-4,-1,-6,-4,-1,2,1,10.02
2005,-2,0,-1,-15,-4,0,-1,0,10.025
2006,0,1,-1,7,3,-2,-1,-1,10.03
2007,1,-1,0,-2,-7,-1,-2,-2,10.035
2008,-2,-1,-1,-2,7,1,1,-2,10.040000000000001
2009,1,1,-1,0,0,0,0,0,10.045
2010,0,-1,-1,0,-6,-1,-1,0,10.05
2011,-2,-2,-2,-1,-1,-1,-1,0,10.055
2012,-1,-1,0,2,0,0,0,-1,10.06
2013,0,0,0,-3,-5,-2,-1,-2,10.065
2014,-1,1,-1,-5,7,1,0,-2,10.07
2015,-1,1,0,-6,-2,2,0,-1,10.075000000000001
2016,-1,-2,-1,3,1,0,-1,1,10.08
2017,-1,-2,0,5,-9,-1,0,0,10.085
2018,-1,-4,-4,-2,5,0,0,0,10.09
2019,-1,0,-3,22,11,-2,-1,-1,10.095
2020,1,1,1,1,2,-1,-2,-1,10.1
2021,-1,0,-1,-13,-6,-2,-2,-1,10.105
2022,-1,0,1,-3,-11,-1,-2,-2,10.11
2023,0,-1,-1,-6,-2,0,-2,0,10.115
2024,0,-2,-1,-2,1,-2,-2,-1,10.120000000000001
2025,1,-1,0,2,2,-1,-1,-1,10.125
2026,1,0,-2,-4,-6,0,0,-2,10.13
2027,-1,-2,0,-7,-6,-2,-2,0,10.135
2028,-1,-2,-1,7,6,0,-1,-2,10.14
2029,0,-1,-2,-6,0,0,-1,-1,10.145
2030,-1,0,0,2,-1,0,-1,-2,10.15
2031,-1,0,-1,-3,-3,-1,0,0,10.155
2032,-2,0,0,6,-13,-4,-1,-2,10.16
2033,-1,-1,-1,-8,9,-1,-1,0,10.165000000000001
2034,0,-1,-2,-2,-4,-2,0,0,10.17
2035,-1,0,0,-1,0,-1,0,-1,10.175
2036,-1,-2,-3,-5,-2,-2,-1,0,10.18
2037,-1,-2,-1,2,-9,-1,1,-1,10.185
2038,-1,-2,-2,1,3,3,-1,-1,10.19
2039,-1,-2,0,-4,-2,0,-1,-1,10.195
2040,1,0,-1,-8,0,-1,-1,-1,10.200000000000001
2041,0,-1,0,20,2,-1,-2,-2,10.205
2042,-1,-1,-1,-16,-9,-4,-1,-1,10.21
2043,-1,0,-2,13,5,-2,-1,-1,10.215
2044,0,-1,0,-6,-7,-3,-1,0,10.22
2045,0,-1,-1,-2,-7,-1,-2,-1,10.225
2046,-1,-3,-1,-2,14,-1,-1,0,10.23
2047,1,0,-2,-20,-4,1,0,1,10.235
2048,-1,-2,-2,11,2,0,-1,-1,10.24
2049,0,0,-1,-11,3,0,-2,-1,10.245000000000001
2050,-1,-2,-1,10,-2,-2,0,-1,10.25
2051,-1,-1,-1,-11,-6,-2,0,-1,10.255
2052,-1,0,-2,-16,9,1,-1,-1,10.26
2053,0,0,-1,27,4,-1,-1,1,10.265
2054,-1,-4,-4,-1,-7,-5,-2,-1,10.27
2055,0,-1,0,10,-2,0,0,1,10.275
2056,0,0,-2,-2,5,-1,-1,-1,10.28
2057,-2,-4,-3,-23,-2,-5,0,-2,10.285
2058,2,1,0,4,1,1,1,0,10.290000000000001
2059,-3,-2,0,2,1,-3,-1,-2,10.295
2060,0,1,2,3,0,1,1,1,10.3
2061,-2,-2,-1,-2,-12,-4,-2,-1,10.305
2062,2,1,-2,2,-5,-1,-1,0,10.31
2063,0,-2,-3,-11,-4,-1,-1,2,10.315
2064,-2,-1,-1,-1,-12,-1,-1,-2,10.32
2065,-3,-3,-2,8,13,0,1,-1,10.325000000000001
2066,0,0,-1,-12,-9,-4,-1,0,10.33
2067,-1,1,1,1,0,1,-2,-1,10.335
2068,-2,-5,-1,3,-4,-2,-1,-1,10.34
2069,0,0,-2,-10,-2,0,0,0,10.345
2070,0,-2,-1,-21,-12,1,-1,0,10.35
2071,1,0,-1,24,19,-1,-2,-1,10.355
2072,1,-2,0,0,-6,0,-1,-1,10.36
2073,-1,2,0,2,14,2,1,-1,10.365
2074,-2,-3,-1,5,2,-2,-3,-1,10.370000000000001
2075,-2,-2,-3,-7,-7,-1,0,-1,10.375
2076,-1,1,-1,-6,1,0,0,0,10.38
2077,1,2,3,1,-4,0,1,0,10.385
2078,-1,-2,0,7,-12,-5,-1,0,10.39
2079,0,0,-2,0,19,5,1,0,10.395
2080,0,-3,-3,-13,-1,2,-2,-3,10.4
2081,0,0,-1,19,12,1,-2,-1,10.405
2082,-1,1,2,16,6,1,0,0,10.41
2083,-2,-1,1,2,-20,-5,-1,-1,10.415000000000001
2084,0,0,-3,-14,-2,-4,0,-2,10.42
2085,-1,-1,0,-6,-2,1,-1,0,10.425
2086,-1,-1,0,1,1,-1,-1,0,10.43
2087,-2,-1,-1,9,6,1,-2,-2,10.435
2088,-2,-1,-2,-27,-5,-2,-1,-2,10.44
2089,1,-1,0,7,-11,-2,-1,1,10.445
2090,-3,-2,-1,13,6,1,-1,-1,10.450000000000001
2091,0,2,-1,-13,-4,-2,1,-1,10.455
2092,-1,-2,-1,8,2,-2,-1,-2,10.46
2093,-1,0,-1,-4,0,1,-2,0,10.465
2094,1,2,-2,-7,-5,0,-1,0,10.47
2095,-1,-4,-4,-7,-12,-4,-2,-3,10.475
2096,-1,1,1,17,19,5,1,1,10.48
2097,-1,0,-1,-28,-20,-5,-1,-3,10.485
2098,0,-1,-2,3,16,4,-1,1,10.49
2099,0,-2,0,20,-10,-3,-1,-1,10.495000000000001
2100,0,0,-1,12,0,1,1,1,10.5
2101,-2,-1,-3,-25,-2,0,-1,-1,10.505
2102,1,0,-1,7,0,-1,-3,-1,10.51
2103,-1,-1,-2,-14,6,0,-1,0,10.515
2104,-3,1,1,8,-1,0,-1,0,10.52
2105,-2,-2,-2,4,1,-2,0,0,10.525
2106,-1,-1,-2,-10,-8,-2,0,-2,10.53
2107,-1,0,0,-6,-12,-1,0,-2,10.535
2108,-1,-1,0,11,4,-2,-3,-1,10.540000000000001
2109,0,-2,-1,-18,-11,0,0,-3,10.545
2110,-1,-1,0,9,12,0,2,-2,10.55
2111,0,2,-1,-16,-12,-3,-2,1,10.555
2112,-1,-2,-3,-44,-9,0,-1,0,10.56
2113,-1,-1,-1,74,13,-3,-1,0,10.565
2114,-1,-2,1,-13,-1,3,0,0,10.57
2115,-1,0,-2,0,-1,-1,-2,-2,10.575000000000001
2116,0,-2,-2,13,8,2,-2,-2,10.58
2117,-1,-1,-3,-10,-3,-1,-2,-1,10.585
2118,-1,-2,1,-5,-9,-6,-2,-2,10.59
2119,-1,-1,-2,-4,13,3,2,-2,10.595
2120,0,1,0,5,-5,-2,-1,-1,10.6
2121,-1,-2,0,-7,-2,-1,-2,-2,10.605
2122,-1,1,0,3,2,2,0,0,10.61
2123,-1,-1,0,-5,-2,-1,-2,0,10.615
2124,-1,-1,-2,8,-5,-2,-1,-1,10.620000000000001
2125,-2,-2,0,-9,0,1,0,0,10.625
2126,-2,1,3,-31,-7,-4,-3,-2,10.63
2127,-2,-4,-2,61,17,0,0,-1,10.635
2128,-1,-2,-3,-5,-6,-2,0,-2,10.64
2129,1,0,1,3,12,0,-2,-1,10.645
2130,0,-1,-3,5,-1,-1,-1,-3,10.65
2131,0,-2,0,-23,-11,-1,0,0,10.655
2132,0,0,-1,8,3,2,0,1,10.66
2133,0,-1,-1,1,0,0,0,-1,10.665000000000001
2134,-2,-1,-1,-11,-25,-2,0,-1,10.67
2135,1,0,1,0,18,0,-2,-1,10.675
2136,-1,0,-2,10,-1,-2,-2,0,10.68
2137,-2,0,-1,-17,-6,2,-1,0,10.685
2138,-2,-2,-2,2,-4,-2,-2,-1,10.69
2139,-2,-1,-1,-4,-6,-2,-2,-1,10.695
2140,-1,-2,2,-6,-1,-2,-1,0,10.700000000000001
2141,0,1,0,-6,-2,0,-2,0,10.705
2142,1,-2,0,15,12,2,-1,-1,10.71
2143,-2,-2,-2,-12,-7,-1,0,-2,10.715
2144,0,1,1,18,5,1,-1,-2,10.72
2145,1,-1,-1,2,0,0,0,-1,10.725
2146,-2,0,-1,0,9,1,1,-1,10.73
2147,-1,-2,-1,-5,2,0,0,-2,10.735
2148,1,0,-1,-5,-2,-2,0,-3,10.74
2149,-1,-3,0,-1,-4,-3,0,-1,10.745000000000001
2150,0,0,0,5,0,1,1,-1,10.75
2151,-2,-2,-2,-6,-7,-1,-3,1,10.755
2152,0,-1,0,4,-6,-2,-1,1,10.76
2153,0,-1,-2,3,-6,-1,1,0,10.765
2154,1,-2,-2,-20,8,1,-1,-2,10.77
2155,-2,0,-1,22,1,-1,1,1,10.775
2156,0,-2,1,-1,-6,-3,1,0,10.78
2157,-1,-2,-2,-4,-3,-2,-1,-1,10.785
2158,-1,-1,-1,9,7,1,-1,0,10.790000000000001
2159,0,-2,-1,-14,-11,-2,-1,-3,10.795
2160,-1,1,1,-5,-1,1,1,0,10.8
2161,-2,-3,-2,9,19,2,-1,-1,10.805
2162,-1,0,0,-4,-5,-1,-1,-2,10.81
2163,-1,0,1,6,2,0,-1,1,10.815
2164,0,0,-2,-9,-2,-1,0,0,10.82
2165,-2,-3,0,9,-3,-2,0,-2,10.825000000000001
2166,-1,-1,-1,3,-4,-3,0,1,10.83
2167,1,-1,0,-3,3,-2,-3,-1,10.835
2168,-1,-2,-2,-7,-7,1,1,-1,10.84
2169,-3,1,0,-13,0,-3,-2,-2,10.845
2170,-1,-2,-2,0,3,1,0,-1,10.85
2171,0,-3,-1,3,-6,-1,-1,-2,10.855
2172,-1,0,0,3,1,-2,-2,-1,10.86
2173,-1,0,-1,-35,-15,-3,-2,-1,10.865
2174,0,1,0,39,9,-4,-1,0,10.870000000000001
2175,-2,2,0,-3,5,3,1,0,10.875
2176,-2,-2,-1,21,5,1,-2,-3,10.88
2177,-1,-3,-2,-10,2,0,1,0,10.885
2178,-1,0,-1,-8,-11,-3,-1,1,10.89
2179,0,-2,-4,-27,-5,-2,0,-2,10.895
2180,-1,-1,-1,20,2,-1,-1,-1,10.9
2181,1,2,1,10,-3,-1,0,-2,10.905
2182,0,0,-2,-12,-1,2,2,-1,10.91
2183,0,-3,-1,3,-2,-1,-1,1,10.915000000000001
2184,0,0,0,-15,-6,-3,-1,-1,10.92
2185,2,1,0,14,7,2,-1,-1,10.925
2186,-4,1,-1,-11,-2,-1,-1,0,10.93
2187,-2,-2,0,-7,-8,0,-2,-2,10.935
2188,0,-4,-2,-1,0,-3,-2,-1,10.94
2189,-1,3,-2,7,4,3,-2,0,10.945
2190,0,-2,-1,-21,-10,-2,-1,-1,10.950000000000001
2191,-2,-3,0,12,-9,-4,-1,-2,10.955
2192,0,3,-2,-9,17,0,0,0,10.96
2193,0,-5,-1,23,5,0,-2,0,10.965
2194,-1,0,-2,5,9,0,0,0,10.97
2195,-1,1,-1,8,5,-1,-2,1,10.975
2196,-1,-2,-2,-45,-13,-3,0,0,10.98
2197,-1,0,-1,-9,-7,-2,0,-1,10.985
2198,0,-2,0,11,-5,1,1,-2,10.99
2199,0,2,-1,-19,6,1,0,0,10.995000000000001
2200,-2,-2,0,12,1,1,-1,-2,11.0
2201,1,-1,-1,-6,-4,-1,-1,-1,11.005
2202,-1,-3,0,1,-5,-1,-2,0,11.01
2203,0,2,0,2,-4,1,1,-2,11.015
2204,-1,-2,-2,3,-1,-2,-1,0,11.02
2205,-2,-4,-2,-9,-7,-2,-1,-2,11.025
2206,0,-1,0,-1,-1,-4,-1,-2,11.03
2207,-1,2,0,2,4,0,-1,0,11.035
2208,-1,0,0,-3,0,0,0,1,11.040000000000001
2209,-1,-2,0,5,-3,0,0,0,11.045
2210,0,0,-2,-18,1,-2,-4,-1,11.05
2211,0,-1,-1,-7,-5,0,1,0,11.055
2212,0,-3,-1,36,-4,-3,0,0,11.06
2213,-1,2,-2,3,19,4,1,1,11.065
2214,-2,-1,-1,-4,-7,-1,-1,-1,11.07
2215,1,-2,-1,-4,13,2,1,0,11.075000000000001
2216,0,0,1,-9,-9,-3,-1,-2,11.08
2217,0,1,-1,2,-4,-2,0,-1,11.085
2218,0,0,2,1,-11,1,-2,-2,11.09
2219,-2,-3,-4,1,3,-1,-3,-1,11.095
2220,-3,-1,-3,-7,1,-2,-1,0,11.1
2221,1,1,3,1,-2,-2,-1,-1,11.105
2222,0,-2,1,6,5,1,0,0,11.11
2223,0,-3,-1,1,-8,-6,-3,-2,11.115
2224,-1,0,-2,-4,3,3,3,0,11.120000000000001
2225,-1,1,-2,-7,-1,-1,-2,0,11.125
2226,0,-5,-4,0,-2,-3,-1,-3,11.13
2227,-1,1,-1,3,-3,-2,0,-1,11.135
2228,-1,-2,-2,-12,-8,0,-1,-2,11.14
2229,-2,1,2,23,8,2,2,-1,11.145
2230,0,-1,-1,-15,-1,1,-2,0,11.15
2231,0,-2,-1,4,7,0,0,-1,11.155
2232,0,2,-1,23,-13,-4,-1,-1,11.16
2233,0,-3,-1,-21,0,0,0,-2,11.165000000000001
2234,-2,-3,0,12,14,1,0,1,11.17
2235,0,-1,-1,0,5,1,1,0,11.175
2236,-1,2,0,4,-2,0,-2,-1,11.18
2237,2,-2,-3,-29,-11,-4,-2,-1,11.185
2238,-4,0,-1,3,4,-3,0,1,11.19
2239,0,0,1,-4,-10,3,-2,0,11.195
2240,-1,-2,0,-11,9,0,0,-1,11.200000000000001
2241,-4,0,0,14,0,-2,-2,0,11.205
2242,0,1,2,-2,-4,0,-1,-1,11.21
2243,-2,-3,-3,1,-5,-5,-1,-2,11.215
2244,0,-1,-1,-1,21,4,-1,0,11.22
2245,0,-2,0,1,1,0,0,-2,11.225
2246,-2,1,-1,-18,-9,-4,-1,0,11.23
2247,-1,1,1,27,2,0,1,0,11.235
2248,-1,-1,0,2,0,-2,0,-2,11.24
2249,-2,-3,-2,-4,-6,-3,-1,-1,11.245000000000001
2250,-2,0,0,-7,2,0,-1,0,11.25
2251,-1,0,0,-3,-19,-3,-2,-1,11.255
2252,0,-3,-2,16,12,1,0,0,11.26
2253,-1,1,-1,-10,-7,-2,0,-2,11.265
2254,1,0,-2,7,7,-2,0,-1,11.27
2255,0,1,-1,-3,0,0,-2,-1,11.275
2256,-2,-5,0,-19,-3,0,0,-1,11.28
2257,-2,-3,0,15,-8,-1,-1,0,11.285
2258,0,-4,0,5,-3,-1,2,-1,11.290000000000001
2259,-1,-1,-3,-6,4,1,0,0,11.295
2260,2,4,1,-4,-9,-3,-2,0,11.3
2261,-1,-2,-3,9,-6,-3,-3,0,11.305
2262,-4,-3,-2,7,-1,5,0,-1,11.31
2263,1,1,3,5,22,2,0,0,11.315
2264,-3,-2,-1,-11,-8,-1,-1,0,11.32
2265,1,0,1,1,3,-1,1,0,11.325000000000001
2266,1,2,0,5,-12,-3,-1,0,11.33
2267,-2,-1,-2,-14,-4,-3,1,-2,11.335
2268,-1,-2,-3,4,-5,-2,-1,-1,11.34
2269,-1,2,-2,-35,-6,-2,-4,0,11.345
2270,0,-2,-2,19,7,-1,-1,0,11.35
2271,0,-2,0,-13,-7,-1,-1,1,11.355
2272,-2,2,0,6,-3,-1,-1,-1,11.36
2273,-2,-1,-2,-5,-6,0,-2,0,11.365
2274,-2,-1,-2,-16,-4,-1,0,-2,11.370000000000001
2275,0,2,-2,4,3,-1,-1,-1,11.375
2276,2,1,0,3,-7,0,0,0,11.38
2277,-1,-7,0,7,2,0,-1,0,11.385
2278,3,2,-3,-4,1,-1,-4,-2,11.39
2279,-4,-4,-1,-8,-8,-1,1,-2,11.395
2280,-1,-1,-1,-2,4,0,1,0,11.4
2281,1,1,-1,8,7,1,0,-2,11.405
2282,-2,0,1,17,-2,0,0,-1,11.41
2283,0,-1,-3,-49,-11,-3,-1,-2,11.415000000000001
2284,0,0,0,-4,9,1,-1,0,11.42
2285,0,-1,0,-1,2,0,-2,-1,11.425
2286,1,-1,1,-8,-6,-5,-1,-1,11.43
2287,-1,-3,-3,-5,5,5,-1,-2,11.435
2288,-3,-3,-3,41,0,-3,1,0,11.44
2289,-2,-1,-2,-12,-7,-2,-1,0,11.445
2290,0,-1,-2,11,22,1,0,0,11.450000000000001
2291,-2,-3,-1,-3,2,-3,-3,1,11.455
2292,1,-1,-1,-58,-15,-3,-2,-1,11.46
2293,-2,-1,-2,85,-8,3,0,-1,11.465
2294,0,1,-1,-38,31,6,1,-1,11.47
2295,-1,-3,1,52,-32,-8,-4,-3,11.475
2296,-1,-1,0,-31,2,3,0,-2,11.48
2297,-2,0,0,20,31,9,-1,-1,11.485
2298,-3,0,0,15,-38,-11,-2,-3,11.49
2299,3,1,1,7,25,11,2,1,11.495000000000001
2300,-2,-2,1,-11,-15,-7,-2,-3,11.5
2301,-1,0,-2,-8,6,-2,0,1,11.505
2302,-6,0,2,44,-6,-5,-1,1,11.51
2303,2,-4,0,-24,21,6,1,-1,11.515
2304,-2,-9,-6,-2,8,0,-3,-3,11.52
2305,0,3,0,-19,4,-1,1,-1,11.525
2306,3,-1,-2,-14,-18,-4,1,0,11.53
2307,0,5,-2,-6,-19,-4,-1,-1,11.535
2308,1,2,-1,28,41,5,0,1,11.540000000000001
2309,0,-2,0,8,12,-2,1,1,11.545
2310,-1,-1,-2,-6,1,3,-1,1,11.55
2311,-1,-4,-2,-27,-12,-6,-1,-2,11.555
2312,-1,-1,-3,52,-1,0,1,1,11.56
2313,-2,-2,-1,-4,-27,-6,-2,-2,11.565
2314,-1,0,1,-8,12,2,-1,-1,11.57
2315,-3,-2,-1,10,9,-2,-1,-2,11.575000000000001
2316,2,3,2,-26,-6,-5,-2,-1,11.58
2317,-1,-2,0,-12,-17,-3,0,1,11.585
2318,-1,-6,-3,-15,5,2,-1,-3,11.59
2319,-8,0,-1,14,-13,-2,-1,-2,11.595
2320,-1,-5,-2,1,-25,-8,-2,11,11.6
2321,15,5,1,-1,30,8,2,-24,11.605
2322,-1,-3,-2,-35,-29,-6,-2,6,11.61
2323,-3,5,1,8,-8,0,-1,-4,11.615
2324,-6,6,-1,24,3,-3,-2,-2,11.620000000000001
2325,-5,-9,-9,-27,19,0,0,4,11.625
2326,10,4,-1,6,5,1,-1,-1,11.63
2327,-9,3,-2,-4,-15,-7,-1,-2,11.635
2328,-5,-6,0,-12,-9,-1,-1,-3,11.64
2329,-1,1,4,10,-22,-4,-1,4,11.645
2330,0,-5,-9,-17,6,0,1,-5,11.65
2331,4,3,4,19,20,1,-2,6,11.655
2332,3,1,0,-23,-31,-5,-1,-5,11.66
2333,0,16,0,-9,-15,-4,-2,2,11.665000000000001
2334,-2,-7,3,25,22,10,3,4,11.67
2335,-3,-4,-3,-27,48,5,0,-2,11.675
2336,8,-11,-3,12,-24,2,5,9,11.68
2337,-3,2,6,-18,-5,-7,3,-6,11.685
2338,0,4,-12,62,24,-1,-22,-21,11.69
2339,-13,-17,-5,16,-30,-9,-5,1,11.695
2340,-5,-9,5,-63,9,1,-1,-5,11.700000000000001
2341,-4,15,-28,-50,0,3,1,5,11.705
2342,-10,-24,6,-92,-64,-7,5,3,11.71
2343,23,21,2,13,50,11,3,-14,11.715
2344,10,14,2,50,30,4,0,10,11.72
2345,-3,-19,3,-61,-73,-13,4,27,11.725
2346,11,7,1,-24,13,-5,-4,-3,11.73
2347,-1,-3,-3,-98,-53,-1,7,22,11.735
2348,-33,-21,7,19,-10,8,0,-24,11.74
2349,-4,-32,-4,-33,-55,-21,9,3,11.745000000000001
2350,9,5,-21,29,-19,4,-19,-29,11.75
2351,9,-22,9,-16,39,4,-7,24,11.755
2352,9,36,-6,8,16,-1,-6,-28,11.76
2353,-4,-12,15,17,-37,-7,-4,9,11.765
2354,-1,4,4,53,39,3,15,2,11.77
2355,-20,0,0,11,-74,-28,-8,-10,11.775
2356,20,13,13,63,20,7,5,26,11.78
2357,-8,-12,4,79,127,37,22,-23,11.785
2358,-10,-2,6,-84,16,5,6,50,11.790000000000001
2359,21,-4,-3,84,-30,-5,7,-62,11.795
2360,8,10,-18,-106,-50,-25,-55,2,11.8
2361,17,27,5,88,-5,-3,5,-11,11.805
2362,-37,-45,-1,60,-54,-22,-4,15,11.81
2363,9,36,20,103,108,43,15,32,11.815
2364,-18,-68,-1,6,-28,-9,8,0,11.82
2365,4,9,-28,-108,21,3,-14,-8,11.825000000000001
2366,-4,3,15,-85,-62,-15,6,-21,11.83
2367,-22,-19,-8,-2,13,-9,2,0,11.835
2368,24,33,7,-40,-25,0,13,0,11.84
2369,18,20,-8,-26,35,12,3,26,11.845
2370,6,9,14,30,-30,1,6,-31,11.85
2371,-6,1,-12,-34,-10,4,-18,-6,11.855
2372,-45,-28,-18,-16,2,1,1,-8,11.86
2373,-17,-21,17,14,-19,-2,-17,-10,11.865
2374,36,52,-7,-109,37,2,1,2,11.870000000000001
2375,-12,-15,-24,10,46,-2,-9,-1,11.875
2376,-7,-7,15,-69,-76,-21,2,-9,11.88
2377,-7,32,-8,92,59,20,-3,-5,11.885
2378,18,3,8,-35,40,32,17,20,11.89
2379,-7,-35,-14,-128,-96,-19,-7,-4,11.895
2380,14,17,-8,51,6,1,10,18,11.9
2381,-11,-1,26,-87,-35,-16,0,15,11.905
2382,30,17,-29,65,15,-2,-21,-49,11.91
2383,-85,-52,-6,-9,4,8,2,12,11.915000000000001
2384,4,1,7,84,-64,-13,10,-3,11.92
2385,18,21,6,13,74,30,-4,23,11.925
2386,8,-8,12,96,-10,-1,-1,3,11.93
2387,13,24,-1,-25,-96,-33,-16,-6,11.935
2388,1,-35,2,8,73,22,10,-16,11.94
2389,-6,-14,0,46,-43,-16,-11,6,11.945
2390,-13,1,-21,-36,-14,-7,-13,3,11.950000000000001
2391,19,20,8,-24,-66,-4,5,6,11.955
2392,-2,2,5,-56,41,2,2,-1,11.96
2393,3,-3,-12,-3,-47,-20,-21,-26,11.965
2394,-33,-32,27,-24,-61,-2,2,15,11.97
2395,30,34,3,-23,-8,7,8,-2,11.975
2396,12,-8,-5,-42,-6,1,10,3,11.98
2397,4,-2,6,-47,25,6,-5,-16,11.985
2398,-34,-24,-30,-82,-50,-23,-8,13,11.99
2399,-1,-11,8,23,-34,-5,0,-2,11.995000000000001
2400,22,26,-1,56,37,11,-2,-6,12.0
2401,-10,-21,-12,-11,-64,-17,1,6,12.005
2402,14,18,5,34,-22,-9,0,9,12.01
2403,26,12,28,92,109,21,9,12,12.015
2404,-9,18,-14,-71,31,8,-3,3,12.02
2405,-22,-24,2,-22,-29,-12,-1,-5,12.025
2406,-3,1,2,-14,-11,0,3,-17,12.030000000000001
2407,14,13,-19,-15,-19,-11,-10,6,12.035
2408,12,9,-12,4,-33,-10,-1,17,12.040000000000001
2409,19,7,-6,-79,-23,0,10,-23,12.045
2410,-27,-27,4,44,114,18,-6,1,12.05
2411,-3,-15,1,-25,19,0,6,17,12.055
2412,11,11,2,-57,3,-1,-17,-6,12.06
2413,-14,-22,-4,-83,-61,-18,-3,-1,12.065
2414,-4,7,2,59,42,14,10,-4,12.07
2415,-3,6,-16,-128,35,5,1,-25,12.075000000000001
2416,-14,-5,25,47,32,1,8,18,12.08
2417,23,-4,-31,-24,25,7,3,1,12.085
2418,-19,11,-3,-35,-71,-23,-5,-2,12.09
2419,-12,1,10,29,99,33,12,-9,12.095
2420,-9,-3,-8,-14,-49,-10,-8,-4,12.1
2421,-12,-13,7,17,-36,-4,-3,-4,12.105
2422,2,-1,0,-58,41,14,7,7,12.11
2423,14,13,-1,15,-50,-13,-7,-7,12.115
2424,-18,-31,-11,3,1,5,-2,-11,12.120000000000001
2425,8,53,4,-7,-15,-2,3,-28,12.125
2426,27,-28,-2,28,-1,-5,11,44,12.13
2427,-19,-1,11,8,-5,-2,-13,14,12.135
2428,13,55,8,22,-8,2,8,5,12.14
2429,-10,-57,-37,41,54,9,-3,1,12.145
2430,2,43,23,52,-77,-6,5,-19,12.15
2431,43,-5,-4,61,-23,-20,5,-1,12.155000000000001
2432,-24,-14,5,39,94,26,5,0,12.16
2433,-6,33,12,42,-33,-2,-1,5,12.165000000000001
2434,-4,-12,10,118,32,2,-2,-7,12.17
2435,11,-14,-33,39,84,15,6,7,12.175
2436,0,0,2,1,-61,-17,-11,-10,12.18
2437,5,17,24,21,23,0,-6,4,12.185
2438,12,-3,-36,39,51,10,0,3,12.19
2439,-3,10,26,-67,-120,-20,5,2,12.195
2440,14,-50,-12,-29,60,13,15,-8,12.200000000000001
2441,-37,-28,-1,34,12,1,-24,3,12.205
2442,7,18,16,18,-22,-8,-15,-5,12.21
2443,31,33,-1,20,2,-1,3,-4,12.215
2444,-22,-18,-17,-41,-6,6,3,-16,12.22
2445,16,13,17,103,-53,-9,4,26,12.225
2446,9,-21,-4,-28,24,3,12,-12,12.23
2447,-9,3,-9,114,28,7,-12,-2,12.235
2448,-16,-26,3,-21,-30,-14,-2,3,12.24
2449,-9,12,8,30,68,15,-5,1,12.245000000000001
2450,5,16,-17,-23,-19,0,-12,-5,12.25
2451,-37,-19,-4,-12,2,4,4,-19,12.255
2452,-6,-9,27,-2,-11,2,-5,12,12.26
2453,-17,7,-27,-128,-52,-10,15,-6,12.265
2454,9,-5,9,-72,10,6,4,1,12.27
2455,-4,21,10,5,10,-2,-15,3,12.275
2456,17,-15,-24,-8,20,3,-10,4,12.280000000000001
2457,2,21,15,44,-67,-14,7,7,12.285
2458,26,-4,-8,-60,51,13,8,2,12.290000000000001
2459,-94,-50,0,-12,-25,-16,-14,-26,12.295
2460,-2,18,-2,8,26,2,-1,4,12.3
2461,35,10,10,-22,17,10,17,0,12.305
2462,-36,-25,7,109,15,1,0,0,12.31
2463,15,-31,-6,-10,52,16,3,4,12.315
2464,18,47,-10,-24,-14,-16,-10,5,12.32
2465,-5,-43,14,13,-13,1,7,-11,12.325000000000001
2466,0,19,-26,7,10,-5,-12,1,12.33
2467,23,-2,18,55,-37,-2,15,8,12.335
2468,19,5,-12,6,1,-1,-33,1,12.34
2469,-48,8,-22,-57,-45,-13,-4,-11,12.345
2470,12,26,11,-28,-22,-1,7,10,12.35
2471,16,-24,0,-27,3,-1,-2,-3,12.355
2472,-10,-14,-11,6,-42,-12,0,-15,12.36
2473,12,-7,17,35,45,15,9,10,12.365
2474,7,40,16,-13,-62,-10,5,-11,12.370000000000001
2475,-17,-44,-27,29,-9,-5,-8,5,12.375
2476,-24,19,8,50,-9,-5,-2,-14,12.38
2477,0,-12,-17,-30,4,-5,-10,-2,12.385
2478,-3,13,12,-25,-8,-1,6,-1,12.39
2479,10,10,5,-53,28,-2,0,-5,12.395
2480,7,10,7,13,-37,-6,-5,0,12.4
2481,-30,-26,1,52,51,3,-7,-4,12.405000000000001
2482,-5,-1,-5,-4,8,-3,-7,8,12.41
2483,8,23,-10,-51,-52,-9,3,-3,12.415000000000001
2484,-3,-5,6,26,17,9,4,19,12.42
2485,20,24,1,-43,21,6,1,-1,12.425
2486,-1,-29,1,6,-30,-10,-12,-9,12.43
2487,-2,11,6,-7,16,3,3,0,12.435
2488,1,0,-4,27,7,3,15,5,12.44
2489,18,3,-1,6,5,0,1,0,12.445
2490,-10,-14,-9,-7,-7,-2,-16,-4,12.450000000000001
2491,7,9,1,16,-7,-1,0,1,12.455
2492,-11,4,-8,-23,-1,0,4,-5,12.46
2493,11,0,9,36,-20,-10,-4,-1,12.465
2494,-9,-10,2,-15,19,8,2,-3,12.47
2495,2,15,-1,27,7,1,0,2,12.475
2496,2,-1,13,-17,-16,-4,0,-5,12.48
2497,0,-4,-13,-35,7,3,-1,-1,12.485
2498,-9,-9,-4,8,-22,-6,0,2,12.49
2499,9,10,2,-11,-3,1,-2,2,12.495000000000001
2500,-3,-4,2,15,-2,1,0,-7,12.5
2501,4,-3,-17,-28,0,-2,-4,4,12.505
2502,-2,-3,-1,20,5,-3,0,0,12.51
2503,-1,7,8,19,-3,2,3,0,12.515
2504,0,-4,-14,-31,-11,-1,0,-4,12.52
2505,2,2,-1,27,-3,-2,-4,-2,12.525
2506,-2,0,8,-28,6,1,0,-3,12.530000000000001
2507,-2,-3,-10,-18,-11,-5,-4,-2,12.535
2508,4,0,6,16,10,1,3,1,12.540000000000001
2509,3,0,0,-9,6,0,-1,0,12.545
2510,-5,-5,-5,0,9,1,2,-3,12.55
2511,0,4,4,4,2,1,-3,0,12.555
2512,1,-5,-7,-30,-5,-1,0,-3,12.56
2513,-1,-5,-1,11,4,-3,-4,-2,12.565
2514,-2,1,-1,-6,-1,-2,3,0,12.57
2515,-2,1,-4,-13,-2,-1,-3,0,12.575000000000001
2516,1,-3,-2,10,0,-1,0,0,12.58
2517,0,-2,5,28,0,0,-3,0,12.585
2518,-2,-4,-5,-12,-1,-3,-3,-1,12.59
2519,2,3,-3,-8,4,2,-2,-1,12.595
2520,-2,-2,3,12,-1,-1,3,-1,12.6
2521,-1,-2,0,-7,8,1,2,-2,12.605
2522,0,0,-4,-12,1,1,-1,1,12.61
2523,-2,0,1,20,1,-4,0,-1,12.615
2524,0,0,-1,0,-5,0,-1,0,12.620000000000001
2525,1,0,-3,-29,0,-1,-1,-1,12.625
2526,-2,-1,-3,9,-9,-3,-2,-3,12.63
2527,-1,-3,0,-9,0,-1,0,-1,12.635
2528,1,2,4,5,8,0,-2,-2,12.64
2529,0,-2,-5,-16,-8,-1,-1,0,12.645
2530,1,2,4,4,12,1,1,0,12.65
2531,-3,-6,-6,-18,-11,-3,-3,-2,12.655000000000001
2532,2,2,0,-7,0,-2,-1,0,12.66
2533,0,-3,-1,13,3,2,-1,-1,12.665000000000001
2534,-2,-3,-3,1,0,-3,-3,-2,12.67
2535,0,1,0,5,-2,1,1,-1,12.675
2536,-2,-2,1,-2,-4,-1,-3,-3,12.68
2537,1,0,0,15,3,-2,0,0,12.685
2538,1,1,0,-16,-13,-1,-1,1,12.69
2539,-1,1,-1,27,19,-1,-2,-2,12.695
2540,-1,0,-1,-1,2,2,0,-2,12.700000000000001
2541,-1,-3,0,10,0,2,0,0,12.705
2542,0,-1,0,3,9,2,-2,0,12.71
2543,-1,1,-1,-24,-24,-5,-1,-1,12.715
2544,-1,-1,-3,1,8,-1,0,-2,12.72
2545,0,2,2,-9,-4,-2,0,0,12.725
2546,-1,-2,-3,12,1,1,0,-1,12.73
2547,-2,-1,-1,-17,-10,-2,-2,-1,12.735
2548,0,-3,-3,6,-7,-2,-2,0,12.74
2549,-1,1,1,-12,5,-1,-2,-2,12.745000000000001
2550,-3,-5,-6,-13,3,-1,-2,-2,12.75
2551,0,6,4,-2,-10,-3,-2,0,12.755
2552,0,-2,-2,-1,17,4,0,-1,12.76
2553,-1,-1,-1,8,-3,0,-1,-2,12.765
2554,0,1,1,-1,-9,1,2,0,12.77
2555,-3,-2,-4,1,26,1,-1,0,12.775
2556,-1,-2,1,12,-7,-3,1,-1,12.780000000000001
2557,0,0,-1,-4,-3,-3,-3,0,12.785
2558,-1,1,1,-1,4,-1,1,-1,12.790000000000001
2559,-1,-3,0,-27,-11,3,0,-2,12.795
2560,-2,0,0,24,-5,-4,-1,-1,12.8
2561,0,2,3,6,-1,0,1,1,12.805
2562,-1,0,-4,9,4,-4,0,-1,12.81
2563,1,-2,-1,19,5,1,-1,0,12.815
2564,-1,2,1,-40,-4,1,-1,0,12.82
2565,1,-1,-1,28,9,-1,0,-2,12.825000000000001
2566,0,-2,0,-3,-7,1,-1,-1,12.83
2567,0,-2,1,0,18,4,1,-1,12.835
2568,0,0,2,2,-3,-2,0,1,12.84
2569,0,0,0,-9,-3,1,-1,0,12.845
2570,-1,0,-2,-4,-6,0,0,0,12.85
2571,1,-2,-3,4,-21,-4,-2,-2,12.855
2572,-1,-3,-1,-6,19,0,-2,0,12.86
2573,-1,0,-2,0,-2,-1,0,-2,12.865
2574,0,0,2,-5,6,0,-1,-1,12.870000000000001
2575,-1,2,2,-1,-12,-4,-1,0,12.875
2576,-1,-2,-3,-20,6,-1,-1,-2,12.88
2577,-2,-2,-3,-1,-6,-2,0,-1,12.885
2578,-2,0,0,3,8,-1,-1,0,12.89
2579,-1,0,-1,-4,-8,1,1,1,12.895
2580,2,0,1,15,7,-1,0,0,12.9
2581,0,-2,-1,-16,-3,-3,-1,-1,12.905000000000001
2582,1,0,-1,0,0,4,0,0,12.91
2583,-2,-2,-3,-6,-2,-3,-2,-2,12.915000000000001
2584,-1,-1,-2,-1,-14,0,-1,0,12.92
2585,-2,-1,0,-16,4,-3,-2,0,12.925
2586,0,-1,0,19,2,-2,-3,-1,12.93
2587,-3,-1,1,6,6,1,-1,-2,12.935
2588,2,1,-1,1,1,-4,-2,-1,12.94
2589,1,3,4,5,-11,3,0,0,12.945
2590,-2,-3,-5,-14,-6,-4,-1,-2,12.950000000000001
2591,-1,-2,0,42,0,-3,0,-1,12.955
2592,-1,-2,-1,-35,-6,2,0,0,12.96
2593,-2,3,1,2,4,2,0,0,12.965
2594,-2,-5,-4,11,-3,-1,-1,0,12.97
2595,0,0,1,-5,5,-3,-2,-3,12.975
2596,-1,-1,-3,-2,-14,-1,-1,0,12.98
2597,-2,-3,-3,18,3,0,1,-1,12.985
2598,2,3,4,-7,3,1,-1,-1,12.99
2599,0,1,-1,-12,4,-3,-1,-1,12.995000000000001
2600,-2,-7,-7,6,-17,-3,-2,-2,13.0
2601,0,-1,-2,-18,6,2,-1,-1,13.005
2602,-1,0,2,7,-4,-4,-1,-3,13.01
2603,2,-3,0,-13,-8,-1,-2,0,13.015
2604,-2,3,1,4,5,1,0,1,13.02
2605,-1,0,0,4,-10,-3,-2,0,13.025
2606,0,-1,-2,-6,4,1,0,-1,13.030000000000001
2607,-2,1,2,-17,0,-1,0,0,13.035
2608,2,2,4,11,15,5,1,0,13.040000000000001
2609,-1,-5,-4,-19,-29,-7,-2,-3,13.045
2610,-2,-1,-2,1,0,-2,-2,-2,13.05
2611,0,1,0,-11,4,3,1,0,13.055
2612,0,2,1,13,3,-1,0,0,13.06
2613,-1,0,-1,-8,-11,-1,-2,-2,13.065
2614,-2,0,-1,-13,-2,-1,-1,1,13.07
2615,0,-1,-1,8,-2,-2,-2,0,13.075000000000001
2616,-2,-2,-2,-7,-11,-4,-3,-2,13.08
2617,0,-1,3,0,-2,-1,1,0,13.085
2618,2,0,-1,38,-2,4,0,-1,13.09
2619,-1,-1,2,16,27,5,1,0,13.095
2620,-1,-4,-4,-27,-4,-1,0,-2,13.1
2621,-2,-3,-5,8,3,-2,-1,-2,13.105
2622,0,-1,-1,-4,6,0,0,0,13.11
2623,-2,-1,-3,-14,-21,-5,-2,0,13.115
2624,1,2,2,14,5,-4,-2,-2,13.120000000000001
2625,-2,-1,-1,9,15,2,-3,2,13.125
2626,-2,-1,1,-10,-21,-2,1,0,13.13
2627,0,-1,-1,-1,2,0,0,-1,13.135
2628,-4,-2,-1,-4,-4,-2,-1,0,13.14
2629,1,-1,-2,-3,0,-1,-1,-2,13.145
2630,-2,-1,-2,6,-4,-3,-2,-1,13.15
2631,-2,-2,-2,-21,11,4,1,-2,13.155000000000001
2632,0,0,1,36,6,3,1,1,13.16
2633,0,3,2,9,-5,-2,0,1,13.165000000000001
2634,0,-1,-3,-6,-11,-6,-2,-2,13.17
2635,0,-1,-3,2,20,3,1,0,13.175
2636,-1,-3,0,-4,-3,0,-1,-2,13.18
2637,0,-3,0,-6,7,1,0,-1,13.185
2638,-1,-1,2,-5,5,3,-1,0,13.19
2639,0,-1,0,2,-15,-6,-2,-3,13.195
2640,-1,-2,-4,-4,-3,0,-2,0,13.200000000000001
2641,-1,0,-1,3,5,0,0,-1,13.205
2642,0,-1,-2,-13,-1,0,-1,-1,13.21
2643,-2,-1,-1,10,-9,-3,-2,-2,13.215
2644,0,0,0,-16,0,-3,-1,0,13.22
2645,-1,-1,0,1,-3,-2,-1,-1,13.225
2646,0,-2,-1,15,-7,1,0,-1,13.23
2647,-1,2,2,-40,12,2,1,1,13.235
2648,1,-3,-4,15,-4,-1,1,-1,13.24
2649,-1,1,-1,4,6,0,0,0,13.245000000000001
2650,-2,-1,-1,-23,-7,-3,-2,0,13.25
2651,1,-2,-1,5,-6,-2,-2,1,13.255
2652,-2,-1,-1,-24,-16,-3,-3,-2,13.26
2653,0,1,-1,13,9,0,0,-1,13.265
2654,-1,0,1,-3,6,-1,1,-1,13.27
2655,-3,-4,-1,17,-19,0,-2,0,13.275
2656,0,2,1,-10,3,1,1,-1,13.280000000000001
2657,-1,-6,-6,-9,-16,-1,-2,-1,13.285
2658,1,1,1,-9,9,1,-2,-2,13.290000000000001
2659,1,-1,-4,-2,-16,-5,-1,-1,13.295
2660,0,1,3,8,1,-2,-1,-1,13.3
2661,-1,-2,-2,-16,-5,-4,-3,-2,13.305
2662,-1,-3,-4,11,0,0,-1,-2,13.31
2663,0,0,-2,8,-11,1,1,0,13.315
2664,-1,-2,-2,-10,20,2,0,-2,13.32
2665,0,2,2,29,18,2,0,0,13.325000000000001
2666,-1,-3,1,-13,-5,-1,0,0,13.33
2667,0,1,-2,10,5,0,-1,-3,13.335
2668,1,-1,-1,5,-4,-2,0,0,13.34
2669,0,-1,1,0,2,0,-2,0,13.345
2670,-2,-2,-2,-4,7,-1,-2,-1,13.35
2671,0,1,0,-5,1,1,-2,-1,13.355
2672,-2,0,0,11,-21,-5,-1,-1,13.36
2673,-1,-3,-1,-28,19,2,1,-2,13.365
2674,-2,-4,-5,-21,-9,-3,1,0,13.370000000000001
2675,0,0,-1,14,4,-1,0,-1,13.375
2676,0,-1,-2,4,26,4,0,0,13.38
2677,1,4,2,8,-12,-2,-2,-1,13.385
2678,-2,-1,0,-3,-4,-1,0,-2,13.39
2679,1,-1,-2,-3,1,-1,0,0,13.395
2680,-1,-1,-1,-1,-6,0,-2,-2,13.4
2681,-1,-2,0,-1,-5,0,0,-1,13.405000000000001
2682,0,1,1,10,8,0,-2,0,13.41
2683,-1,-2,1,-5,-3,-2,0,-1,13.415000000000001
2684,-1,0,0,16,-11,0,0,0,13.42
2685,0,-1,-1,-17,3,0,-1,0,13.425
2686,0,1,3,-13,-3,-1,-1,0,13.43
2687,0,-1,-2,12,4,-3,1,0,13.435
2688,-2,-3,-4,-1,-2,-1,-1,-1,13.44
2689,-1,-1,-3,24,6,0,0,0,13.445
2690,0,-1,-2,-17,2,0,0,0,13.450000000000001
2691,0,1,0,-5,-1,1,0,0,13.455
2692,-1,-1,1,-3,6,-2,0,-2,13.46
2693,-1,1,-1,-3,-11,-1,0,-1,13.465
2694,0,0,-1,-11,0,-3,-3,-2,13.47
2695,-1,0,2,55,-28,-4,-2,-2,13.475
2696,0,4,-1,-12,35,8,3,1,13.48
2697,-2,-2,-2,0,-4,-2,-3,1,13.485
2698,0,-3,-3,-3,-1,1,-2,0,13.49
2699,0,-3,-3,-10,1,-3,-2,-1,13.495000000000001
2700,0,0,-1,-3,-18,-4,-2,-1,13.5
2701,0,0,1,0,-1,0,-1,-1,13.505
2702,-1,-1,1,13,1,0,0,-1,13.51
2703,-1,0,-1,-18,0,1,-1,0,13.515
2704,-3,-2,0,6,-6,-2,-3,-1,13.52
2705,0,0,-1,-10,4,-1,0,-1,13.525
2706,0,1,-1,12,-4,-3,0,-1,13.530000000000001
2707,-2,1,-1,-13,-1,-1,0,-1,13.535
2708,-1,-3,-2,-10,6,3,-1,-2,13.540000000000001
2709,-2,-1,0,27,-3,-3,-1,-2,13.545
2710,0,0,-1,1,-6,0,-1,-2,13.55
2711,2,3,4,8,13,3,-1,1,13.555
2712,-3,-1,-2,-1,-5,-3,-1,-1,13.56
2713,-2,-4,-4,-21,-12,-2,-3,-2,13.565
2714,-2,-1,-2,5,0,1,-2,-2,13.57
2715,-2,2,2,-10,3,-2,-3,-1,13.575000000000001
2716,0,-1,-2,-10,-14,-5,-1,0,13.58
2717,-2,-2,-2,3,2,-1,-1,-2,13.585
2718,1,2,2,6,-2,-3,0,-2,13.59
2719,-2,-3,-2,-10,-15,-1,0,-2,13.595
2720,1,-1,2,15,29,5,2,0,13.6
2721,-1,-5,-5,-8,14,-1,-1,-2,13.605
2722,1,0,-2,-7,11,1,-1,0,13.61
2723,-2,-3,-1,-3,-7,-3,-2,-1,13.615
2724,0,-1,0,2,-18,-4,-3,-2,13.620000000000001
2725,0,1,1,-3,2,0,-1,-1,13.625
2726,-1,-2,0,11,-2,-1,0,-1,13.63
2727,-1,-1,-1,1,8,0,0,-1,13.635
2728,-2,-2,-1,-5,-2,-1,-2,0,13.64
2729,-1,0,1,-5,-7,0,-1,1,13.645
2730,1,0,1,-3,-2,0,0,1,13.65
2731,-1,0,-1,-10,-6,-1,-1,-1,13.655000000000001
2732,2,0,2,4,13,0,0,0,13.66
2733,1,2,1,7,-12,-2,-1,0,13.665000000000001
2734,-1,0,-2,-26,-4,0,1,-1,13.67
2735,0,-4,-5,2,20,2,0,-1,13.675
2736,0,0,-2,-8,-2,1,3,0,13.68
2737,-1,1,2,22,-9,-4,1,-1,13.685
2738,-1,1,0,-10,22,5,1,1,13.69
2739,-1,-3,-2,-9,-7,-2,-1,-1,13.695
2740,0,0,0,-4,-14,-2,0,1,13.700000000000001
2741,0,-1,1,-3,23,1,1,0,13.705
2742,-1,0,1,29,-12,-4,-1,-1,13.71
2743,0,0,-4,-54,4,1,0,0,13.715
2744,-1,-1,0,12,-7,-3,-1,-2,13.72
2745,-1,2,2,-29,-14,-2,-1,0,13.725
2746,-1,-4,-2,43,10,-1,-1,-2,13.73
2747,0,0,0,17,4,0,0,-1,13.735
2748,0,-1,1,-34,-13,-1,-1,0,13.74
2749,-2,-2,-3,20,6,1,-1,0,13.745000000000001
2750,-2,-1,-1,12,-22,-4,-2,-1,13.75
2751,1,0,2,-22,20,3,0,-1,13.755
2752,-2,-2,-4,19,19,0,-3,-2,13.76
2753,0,0,0,1,-3,-2,-2,-2,13.765
2754,1,-1,-2,-8,-1,0,-1,0,13.77
2755,-1,-1,-2,14,-12,-5,-2,-2,13.775
2756,1,1,2,1,-5,-3,0,1,13.780000000000001
2757,0,-1,-1,-12,1,0,0,0,13.785
2758,-1,-2,0,4,-10,-1,0,-1,13.790000000000001
2759,-1,-2,-1,0,-1,-2,-1,-3,13.795
2760,-1,-1,-2,-6,13,2,-1,-1,13.8
2761,2,0,-1,-2,-13,0,0,1,13.805
2762,-2,-2,-3,-17,-4,-3,-1,-1,13.81
2763,0,-1,-1,10,3,-2,-3,0,13.815
2764,-1,-1,-4,-5,-6,-4,-1,-1,13.82
2765,-2,-3,-6,-6,-5,-2,0,-2,13.825000000000001
2766,0,1,-1,-4,7,1,0,1,13.83
2767,0,1,-1,-4,-12,-1,0,0,13.835
2768,-1,0,0,16,13,1,1,-1,13.84
2769,-1,-4,-1,3,0,0,-1,-1,13.845
2770,0,2,0,-4,15,2,0,-1,13.85
2771,-1,-2,-3,30,-7,-5,0,-1,13.855
2772,0,2,2,-15,-16,1,0,0,13.86
2773,-2,-2,-4,-8,9,1,-1,-2,13.865
2774,-1,-3,-1,-26,12,0,-1,0,13.870000000000001
2775,0,-2,2,34,1,0,-2,1,13.875
2776,0,-2,-2,-6,-9,-3,-2,0,13.88
2777,-1,-1,-1,2,2,-5,-1,-1,13.885
2778,-1,0,2,-16,-14,1,1,-1,13.89
2779,-1,0,2,0,11,4,0,-1,13.895
2780,-1,1,1,9,-6,-2,0,0,13.9
2781,0,0,-3,-1,-4,-2,-1,0,13.905000000000001
2782,0,-1,-1,-4,0,-3,-1,-2,13.91
2783,0,1,0,-10,-7,-2,-1,0,13.915000000000001
2784,0,-2,-1,8,-3,-2,0,-3,13.92
2785,-1,3,2,-2,-12,0,-1,-1,13.925
2786,-3,-3,-1,4,-6,-1,-1,-2,13.93
2787,-2,-2,-3,-27,-2,0,0,-1,13.935
2788,-1,-1,-2,30,7,0,-2,-2,13.94
2789,0,1,1,-6,-6,0,1,0,13.945
2790,-3,-2,-5,22,3,-2,-2,-2,13.950000000000001
2791,-1,-1,1,-15,-6,0,2,0,13.955
2792,-1,0,1,-13,-19,-2,-1,-1,13.96
2793,0,0,1,12,21,1,1,1,13.965
2794,0,0,3,14,-14,-3,0,1,13.97
2795,-1,-3,-3,23,28,4,-1,-1,13.975
2796,-2,-1,-4,-9,-7,-2,-3,0,13.98
2797,-2,-2,-2,-2,-4,-2,-1,-1,13.985
2798,-1,0,-1,-7,-3,1,0,-1,13.99
2799,0,0,0,-6,-16,-3,-1,0,13.995000000000001
2800,0,-3,0,-6,-1,-1,1,-1,14.0
2801,0,0,0,4,5,0,-1,0,14.005
2802,-1,0,-2,6,9,0,-2,-2,14.01
2803,-3,-1,-1,-11,-15,-2,-2,-1,14.015
2804,0,-2,0,12,13,1,-1,-1,14.02
2805,-1,-2,-5,-33,-5,-4,-3,-2,14.025
2806,0,1,0,10,2,-1,-1,0,14.030000000000001
2807,0,0,2,-1,-4,-2,-1,-1,14.035
2808,-1,-5,-3,-1,1,-3,0,0,14.040000000000001
2809,-1,0,-1,8,-8,0,0,-1,14.045
2810,0,-1,1,0,2,-1,-1,-1,14.05
2811,-1,-1,-2,2,-2,-4,-1,-1,14.055
2812,-1,0,0,-23,13,4,0,-1,14.06
2813,-3,-1,-1,-3,3,0,-2,-2,14.065
2814,-2,-2,-4,-4,-3,0,-1,0,14.07
2815,0,1,1,0,-4,-1,-1,-1,14.075000000000001
2816,0,-1,-2,0,-10,-2,-2,0,14.08
2817,1,-1,0,-21,-6,0,1,-1,14.085
2818,0,2,-2,-3,5,1,-2,0,14.09
2819,-2,-1,1,73,28,1,-2,-1,14.095
2820,-1,-1,-3,-40,-21,-4,-1,-1,14.1
2821,-3,-4,-3,13,11,1,-1,-1,14.105
2822,2,-2,-2,-33,2,3,3,0,14.11
2823,-1,-1,-2,-18,-12,-4,-1,0,14.115
2824,-2,1,0,-4,5,0,-1,0,14.120000000000001
2825,-1,2,2,20,-3,-1,-2,1,14.125
2826,-1,-1,0,2,-5,-3,-2,-2,14.13
2827,1,-1,-2,-2,4,1,1,-1,14.135
2828,-2,0,-1,7,-2,-1,-2,-1,14.14
2829,1,-1,-2,-33,-28,-8,-2,0,14.145
2830,1,-1,1,8,27,5,-2,0,14.15
2831,0,1,0,-14,1,0,-1,1,14.155000000000001
2832,-1,-2,-1,18,-6,1,-2,-1,14.16
2833,-1,-2,-2,2,-9,-3,1,-2,14.165000000000001
2834,-2,-1,-3,-4,-15,-6,-3,-2,14.17
2835,-1,0,-3,-6,0,1,1,-1,14.175
2836,-2,-4,-3,-14,-13,-2,0,-2,14.18
2837,0,-1,2,33,9,1,-1,0,14.185
2838,0,1,2,-4,3,-4,0,-1,14.19
2839,0,-1,-4,0,5,2,1,-1,14.195
2840,1,1,-1,12,8,0,0,1,14.200000000000001
2841,0,0,0,-9,-4,1,0,0,14.205
2842,0,1,0,4,-9,-3,-2,-1,14.21
2843,-2,-1,-2,-6,-8,-2,-1,1,14.215
2844,-1,-1,0,21,6,0,0,0,14.22
2845,-2,-2,-1,5,4,0,-1,-1,14.225
2846,-1,-1,0,-2,-6,-1,1,-1,14.23
2847,-1,-2,-3,4,5,1,-2,-1,14.235
2848,0,-2,-2,-17,-3,-2,1,-2,14.24
2849,-2,1,-1,-5,13,3,0,0,14.245000000000001
2850,-2,-2,-2,-4,-4,1,0,-1,14.25
2851,-3,-1,2,-5,-1,-4,-1,-1,14.255
2852,-1,0,0,12,8,0,0,-2,14.26
2853,-1,-1,0,-33,-35,-4,-1,-1,14.265
2854,0,0,1,43,63,6,0,-1,14.27
2855,0,-1,-3,-51,-28,-3,0,0,14.275
2856,-2,-1,0,77,24,1,-2,0,14.280000000000001
2857,-1,-1,-2,12,17,-1,-1,0,14.285
2858,1,-1,-2,-50,-28,-5,-3,0,14.290000000000001
2859,0,-1,0,-9,4,1,0,-1,14.295
2860,-2,0,2,-10,-11,-1,-2,-1,14.3
2861,1,1,0,-9,-8,-3,-2,-2,14.305
2862,-3,-6,0,11,14,5,0,0,14.31
2863,-2,-3,-2,2,-9,-8,-5,-3,14.315
2864,0,-1,-3,-14,-3,0,2,2,14.32
2865,0,-3,-1,9,-7,0,0,-2,14.325000000000001
2866,-1,0,-1,-24,-13,-2,0,0,14.33
2867,0,0,4,30,7,0,0,-1,14.335
2868,0,0,1,-11,1,-1,-2,-1,14.34
2869,0,1,1,2,-10,1,-1,1,14.345
2870,-1,-1,-3,13,-6,-2,-1,-1,14.35
2871,-2,-1,-1,-39,-10,1,-1,-1,14.355
2872,-2,-1,0,31,-2,-4,-2,-2,14.36
2873,-1,-3,-1,-13,-7,2,1,-2,14.365
2874,-1,2,0,9,17,1,0,-1,14.370000000000001
2875,-1,-1,0,-3,-4,0,0,-1,14.375
2876,-1,-1,-1,-7,1,0,-1,-1,14.38
2877,-1,-1,1,-7,7,1,0,0,14.385
2878,-1,-2,-2,4,-20,-4,-2,-2,14.39
2879,0,-1,-2,-2,1,0,1,-1,14.395
2880,0,-3,-2,-13,1,1,0,-1,14.4
2881,-2,1,1,10,13,1,-1,-1,14.405000000000001
2882,-1,0,-2,-8,-7,1,1,-2,14.41
2883,1,1,0,19,10,0,-3,0,14.415000000000001
2884,-1,-1,-3,-20,-14,-3,-1,-2,14.42
2885,0,0,-1,8,-1,-2,0,0,14.425
2886,-2,0,-1,3,0,0,0,-1,14.43
2887,1,-1,-2,-1,-3,-3,1,1,14.435
2888,0,1,1,-10,-3,-1,-1,-1,14.44
2889,0,-2,-1,-17,0,-3,-2,0,14.445
2890,1,2,3,-11,11,3,2,1,14.450000000000001
2891,-2,-4,-1,14,-7,-3,0,-2,14.455
2892,-1,-2,-1,24,36,4,0,-1,14.46
2893,-1,-1,-5,16,2,-1,-1,-2,14.465
2894,0,1,1,-1,-6,-3,-2,-1,14.47
2895,-2,-3,-2,-14,-4,0,-2,0,14.475
2896,-2,-2,0,-24,-19,-4,-1,-2,14.48
2897,-1,0,1,3,9,1,0,0,14.485
2898,-2,-3,-3,2,-4,-1,0,-2,14.49
2899,0,2,1,-8,-1,0,1,-1,14.495000000000001
2900,-1,2,0,15,-8,0,-3,-1,14.5
2901,-2,-1,-1,1,-2,-3,-2,-1,14.505
2902,-2,-1,0,-9,-15,-3,-1,-1,14.51
2903,2,0,3,13,-1,-3,0,0,14.515
2904,1,-2,-1,-20,2,1,0,-2,14.52
2905,0,-1,-1,7,13,0,-1,-1,14.525
2906,-2,-3,-1,9,-18,-3,-1,-1,14.530000000000001
2907,-2,0,-1,3,4,3,-1,-1,14.535
2908,0,0,-1,-15,-4,-1,0,0,14.540000000000001
2909,0,-1,-3,-4,-7,-2,-1,0,14.545
2910,0,-1,0,9,11,1,-1,0,14.55
2911,0,-1,0,-15,-7,0,0,-1,14.555
2912,-1,-2,1,48,-37,-8,-3,-2,14.56
2913,1,0,0,22,55,11,1,1,14.565
2914,2,2,-1,-6,15,1,1,-1,14.57
2915,0,-2,-4,-11,-1,0,-2,-1,14.575000000000001
2916,-2,1,1,-13,-5,-2,-3,-1,14.58
2917,-2,-3,1,4,-29,-5,-2,-2,14.585
2918,0,-1,0,11,7,0,-2,0,14.59
2919,-1,0,1,12,8,1,1,-2,14.595
2920,-1,-2,-3,-18,0,-3,0,0,14.6
2921,0,1,1,-11,-13,-1,1,-2,14.605
2922,-1,-2,-4,-5,-2,-3,-1,1,14.61
2923,-1,-2,1,7,-11,-4,0,-1,14.615
2924,-2,0,-2,-10,11,3,-2,0,14.620000000000001
2925,0,0,0,-6,-2,-1,0,1,14.625
2926,-3,-7,-2,0,-10,-2,-2,-1,14.63
2927,0,1,0,3,8,2,1,0,14.635
2928,0,-2,-2,-4,4,0,1,-2,14.64
2929,0,-1,-3,-4,-10,-2,0,0,14.645
2930,1,0,0,-5,-3,-1,-2,-3,14.65
2931,-1,0,-1,3,-1,-2,-3,0,14.655000000000001
2932,0,-1,-2,-44,-15,-2,-2,-1,14.66
2933,-1,-1,-2,39,17,3,-1,-1,14.665000000000001
2934,-1,1,1,11,2,-1,-2,0,14.67
2935,0,-3,-2,-3,5,1,-1,-1,14.675
2936,-1,-1,0,8,5,2,0,0,14.68
2937,-1,1,2,-40,-21,-3,0,0,14.685
2938,-1,0,-2,-8,15,0,0,0,14.69
2939,0,-1,0,16,5,0,-1,-3,14.695
2940,1,-1,1,28,3,-1,0,1,14.700000000000001
2941,-2,-2,-2,-19,7,4,1,0,14.705
2942,-3,0,1,-2,-19,-4,-1,0,14.71
2943,1,-1,-4,-12,-10,1,-1,1,14.715
2944,-1,-1,0,-6,-8,-3,1,0,14.72
2945,-2,0,0,17,21,3,-2,-1,14.725
2946,0,-2,-2,-3,-7,-1,-2,-1,14.73
2947,-1,1,0,0,3,-1,-2,-1,14.735
2948,0,-2,-3,-6,-4,0,-1,1,14.74
2949,1,0,-1,-3,-15,-6,-1,-2,14.745000000000001
2950,0,-3,-2,-3,14,2,0,-2,14.75
2951,-4,-3,-2,-1,-2,-3,-1,0,14.755
2952,0,-1,-3,6,5,1,-1,-1,14.76
2953,-1,-2,-1,-6,-5,-3,-2,-1,14.765
2954,-1,2,-1,-6,-11,-1,1,1,14.77
2955,-1,-3,-2,14,2,0,-1,-2,14.775
2956,-2,0,0,-3,-8,-2,-1,-1,14.780000000000001
2957,1,1,1,-7,-15,-1,1,0,14.785
2958,1,-1,-1,7,-1,-1,-2,-1,14.790000000000001
2959,-1,0,0,-23,-1,-1,1,-1,14.795
2960,-1,-1,0,-1,2,-1,0,1,14.8
2961,-2,-1,-4,3,4,-1,-4,-3,14.805
2962,-2,-2,0,-10,-12,-5,-2,-1,14.81
2963,-1,3,0,18,0,0,-1,1,14.815
2964,-1,-5,-1,-15,6,0,-1,-3,14.82
2965,0,0,-1,7,0,2,-1,-1,14.825000000000001
2966,-1,0,-1,-2,23,1,-2,-2,14.83
2967,0,-2,-2,11,-4,-2,0,-2,14.835
2968,-1,2,2,18,0,-1,-1,-1,14.84
2969,-2,-4,-3,-29,16,2,1,1,14.845
2970,-1,1,-1,-5,-16,-1,1,0,14.85
2971,-1,0,0,-15,-5,-1,-1,0,14.855
2972,-1,0,0,5,6,0,-1,-1,14.86
2973,-1,-1,-1,2,-10,-5,-1,-3,14.865
2974,-1,-3,-2,10,-7,-2,-1,-1,14.870000000000001
2975,-1,0,-1,-16,1,-2,-1,-2,14.875
2976,-3,1,-1,-24,-8,-1,-1,-1,14.88
2977,-2,-3,1,35,3,-2,-2,-1,14.885
2978,-1,0,-2,-8,-20,-4,0,1,14.89
2979,-1,-1,-2,-2,3,0,0,-2,14.895
2980,0,-2,-2,-1,6,-1,-2,0,14.9
2981,0,-1,-1,-3,-12,-2,-1,-1,14.905000000000001
2982,-2,1,0,2,1,-1,-1,-1,14.91
2983,-1,-3,-2,-18,-3,-2,-1,0,14.915000000000001
2984,1,0,-1,8,6,1,1,0,14.92
2985,-2,1,-1,-17,-2,1,1,-1,14.925
2986,-4,-3,-2,8,-4,-1,-1,-1,14.93
2987,1,-1,1,2,-16,-3,-1,0,14.935
2988,1,2,1,3,17,1,-2,1,14.94
2989,-1,-2,0,10,-8,-3,-4,0,14.945
2990,-1,-3,-2,-20,3,-2,-3,1,14.950000000000001
2991,-3,-2,0,13,4,-1,1,-1,14.955
2992,-1,0,-1,-4,-8,-1,1,1,14.96
2993,-1,-2,0,5,-2,-1,-1,-1,14.965
2994,1,0,-1,18,2,1,0,-3,14.97
2995,-1,2,-2,-42,-3,-2,0,-1,14.975
2996,1,2,2,-1,-11,-6,-1,-1,14.98
2997,-1,-3,-2,-8,7,5,0,-1,14.985
2998,-2,-2,-3,-3,-3,-2,-1,-1,14.99
2999,0,1,-4,-3,-12,-4,-2,-1,14.995000000000001
3000,-1,-3,0,23,23,5,1,-1,15.0
3001,0,-2,0,-7,-1,-2,0,-1,15.005
3002,0,3,-2,2,-6,-2,-2,-2,15.01
3003,-2,2,0,-12,-27,-4,-2,-1,15.015
3004,-5,-8,-3,6,34,5,0,-2,15.02
3005,1,3,0,5,-5,-1,-3,-1,15.025
3006,-3,-5,-5,-10,1,-2,0,-1,15.030000000000001
3007,-1,-1,0,9,6,-2,0,-2,15.035
3008,-1,1,-2,-12,-22,-2,-1,-2,15.040000000000001
3009,-1,-2,-1,8,0,-3,-1,-2,15.045
3010,0,2,3,-26,-3,2,1,-1,15.05
3011,-1,-1,0,28,-9,1,0,0,15.055
3012,0,-1,-1,-4,7,1,0,0,15.06
3013,-1,0,0,7,2,0,0,0,15.065
3014,1,0,0,-12,-3,1,2,0,15.07
3015,-1,-3,1,3,3,0,0,-1,15.075000000000001
3016,-1,0,-2,-4,-11,-1,-2,-1,15.08
3017,0,1,-1,-7,5,0,1,-1,15.085
3018,1,0,0,25,-8,-1,-2,0,15.09
3019,1,-2,-1,-5,21,4,0,0,15.095
3020,-1,0,-3,15,-19,-9,-3,-1,15.1
3021,1,1,0,-11,-9,1,0,1,15.105
3022,-1,-4,-1,22,8,5,0,-1,15.11
3023,-1,-1,-1,12,9,3,-1,0,15.115
3024,-2,-1,-2,-22,-16,-3,-1,0,15.120000000000001
3025,-1,-3,-1,9,-2,-3,-3,-1,15.125
3026,0,0,-2,2,-2,-2,1,0,15.13
3027,-2,-1,-1,-15,-6,-2,-1,-1,15.135
3028,0,3,-1,3,3,3,-1,0,15.14
3029,-2,-3,-4,-27,2,-4,-1,-2,15.145
3030,-1,-2,0,10,9,1,0,0,15.15
3031,-1,-2,-3,-1,9,0,-1,-1,15.155000000000001
3032,0,0,-1,3,-8,-2,1,0,15.16
3033,-2,-3,-4,-7,-3,-2,0,-1,15.165000000000001
3034,-1,1,-1,-12,-6,-2,-2,-2,15.17
3035,0,-2,-2,12,5,0,1,-1,15.175
3036,1,0,0,-4,-9,0,0,1,15.18
3037,1,2,-2,3,25,0,-1,1,15.185
3038,0,4,0,-10,-3,-4,-1,-2,15.19
3039,-1,-8,-1,2,-1,3,0,0,15.195
3040,0,2,1,-26,-1,-1,0,0,15.200000000000001
3041,-2,-1,-2,25,-7,-4,-2,-1,15.205
3042,-2,-2,-1,3,0,-2,0,2,15.21
3043,0,0,2,40,7,-2,0,1,15.215
3044,0,-3,-3,-17,-11,1,-1,-1,15.22
3045,-1,-2,-1,-7,1,2,1,0,15.225
3046,-1,-3,-1,-8,0,-2,-2,-1,15.23
3047,0,0,-2,-3,-4,-2,0,-1,15.235
3048,-3,-3,-3,15,12,-1,-3,-1,15.24
3049,1,1,1,-18,-20,-3,-1,-1,15.245000000000001
3050,1,4,0,33,19,2,1,0,15.25
3051,-1,-7,-1,-5,15,1,0,-1,15.255
3052,-1,-3,-3,-4,3,-1,0,-2,15.26
3053,-2,2,-1,3,10,0,-2,-1,15.265
3054,-1,-2,1,-14,-5,-2,-2,-1,15.27
3055,-2,2,-2,-4,-4,-1,-2,0,15.275
3056,-1,0,1,-11,-5,-3,-1,0,15.280000000000001
3057,-1,-2,0,29,3,0,0,0,15.285
3058,-2,-2,-3,-2,-6,-4,-2,0,15.290000000000001
3059,-1,1,-1,-8,-5,-3,-2,-1,15.295
3060,0,-2,-2,-4,-12,1,1,-1,15.3
3061,0,-2,-3,-29,-6,-5,-1,0,15.305
3062,-1,-2,0,11,0,3,-2,0,15.31
3063,-1,-2,0,13,13,1,-1,-1,15.315
3064,-1,0,-1,-19,0,-1,-2,-2,15.32
3065,0,-1,0,-3,-3,-3,-1,-1,15.325000000000001
3066,-1,-3,1,37,-4,-1,1,0,15.33
3067,1,-1,0,-36,-7,1,0,-1,15.335
3068,1,3,2,21,5,-2,0,1,15.34
3069,-1,0,-1,-24,-6,1,-1,-1,15.345
3070,0,-3,-1,1,3,-2,0,-1,15.35
3071,-4,-1,-3,1,-7,-5,-1,-2,15.355
3072,-1,1,-1,1,0,0,0,-1,15.36
3073,1,2,2,12,5,2,0,0,15.365
3074,0,-1,-2,-25,-5,-2,-1,-2,15.370000000000001
3075,-1,1,-3,4,-8,-4,-3,0,15.375
3076,-1,-3,-3,-5,0,-1,1,-2,15.38
3077,-2,-1,-1,-9,-13,3,0,-1,15.385
3078,-2,-3,-2,-1,21,-1,0,-1,15.39
3079,0,4,-2,-19,-34,-5,-2,-1,15.395
3080,0,-2,0,14,25,3,-1,-1,15.4
3081,-1,-10,-2,2,5,1,-1,-2,15.405000000000001
3082,0,4,-1,-9,-5,-1,-1,-2,15.41
3083,1,0,-1,-21,-16,-2,-1,0,15.415000000000001
3084,-2,2,-3,4,2,-2,-1,-1,15.42
3085,1,1,1,7,-3,-1,1,0,15.425
3086,-1,-3,-3,-27,-2,-1,-1,-1,15.43
3087,1,-1,1,11,12,-1,-1,0,15.435
3088,-2,-1,1,7,-7,-1,-2,1,15.44
3089,-1,-1,-3,-20,5,-3,0,-1,15.445
3090,0,-1,1,26,-2,1,0,1,15.450000000000001
3091,0,0,1,-12,6,0,0,-1,15.455
3092,0,-5,-1,53,11,0,0,-1,15.46
3093,0,1,1,-34,-9,-2,1,0,15.465
3094,-2,-3,-4,-6,-10,-2,-1,0,15.47
3095,-1,-2,0,3,13,1,0,-1,15.475
3096,-1,1,0,-4,-9,-1,-4,-3,15.48
3097,-2,-4,-2,16,0,-3,-5,-2,15.485000000000001
3098,-1,-1,0,-16,-15,-2,0,-1,15.49
3099,0,-1,0,0,-24,-5,-1,1,15.495000000000001
3100,2,1,0,-6,19,3,0,2,15.5
3101,-5,1,-1,15,-2,-1,1,0,15.505
3102,-2,-3,0,-13,-1,-2,-1,-4,15.51
3103,0,-1,-3,-2,11,2,1,-1,15.515
3104,-1,1,0,-22,-19,-5,-2,-2,15.52
3105,0,3,1,20,2,2,1,-1,15.525
3106,-3,-12,-3,-8,-8,0,-2,-1,15.530000000000001
3107,-3,2,-2,-17,-3,-2,0,-1,15.535
3108,2,0,-1,10,9,0,0,0,15.540000000000001
3109,-2,-3,-1,47,8,0,0,-2,15.545
3110,0,4,-1,-25,-1,0,0,0,15.55
3111,-1,-2,-1,2,1,-2,-2,-1,15.555
3112,-2,-3,-4,7,-8,-3,-1,-1,15.56
3113,0,0,2,-6,0,-3,-1,-1,15.565
3114,0,1,3,18,3,1,-2,0,15.57
3115,0,-1,-1,-11,11,0,-1,-1,15.575000000000001
3116,-3,-1,-1,25,5,-4,-2,0,15.58
3117,-1,0,-2,-20,-2,3,2,0,15.585
3118,1,-1,0,15,10,-1,0,-1,15.59
3119,-2,1,2,0,2,2,-1,0,15.595
3120,-2,-6,-3,-11,-12,-4,-1,-3,15.6
3121,0,-2,-5,-5,-2,-1,-2,-2,15.605
3122,0,5,-1,-2,18,4,0,0,15.610000000000001
3123,-2,-3,-1,10,-23,-5,-2,0,15.615
3124,1,2,0,-26,6,2,0,-1,15.620000000000001
3125,-3,-11,-1,27,2,-2,-3,-1,15.625
3126,1,4,0,-9,-10,-4,-2,-2,15.63
3127,-1,-1,-2,16,6,-3,-2,-2,15.635
3128,1,3,1,-7,-12,0,1,0,15.64
3129,-2,1,-2,-54,2,0,-2,0,15.645
3130,-2,-3,0,-4,-2,-3,-1,-2,15.65
3131,1,1,1,6,7,2,1,0,15.655000000000001
3132,-4,-2,-1,-7,6,1,-2,-1,15.66
3133,1,2,1,9,-12,-6,0,-1,15.665000000000001
3134,-2,-2,-2,11,3,3,1,-1,15.67
3135,-1,-1,-3,-32,-12,-2,0,-1,15.675
3136,-2,-1,1,30,8,0,-2,-1,15.68
3137,0,-3,-1,10,11,1,0,0,15.685
3138,-1,-1,-1,-13,-8,-3,-2,-1,15.69
3139,0,-1,-2,16,15,1,0,1,15.695
3140,-1,1,-1,-25,-5,-2,-1,1,15.700000000000001
3141,-1,0,-1,-18,-20,-7,-3,-2,15.705
3142,-2,-3,-1,14,2,2,0,0,15.71
3143,-1,-3,-1,-9,4,4,1,-2,15.715
3144,0,-4,-2,11,-28,-6,-3,-1,15.72
3145,2,2,1,-13,11,3,-1,0,15.725
3146,1,0,-2,-9,-5,-3,0,1,15.73
3147,-1,8,2,53,-6,1,-1,0,15.735000000000001
3148,-1,-10,-4,-56,-5,0,-1,-2,15.74
3149,-1,-5,-1,2,1,-1,0,-3,15.745000000000001
3150,-1,0,2,0,2,0,-1,-1,15.75
3151,2,0,-2,20,17,2,-1,-1,15.755
3152,-6,1,1,20,7,0,1,-1,15.76
3153,0,2,1,6,-3,2,1,-1,15.765
3154,-1,-5,-4,-21,-12,-4,-3,0,15.77
3155,-2,1,1,-26,-8,-2,-3,-2,15.775
3156,2,-1,-1,8,-2,1,1,-1,15.780000000000001
3157,-1,0,1,2,5,0,0,-1,15.785
3158,-1,-1,-2,7,-6,-4,-2,-1,15.790000000000001
3159,-2,-5,-2,-17,-1,-3,-2,-3,15.795
3160,0,1,0,-1,-7,-3,-1,1,15.8
3161,-4,-2,-1,-15,-22,-1,-1,-1,15.805
3162,1,3,1,30,25,1,2,0,15.81
3163,-1,-4,-2,3,0,0,-1,-2,15.815
3164,0,0,0,-7,1,-1,0,-1,15.82
3165,0,2,0,3,3,-2,-1,-1,15.825000000000001
3166,-1,-2,-1,-12,-21,-3,-3,-1,15.83
3167,-2,-2,3,48,22,3,1,1,15.835
3168,-1,0,-1,-17,0,1,-1,-3,15.84
3169,-1,0,-1,9,2,1,-3,-3,15.845
3170,-3,-5,-4,-18,-4,-2,-1,-2,15.85
3171,-1,-2,-2,12,-4,-3,-1,-2,15.855
3172,1,1,0,-1,4,0,0,1,15.860000000000001
3173,-2,-2,-3,3,6,-3,-1,-2,15.865
3174,-1,0,1,1,-11,-5,0,-1,15.870000000000001
3175,1,-2,-2,-42,-12,-1,0,0,15.875
3176,1,0,-1,23,25,3,1,1,15.88
3177,1,-1,-1,-2,3,-1,0,1,15.885
3178,-8,0,0,8,-15,0,-1,-2,15.89
3179,0,-1,-2,-5,-1,-1,-1,-3,15.895
3180,-1,-2,1,3,-12,-2,-1,-2,15.9
3181,1,0,0,-11,1,0,0,1,15.905000000000001
3182,2,3,-1,33,13,1,1,-1,15.91
3183,-1,-4,-2,-33,-8,0,2,3,15.915000000000001
3184,-2,-4,-2,21,-3,0,0,-1,15.92
3185,0,1,-1,16,10,0,0,0,15.925
3186,-2,-2,-2,-12,-3,1,-3,0,15.93
3187,0,3,1,-7,-2,-3,0,0,15.935
3188,1,1,1,2,-9,-2,-1,-1,15.94
3189,-3,-2,-2,31,-13,-3,-2,-2,15.945
3190,1,-4,0,-37,8,6,2,-1,15.950000000000001
3191,0,0,-1,19,11,-3,0,0,15.955
3192,0,3,-1,-17,1,4,0,-1,15.96
3193,0,-6,3,6,1,-1,-1,0,15.965
3194,-1,0,-3,-1,-5,-3,0,-2,15.97
3195,-1,-2,-1,-21,-13,-2,-1,-2,15.975
3196,-4,-1,-1,16,7,-3,-2,0,15.98
3197,-3,2,-2,-18,-17,-2,0,0,15.985000000000001
3198,3,0,2,8,3,-1,0,-1,15.99
3199,-1,-1,-1,17,20,7,1,-1,15.995000000000001
3200,-1,-1,-4,-6,-18,-5,-2,-2,16.0
3201,0,0,-1,-20,4,0,0,-1,16.005
3202,-1,-1,-3,17,7,0,0,-1,16.01
3203,-3,-2,-1,14,-13,-2,-2,-1,16.015
3204,-1,-4,-1,-17,9,0,-1,-2,16.02
3205,-1,-3,-1,15,9,1,0,-1,16.025
3206,0,0,1,-13,-2,1,1,0,16.03
3207,-1,3,-2,0,1,-4,1,-2,16.035
3208,0,-5,-2,-3,-15,-4,-2,-1,16.04
3209,-1,-2,-2,-9,3,-1,-1,-1,16.045
3210,1,1,0,-4,1,0,0,2,16.05
3211,-1,-2,0,4,1,0,-2,0,16.055
3212,0,0,-1,-12,-10,-4,-1,-3,16.06
3213,0,0,1,2,3,-1,-2,-1,16.065
3214,-1,-1,0,41,4,-1,-1,0,16.07
3215,-2,-4,-1,-27,13,3,1,0,16.075
3216,0,2,-2,-22,10,3,0,-1,16.080000000000002
3217,0,-2,-2,11,-12,-3,-1,-2,16.085
3218,-2,-1,0,-4,-3,-1,0,-1,16.09
3219,-2,1,0,-24,-28,-4,-2,0,16.095
3220,-1,-2,-1,8,3,-4,0,-2,16.1
3221,-1,5,-2,-5,1,2,1,1,16.105
3222,-5,-7,-3,-10,-3,-1,-3,-1,16.11
3223,2,-3,0,-6,-6,-3,-1,-2,16.115000000000002
3224,0,-1,-2,-5,-6,1,0,1,16.12
3225,-1,0,-1,-2,-2,-2,-1,0,16.125
3226,-2,2,-1,-21,-9,-3,-1,-1,16.13
3227,-2,-2,-2,8,7,-1,-2,0,16.135
3228,0,-2,-1,6,-1,0,-3,-1,16.14
3229,-1,2,0,-11,8,2,-1,-3,16.145
3230,0,-3,-2,11,-6,-3,-2,0,16.15
3231,-1,-2,-1,13,7,-1,1,0,16.155
3232,1,5,1,1,2,-1,0,-1,16.16
3233,-1,-6,0,1,3,2,-1,-1,16.165
3234,1,-1,2,-7,8,-1,-2,-1,16.17
3235,0,3,-1,0,-8,-3,-2,0,16.175
3236,-4,-5,-1,47,8,2,0,-1,16.18
3237,-2,-1,-3,-57,-12,-4,-3,-1,16.185
3238,1,1,0,6,-2,1,0,-1,16.19
3239,-1,-1,-2,7,9,-1,-1,1,16.195
3240,-3,3,0,-15,-8,-1,0,0,16.2
3241,3,-11,2,32,15,1,2,-1,16.205000000000002
3242,1,2,-3,1,-1,-4,-1,-2,16.21
3243,0,1,1,-5,2,4,2,0,16.215
3244,-1,-1,-1,-14,-11,-3,1,-1,16.22
3245,-1,2,0,19,-8,-2,1,0,16.225
3246,0,2,3,-17,11,3,0,1,16.23
3247,-1,-6,-3,10,-6,-3,-4,-3,16.235
3248,-2,-3,-1,-18,-7,-3,-1,-1,16.240000000000002
3249,0,4,-2,25,12,1,-2,0,16.245
3250,0,-4,-3,-3,1,2,1,0,16.25
3251,-2,-7,0,-1,-5,0,0,-2,16.255
3252,-2,11,1,-3,0,-1,-3,-1,16.26
3253,-3,3,0,-8,-10,-3,-1,-4,16.265
3254,-1,1,2,4,-3,-2,0,-2,16.27
3255,3,-3,-5,-4,10,1,-2,2,16.275
3256,-4,-16,-2,-4,-27,-6,-1,1,16.28
3257,-5,-3,-2,18,0,1,1,-2,16.285
3258,0,3,-1,-3,5,-1,-2,0,16.29
3259,4,6,3,7,1,-2,1,0,16.295
3260,2,5,0,13,5,2,1,0,16.3
3261,5,15,-1,-23,-17,-3,-2,0,16.305
3262,-11,-2,-1,1,7,5,2,1,16.31
3263,3,-36,-3,0,-24,-5,-2,-3,16.315
3264,-26,29,0,-4,15,0,-3,-6,16.32
3265,8,-35,-3,-13,10,1,1,1,16.325
3266,17,7,-5,-7,-12,-6,-1,3,16.330000000000002
3267,-3,26,3,19,-24,-4,0,1,16.335
3268,7,-8,20,-60,-7,-5,-4,-4,16.34
3269,-13,11,-12,-50,-28,-3,1,-3,16.345
3270,-1,-8,-27,19,42,3,-2,-3,16.35
3271,-6,-21,-11,-1,8,3,-6,-2,16.355
3272,-6,18,20,-1,17,-2,-3,-1,16.36
3273,-12,-16,16,34,-23,4,5,1,16.365000000000002
3274,-9,-19,6,-67,-6,1,-3,-3,16.37
3275,11,18,23,-9,9,-2,7,5,16.375
3276,1,-49,-1,22,-36,-15,-16,-7,16.38
3277,0,33,17,-4,14,7,-4,1,16.385
3278,-5,3,-33,13,-24,-6,1,1,16.39
3279,24,37,13,-16,41,10,10,3,16.395
3280,17,-8,-9,8,-18,0,8,-2,16.4
3281,-32,-23,2,39,17,-5,-9,-6,16.405
3282,11,26,32,-4,6,8,-3,-9,16.41
3283,-23,-23,-28,52,-34,-11,-8,4,16.415
3284,9,19,-8,-96,-12,-4,7,7,16.42
3285,13,-16,-19,68,-22,0,3,-3,16.425
3286,-6,7,4,69,54,2,2,6,16.43
3287,5,-12,-1,-14,-6,7,3,-1,16.435
3288,-16,-1,-16,15,11,0,0,-5,16.44
3289,-13,1,-2,-71,-2,-2,-9,-4,16.445
3290,14,5,15,33,-34,-7,0,2,16.45
3291,2,-25,3,64,3,-4,-7,-6,16.455000000000002
3292,-7,-10,-4,-53,34,12,5,1,16.46
3293,-16,10,-2,53,16,-9,-6,-2,16.465
3294,11,-2,-21,-59,-7,-4,0,-2,16.47
3295,-11,-3,1,25,-38,-11,-4,-4,16.475
3296,25,28,1,-23,-52,-5,-3,13,16.48
3297,4,-15,-35,-48,13,-5,3,-27,16.485
3298,-23,-44,-4,-13,66,10,1,4,16.490000000000002
3299,-18,11,13,-52,-63,-13,-6,-10,16.495
3300,28,31,27,59,81,16,2,7,16.5
3301,28,-23,-1,2,-31,-2,0,6,16.505
3302,-26,0,-12,7,-10,-4,-1,-2,16.51
3303,0,-4,-17,-36,37,13,1,-3,16.515
3304,-13,-31,0,19,-28,-14,-9,-5,16.52
3305,32,26,17,34,7,3,5,6,16.525
3306,2,20,15,83,33,14,2,0,16.53
3307,20,19,17,7,27,3,4,8,16.535
3308,-14,0,-31,-81,-75,-18,-2,-7,16.54
3309,12,65,15,41,9,2,2,9,16.545
3310,-6,-70,10,33,14,9,1,-6,16.55
3311,-1,-12,-13,52,62,9,5,2,16.555
3312,14,-6,0,36,-58,-14,-8,2,16.56
3313,-6,-7,12,-70,11,1,2,-2,16.565
3314,20,43,7,-79,-61,-13,-1,2,16.57
3315,5,-2,3,10,8,2,1,2,16.575
3316,-49,-41,-18,29,93,28,6,-25,16.580000000000002
3317,-12,3,-9,87,-14,-11,-4,8,16.585
3318,19,25,18,-74,-69,-16,-14,-10,16.59
3319,-10,13,-11,9,35,7,1,0,16.595
3320,27,13,2,62,-12,-4,4,8,16.6
3321,-6,-43,0,15,-11,1,-5,-5,16.605
3322,-8,-16,-20,-73,-12,-5,-2,-5,16.61
3323,11,6,6,73,33,3,0,7,16.615000000000002
3324,4,19,-11,11,-1,4,6,2,16.62
3325,-26,-5,10,-103,2,0,-3,-2,16.625
3326,-10,8,-25,75,32,5,3,2,16.63
3327,14,-2,7,12,7,-1,-1,1,16.635
3328,2,10,-5,86,15,4,-2,6,16.64
3329,35,24,8,27,42,10,4,-1,16.645
3330,-20,-7,7,-44,-46,-14,-3,2,16.65
3331,-23,-34,9,4,59,15,3,11,16.655
3332,23,31,-15,-30,-49,-14,-4,-11,16.66
3333,5,-51,3,-61,-38,-6,-1,9,16.665
3334,5,25,-4,61,30,13,6,1,16.67
3335,-7,13,-2,14,-67,-25,0,1,16.675
3336,13,29,10,-4,24,6,-2,2,16.68
3337,-1,-17,-9,13,-21,-5,-3,3,16.685
3338,-40,-44,6,-40,-55,-10,2,-7,16.69
3339,10,28,13,3,14,-1,-15,-9,16.695
3340,8,18,17,56,103,32,11,4,16.7
3341,8,3,-20,-31,-14,-12,-7,-4,16.705000000000002
3342,10,-17,-15,26,20,8,9,23,16.71
3343,-19,-9,-28,-51,-89,-21,-8,-32,16.715
3344,8,11,28,109,54,-4,-17,7,16.72
3345,-14,-27,-48,35,79,15,5,12,16.725
3346,-15,-30,-12,-2,-25,-12,-12,-24,16.73
3347,2,41,1,-50,-50,-4,2,1,16.735
3348,13,-8,-9,-76,-56,-3,5,4,16.740000000000002
3349,-19,-47,7,123,42,9,14,-9,16.745
3350,-10,30,-12,-40,34,4,9,-11,16.75
3351,-16,-30,-3,-87,-85,-20,-34,-2,16.755
3352,0,-26,4,2,-66,-19,-1,9,16.76
3353,17,36,-22,-85,36,8,0,5,16.765
3354,32,20,24,-55,-24,2,2,-2,16.77
3355,-1,28,-1,-104,15,10,10,-12,16.775
3356,27,-66,0,34,-11,-8,-13,7,16.78
3357,-41,8,-3,-2,-67,-18,-10,1,16.785
3358,-9,21,13,15,48,0,-7,2,16.79
3359,-4,-52,6,-14,39,14,23,6,16.795
3360,-32,23,6,64,71,14,5,-20,16.8
3361,9,8,0,-60,-22,4,-1,0,16.805
3362,29,16,9,72,-128,-37,-15,2,16.81
3363,19,7,0,14,83,32,13,18,16.815
3364,-18,-29,-38,-115,-7,4,8,-6,16.82
3365,1,31,35,97,-78,-13,-6,-3,16.825
3366,17,-3,6,-6,18,5,2,23,16.830000000000002
3367,-17,10,-12,-33,-74,-18,-6,-21,16.835
3368,-44,-29,-20,-44,-19,-11,-2,10,16.84
3369,28,-22,11,-19,43,13,4,-5,16.845
3370,-36,0,-6,39,-30,-18,-8,-3,16.85
3371,23,-1,13,-54,-54,-2,4,7,16.855
3372,-9,25,6,25,73,18,3,-1,16.86
3373,-9,22,17,44,12,3,0,1,16.865000000000002
3374,5,-55,-9,104,48,10,5,-10,16.87
3375,-18,0,-3,82,58,4,-3,1,16.875
3376,-4,25,4,-86,-48,-8,5,-1,16.88
3377,23,-1,-1,-17,-32,-9,-6,1,16.885
3378,-22,5,-6,-64,36,12,-2,-1,16.89
3379,-23,-21,-5,70,-23,-7,-6,-3,16.895
3380,16,-2,3,2,-15,-4,-9,-3,16.9
3381,-11,11,39,38,38,7,14,2,16.905
3382,39,13,-19,-2,9,3,-1,-4,16.91
3383,15,-22,-17,-4,21,-8,-10,6,16.915
3384,-22,-13,-5,-98,-74,-15,5,-30,16.92
3385,-16,22,-1,25,-67,-19,-7,3,16.925
3386,-1,-57,14,-22,22,17,12,4,16.93
3387,26,55,-1,25,-19,-10,-1,3,16.935
3388,-2,-22,-9,-4,8,2,-9,-7,16.94
3389,-1,16,-1,-30,38,1,-1,-5,16.945
3390,0,1,-16,-20,-32,-17,-13,-6,16.95
3391,20,9,11,-73,4,6,5,8,16.955000000000002
3392,-5,24,19,-35,-40,-2,-2,2,16.96
3393,1,-7,1,-16,20,0,-5,-2,16.965
3394,44,6,-23,59,-6,-3,-1,8,16.97
3395,-65,-46,2,19,-4,-11,-4,-9,16.975
3396,3,15,-14,-2,24,7,-2,1,16.98
3397,10,1,-9,-120,-6,-2,3,0,16.985
3398,15,33,21,17,-43,-1,5,-2,16.990000000000002
3399,11,-12,-18,6,11,-4,-14,-3,16.995
3400,-31,-44,3,118,-6,-5,2,6,17.0
3401,-7,-18,-14,13,51,10,-3,-29,17.005
3402,2,15,15,-10,16,1,2,16,17.01
3403,-12,18,14,13,-6,7,4,-3,17.015
3404,10,5,-1,107,37,-1,-3,2,17.02
3405,10,19,-2,19,28,12,4,8,17.025
3406,-14,-21,-12,-93,-5,6,-5,-4,17.03
3407,-2,8,7,-60,9,-1,-1,-7,17.035
3408,18,3,5,5,6,1,-1,1,17.04
3409,-20,-16,-20,8,0,-4,0,0,17.045
3410,-5,20,13,33,21,-1,-3,-8,17.05
3411,9,2,-7,31,-7,-8,1,9,17.055
3412,-6,-28,9,64,18,3,-6,-4,17.06
3413,-31,-38,-14,-60,-18,-3,-2,3,17.065
3414,-10,-2,-17,5,-18,-8,-4,-1,17.07
3415,18,13,12,-36,-9,3,2,-3,17.075
3416,7,25,1,-21,-2,-1,5,1,17.080000000000002
3417,-12,-18,24,113,-4,2,0,3,17.085
3418,-15,-27,-11,-40,-21,-6,-6,-9,17.09
3419,-2,-5,-20,-52,-11,2,-2,1,17.095
3420,5,24,-6,-43,-11,-3,0,3,17.1
3421,16,13,-2,-14,-41,-10,-5,0,17.105
3422,-3,11,12,15,26,11,4,-1,17.11
3423,2,3,-5,47,-8,-3,-2,-2,17.115000000000002
3424,2,-13,3,-34,-5,1,0,4,17.12
3425,14,8,-7,-26,-34,-7,-2,-3,17.125
