slno,emg1,emg2,emg3,emg4,emg5,emg6,emg7,emg8,Time
0,-1,-2,-6,-4,-2,0,-2,-2,0.0
1,2,-2,-1,-3,-1,-1,0,1,0.005
2,-1,0,0,1,-2,0,0,1,0.01
3,1,-1,2,0,0,-2,1,1,0.015
4,-2,-1,-3,-1,0,0,0,-1,0.02
5,-1,-1,1,0,0,-1,1,-1,0.025
6,-1,-3,0,-1,0,1,2,-1,0.03
7,-3,-5,-8,-5,-1,-1,1,-1,0.035
8,-2,-1,0,1,0,-2,-2,-1,0.04
9,-2,0,-1,0,0,-2,-4,1,0.045
10,-1,-2,-2,0,-1,-3,-1,-2,0.05
11,1,1,2,2,-1,-2,0,-1,0.055
12,0,-1,-4,-3,-1,-3,1,1,0.06
13,-2,1,-2,-2,1,-1,0,0,0.065
14,-1,-1,-2,-1,-2,-1,-2,-1,0.07
15,-1,1,0,-2,-2,0,-2,-1,0.075
16,1,2,3,0,-2,-1,-1,1,0.08
17,-2,-3,-2,1,-1,1,-4,-1,0.085
18,2,-1,-1,-4,-1,-1,4,0,0.09
19,2,-1,2,-1,-1,-2,1,3,0.095
20,-1,-1,2,-1,0,1,0,0,0.1
21,-1,1,2,1,-1,0,1,-2,0.105
22,-2,0,-3,-1,-2,-2,0,0,0.11
23,-1,0,1,1,-1,0,-1,0,0.115
24,-3,0,0,2,-1,0,-2,0,0.12
25,-1,0,-2,-5,-2,-1,-3,-2,0.125
26,0,-1,1,0,0,2,-1,-3,0.13
27,0,1,1,-1,0,-1,0,-2,0.135
28,0,-4,-5,-2,-1,0,-1,-2,0.14
29,0,0,-1,0,0,0,-2,0,0.145
30,0,0,-1,-2,0,0,-2,1,0.15
31,0,-1,-2,-4,0,-2,-3,-2,0.155
32,-1,0,0,2,1,-2,-2,1,0.16
33,-1,-1,0,0,-2,-1,-1,-1,0.165
34,1,0,1,-1,1,-1,-1,-3,0.17
35,0,-1,-2,1,0,0,1,0,0.17500000000000002
36,0,1,0,-3,-2,-1,-3,-3,0.18
37,1,-1,-2,2,0,-1,0,-1,0.185
38,-2,-1,0,2,-2,-1,0,1,0.19
39,-1,2,3,2,-2,-1,-1,1,0.195
40,-3,0,1,-1,0,1,1,-2,0.2
41,-1,-3,-2,-1,0,2,0,-1,0.20500000000000002
42,0,-2,0,-1,-1,-1,1,-1,0.21
43,-1,0,-1,-1,-1,-1,-1,-2,0.215
44,0,-1,-2,-1,-1,-3,-1,1,0.22
45,-1,-1,0,-1,-2,-2,1,2,0.225
46,-1,0,0,-1,-2,-2,-1,2,0.23
47,-1,-5,-3,-3,-2,0,-1,-3,0.23500000000000001
48,-1,2,2,0,-1,1,0,0,0.24
49,-3,-1,-1,-3,-3,-3,-2,-1,0.245
50,-1,-1,-3,-1,0,-1,-3,-1,0.25
51,1,0,1,2,-2,1,0,3,0.255
52,0,-2,-1,-2,-1,0,2,-2,0.26
53,-2,-2,0,0,1,0,0,-1,0.265
54,1,1,2,-2,-3,-2,-2,0,0.27
55,-3,-5,-6,-3,-2,-1,-1,0,0.275
56,0,-2,0,-2,-2,-2,-2,0,0.28
57,0,1,1,-2,1,-1,1,0,0.28500000000000003
58,0,1,1,1,0,-2,0,-1,0.29
59,-2,-2,-2,1,0,0,0,1,0.295
60,0,-2,1,-1,-2,-2,-1,-1,0.3
61,-1,-1,-3,1,-2,0,-2,-2,0.305
62,-2,-2,-2,-2,-1,-1,-2,-2,0.31
63,1,-1,0,-3,-1,0,0,-1,0.315
64,-1,0,-2,-1,-1,0,1,-1,0.32
65,1,-1,-1,3,-2,1,0,-2,0.325
66,-2,-2,-1,1,-2,-1,0,-1,0.33
67,-2,-1,1,-1,-2,-3,-1,-2,0.335
68,-2,-1,-2,-2,0,-2,-1,-1,0.34
69,1,-1,1,-1,1,-2,-1,0,0.34500000000000003
70,-2,-2,-2,-4,-4,-3,-2,0,0.35000000000000003
71,-1,-2,-1,-1,-1,-1,1,-2,0.355
72,2,3,5,3,-2,-2,-1,2,0.36
73,-3,-4,-6,-3,-2,-3,-1,-1,0.365
74,-2,-1,-3,-2,1,0,2,-1,0.37
75,-2,-1,-1,0,1,-1,0,-2,0.375
76,-2,-2,-2,-1,0,-1,0,0,0.38
77,-2,1,1,-1,-2,-1,-2,0,0.385
78,0,-1,1,-1,-1,1,-1,1,0.39
79,-2,-1,-1,-1,0,-1,-1,-1,0.395
80,-1,-2,-1,-3,0,0,-1,-1,0.4
81,2,-1,1,1,2,0,0,1,0.405
82,-2,-1,-3,-1,-1,-1,0,-3,0.41000000000000003
83,-1,0,-1,-1,-2,-1,0,-1,0.41500000000000004
84,-2,-2,-2,-1,0,0,1,-1,0.42
85,-2,-3,-1,0,-1,-1,0,-3,0.425
86,-1,-1,-1,-2,-1,-3,-3,-3,0.43
87,1,1,0,1,0,3,-1,-2,0.435
88,-3,-3,-10,-5,-1,-2,-1,-3,0.44
89,-2,2,2,-1,-1,0,-2,1,0.445
90,-2,-2,-1,-1,1,0,1,0,0.45
91,-1,1,-1,-1,0,-3,-2,1,0.455
92,1,0,1,2,0,-1,-1,-1,0.46
93,0,-1,-1,-3,-3,-1,-1,-2,0.465
94,2,-1,-1,0,0,-1,0,0,0.47000000000000003
95,1,1,1,0,-1,-2,-2,0,0.47500000000000003
96,1,0,-1,-1,0,0,-2,-4,0.48
97,-1,-1,-1,0,-1,0,-1,-1,0.485
98,1,2,1,1,1,-1,0,-1,0.49
99,-2,-4,-2,-3,-2,-2,-2,0,0.495
100,-1,-2,0,1,1,-2,1,1,0.5
101,-1,-1,1,0,-2,-1,-2,-1,0.505
102,-1,-3,-3,-1,-1,0,-1,-1,0.51
103,-3,-3,-5,-4,-3,-3,-2,-2,0.515
104,-1,-1,0,0,-1,1,-5,0,0.52
105,-2,0,-1,5,3,1,0,0,0.525
106,0,0,0,0,-1,-2,1,1,0.53
107,-3,-1,0,0,0,-1,-2,-2,0.535
108,-1,0,0,-1,1,0,-3,-1,0.54
109,-1,0,-1,-2,-1,1,0,-1,0.545
110,-1,0,-1,-4,-2,1,-1,-1,0.55
111,0,0,-3,-3,0,0,1,0,0.555
112,0,-1,-1,1,-2,1,-1,-1,0.56
113,-1,-1,-1,1,-1,-4,-2,-1,0.5650000000000001
114,-2,0,1,2,-1,0,-1,-1,0.5700000000000001
115,-1,-1,0,-1,0,0,-1,-1,0.5750000000000001
116,-2,-3,0,-1,-3,-2,0,0,0.58
117,0,-3,-3,-4,-1,0,-1,0,0.585
118,0,-1,3,0,-1,1,1,1,0.59
119,1,-2,-5,0,1,-2,0,-1,0.595
120,0,1,-2,-2,-2,-1,-1,0,0.6
121,-1,-1,-1,-1,-1,-3,-2,-1,0.605
122,-1,-2,-3,-1,0,2,1,0,0.61
123,0,0,3,0,0,-2,-3,-1,0.615
124,0,-1,-3,-2,-1,0,-1,-3,0.62
125,0,-2,-1,-3,-1,-2,-3,-3,0.625
126,-3,-2,-5,-3,-2,-2,-5,0,0.63
127,1,1,-2,3,0,-1,5,1,0.635
128,-1,-1,-1,-2,1,0,0,-1,0.64
129,-2,0,3,0,0,1,1,0,0.645
130,0,-2,-2,1,-2,0,-4,-4,0.65
131,0,1,5,2,-1,1,-1,-1,0.655
132,-1,-2,-5,-5,-3,-2,-1,1,0.66
133,0,0,-2,-2,0,2,2,0,0.665
134,-1,1,3,1,-2,-1,-2,0,0.67
135,-2,-1,-1,0,0,-1,0,0,0.675
136,0,0,0,0,-2,-2,1,2,0.68
137,-1,0,1,-1,-2,-1,-2,-1,0.685
138,-1,-3,-5,-1,1,0,1,-1,0.6900000000000001
139,1,3,3,0,0,1,-3,-1,0.6950000000000001
140,3,1,1,4,1,0,-1,-4,0.7000000000000001
141,0,0,-3,-2,-1,-4,1,1,0.705
142,-1,0,5,1,-1,-1,3,1,0.71
143,-4,-3,-4,-3,-3,0,-5,-4,0.715
144,0,-2,-1,-1,-1,1,6,4,0.72
145,-2,-2,-3,-2,0,-2,-4,-4,0.725
146,2,2,-1,-10,0,-1,0,-4,0.73
147,1,-1,3,8,0,0,3,1,0.735
148,-8,-6,-11,4,-2,-3,-3,-5,0.74
149,0,-1,2,24,2,1,2,-1,0.745
150,-5,-1,-5,-18,-4,-1,-3,-3,0.75
151,-1,0,-3,-5,-2,-1,1,0,0.755
152,-3,-2,1,-1,-1,0,-4,-3,0.76
153,8,0,1,7,0,2,0,1,0.765
154,3,2,2,5,-1,1,9,9,0.77
155,0,-3,7,63,10,2,-3,-1,0.775
156,0,1,-10,-75,-7,-2,-5,-1,0.78
157,-4,-3,-2,1,-1,-1,1,-2,0.785
158,-7,-2,4,8,4,1,-4,-6,0.79
159,9,-2,-10,-19,-4,-2,7,6,0.795
160,0,1,8,29,5,0,0,-3,0.8
161,0,-1,-1,-12,-1,-2,-3,-1,0.805
162,-2,-1,-2,-6,-2,-1,-2,-1,0.81
163,-5,-1,3,-3,1,0,-3,-3,0.8150000000000001
164,3,2,6,13,-1,0,1,2,0.8200000000000001
165,-4,-1,-4,-14,-3,-1,-1,-2,0.8250000000000001
166,1,-3,-4,15,0,2,2,1,0.8300000000000001
167,-2,-3,-3,-16,-5,-3,-6,-4,0.835
168,0,3,6,8,0,0,2,0,0.84
169,-4,-5,-5,-5,-4,-2,-1,-3,0.845
170,2,1,0,4,-2,-2,-3,3,0.85
171,-7,-1,-2,-9,0,0,0,-3,0.855
172,8,1,1,6,0,-2,2,3,0.86
173,-1,0,2,6,1,-1,1,-1,0.865
174,2,-2,-3,-8,-2,-4,-3,-3,0.87
175,-1,-2,-4,-11,-4,0,1,2,0.875
176,-3,0,1,8,2,2,-2,1,0.88
177,-1,0,3,2,1,2,-3,0,0.885
178,1,-2,0,0,3,-3,-1,-1,0.89
179,-1,0,-1,-9,-3,-1,1,0,0.895
180,-4,-4,-2,20,1,-2,-4,-2,0.9
181,0,-1,1,-22,-1,-1,1,1,0.905
182,3,-2,-6,-4,0,0,-2,1,0.91
183,-1,0,1,1,-1,-1,-3,-2,0.915
184,-2,-3,-2,3,-2,-2,-1,-2,0.92
185,1,0,1,6,0,-3,-2,-1,0.925
186,-2,-1,-2,1,-3,-4,0,-2,0.93
187,0,1,-1,-2,2,0,1,-2,0.935
188,0,-1,-2,3,-3,0,0,-2,0.9400000000000001
189,-4,-2,-3,-4,-3,-3,-2,-1,0.9450000000000001
190,1,2,4,8,2,-1,3,-1,0.9500000000000001
191,0,-3,-5,-19,-5,-1,2,1,0.9550000000000001
192,-4,-1,0,-5,-4,-4,-2,-1,0.96
193,1,3,1,2,-2,1,-2,-3,0.965
194,2,0,0,1,0,2,-1,-1,0.97
195,-2,-4,-5,-5,-1,0,0,-3,0.975
196,0,-1,1,-4,-3,0,0,-2,0.98
197,-1,-2,-2,-3,-2,0,1,2,0.985
198,-2,0,3,8,1,-2,-5,-2,0.99
199,0,0,1,17,1,0,0,-1,0.995
200,0,-2,-8,-33,-5,-3,-2,0,1.0
201,2,0,0,7,2,-2,2,0,1.0050000000000001
202,-3,-4,-3,-5,-2,-1,-4,-3,1.01
203,-2,0,4,6,1,-3,-5,-6,1.0150000000000001
204,1,-1,3,10,7,0,2,3,1.02
205,0,-1,-4,4,-2,3,1,1,1.025
206,0,-1,1,2,-1,1,1,-1,1.03
207,1,0,1,-6,-1,-2,-6,2,1.035
208,-4,-2,-4,3,-2,-1,0,-4,1.04
209,-1,-2,-2,7,3,2,4,3,1.045
210,-2,-4,-6,-28,-6,-2,0,0,1.05
211,-2,-3,-3,-3,-4,-2,-1,-2,1.055
212,-1,2,2,-1,-1,0,-2,-1,1.06
213,1,2,5,-1,-2,-2,-2,0,1.065
214,-2,0,-1,6,0,1,-2,0,1.07
215,2,2,-2,-11,-1,1,3,2,1.075
216,-1,-2,-1,1,1,-1,-3,0,1.08
217,1,0,3,-5,0,0,-1,-3,1.085
218,-2,-1,-1,4,-2,-3,1,0,1.09
219,-2,-3,-6,-12,-1,-3,1,-3,1.095
220,-2,2,3,5,-1,1,3,2,1.1
221,1,0,2,7,2,-2,-6,-2,1.105
222,1,-1,-1,-18,-1,1,-1,0,1.11
223,3,1,8,16,0,1,4,1,1.115
224,-4,-3,-6,-10,-2,-2,-5,-2,1.12
225,-3,-2,-3,-2,-2,-2,-3,-1,1.125
226,0,-1,6,40,7,-1,-2,0,1.1300000000000001
227,-1,-2,-7,-50,-8,-1,-4,-2,1.135
228,-5,1,3,4,1,0,-1,-7,1.1400000000000001
229,5,-2,-3,-10,-3,-1,-1,0,1.145
230,3,2,6,5,-1,1,6,2,1.1500000000000001
231,-10,-3,-5,13,1,-1,-6,-2,1.155
232,8,0,-3,2,0,0,2,3,1.16
233,-7,-4,-3,2,0,-4,-6,-2,1.165
234,0,1,-2,-5,-2,1,5,-1,1.17
235,-2,0,0,14,3,0,-1,-5,1.175
236,5,-1,1,-2,-2,2,0,5,1.18
237,2,2,2,8,-1,0,4,2,1.185
238,-2,-4,-7,-12,-2,-1,-4,-1,1.19
239,-1,-1,2,9,1,0,-2,-1,1.195
240,-1,-2,-4,6,0,-3,-4,-3,1.2
241,-5,-2,-1,-4,1,0,-1,-1,1.205
242,-2,-1,-1,11,-2,0,-2,-1,1.21
243,4,2,-2,-25,0,2,4,4,1.215
244,-6,-2,4,12,-1,-3,-5,-2,1.22
245,-2,-2,-7,-36,-6,-2,7,3,1.225
246,-4,-4,-10,9,-1,-3,-6,-7,1.23
247,5,4,8,19,4,0,-10,-1,1.235
248,-1,-6,-12,-45,-8,-3,3,0,1.24
249,-6,1,2,1,3,2,6,0,1.245
250,-1,1,3,8,-2,-2,-1,1,1.25
251,3,0,-2,-5,-2,0,-3,0,1.2550000000000001
252,-2,-3,-3,-3,-1,0,-6,-2,1.26
253,3,2,0,-8,0,2,0,-3,1.2650000000000001
254,-3,-1,-1,1,2,3,3,-4,1.27
255,1,1,7,15,-6,-6,-3,1,1.2750000000000001
256,2,2,-4,-29,-1,1,1,0,1.28
257,-10,-4,-6,-5,1,-1,-1,-1,1.285
258,5,1,-1,4,4,-1,-6,0,1.29
259,-2,-2,-4,3,-1,-1,6,-3,1.295
260,-2,0,4,16,1,-2,-1,-3,1.3
261,-2,-3,-7,7,-3,-3,-11,-4,1.305
262,-12,-4,0,-17,-4,-3,5,0,1.31
263,8,1,-2,35,3,-2,-2,3,1.315
264,-3,-4,-5,-20,-5,-1,1,-3,1.32
265,7,2,3,11,1,-2,3,4,1.325
266,-6,-2,-3,-20,-2,-2,-4,-5,1.33
267,-8,-7,-5,8,-1,-2,-1,-2,1.335
268,1,3,1,-8,-3,0,0,2,1.34
269,0,-2,1,-5,0,1,1,-4,1.345
270,2,-1,2,3,1,-1,-4,-3,1.35
271,0,0,-2,-23,-2,3,5,4,1.355
272,-7,-1,5,30,9,1,-3,-3,1.36
273,3,-1,3,23,0,-1,-2,3,1.365
274,6,0,-1,-32,-3,2,0,1,1.37
275,-1,0,-2,-6,-1,-1,-2,-1,1.375
276,-3,-1,1,6,1,0,3,-3,1.3800000000000001
277,2,-1,-1,12,-2,-1,1,-2,1.385
278,-8,-1,-2,-18,-5,-5,-3,-2,1.3900000000000001
279,-6,-3,0,1,-1,1,-3,-4,1.395
280,18,6,-1,-2,-2,2,8,9,1.4000000000000001
281,-5,2,2,17,0,0,-4,-4,1.405
282,15,3,1,8,-3,-1,2,8,1.41
283,-9,-2,-2,-12,-4,-2,-2,-2,1.415
284,-4,-5,-9,10,-2,-2,-1,-4,1.42
285,-4,-3,0,-2,1,-1,-9,-4,1.425
286,-1,-1,-5,0,-1,3,14,6,1.43
287,2,-2,-5,-11,-3,-1,1,1,1.435
288,1,1,4,17,3,1,-2,0,1.44
289,-3,-1,5,-18,-6,-3,-6,-4,1.445
290,-5,-1,-5,-8,0,-1,-3,-4,1.45
291,2,0,1,7,1,0,4,2,1.455
292,-2,-1,0,-8,-3,-2,-2,-1,1.46
293,-1,-2,-1,-7,-2,-2,1,1,1.465
294,0,-2,1,28,3,1,-1,-1,1.47
295,-1,-2,-5,-23,-4,-1,2,-1,1.475
296,-3,-3,1,10,0,-1,-2,-2,1.48
297,4,3,2,-17,-5,-1,0,1,1.485
298,-3,-5,-9,5,-1,-2,-3,1,1.49
299,-2,1,1,14,0,-1,-4,-4,1.495
300,-2,2,2,9,2,0,0,-4,1.5
301,1,-2,-5,-11,0,1,5,2,1.5050000000000001
302,-1,-7,-12,-13,-4,-2,-4,-4,1.51
303,-3,0,-1,-2,-1,0,-1,-1,1.5150000000000001
304,1,1,1,-7,-1,0,1,0,1.52
305,-1,-1,-3,11,0,-1,0,3,1.5250000000000001
306,-2,0,4,-3,-1,-1,-3,-4,1.53
307,2,-4,0,-4,0,0,1,-1,1.5350000000000001
308,-1,-2,1,10,0,1,-2,-1,1.54
309,0,-1,-3,-15,-3,-3,-4,-1,1.545
310,2,2,3,5,-2,-2,-3,1,1.55
311,-1,-2,3,4,0,-2,-3,0,1.555
312,0,-3,-7,-16,-3,-2,1,1,1.56
313,1,-1,0,1,0,2,2,-2,1.565
314,0,2,8,13,4,0,-1,0,1.57
315,1,-1,-1,-17,-6,0,-1,-2,1.575
316,-2,-2,2,-6,-1,-2,-3,-2,1.58
317,0,-1,-5,-12,-3,0,-1,-3,1.585
318,0,2,5,17,2,0,1,2,1.59
319,-4,-7,-18,11,0,1,-1,-1,1.595
320,-1,0,2,6,12,-1,0,-1,1.6
321,1,0,4,-2,-4,-1,1,-1,1.605
322,-2,-2,-1,0,3,-1,-1,-2,1.61
323,-1,2,3,-3,-2,0,1,1,1.615
324,-3,-1,-2,-4,-5,1,-1,0,1.62
325,-1,1,1,16,6,0,-2,0,1.625
326,-2,1,-2,-11,-3,1,-1,0,1.6300000000000001
327,-1,1,2,1,0,-1,-1,0,1.635
328,-1,-2,-1,4,-1,-1,-1,-1,1.6400000000000001
329,-1,0,0,0,-1,-1,0,-1,1.645
330,-1,-2,0,-10,-5,-1,-1,-2,1.6500000000000001
331,1,0,1,1,1,1,-1,0,1.655
332,-1,0,-2,0,-4,-1,0,0,1.6600000000000001
333,0,-2,-6,1,-1,0,-1,0,1.665
334,1,-1,-1,-2,-3,0,2,-2,1.67
335,0,1,1,6,3,-1,0,-2,1.675
336,-1,-1,-1,-4,-4,-2,0,0,1.68
337,-1,0,1,6,2,2,1,1,1.685
338,-1,-4,-7,-5,0,-2,-2,-1,1.69
339,2,2,3,-4,-1,-2,-2,0,1.695
340,-1,0,-5,-4,-3,-1,-3,-2,1.7
341,-4,-3,-4,0,-3,-2,-1,-1,1.705
342,-1,2,2,1,-1,-1,0,-3,1.71
343,-2,-1,-2,-1,0,-1,1,-1,1.715
344,-1,0,-1,0,-1,1,0,0,1.72
345,0,-1,0,2,0,-1,-1,-1,1.725
346,-3,-1,-4,-6,-3,-1,-2,1,1.73
347,0,-1,1,0,-3,-3,0,-1,1.735
348,-1,2,7,6,1,0,-2,-1,1.74
349,-4,-6,-11,-5,-5,-4,-2,-3,1.745
350,-2,0,0,-3,-2,0,1,1,1.75
351,-2,-1,-1,-1,2,1,0,-2,1.7550000000000001
352,0,-1,-1,-1,-2,1,1,0,1.76
353,0,1,1,2,-1,0,-1,-1,1.7650000000000001
354,1,-2,-1,-2,-1,-1,-1,-1,1.77
355,-2,-2,-1,0,0,0,-1,0,1.7750000000000001
356,-1,-2,-2,1,-2,-1,0,-1,1.78
357,0,-1,1,2,1,-1,0,1,1.7850000000000001
358,-2,-2,-7,0,-2,-1,-2,-3,1.79
359,3,2,3,0,0,1,1,0,1.795
360,0,-2,-3,-4,-1,0,0,-1,1.8
361,0,1,0,-1,-2,1,2,0,1.805
362,0,-1,3,0,1,-1,-1,0,1.81
363,-2,1,0,-1,0,-2,-1,-1,1.815
364,1,0,-1,-1,1,-1,1,-2,1.82
365,-2,1,0,-2,-1,-3,-3,-2,1.825
366,-1,-3,-4,-2,-4,-1,-1,-1,1.83
367,0,-1,-3,-1,-2,1,-1,0,1.835
368,0,-1,1,-1,-3,0,-3,0,1.84
369,1,1,3,3,1,2,0,0,1.845
370,0,0,1,-1,0,-2,0,0,1.85
371,0,-2,1,-1,-2,-1,-1,0,1.855
372,-1,-1,-1,0,-2,-2,0,-2,1.86
373,0,-2,0,-1,-1,-2,-1,-1,1.865
374,0,2,1,1,1,-1,-1,-2,1.87
375,0,-2,-3,0,-1,-2,-1,-2,1.875
376,-1,0,-1,-1,2,0,-1,0,1.8800000000000001
377,-2,-2,-2,-3,0,0,-1,-1,1.885
378,1,0,0,-1,0,0,-1,-2,1.8900000000000001
379,0,0,-2,0,0,-1,0,-2,1.895
380,-1,-1,-1,-1,-2,-3,0,-2,1.9000000000000001
381,-2,-3,-6,-2,-1,-2,0,-1,1.905
382,-1,0,1,-1,-1,1,-1,0,1.9100000000000001
383,0,0,-2,-1,-3,-2,-1,-1,1.915
384,-2,-3,-1,-1,0,-2,-2,0,1.92
385,-1,0,-1,0,-1,-1,-1,0,1.925
386,-1,0,0,0,1,-1,-1,0,1.93
387,-1,-1,-1,-1,-1,1,-1,-1,1.935
388,-2,-1,-1,-3,-2,-1,0,-1,1.94
389,2,1,-2,0,-1,-1,-1,-1,1.945
390,-2,-2,-2,-4,-3,-2,-3,-2,1.95
391,-1,-1,-1,-1,-1,-2,0,-1,1.955
392,0,-1,-1,-2,-3,-1,0,-1,1.96
393,-1,0,1,-1,-1,0,0,0,1.965
394,-1,1,-1,2,-1,1,1,-1,1.97
395,-1,-3,-1,1,1,-1,-1,-1,1.975
396,0,0,0,-1,0,-1,0,0,1.98
397,-1,-2,-1,0,-2,-2,-1,0,1.985
398,-3,-3,-2,-2,-1,-1,-2,0,1.99
399,1,-1,1,-2,-2,-1,-2,-1,1.995
400,0,0,-1,2,-1,1,1,-2,2.0
401,0,0,2,-1,0,0,1,-2,2.005
402,1,1,-1,0,0,-2,-3,0,2.0100000000000002
403,-1,-3,-3,1,-1,-1,0,0,2.015
404,0,-1,3,0,0,-1,-3,0,2.02
405,-1,-2,-1,1,0,-1,-1,-1,2.025
406,-1,0,1,-1,-2,-1,-1,-1,2.0300000000000002
407,-1,0,-1,-2,1,-2,0,-1,2.035
408,0,-1,-2,-1,-1,2,0,-1,2.04
409,-1,-1,1,0,1,2,-2,-2,2.045
410,0,-3,-1,0,-2,1,-2,-2,2.05
411,0,1,0,0,0,1,0,-1,2.055
412,-1,-1,-2,-3,-1,-2,0,1,2.06
413,-2,-1,1,-1,-1,-3,-2,1,2.065
414,-1,-1,0,0,0,-2,0,-2,2.07
415,0,-2,0,-1,-1,0,-1,-1,2.075
416,0,-2,-1,0,-1,0,-2,-2,2.08
417,0,-2,-4,-1,-1,-1,0,1,2.085
418,-1,-1,1,-1,0,-2,0,-1,2.09
419,-1,-3,-2,0,-1,-2,1,-1,2.095
420,-1,-2,-2,-3,-2,-3,-1,-1,2.1
421,-1,0,-1,0,-1,-1,-4,-3,2.105
422,0,2,-1,0,-2,0,1,0,2.11
423,1,0,-4,-3,0,0,-1,-1,2.115
424,-2,-1,-2,0,-1,-1,-2,-1,2.12
425,-1,-2,-1,-2,-1,1,-2,0,2.125
426,-1,-3,-1,-2,0,-1,-3,1,2.13
427,-1,0,1,-1,-1,0,1,1,2.1350000000000002
428,-1,1,-1,-2,0,0,-1,-2,2.14
429,0,-1,-1,1,-1,-1,0,0,2.145
430,-2,-1,1,1,0,0,-1,-1,2.15
431,-1,-2,-4,-2,-2,-2,-3,-1,2.1550000000000002
432,-1,-3,-1,-2,-1,-1,-1,0,2.16
433,1,-2,-2,0,-1,-1,-1,-2,2.165
434,-1,-1,0,-1,-1,0,1,0,2.17
435,-3,-2,0,0,-1,-2,0,-1,2.1750000000000003
436,-1,-1,-1,1,-2,-1,-1,-2,2.18
437,0,-2,-1,0,-1,1,1,0,2.185
438,-1,-2,-2,0,0,1,0,0,2.19
439,-1,-1,0,-1,-2,0,-2,-1,2.195
440,-2,-2,-1,-1,1,-1,0,-2,2.2
441,0,-1,-4,-3,-3,0,0,0,2.205
442,-1,1,0,0,-1,-1,-1,-1,2.21
443,-1,0,0,-1,-1,-2,-1,0,2.215
444,0,1,1,0,0,-1,-2,-2,2.22
445,-1,0,0,0,-2,-1,-1,-1,2.225
446,-1,-1,-1,1,1,-2,-1,-1,2.23
447,-2,-2,-1,-3,-2,-2,0,1,2.235
448,-2,-2,-3,-2,-2,-1,1,0,2.24
449,1,-2,1,-1,2,0,0,-2,2.245
450,-3,-2,-1,0,-2,-2,-1,-1,2.25
451,-1,-1,-1,2,-1,0,-1,-1,2.255
452,0,0,2,1,-2,-1,-2,0,2.2600000000000002
453,-1,-1,-1,-4,-1,-2,0,-2,2.265
454,-2,-2,-3,-3,-2,0,-2,-1,2.27
455,-2,-2,-2,-2,0,0,0,-1,2.275
456,-1,-1,-1,0,-2,-1,-1,-1,2.2800000000000002
457,0,0,0,0,3,-1,-1,2,2.285
458,2,1,1,-1,0,-1,0,-1,2.29
459,2,1,-1,1,0,2,1,0,2.295
460,0,1,0,-2,-1,0,1,1,2.3000000000000003
461,-1,-1,2,-1,-1,0,-1,-2,2.305
462,1,0,-1,-1,-1,-2,-3,0,2.31
463,0,-1,2,0,-1,-2,-1,1,2.315
464,0,-1,-2,0,0,-1,0,1,2.32
465,-1,0,-1,-1,-1,0,-1,1,2.325
466,-1,0,-2,-2,1,-1,1,-1,2.33
467,0,-1,1,-2,-5,-1,-1,-2,2.335
468,1,0,1,1,2,2,-1,-1,2.34
469,0,0,-1,1,-1,-2,0,0,2.345
470,-1,-2,-3,-3,-4,0,0,-2,2.35
471,1,-1,0,0,1,-1,0,-1,2.355
472,-1,-3,-1,0,0,-1,2,-1,2.36
473,0,1,0,2,0,1,1,1,2.365
474,-1,0,0,0,0,0,0,-2,2.37
475,-2,-1,-2,0,-1,1,0,-2,2.375
476,1,-1,1,-2,-4,-1,-3,-1,2.38
477,-1,0,-2,-2,-2,-3,-1,-1,2.3850000000000002
478,-2,-1,-1,-2,-1,-1,0,-1,2.39
479,-1,-2,-1,0,0,-1,-3,-1,2.395
480,-2,-3,-5,-3,-2,-2,-1,-1,2.4
481,-2,-2,0,-1,-1,1,-1,0,2.4050000000000002
482,1,-1,-2,1,-1,0,0,2,2.41
483,-2,-1,-1,-1,0,1,-1,-1,2.415
484,0,-1,1,0,-2,-1,-1,-1,2.42
485,0,0,-1,-2,-2,0,-2,-1,2.4250000000000003
486,-1,0,-3,0,-1,0,1,0,2.43
487,-2,-1,-4,-4,-3,0,0,0,2.435
488,0,0,-2,0,2,1,-2,0,2.44
489,-2,-1,-4,-3,-3,0,-3,-1,2.445
490,0,0,0,-1,-1,-1,-1,-1,2.45
491,-1,-1,-3,-1,2,-3,1,-2,2.455
492,-3,0,-2,1,1,-1,1,0,2.46
493,-1,0,-1,0,1,-2,-2,-1,2.465
494,-1,-1,1,-1,-1,-1,-3,-1,2.47
495,-1,-1,-3,0,0,0,-3,-1,2.475
496,-1,-1,-2,-2,-1,-2,-2,-2,2.48
497,-1,-3,0,-1,-2,-3,0,-4,2.485
498,-1,-2,-1,1,2,0,1,0,2.49
499,1,1,2,1,1,1,-1,2,2.495
500,0,0,1,-1,0,-1,-1,-1,2.5
501,-2,-1,0,-1,1,0,-2,1,2.505
502,-1,-1,-3,-1,-2,-1,-1,-2,2.5100000000000002
503,-1,0,0,-1,-1,-2,0,0,2.515
504,-1,-1,0,-1,-1,-2,0,-3,2.52
505,1,1,-2,-1,-1,-2,-2,-1,2.525
506,0,0,-1,-3,-3,-1,0,0,2.5300000000000002
507,-1,-1,1,-1,0,-2,-2,-1,2.535
508,-1,0,1,1,0,-2,0,-2,2.54
509,-1,-1,2,-1,-2,0,-1,0,2.545
510,-1,-2,0,1,0,-1,-1,-2,2.5500000000000003
511,-1,0,-1,0,0,-1,-1,-1,2.555
512,0,1,0,-2,-2,0,-1,0,2.56
513,-2,-1,-1,1,-2,0,-2,-2,2.565
514,1,-1,0,-1,-2,-2,-2,-1,2.57
515,-1,0,0,0,-1,0,-1,1,2.575
516,0,0,0,1,0,0,0,-2,2.58
517,-2,-3,-2,0,-1,0,1,-1,2.585
518,-1,0,-1,-2,1,-1,-2,-1,2.59
519,0,-2,-3,-4,-4,-1,-1,0,2.595
520,-1,-2,0,-1,1,0,-1,0,2.6
521,0,0,-2,0,0,0,0,-2,2.605
522,-2,-1,0,0,-1,0,1,-1,2.61
523,0,-1,3,0,1,-1,-1,-1,2.615
524,0,-4,-7,-3,-2,0,0,0,2.62
525,-1,0,-1,0,-1,0,1,-1,2.625
526,0,1,-1,-2,-1,1,-1,2,2.63
527,0,1,0,1,0,1,-1,0,2.6350000000000002
528,0,-1,1,0,-2,-1,-3,0,2.64
529,1,0,-1,1,-1,-1,1,-1,2.645
530,1,0,-2,0,0,0,-2,-1,2.65
531,0,0,1,-3,-1,-1,-1,0,2.6550000000000002
532,-1,-1,-1,-1,0,1,2,0,2.66
533,0,-1,-2,0,-2,-2,-1,1,2.665
534,-2,-1,-2,0,-2,-1,-1,-2,2.67
535,-1,-3,-3,0,-2,-2,-1,-2,2.6750000000000003
536,1,0,1,-1,0,1,1,0,2.68
537,-2,-1,1,-2,-1,-3,3,-1,2.685
538,-3,-2,-1,0,0,-1,1,1,2.69
539,-2,-2,-1,-4,-3,0,-1,0,2.695
540,0,0,-2,0,-1,-2,-2,0,2.7
541,1,-1,0,0,2,0,-4,0,2.705
542,1,-2,1,0,0,-1,0,0,2.71
543,-1,1,0,2,0,-2,0,-4,2.715
544,0,0,2,2,0,-1,1,-1,2.72
545,-1,-1,-3,-4,-1,0,-3,-2,2.725
546,-1,-1,-3,-1,-1,-2,-2,-1,2.73
547,0,0,-1,1,0,0,0,1,2.735
548,-3,-2,-4,-2,-2,0,-1,-1,2.74
549,1,1,0,0,0,0,0,0,2.745
550,0,-1,0,-2,-1,-1,-1,0,2.75
551,0,-1,1,1,1,0,-1,0,2.755
552,0,0,1,1,0,-1,0,-1,2.7600000000000002
553,0,0,1,1,0,-1,1,-2,2.765
554,-2,-1,0,0,-1,1,0,-3,2.77
555,0,-2,-2,1,-1,-2,-2,0,2.775
556,-2,0,3,1,1,-1,-1,0,2.7800000000000002
557,1,-1,-3,1,-2,1,2,1,2.785
558,0,-2,1,-1,-2,-2,-2,-2,2.79
559,0,-1,0,0,1,1,0,-1,2.795
560,-3,0,0,0,1,-1,-1,0,2.8000000000000003
561,-2,-1,-1,0,0,-1,-1,-1,2.805
562,2,-1,-1,1,0,-1,-1,-3,2.81
563,-3,-1,-2,0,0,-2,0,-2,2.815
564,-1,-2,-2,-2,-1,-2,-2,-2,2.82
565,-3,-1,2,-2,0,-3,-3,-1,2.825
566,-1,0,0,0,0,0,-1,1,2.83
567,0,-3,-4,-3,-2,-1,-2,-2,2.835
568,1,0,-1,1,0,-2,0,1,2.84
569,-1,0,0,0,0,1,0,0,2.845
570,-2,-1,0,1,0,-1,-1,1,2.85
571,0,0,1,1,2,-2,1,0,2.855
572,-1,-1,-3,-4,-2,0,0,0,2.86
573,-1,-1,-1,0,0,-2,1,0,2.865
574,-1,2,0,0,0,0,-1,-1,2.87
575,0,0,-1,-2,0,0,-1,-1,2.875
576,-1,-2,-3,-4,-5,0,-2,-2,2.88
577,-1,-1,0,0,-1,-1,0,-2,2.8850000000000002
578,0,-2,-2,-3,-4,-1,0,-1,2.89
579,-2,-1,0,-2,-2,-3,-2,-1,2.895
580,0,1,-1,-1,0,-2,1,-1,2.9
581,-2,-1,-2,-2,1,-1,-2,-1,2.9050000000000002
582,-1,-1,1,0,1,1,-2,-2,2.91
583,0,-2,-2,-1,-2,-2,-3,0,2.915
584,-2,-1,-1,0,-2,-1,1,-1,2.92
585,1,0,0,-2,-3,-1,-1,-1,2.9250000000000003
586,-2,-2,-1,0,-3,-1,0,-1,2.93
587,0,1,1,0,1,0,1,1,2.935
588,-4,-1,-2,-2,-1,1,-2,-1,2.94
589,-1,-1,0,1,1,-1,-2,0,2.945
590,1,1,-1,-1,2,0,0,1,2.95
591,0,2,2,1,-1,-1,1,0,2.955
592,0,-1,0,-2,2,-1,-2,-1,2.96
593,-2,-2,0,-2,-2,0,0,-1,2.965
594,-2,-3,-3,0,0,0,0,-1,2.97
595,-3,-3,-3,0,-2,-1,-2,0,2.975
596,1,1,1,-2,0,-1,0,-2,2.98
597,-1,0,1,-2,-1,1,-3,-3,2.985
598,0,-1,-1,0,0,-1,-2,-2,2.99
599,-1,-1,0,-2,-3,0,-1,-2,2.995
600,-3,-2,0,0,-1,0,-1,-2,3.0
601,-2,-1,-2,0,-1,-3,-1,-1,3.005
602,-3,-2,-1,-1,-3,-2,-1,-3,3.0100000000000002
603,0,0,1,-1,1,0,-1,0,3.015
604,1,-4,-2,-1,-2,-1,-1,-2,3.02
605,-1,-2,-2,-1,-1,-1,-2,-1,3.025
606,-2,0,0,-1,0,-1,-1,2,3.0300000000000002
607,0,-2,-3,-1,-1,-1,-1,-1,3.035
608,-1,-2,-1,-4,-3,-3,-1,0,3.04
609,0,-1,1,-1,0,-2,-2,1,3.045
610,0,1,1,0,0,-1,-2,1,3.0500000000000003
611,-2,0,-1,0,-1,0,-1,0,3.055
612,-1,2,1,0,-1,-1,-1,0,3.06
613,-1,-2,-3,1,-2,-1,1,-3,3.065
614,-2,0,0,-1,-1,-1,0,-2,3.0700000000000003
615,-1,1,0,-1,0,0,0,0,3.075
616,0,-1,-1,0,0,-1,-1,-1,3.08
617,-2,1,1,-3,0,0,-3,2,3.085
618,0,0,1,2,0,0,1,0,3.09
619,-1,-1,-1,-1,0,-2,-2,-1,3.095
620,1,0,1,-1,0,0,0,0,3.1
621,-2,-4,-4,-2,-1,-2,0,-2,3.105
622,-2,-1,-1,-3,-2,0,1,0,3.11
623,0,-1,0,1,1,0,1,-3,3.115
624,0,1,1,2,0,0,-1,0,3.12
625,-2,-1,-1,-3,0,-1,-1,-2,3.125
626,-1,-1,-3,-3,-3,-1,-3,-1,3.13
627,-2,-1,-2,-1,-3,-2,-2,-1,3.1350000000000002
628,0,0,-3,-3,-1,2,-1,0,3.14
629,1,-1,0,-2,-1,-1,1,-1,3.145
630,1,-1,-1,1,1,0,0,-1,3.15
631,-1,0,0,0,0,0,0,-2,3.1550000000000002
632,-1,1,0,1,-1,-1,-1,0,3.16
633,-2,1,1,0,-1,0,0,0,3.165
634,-1,0,-2,-4,0,-2,0,0,3.17
635,-1,-1,0,-3,-4,-3,-3,-2,3.1750000000000003
636,0,0,-2,-3,-1,-2,0,-1,3.18
637,1,-2,-2,0,-1,0,0,0,3.185
638,-2,0,-1,-1,-2,-1,-1,-1,3.19
639,0,-1,-1,-1,-2,0,0,-2,3.1950000000000003
640,-1,-1,1,-1,1,-1,-1,0,3.2
641,-1,-1,-2,4,2,2,0,1,3.205
642,0,1,1,1,3,1,-1,0,3.21
643,-2,-5,-7,-1,-1,-1,-1,-2,3.215
644,1,0,2,-2,-2,-1,-1,1,3.22
645,0,2,1,0,-1,-1,-1,0,3.225
646,-1,-5,-10,-7,-3,-2,-1,-2,3.23
647,1,2,4,-1,-1,0,0,2,3.235
648,-1,-1,1,0,-2,-2,-1,0,3.24
649,0,0,1,1,-1,0,-1,-1,3.245
650,0,0,3,1,-3,-2,-1,-1,3.25
651,-1,-1,-4,0,-1,-1,0,0,3.255
652,0,-2,0,2,0,-1,-2,-1,3.2600000000000002
653,0,-2,-2,-3,-2,-2,-2,0,3.265
654,2,5,14,11,2,1,1,0,3.27
655,-2,-2,-4,3,1,-1,0,-2,3.275
656,-1,-3,-4,-5,-2,-1,-2,0,3.2800000000000002
657,-1,0,-4,-3,1,2,-1,0,3.285
658,2,2,1,-3,-2,1,2,1,3.29
659,0,0,0,-1,-1,1,-1,0,3.295
660,0,4,7,5,2,-2,-1,-2,3.3000000000000003
661,-5,-7,-16,-13,-3,-3,-2,-2,3.305
662,0,2,5,8,4,0,1,1,3.31
663,0,2,1,0,-1,0,0,0,3.315
664,0,-2,-2,-2,-3,-1,-1,-1,3.3200000000000003
665,2,5,12,16,4,0,0,1,3.325
666,-5,-11,-19,-22,-7,-4,-3,-4,3.33
667,0,-2,0,0,1,-2,0,-3,3.335
668,-2,0,-1,0,0,1,0,0,3.34
669,0,2,7,8,0,-1,0,-1,3.345
670,0,-2,-3,1,1,0,-2,1,3.35
671,0,-1,-1,-2,-1,-1,-1,0,3.355
672,-1,0,0,-2,-2,0,2,-1,3.36
673,0,-1,1,1,-2,-1,0,-1,3.365
674,-1,-1,-1,5,-1,-2,0,-2,3.37
675,4,6,6,4,2,-1,0,1,3.375
676,-2,-3,-3,1,1,0,0,0,3.38
677,0,-2,-8,-15,-5,-3,-2,0,3.3850000000000002
678,0,0,0,5,0,-1,1,0,3.39
679,0,0,1,-1,0,-1,0,-1,3.395
680,-1,0,2,-2,1,1,-1,0,3.4
681,-2,-1,0,5,1,0,0,0,3.4050000000000002
682,0,-1,1,-5,0,1,-2,-1,3.41
683,-4,-4,-3,-5,-4,-3,-2,-1,3.415
684,0,0,0,2,0,0,0,-1,3.42
685,0,-4,-2,-4,0,0,-1,1,3.4250000000000003
686,-2,-4,-3,2,0,-2,0,-1,3.43
687,-1,-2,-5,-4,-1,0,-2,-1,3.435
688,-3,-2,-1,1,0,-4,-1,-1,3.44
689,0,2,1,-2,-2,-1,0,-1,3.4450000000000003
690,-2,-1,-1,-4,-5,-2,-2,-3,3.45
691,-3,-3,-6,-6,-6,-3,-2,-2,3.455
692,1,2,2,-2,-3,-1,0,2,3.46
693,-2,-4,-5,-4,0,0,1,-2,3.465
694,-2,-2,-3,-3,-2,-3,0,0,3.47
695,1,0,-1,1,1,-1,-2,-1,3.475
696,-1,-2,-1,0,1,1,-3,0,3.48
697,-1,0,1,2,-1,0,-2,0,3.485
698,-2,-1,-1,-1,0,-1,-2,-1,3.49
699,-1,-2,-5,-5,-2,0,0,0,3.495
700,-1,-1,-7,-2,-1,-2,-1,-2,3.5
701,-2,2,5,2,2,-1,0,0,3.505
702,-2,-1,0,-3,-2,-1,-2,0,3.5100000000000002
703,0,2,9,4,0,2,0,1,3.515
704,-4,-5,-8,-2,-2,-1,-1,-2,3.52
705,-3,-4,-7,-7,-1,-1,-1,-4,3.525
706,2,3,6,2,2,1,1,0,3.5300000000000002
707,-4,-6,-8,-4,-1,-3,-3,-2,3.535
708,-1,-4,-4,-3,-4,-1,-1,-1,3.54
709,0,1,4,5,1,0,1,1,3.545
710,0,-1,-4,0,0,0,-3,1,3.5500000000000003
711,0,-1,-2,0,-3,-1,1,-1,3.555
712,0,-1,-1,-1,-3,-3,-1,0,3.56
713,-1,-1,-3,-1,-1,-2,0,-1,3.565
714,-3,-2,-2,-4,-2,-1,0,0,3.5700000000000003
715,0,1,2,-1,0,0,2,2,3.575
716,-1,-1,-2,0,-1,0,-1,-1,3.58
717,2,4,12,3,0,0,1,0,3.585
718,-2,-4,-6,-1,-1,-1,-2,-1,3.59
719,-1,-1,-1,-2,1,0,2,0,3.595
720,0,1,1,-2,-1,0,0,0,3.6
721,-1,1,2,1,0,-1,-1,-2,3.605
722,1,2,1,-1,-1,1,-1,1,3.61
723,-1,-1,-2,-1,0,-1,-1,-1,3.615
724,-2,-1,0,-1,0,-2,-2,-3,3.62
725,-2,-2,-5,-6,-5,-3,-2,-2,3.625
726,0,-1,3,2,0,-1,0,-1,3.63
727,2,0,0,-2,-1,-1,0,2,3.6350000000000002
728,1,0,2,1,1,1,1,1,3.64
729,-1,-1,-2,-3,-3,-2,-1,-1,3.645
730,-2,0,1,0,-2,-2,1,0,3.65
731,-3,-5,-7,-2,-2,-1,-1,-2,3.6550000000000002
732,0,1,-1,0,-1,-2,-1,0,3.66
733,0,0,2,1,0,0,0,-1,3.665
734,-1,-1,-1,-3,0,1,-1,-1,3.67
735,-1,-2,-2,3,2,0,1,-1,3.6750000000000003
736,0,0,-3,-1,-1,0,-2,0,3.68
737,-2,-4,-3,0,-1,-1,-2,0,3.685
738,1,3,5,4,0,-1,0,2,3.69
739,-1,-2,0,0,1,-1,-1,-1,3.6950000000000003
740,-1,-2,-2,-2,-1,0,0,-1,3.7
741,1,-2,-3,0,-1,-1,-1,0,3.705
742,0,2,1,0,-1,-1,1,-1,3.71
743,-2,-1,-1,-2,-3,-2,-1,-1,3.715
744,-2,-2,-5,0,-2,-3,-1,-1,3.72
745,-1,-2,-2,-2,-3,-2,-1,-1,3.725
746,-1,-1,0,-1,0,0,-3,-1,3.73
747,0,2,2,1,-2,-1,-1,-1,3.735
748,0,-1,2,1,-1,1,0,-1,3.74
749,-2,-2,-1,-2,-1,-2,1,0,3.745
750,-1,0,-1,-2,-2,-4,0,-3,3.75
751,0,1,3,0,-2,0,0,0,3.755
752,-1,-3,-6,-2,1,0,0,1,3.7600000000000002
753,1,1,0,2,1,2,0,-1,3.765
754,-1,0,0,1,-2,-1,-1,-1,3.77
755,-1,0,6,2,2,-1,-1,1,3.775
756,-3,-4,-6,-4,-2,-2,-3,-1,3.7800000000000002
757,-2,-1,-2,-3,-2,-1,-1,-1,3.785
758,-1,-2,-3,1,1,-1,-1,-1,3.79
759,1,-1,2,1,0,1,2,-1,3.795
760,0,2,8,1,0,-1,0,-1,3.8000000000000003
761,-2,-4,-7,1,-1,-1,-2,-1,3.805
762,-2,-2,-6,-4,-2,-1,-1,-3,3.81
763,0,1,-1,-1,-1,-2,-2,1,3.815
764,1,1,0,1,-1,0,1,0,3.8200000000000003
765,-2,0,0,1,0,-1,-1,-2,3.825
766,0,1,3,-1,-1,0,0,-1,3.83
767,-4,-4,-5,-3,-2,-2,-3,-3,3.835
768,-1,0,1,-1,-1,-2,0,-1,3.84
769,1,1,3,0,-1,-2,-2,0,3.845
770,-2,-4,-6,-3,-2,-1,-3,-3,3.85
771,1,0,-1,-1,0,-1,-1,-2,3.855
772,-1,-2,-2,-3,-3,-1,-1,0,3.86
773,-2,-1,0,-2,0,-1,0,0,3.865
774,0,-1,1,1,-1,0,0,-1,3.87
775,0,0,0,-2,0,0,2,1,3.875
776,-3,0,-2,-2,-1,-2,-3,-1,3.88
777,-1,2,3,2,0,-1,-1,-3,3.8850000000000002
778,-3,-5,-6,-2,-2,-3,-2,-1,3.89
779,1,0,0,1,-1,0,-2,0,3.895
780,-1,-1,-1,-2,0,1,-1,0,3.9
781,0,0,1,1,0,1,1,1,3.9050000000000002
782,-2,-2,-4,0,-1,-1,0,0,3.91
783,-1,-1,2,1,-2,0,-1,-1,3.915
784,-2,-2,-5,-3,-3,-1,0,-1,3.92
785,-1,-2,-8,-5,-3,-4,-2,1,3.9250000000000003
786,1,1,0,-1,-1,-1,1,0,3.93
787,-1,-1,-1,1,0,-1,0,-1,3.935
788,0,0,0,0,-1,1,-1,-1,3.94
789,-1,-1,0,-1,-2,0,-1,0,3.9450000000000003
790,1,1,2,1,0,0,-2,2,3.95
791,-1,-1,-3,-1,-1,-2,-1,-2,3.955
792,2,0,3,0,0,0,1,-1,3.96
793,-1,-2,-3,-1,0,0,-2,-1,3.9650000000000003
794,0,-1,-1,-1,-1,1,0,0,3.97
795,-1,-4,-3,-3,-3,-1,0,-1,3.975
796,-1,1,2,2,1,-2,0,-1,3.98
797,0,-2,-7,-2,-3,-2,0,-1,3.985
798,-2,-1,0,0,0,-1,-2,0,3.99
799,-2,0,3,2,2,1,-1,1,3.995
800,1,-3,1,-1,0,0,0,1,4.0
801,0,2,2,-3,-1,-1,0,-1,4.005
802,0,-2,1,-1,-2,-2,1,-1,4.01
803,-1,-1,-2,-3,-1,-2,-1,-1,4.015
804,0,-1,-2,1,-1,0,-1,0,4.0200000000000005
805,-1,0,1,2,0,-1,-1,-1,4.025
806,0,0,0,-2,-1,-1,0,0,4.03
807,-2,-2,-3,-1,-1,-1,-1,-2,4.035
808,0,3,0,-2,-1,-1,0,-1,4.04
809,-2,-6,-5,3,4,1,1,-2,4.045
810,-2,-1,-2,-5,-4,-2,-1,-1,4.05
811,-1,1,-1,0,-1,-1,0,0,4.055
812,0,1,4,2,1,1,0,0,4.0600000000000005
813,-2,-2,-3,-3,-1,0,-1,-2,4.065
814,0,2,2,3,0,-1,0,0,4.07
815,-4,-4,-9,-4,-2,-2,-1,-3,4.075
816,-1,0,1,1,-1,0,-1,0,4.08
817,1,-1,1,-3,-3,0,-1,0,4.085
818,1,-2,1,1,1,0,0,-1,4.09
819,0,0,0,0,-2,-1,-1,-2,4.095
820,-3,-2,-2,-4,-2,-2,-1,-2,4.1
821,-2,0,0,1,-1,-2,-3,-2,4.105
822,0,-2,-1,1,2,-1,-1,-1,4.11
823,0,-1,-3,-2,0,1,0,1,4.115
824,-1,-1,-2,0,-2,0,0,0,4.12
825,0,0,1,-1,-1,0,0,1,4.125
826,-1,0,0,0,0,0,0,0,4.13
827,-1,-1,2,-1,-2,-2,-1,-2,4.135
828,-6,-2,-4,-2,1,-2,0,2,4.14
829,-1,-2,-4,-1,0,-1,0,-1,4.1450000000000005
830,0,-1,-4,0,-1,0,2,-2,4.15
831,0,1,-1,0,-2,0,0,1,4.155
832,0,-2,-4,-3,0,-1,-1,-2,4.16
833,-1,1,1,1,0,1,1,0,4.165
834,-2,0,0,0,0,2,-2,0,4.17
835,-1,1,1,1,1,0,-1,-1,4.175
836,1,-2,1,1,-1,0,0,0,4.18
837,-3,-4,0,-3,-1,0,-3,-1,4.1850000000000005
838,-1,1,-1,1,-1,-1,-2,0,4.19
839,-1,0,1,-3,-2,0,-1,-1,4.195
840,-5,-4,-5,-2,-2,1,0,-1,4.2
841,-5,-2,0,-3,-1,1,0,-2,4.205
842,4,-1,1,0,-1,-1,0,1,4.21
843,-1,-2,-4,-3,0,0,-3,-1,4.215
844,0,-3,-7,-1,-2,-2,-3,-2,4.22
845,-1,2,5,2,-1,-2,-1,2,4.225
846,-5,-4,-4,-3,-3,-3,-3,-3,4.23
847,11,4,4,4,0,0,0,2,4.235
848,-21,-6,0,-2,-2,-1,0,-3,4.24
849,-1,-2,-1,-1,0,0,3,-1,4.245
850,0,-2,-1,5,0,2,5,0,4.25
851,11,6,0,0,-1,-4,-5,2,4.255
852,-3,-1,-1,0,1,3,-1,-4,4.26
853,-3,-3,-3,-1,-1,-2,-2,2,4.265
854,-4,-5,-3,-4,-2,-1,0,-1,4.2700000000000005
855,-8,-12,-9,-4,-2,-2,0,-2,4.275
856,9,6,1,-1,-3,-4,-4,-1,4.28
857,-2,1,2,1,0,0,1,2,4.285
858,-1,-2,-1,-4,-5,-3,-2,-8,4.29
859,1,2,3,4,0,-1,2,3,4.295
860,-8,-10,-6,-2,-3,-4,-2,-1,4.3
861,4,3,-1,5,2,2,-2,-4,4.305
862,-10,-1,-3,-9,-6,-2,-3,0,4.3100000000000005
863,-21,2,4,-1,-1,-1,1,-6,4.315
864,-17,-7,0,-7,0,1,-3,-9,4.32
865,63,14,-5,1,-1,4,10,27,4.325
866,-3,-2,0,5,4,-3,-4,-5,4.33
867,22,2,-3,-2,-1,0,-3,6,4.335
868,18,4,6,4,1,0,2,0,4.34
869,-16,-5,-1,-3,-4,-2,-1,-5,4.345
870,2,-1,-3,0,-1,1,-2,0,4.3500000000000005
871,-8,-7,-6,1,1,-1,-1,-9,4.355
872,10,3,6,10,2,-1,1,5,4.36
873,-28,-11,-14,-7,-3,-4,-5,-15,4.365
874,2,-1,-6,-8,-2,1,-2,0,4.37
875,-25,-3,1,-3,1,1,0,-3,4.375
876,34,3,2,3,-1,-1,-2,5,4.38
877,-39,-12,1,-1,-3,-2,-3,-6,4.385
878,1,6,4,13,6,-1,2,1,4.39
879,-3,-3,-4,-3,0,0,-2,-1,4.3950000000000005
880,2,-2,-4,1,0,-5,-1,0,4.4
881,6,1,1,-2,-3,-1,-3,-5,4.405
882,6,2,-2,-9,-3,-1,0,-2,4.41
883,2,0,8,7,1,4,5,11,4.415
884,-9,-3,-3,-3,1,-2,-4,-6,4.42
885,6,5,3,5,-2,-6,-8,-6,4.425
886,8,3,7,2,3,3,2,6,4.43
887,21,4,-2,3,1,0,0,3,4.4350000000000005
888,-3,0,0,-14,-8,1,-1,0,4.44
889,0,0,-2,4,6,2,4,1,4.445
890,-5,-2,5,6,-2,-1,-4,-2,4.45
891,21,8,4,-19,-6,-3,-2,-5,4.455
892,-38,-14,-3,25,9,4,0,-6,4.46
893,10,5,-1,-28,-13,-6,-4,6,4.465
894,-2,-2,0,8,5,1,1,0,4.47
895,-16,-9,-9,-32,-23,-3,-3,-2,4.4750000000000005
896,-5,6,2,0,-4,-4,-2,0,4.48
897,2,-5,0,3,5,5,4,1,4.485
898,17,-1,-6,37,14,5,3,4,4.49
899,-8,-3,0,11,15,-1,-1,-3,4.495
900,8,1,-5,-35,-11,-2,0,2,4.5
901,-9,-5,0,5,-2,-3,-3,-2,4.505
902,-1,0,3,-15,-9,-3,-3,-2,4.51
903,-6,-2,7,15,4,-1,-6,-8,4.515
904,6,4,1,12,6,2,1,2,4.5200000000000005
905,3,0,-2,-16,0,1,2,6,4.525
906,-7,-3,-2,8,-4,-5,-6,-7,4.53
907,5,-3,-9,-17,-13,-4,-1,-4,4.535
908,0,0,4,4,-4,-5,-2,-3,4.54
909,-5,0,11,18,9,-1,-2,-4,4.545
910,-7,-3,-14,-26,-21,-7,-4,-1,4.55
911,-3,-9,-5,7,6,3,2,0,4.555
912,12,2,2,-6,-13,-7,-4,1,4.5600000000000005
913,18,6,-3,-11,-16,1,1,3,4.565
914,-17,-4,3,3,6,-2,-1,-2,4.57
915,2,2,-1,-7,-2,-4,-2,0,4.575
916,-12,-3,-2,1,17,5,3,4,4.58
917,-3,-2,-2,3,9,2,2,-4,4.585
918,10,3,-4,-4,1,0,-1,-1,4.59
919,10,5,-4,-2,0,8,11,11,4.595
920,40,12,8,15,6,5,6,9,4.6000000000000005
921,-36,-9,-7,8,4,-1,-1,-5,4.605
922,-12,-4,-1,-30,-12,-3,-2,-1,4.61
923,-11,-3,1,27,14,1,3,-1,4.615
924,-17,-6,-3,15,4,1,-2,-9,4.62
925,-7,3,4,-33,-20,-6,-1,1,4.625
926,14,14,9,23,10,-1,1,9,4.63
927,-17,-13,-5,-31,-16,-7,-5,-3,4.635
928,1,-4,-7,-30,-14,-5,-1,-2,4.64
929,5,4,6,32,21,1,-1,3,4.6450000000000005
930,1,-6,-8,-16,-17,-4,-3,1,4.65
931,10,6,-2,9,4,-2,-3,0,4.655
932,-31,-5,2,-7,-6,0,2,-2,4.66
933,9,-7,-7,-36,-6,-3,-5,-11,4.665
934,9,5,0,68,37,12,6,6,4.67
935,-8,-5,2,0,-19,-1,1,-4,4.675
936,18,4,-2,-47,-22,-6,-8,-6,4.68
937,-9,-4,3,10,13,6,5,0,4.6850000000000005
938,-21,-16,-19,-6,-7,-3,-3,-10,4.69
939,21,13,5,19,1,-5,-5,-3,4.695
940,-20,-8,-8,-26,-10,-1,-1,3,4.7
941,8,5,-4,21,-6,0,6,4,4.705
942,7,10,9,-33,-18,-7,-5,-6,4.71
943,-15,-18,-6,58,35,7,1,0,4.715
944,-16,-1,6,-70,-47,-7,-2,-3,4.72
945,11,-2,-2,36,19,-7,-8,-3,4.7250000000000005
946,-14,-6,-4,-28,-12,0,2,-4,4.73
947,21,7,1,-5,-4,-1,-1,4,4.735
948,4,0,-4,43,30,8,6,5,4.74
949,-11,-5,-3,-18,-18,-6,-5,-8,4.745
950,-10,-10,-3,-14,-9,-6,-5,-2,4.75
951,3,6,1,-14,-7,0,-1,-1,4.755
952,18,-2,-5,16,11,0,-1,0,4.76
953,9,3,-4,-2,2,4,0,4,4.765
954,-13,-6,1,5,11,9,8,6,4.7700000000000005
955,-6,4,3,-27,-16,-6,-3,1,4.775
956,62,18,-10,17,2,-2,2,9,4.78
957,-37,-15,12,6,-2,-1,-2,1,4.785
958,8,1,3,14,9,0,-1,-2,4.79
959,-29,-11,-4,16,16,-1,0,-4,4.795
960,-5,-1,1,0,-3,-3,0,-6,4.8
961,36,18,3,-31,-30,-8,-5,1,4.805
962,5,-2,-1,-6,0,-1,-3,-2,4.8100000000000005
963,4,-2,-2,6,10,4,3,3,4.815
964,-17,-7,2,-1,-13,-7,-5,-6,4.82
965,-2,-1,-6,-13,-3,1,0,-2,4.825
966,3,-1,1,-4,-4,-1,-1,-1,4.83
967,-7,-2,-2,-14,-13,-3,-3,-5,4.835
968,-10,-3,-3,23,16,4,1,-1,4.84
969,-4,-4,-3,1,0,2,1,2,4.845
970,7,6,3,-5,-5,-2,1,2,4.8500000000000005
971,0,-1,-5,0,7,-2,-4,-3,4.855
972,-10,-1,2,9,3,3,1,1,4.86
973,3,-1,0,15,8,3,3,0,4.865
974,0,-3,-4,-10,-12,-5,-3,-5,4.87
975,-1,-1,-3,2,-3,-2,-1,-3,4.875
976,-8,-4,-6,-7,-11,-11,-2,-1,4.88
977,0,0,-5,-25,-14,-3,0,-2,4.885
978,1,5,6,5,9,5,2,0,4.89
979,0,0,-3,-17,-9,-1,0,-1,4.8950000000000005
980,-1,0,4,27,10,2,0,0,4.9
981,-1,-4,-2,16,-2,-5,-4,-3,4.905
982,-1,1,-5,-16,-2,-2,-2,-1,4.91
983,2,0,1,-29,-12,-2,-2,-1,4.915
984,-4,-5,-3,10,12,-1,-3,-4,4.92
985,-2,3,3,10,4,-1,-3,-3,4.925
986,0,-2,-1,11,-1,1,0,0,4.93
987,-1,0,-4,-25,-4,-3,-2,-1,4.9350000000000005
988,-1,0,0,-8,0,1,-1,-2,4.94
989,0,-1,1,-4,0,-1,1,-2,4.945
990,1,-2,-5,10,3,-1,-2,-1,4.95
991,0,-2,-2,6,1,-1,0,-1,4.955
992,-1,-2,-1,-3,-2,-3,-1,0,4.96
993,2,0,-1,-1,6,5,0,2,4.965
994,-4,-7,-8,-7,-5,-6,-3,-3,4.97
995,3,0,5,12,3,2,1,2,4.9750000000000005
996,-3,-2,0,1,5,-2,-3,-1,4.98
997,-2,-5,-8,-2,-2,0,-1,-1,4.985
998,1,0,3,-3,0,0,0,2,4.99
999,-2,2,3,4,0,1,-1,-2,4.995
1000,-1,1,1,0,4,2,1,1,5.0
1001,-3,-4,0,-3,-2,-4,-7,-6,5.005
1002,2,2,3,-2,-1,0,4,2,5.01
1003,0,-2,-1,-1,-1,-1,0,-1,5.015
1004,-3,-1,0,-1,-2,0,0,-1,5.0200000000000005
1005,-2,1,-2,-1,2,-1,-2,-3,5.025
1006,-1,0,1,-1,0,1,0,-1,5.03
1007,1,1,-2,3,-1,-1,1,0,5.035
1008,-2,-2,-3,0,0,0,2,1,5.04
1009,-3,-3,-2,2,0,0,1,0,5.045
1010,-1,2,2,2,-2,0,-5,-3,5.05
1011,-1,3,2,0,0,0,0,-1,5.055
1012,3,-1,-4,4,1,3,2,2,5.0600000000000005
1013,-1,-2,-1,-2,-1,-1,1,0,5.065
1014,-1,1,0,-1,-1,-3,0,2,5.07
1015,0,-3,-4,-3,-1,0,-3,-2,5.075
1016,-1,1,-2,-5,-3,-2,-2,-2,5.08
1017,2,0,-2,3,-2,-1,1,1,5.085
1018,0,-2,-3,2,1,0,2,0,5.09
1019,0,0,1,4,-1,-1,1,1,5.095
1020,-2,-3,0,-2,-1,-1,-2,-2,5.1000000000000005
1021,-1,0,-2,-5,-2,-3,-3,-2,5.105
1022,-1,0,2,-2,-1,-2,-3,-2,5.11
1023,-2,0,-1,-2,0,-2,1,1,5.115
1024,1,-1,0,0,0,0,1,-1,5.12
1025,-1,-1,0,0,-1,-1,-1,0,5.125
1026,2,-2,-3,2,1,1,0,0,5.13
1027,0,-1,0,1,-3,-2,-3,-3,5.135
1028,-2,-2,-3,0,1,2,-1,1,5.14
1029,0,-1,1,0,-1,-1,-1,0,5.1450000000000005
1030,0,0,1,0,-2,0,-1,0,5.15
1031,-3,-6,-9,-3,-1,-1,-2,-2,5.155
1032,-2,1,2,-1,-1,0,-3,-1,5.16
1033,1,0,-2,0,0,-2,0,0,5.165
1034,0,-1,1,-5,-3,-3,-1,-2,5.17
1035,1,-2,1,1,0,1,-1,-1,5.175
1036,0,0,0,2,1,0,-1,0,5.18
1037,-1,-2,-5,-1,1,-1,-2,-2,5.1850000000000005
1038,-1,-1,-2,-1,1,0,0,0,5.19
1039,-2,-2,1,0,-1,-3,1,0,5.195
1040,-2,0,-2,-1,-2,-3,-2,-2,5.2
1041,2,1,1,1,-2,2,3,1,5.205
1042,-2,-2,-4,0,0,-2,0,-1,5.21
1043,-1,-1,2,-1,-1,0,0,0,5.215
1044,-2,0,-2,1,0,0,-1,0,5.22
1045,0,-1,2,0,1,1,-1,-2,5.2250000000000005
1046,0,-1,3,-2,-2,-2,-4,-2,5.23
1047,1,-1,-3,-1,-1,0,-1,0,5.235
1048,-1,0,1,-2,-1,-1,0,-2,5.24
1049,-3,-2,-4,-3,0,-2,-1,-1,5.245
1050,-1,-1,-1,-1,-1,-1,-2,-1,5.25
1051,2,1,0,-2,-1,-1,0,0,5.255
1052,0,-1,1,0,-1,-2,-2,0,5.26
1053,2,-1,0,-1,0,0,-1,0,5.265
1054,1,-2,-6,-4,-3,-1,-1,0,5.2700000000000005
1055,-2,-2,0,1,-2,-1,-3,-1,5.275
1056,-1,-1,-2,1,-2,0,-2,-2,5.28
1057,-1,1,1,1,-1,0,1,-1,5.285
1058,-1,1,0,2,1,1,1,0,5.29
1059,0,-2,-1,-2,-1,-1,0,1,5.295
1060,-1,-1,0,-2,-2,0,-1,-3,5.3
1061,-3,-2,-1,-3,-3,-1,-2,-2,5.305
1062,-1,-1,-3,1,0,-1,0,-2,5.3100000000000005
1063,0,0,-2,0,-1,-2,-1,-1,5.315
1064,-1,-1,-2,0,-2,-1,-1,-1,5.32
1065,-2,-3,-2,-2,-1,-2,-4,-1,5.325
1066,-1,-2,0,1,0,0,-1,0,5.33
1067,-1,0,3,4,1,-1,0,-1,5.335
1068,0,-2,-5,-2,-1,-1,-1,0,5.34
1069,0,0,0,0,0,-1,-2,-2,5.345
1070,0,1,2,1,0,0,2,2,5.3500000000000005
1071,-2,-4,-6,-2,-1,-3,-4,-4,5.355
1072,0,-2,-1,-2,0,1,1,0,5.36
1073,-2,-1,-2,-3,-3,-3,-3,-2,5.365
1074,-4,-1,-1,-1,0,-1,0,-2,5.37
1075,-1,1,2,-2,-1,-1,0,1,5.375
1076,0,1,2,1,2,1,1,0,5.38
1077,0,-2,-2,0,-2,-2,0,-1,5.385
1078,-1,-1,0,-1,-1,-1,-1,-1,5.39
1079,-2,0,0,-2,-1,0,0,-1,5.3950000000000005
1080,-2,0,1,1,-1,-3,-3,0,5.4
1081,-1,-1,0,1,0,0,2,-1,5.405
1082,-1,0,0,0,-1,-2,-4,-3,5.41
1083,0,0,-2,-1,1,1,1,-1,5.415
1084,-1,-3,-3,-1,0,0,-1,0,5.42
1085,-1,1,-1,-1,-2,-1,1,0,5.425
1086,-1,-2,-2,1,-1,0,0,1,5.43
1087,-1,0,-2,0,1,0,-1,-2,5.4350000000000005
1088,0,-1,0,1,0,-2,0,0,5.44
1089,-1,1,1,3,2,2,-2,-1,5.445
1090,-2,-4,-5,-4,-3,-2,-1,-2,5.45
1091,1,1,2,1,0,-1,-1,0,5.455
1092,-2,-2,-1,-2,-1,0,-1,-3,5.46
1093,0,-1,1,2,2,-1,0,0,5.465
1094,0,-1,-1,-1,-3,-1,0,-2,5.47
1095,-2,0,-3,0,-1,1,0,-1,5.4750000000000005
1096,2,-2,-3,-3,-3,-1,0,-1,5.48
1097,-1,-1,0,-1,-2,-2,-1,0,5.485
1098,0,0,1,-1,-1,1,0,1,5.49
1099,-1,0,0,1,-2,-1,1,0,5.495
1100,-2,-1,0,-2,-2,-2,-1,0,5.5
1101,-2,-2,-3,-2,-1,0,-1,0,5.505
1102,1,-2,1,2,1,0,-2,-1,5.51
1103,-1,1,-1,-3,-2,-1,0,-2,5.515
1104,-1,-2,-4,-2,-2,-1,-2,-1,5.5200000000000005
1105,0,0,1,-1,-2,-1,0,-1,5.525
1106,-2,-1,-2,0,-1,-1,1,0,5.53
1107,-1,0,2,2,0,0,-2,-1,5.535
1108,2,2,2,2,2,1,0,0,5.54
1109,-1,0,-1,-1,0,-2,0,-1,5.545
1110,-1,-1,-1,-2,0,1,-2,0,5.55
1111,-1,-5,-5,-7,-3,-1,-1,-1,5.555
1112,-2,-2,1,1,-2,-2,-1,-1,5.5600000000000005
1113,3,1,2,4,2,1,1,1,5.565
1114,-2,-3,-8,-7,-2,-2,-2,-2,5.57
1115,-1,3,3,0,-2,0,-1,-1,5.575
1116,-2,-3,-3,0,0,-1,1,-1,5.58
1117,-1,-1,-1,-2,-3,-1,-3,-1,5.585
1118,1,1,1,0,0,-1,2,-1,5.59
1119,0,-2,0,1,1,0,-1,-1,5.595
1120,0,-2,-1,-2,-1,-1,-1,0,5.6000000000000005
1121,-2,-1,0,-1,0,0,-2,-2,5.605
1122,0,0,0,3,1,1,0,1,5.61
1123,-2,-4,-7,-1,-1,-2,-3,-1,5.615
1124,0,0,1,1,-1,-2,1,0,5.62
1125,-3,-1,-2,0,-1,-1,0,-2,5.625
1126,0,2,1,1,0,0,0,-1,5.63
1127,0,-1,-1,-2,-2,-4,-2,-1,5.635
1128,0,0,-1,0,2,-2,-3,0,5.64
1129,-1,-2,-5,-4,-1,-1,0,-1,5.6450000000000005
1130,-1,-1,1,-1,-2,-1,0,0,5.65
1131,1,-2,-4,0,0,-1,0,-1,5.655
1132,-1,2,-1,-1,1,-1,-1,0,5.66
1133,0,-1,-1,0,0,-1,-1,-1,5.665
1134,-2,-2,-2,-1,1,-2,-1,-2,5.67
1135,-1,1,0,1,1,0,0,0,5.675
1136,0,-1,-1,0,0,1,0,0,5.68
1137,-1,0,-1,2,0,2,2,1,5.6850000000000005
1138,-2,-2,-4,-4,-3,-1,-1,-1,5.69
1139,-2,-3,0,-3,-2,0,-1,-1,5.695
1140,-2,-3,-1,-3,-2,-1,-3,-2,5.7
1141,-1,-1,1,0,-1,-1,0,0,5.705
1142,-1,-1,0,2,0,0,0,-1,5.71
1143,0,0,0,1,0,1,1,0,5.715
1144,-1,-1,2,-3,-3,-1,-1,-2,5.72
1145,-2,-2,-1,-2,-2,-1,-1,-2,5.7250000000000005
1146,-1,0,-2,-2,-2,-1,-1,-2,5.73
1147,0,0,-1,-1,1,-1,0,-2,5.735
1148,1,-1,-2,0,0,-1,1,1,5.74
1149,-1,0,-1,-1,-1,0,-2,0,5.745
1150,1,-3,-2,-1,1,-1,0,2,5.75
1151,-1,0,1,-1,-1,-1,-1,-1,5.755
1152,-2,0,-4,0,-2,-1,-1,-3,5.76
1153,1,-3,2,-4,-1,-1,-1,-1,5.765
1154,-2,-1,-3,-3,-3,-3,-1,-2,5.7700000000000005
1155,-1,0,1,1,1,0,0,-1,5.775
1156,-4,-3,-5,-5,-2,-3,0,-3,5.78
1157,0,-1,-1,0,1,0,0,-1,5.785
1158,0,0,0,-2,-2,0,0,-2,5.79
1159,-1,-3,-2,-2,0,0,-2,0,5.795
1160,-1,0,1,1,-1,1,-1,-2,5.8
1161,-1,-2,-4,-4,-2,-2,-2,-1,5.805
1162,0,-2,-1,-1,0,0,-1,1,5.8100000000000005
1163,-1,0,1,0,-1,-3,-1,1,5.815
1164,0,0,1,-2,0,0,-3,1,5.82
1165,-2,0,-1,1,0,-2,1,-1,5.825
1166,-1,1,3,2,1,1,-1,1,5.83
1167,0,-1,-2,-2,-2,-1,1,-1,5.835
1168,-1,-1,-1,0,0,-1,0,1,5.84
1169,-1,0,-3,-1,-1,-1,1,0,5.845
1170,0,0,1,1,0,0,-2,0,5.8500000000000005
1171,-2,0,1,2,1,0,0,-1,5.855
1172,1,0,-1,-3,-1,0,0,0,5.86
1173,-2,-2,-4,-2,-1,-1,-2,-2,5.865
1174,-1,2,2,3,2,0,2,1,5.87
1175,0,0,-2,-2,-1,0,0,-1,5.875
1176,0,-1,-1,0,0,-1,-1,-3,5.88
1177,1,-2,1,-2,-1,0,-2,0,5.885
1178,-2,-1,-3,-2,-1,-3,-1,-2,5.89
1179,0,-3,-2,-3,0,-1,-2,0,5.8950000000000005
1180,-1,-1,0,-1,-2,-1,0,0,5.9
1181,1,0,2,-2,-1,-1,-1,0,5.905
1182,-1,0,-1,0,0,0,-1,0,5.91
1183,-1,0,-1,0,0,0,0,-1,5.915
1184,-1,-1,0,-1,1,-2,-1,0,5.92
1185,0,0,-2,0,0,1,-1,-1,5.925
1186,2,-1,-3,0,-1,0,0,-1,5.93
1187,0,-2,0,-1,-3,-1,-1,-1,5.9350000000000005
1188,-2,-2,-4,-1,0,1,-1,-2,5.94
1189,-1,-1,-1,1,-1,0,-1,0,5.945
1190,-2,-2,-4,-5,-3,-2,-2,0,5.95
1191,-1,1,-1,0,-1,-1,-2,1,5.955
1192,-1,2,3,2,0,0,1,0,5.96
1193,0,-2,-5,-4,-2,-1,0,-2,5.965
1194,-1,2,1,0,-1,0,2,0,5.97
1195,-1,-1,-1,1,-2,1,-1,-3,5.9750000000000005
1196,-1,-1,-1,1,-1,0,0,-1,5.98
1197,-1,0,-1,-1,-2,0,-2,-1,5.985
1198,-1,-1,1,0,-1,0,-2,0,5.99
1199,-1,-1,-1,0,1,1,-2,2,5.995
1200,0,-1,-1,1,-1,0,0,1,6.0
1201,-1,-1,0,2,0,-1,0,1,6.005
1202,-1,-2,-2,-1,-2,-1,-1,0,6.01
1203,-1,0,1,0,-2,-1,-2,-1,6.015000000000001
1204,-1,-1,-2,-2,-1,0,-3,-1,6.0200000000000005
1205,-1,2,-1,0,0,0,0,-3,6.025
1206,1,-2,-2,-1,-1,-1,0,0,6.03
1207,0,-2,-1,-2,-1,-1,-1,-1,6.035
1208,-1,-2,-2,0,0,-1,1,0,6.04
1209,-1,-1,-1,-3,-2,-3,-3,-3,6.045
1210,-1,0,0,1,-1,0,-4,-2,6.05
1211,1,1,-2,2,-3,-2,6,3,6.055
1212,1,1,0,-1,-3,0,1,-1,6.0600000000000005
1213,-3,-3,-4,-2,0,-1,-7,-4,6.065
1214,-1,-1,0,-3,-1,-3,1,-3,6.07
1215,-2,-4,-1,-1,-1,0,-4,1,6.075
1216,1,0,-1,-4,-3,-2,5,3,6.08
1217,0,1,2,3,0,-2,-5,3,6.085
1218,1,-1,-1,0,-3,-1,6,-3,6.09
1219,-2,-2,-5,-6,-2,-1,-4,0,6.095
1220,-2,-1,-1,-2,-2,-2,-1,-2,6.1000000000000005
1221,0,0,0,-2,-2,-3,-6,-3,6.105
1222,-1,-2,0,-2,0,1,-10,-7,6.11
1223,-2,1,-1,-2,0,1,10,1,6.115
1224,2,2,1,3,1,1,1,4,6.12
1225,6,0,-3,-1,-1,1,13,0,6.125
1226,-7,-2,-1,1,1,3,6,5,6.13
1227,-5,-1,-2,0,-1,-4,-17,-6,6.135
1228,7,0,-2,-5,-1,0,-4,-8,6.140000000000001
1229,1,-6,-3,-4,-2,2,15,11,6.1450000000000005
1230,3,0,-1,1,-1,-1,-8,-1,6.15
1231,2,-1,1,-1,0,1,10,2,6.155
1232,-4,-4,-2,0,0,0,-5,-3,6.16
1233,1,-1,-2,4,2,1,-9,-4,6.165
1234,2,0,1,-4,-2,-1,1,-3,6.17
1235,2,3,6,1,-3,-3,-6,-1,6.175
1236,-1,-5,-6,1,3,1,-5,-4,6.18
1237,-5,-2,1,-1,3,2,8,5,6.1850000000000005
1238,-7,-2,-2,-2,-4,-3,-5,-4,6.19
1239,-5,-3,-3,-2,-2,-3,-10,-7,6.195
1240,0,2,1,1,-3,-2,18,5,6.2
1241,-3,2,-2,-2,-2,-3,-5,-2,6.205
1242,-12,-7,-4,-3,-2,-3,-9,-5,6.21
1243,8,4,0,-1,-1,-1,9,0,6.215
1244,9,2,5,1,1,1,-2,10,6.22
1245,-10,-3,-5,-2,-1,1,4,-2,6.2250000000000005
1246,-3,2,10,7,0,-8,-2,0,6.23
1247,7,4,2,3,5,5,-3,-5,6.235
1248,-5,-3,-6,-3,-1,0,1,0,6.24
1249,6,1,2,2,-1,0,0,-1,6.245
1250,8,2,2,4,-5,-1,-3,-2,6.25
1251,0,-3,-5,-2,6,-1,0,-2,6.255
1252,-5,-2,-1,7,3,-3,-11,-4,6.26
1253,-4,-3,-2,-1,0,-2,-8,-3,6.265000000000001
1254,12,-2,-10,-8,-2,-2,-1,-3,6.2700000000000005
1255,-35,-13,-6,-7,-6,-4,-3,1,6.275
1256,24,11,0,1,0,4,6,2,6.28
1257,0,0,0,-2,0,-2,-7,-2,6.285
1258,-9,4,8,1,-3,-1,2,1,6.29
1259,-17,-8,5,2,-2,-1,-2,-2,6.295
1260,-1,-3,-4,-4,-3,-2,-3,-3,6.3
1261,-7,-2,6,5,-1,-1,-4,-1,6.305
1262,17,7,-6,-3,2,0,1,1,6.3100000000000005
1263,14,6,11,2,-2,-1,-5,-1,6.315
1264,-33,-10,6,9,3,-1,-2,-4,6.32
1265,8,0,-1,1,2,-1,0,3,6.325
1266,6,2,-3,-4,6,2,3,3,6.33
1267,-3,-5,-10,-2,-3,-4,-20,-5,6.335
1268,-1,1,2,-11,-9,-4,2,-4,6.34
1269,14,9,3,8,7,3,4,6,6.345
1270,5,-2,-8,43,16,10,25,7,6.3500000000000005
1271,13,2,2,-29,5,0,-1,-3,6.355
1272,15,7,1,-8,-5,3,-5,2,6.36
1273,-17,-8,-3,-11,-7,-4,-8,-5,6.365
1274,-3,-5,-5,-11,-8,2,-4,2,6.37
1275,-18,-7,0,74,22,4,6,-2,6.375
1276,16,7,0,-38,-15,-9,-3,3,6.38
1277,8,-4,-12,-22,-16,-1,4,0,6.385
1278,-9,1,6,3,-3,-4,-9,-3,6.390000000000001
1279,5,1,-6,-4,2,2,6,1,6.3950000000000005
1280,-5,-2,-1,23,11,4,1,2,6.4
1281,10,5,2,-3,-4,0,4,8,6.405
1282,-21,-7,-6,-18,-7,-5,-10,-15,6.41
1283,3,2,-2,-8,-2,-1,4,6,6.415
1284,19,1,-2,28,10,0,-1,-4,6.42
1285,-12,-10,-2,-37,-14,-2,2,4,6.425
1286,14,-1,-10,-8,-1,0,2,6,6.43
1287,18,5,-1,10,5,5,-1,8,6.4350000000000005
1288,-23,-3,0,-10,-5,-7,-5,-11,6.44
1289,13,6,2,-11,-2,1,2,2,6.445
1290,-4,-2,1,8,11,3,-2,0,6.45
1291,-3,-8,-2,-42,-34,-9,-4,3,6.455
1292,-9,5,-2,6,3,-2,-2,0,6.46
1293,-24,-5,-13,13,3,-4,-6,-9,6.465
1294,19,-2,1,-1,-17,-4,1,1,6.47
1295,-4,1,3,-6,1,-2,1,0,6.4750000000000005
1296,-4,-10,-2,-5,-3,-1,-12,-2,6.48
1297,0,7,3,12,7,2,9,-5,6.485
1298,2,3,3,0,4,0,-11,-1,6.49
1299,-2,-1,6,25,9,2,0,-11,6.495
1300,7,0,-2,-20,-13,0,20,14,6.5
1301,-22,-4,2,20,8,3,-5,-6,6.505
1302,13,-3,-10,-34,-12,-9,-5,-1,6.51
1303,5,2,-6,0,12,5,4,2,6.515000000000001
1304,-28,-8,8,-17,-4,-4,-18,-20,6.5200000000000005
1305,-2,-3,-4,10,1,-2,5,5,6.525
1306,-24,-6,1,-31,-15,-6,-3,-4,6.53
1307,9,-1,-6,6,-6,-3,13,4,6.535
1308,3,-1,-1,30,17,0,-12,-2,6.54
1309,11,3,0,-30,-21,-11,-14,-9,6.545
1310,-6,1,-2,16,15,3,5,-1,6.55
1311,-3,-7,-3,-14,-16,-7,2,2,6.555
1312,-9,-2,-4,48,14,5,20,1,6.5600000000000005
1313,-4,0,3,-39,-22,-2,-6,-1,6.565
1314,-26,-15,1,0,-4,5,3,-3,6.57
1315,-1,4,-5,-26,-26,-6,-19,-4,6.575
1316,25,6,-9,14,16,4,11,4,6.58
1317,17,3,7,56,25,3,-5,3,6.585
1318,-3,-3,-9,-24,-11,0,-2,-2,6.59
1319,-24,-13,0,5,-5,1,6,0,6.595
1320,-24,-8,-5,-10,3,-3,0,0,6.6000000000000005
1321,7,5,-3,-26,5,7,6,2,6.605
1322,-6,-1,4,27,10,-5,-13,-10,6.61
1323,41,6,-5,-14,-8,6,27,19,6.615
1324,-20,0,-2,18,11,3,-7,-5,6.62
1325,24,-6,-5,9,3,2,6,8,6.625
1326,10,2,-7,22,24,1,-8,-15,6.63
1327,-23,2,8,-7,2,-10,-8,-10,6.635
1328,8,-8,-10,-31,-17,-3,-3,2,6.640000000000001
1329,14,3,-5,-6,-7,-5,-3,3,6.6450000000000005
1330,2,6,13,66,23,6,6,8,6.65
1331,-17,-11,-20,-47,-25,-1,6,1,6.655
1332,-5,-3,1,-72,-43,-13,-17,-8,6.66
1333,-2,-6,-6,31,17,-6,-8,-11,6.665
1334,-4,-7,-7,-2,-7,-5,-2,4,6.67
1335,6,8,2,27,20,10,13,9,6.675
1336,29,0,7,0,-1,1,-2,7,6.68
1337,-9,6,8,-5,-8,-3,-9,-10,6.6850000000000005
1338,2,-2,-1,-40,-25,-5,9,8,6.69
1339,15,5,7,12,10,-2,-14,-8,6.695
1340,-2,-5,-8,-9,-9,4,5,2,6.7
1341,-7,3,13,30,12,-5,-7,-7,6.705
1342,-3,-4,-3,-56,-33,-2,4,6,6.71
1343,1,1,4,11,7,-1,-12,-8,6.715
1344,0,6,9,9,1,-1,1,1,6.72
1345,-19,-10,-8,-26,-7,-2,0,-3,6.7250000000000005
1346,2,9,14,42,9,-6,-6,0,6.73
1347,3,3,6,5,0,0,-5,-5,6.735
1348,-15,-6,1,4,3,2,2,-1,6.74
1349,2,1,-2,5,14,4,6,3,6.745
1350,8,5,0,-11,-3,-2,-4,-2,6.75
1351,-7,-11,-8,13,3,2,-1,-2,6.755
1352,3,4,9,57,31,2,-1,0,6.76
1353,0,2,-5,-33,-24,-2,-3,2,6.765000000000001
1354,9,0,-12,17,16,6,2,-1,6.7700000000000005
1355,-13,-10,5,-40,-38,-12,-6,-4,6.775
1356,23,7,-7,10,7,3,0,4,6.78
1357,-10,-5,-5,16,-1,1,2,-3,6.785
1358,4,9,12,-10,-11,1,1,1,6.79
1359,0,-2,-9,25,11,6,0,0,6.795
1360,-9,-1,4,-14,-3,-2,-4,-3,6.8
1361,-7,-3,4,-16,-12,-5,-3,-2,6.805
1362,-9,-4,-8,-18,-2,-1,4,0,6.8100000000000005
1363,3,5,0,4,6,-3,-4,-4,6.815
1364,-2,0,-1,2,-5,-2,-1,-1,6.82
1365,-3,-2,1,18,12,3,3,4,6.825
1366,-6,-5,-2,-8,-1,0,2,-6,6.83
1367,-5,0,-6,8,17,-1,1,-2,6.835
1368,-1,-3,-6,-10,-9,0,-1,0,6.84
1369,1,2,3,3,-2,1,-2,1,6.845
1370,-6,-5,-4,12,7,0,-6,0,6.8500000000000005
1371,4,1,1,4,17,1,15,10,6.855
1372,4,-3,0,-20,-6,0,2,-2,6.86
1373,16,3,0,7,8,2,8,11,6.865
1374,3,2,0,-8,-7,-9,-6,-4,6.87
1375,-5,2,-4,-4,-2,0,-7,-5,6.875
1376,-2,0,0,21,9,-1,-2,0,6.88
1377,-8,-5,1,-35,-22,-3,-1,-8,6.885
1378,-4,-4,-3,3,7,-1,-1,1,6.890000000000001
1379,4,0,1,5,2,-2,-4,0,6.8950000000000005
1380,-5,-3,-8,-13,-10,-8,-1,-3,6.9
1381,-5,-7,-5,6,2,-1,-3,-6,6.905
1382,-3,-1,0,11,8,1,1,0,6.91
1383,-6,-3,-5,-31,-19,-7,-6,-7,6.915
1384,0,0,2,10,5,-2,-3,-3,6.92
1385,-6,-1,-3,8,7,1,-1,-3,6.925
1386,8,2,0,-4,-7,2,4,4,6.93
1387,1,3,3,4,0,-3,-3,0,6.9350000000000005
1388,1,0,1,0,2,2,1,1,6.94
1389,-2,-4,-4,1,2,1,0,-2,6.945
1390,-5,5,7,11,5,0,1,-1,6.95
1391,-10,-6,-6,-13,-12,-2,-4,-4,6.955
1392,-5,-5,1,-5,-4,0,0,0,6.96
1393,4,5,4,3,3,1,2,1,6.965
1394,1,-3,3,1,-2,0,-1,-3,6.97
1395,1,-6,-7,-1,2,-1,3,0,6.9750000000000005
1396,-7,-2,-4,-9,-6,-2,3,4,6.98
1397,0,-2,-3,2,-4,-4,-7,-2,6.985
1398,-1,0,3,-3,-2,0,1,1,6.99
1399,3,3,7,8,0,3,1,0,6.995
1400,0,-4,-6,-12,-3,-3,1,-2,7.0
1401,-2,-1,0,7,1,0,-1,-1,7.005
1402,-1,0,0,-5,-4,0,-6,-1,7.01
1403,-1,-2,0,2,1,1,4,3,7.015000000000001
1404,0,-1,-2,-2,-3,-2,-1,-2,7.0200000000000005
1405,-1,0,-1,0,-1,-4,0,-2,7.025
1406,-5,0,1,-5,-3,1,1,0,7.03
1407,2,4,2,4,1,0,-2,0,7.035
1408,-1,-1,0,-4,-4,-1,-3,-2,7.04
1409,-2,-1,-2,-1,-3,-1,-3,-3,7.045
1410,1,0,-2,1,-1,-1,0,0,7.05
1411,0,0,0,5,2,-2,-3,-2,7.055
1412,-2,0,0,-2,-2,0,1,0,7.0600000000000005
1413,-2,-4,-3,1,-1,0,-3,-3,7.065
1414,2,0,-1,1,-1,-1,2,-1,7.07
1415,1,1,-4,-3,-1,-2,-3,-2,7.075
1416,-1,2,4,-4,-3,-2,-1,-2,7.08
1417,-1,-3,-2,-3,-1,-1,1,0,7.085
1418,-2,-2,-4,-4,-1,-1,1,0,7.09
1419,-2,0,1,4,2,-2,-3,0,7.095
1420,-1,1,-2,3,-2,1,-2,-2,7.1000000000000005
1421,-1,0,1,5,1,1,-2,-2,7.105
1422,1,-1,0,-1,-1,0,8,2,7.11
1423,0,0,3,1,0,0,-1,-2,7.115
1424,2,1,3,1,2,1,-1,1,7.12
1425,-2,-1,-6,-5,-1,-2,0,-1,7.125
1426,-2,-3,-3,-6,-4,0,-3,0,7.13
1427,-1,-2,-3,-4,-4,1,-1,0,7.135
1428,-1,-2,-1,-3,-1,0,-1,-2,7.140000000000001
1429,0,0,1,1,0,-1,-1,1,7.1450000000000005
1430,0,-2,1,0,1,-2,1,-2,7.15
1431,1,-1,-1,1,0,0,-1,-2,7.155
1432,-1,0,-2,-4,-4,-2,0,-1,7.16
1433,-3,-1,0,-4,-4,0,-3,-2,7.165
1434,0,0,-3,-2,-2,-3,-2,0,7.17
1435,1,1,0,-4,-2,-1,-2,0,7.175
1436,-1,-1,-2,1,0,0,-2,0,7.18
1437,-1,1,2,1,1,2,2,3,7.1850000000000005
1438,-2,-1,-4,0,-2,-3,-3,-2,7.19
1439,0,0,1,3,-1,0,3,1,7.195
1440,-2,-4,-5,-1,-2,-1,-2,-2,7.2
1441,-1,-2,-7,-6,-1,-2,-2,-1,7.205
1442,-2,-1,0,1,-1,0,-1,2,7.21
1443,-1,2,4,4,0,0,-4,-2,7.215
1444,-1,-2,-5,-2,-1,0,0,0,7.22
1445,-1,2,1,-2,-3,-1,1,-1,7.2250000000000005
1446,2,1,0,1,3,-2,-2,-1,7.23
1447,-2,-5,-2,-1,0,-1,0,-2,7.235
1448,0,2,1,3,-1,-2,0,1,7.24
1449,0,0,-1,3,0,1,0,-1,7.245
1450,-1,-2,-3,-3,-3,0,-6,-3,7.25
1451,1,0,2,-3,-2,0,7,2,7.255
1452,-1,-1,-1,3,0,-2,-1,-3,7.26
1453,1,-1,-3,0,-1,-3,0,1,7.265000000000001
1454,-2,-2,-2,-1,-1,0,-1,-2,7.2700000000000005
1455,-1,-1,1,-2,0,1,-3,-1,7.275
1456,-2,0,0,-3,-1,-1,0,0,7.28
1457,-4,-1,-2,2,-1,-1,-1,-2,7.285
1458,0,-2,-1,-3,-1,1,0,-1,7.29
1459,-2,-3,-3,-2,-1,-2,-3,-2,7.295
1460,0,0,1,-1,-1,1,-1,0,7.3
1461,-1,-2,1,0,-2,-2,-1,-1,7.305
1462,-2,0,0,0,-2,-1,1,1,7.3100000000000005
1463,0,0,-2,1,0,-1,2,-1,7.315
1464,-1,-2,-3,-3,-2,-2,-2,0,7.32
1465,0,1,2,-1,2,1,0,0,7.325
1466,-1,-1,-3,-3,-1,-2,-1,-1,7.33
1467,-2,-2,2,1,-2,0,-4,-1,7.335
1468,-2,-4,-6,-2,1,0,-1,-2,7.34
1469,-1,-1,-2,-2,1,1,-1,-1,7.345
1470,0,0,2,3,1,0,2,1,7.3500000000000005
1471,-1,-1,-1,-2,-3,-2,-1,0,7.355
1472,-2,-5,-8,-7,-3,-2,-2,-2,7.36
1473,0,1,3,1,-1,-2,0,1,7.365
1474,-1,0,-3,-1,0,0,1,0,7.37
1475,-1,2,-4,-1,0,-3,-1,0,7.375
1476,-1,-2,4,2,-1,-1,0,0,7.38
1477,0,1,0,1,0,0,1,0,7.385
1478,-1,0,0,-1,-1,1,0,-2,7.390000000000001
1479,-1,0,-2,0,1,0,1,2,7.3950000000000005
1480,-2,1,2,0,-1,1,0,0,7.4
1481,-2,-3,-2,0,-1,-3,-3,-2,7.405
1482,-1,-1,2,0,-1,-1,-2,0,7.41
1483,-1,-4,-5,-1,0,-1,0,0,7.415
1484,-1,0,4,2,-1,-1,-1,-1,7.42
1485,-1,-4,-7,-3,-1,-2,0,-1,7.425
1486,-4,0,-1,2,0,-1,0,-1,7.43
1487,0,2,-2,-5,-2,-1,-3,-1,7.4350000000000005
1488,0,-1,1,-2,-4,-1,-1,-1,7.44
1489,0,1,5,2,2,2,-1,2,7.445
1490,0,-1,-2,-2,-2,0,-1,-1,7.45
1491,-3,0,-1,2,1,-1,-2,-2,7.455
1492,-1,2,1,0,0,-1,1,-1,7.46
1493,0,2,4,-1,-1,0,-1,0,7.465
1494,-1,-6,-9,-5,-2,-2,-2,-1,7.47
1495,-1,0,2,-1,-1,-2,-5,-3,7.4750000000000005
1496,0,2,0,-3,1,2,6,2,7.48
1497,-3,-1,0,0,-2,-4,-2,-2,7.485
1498,0,1,1,1,-1,-2,-1,0,7.49
1499,0,-3,-2,0,0,1,0,-1,7.495
1500,-1,-2,-1,-1,-1,0,-1,-1,7.5
1501,-3,-3,-4,-3,0,-2,-1,-3,7.505
1502,-1,1,2,1,0,0,1,-2,7.51
1503,-1,-3,-4,-3,1,1,0,0,7.515000000000001
1504,-1,0,-1,1,0,0,-4,-1,7.5200000000000005
1505,0,-2,-2,0,-2,1,2,1,7.525
1506,-1,0,1,-1,-2,0,0,0,7.53
1507,0,0,-1,-1,-1,-1,-1,-1,7.535
1508,-1,-1,-1,-2,0,0,-4,-2,7.54
1509,0,2,1,1,-1,-1,0,0,7.545
1510,2,-1,0,1,2,1,0,-2,7.55
1511,0,-4,-4,0,-2,-1,-2,-1,7.555
1512,0,1,0,-1,-1,-1,4,0,7.5600000000000005
1513,1,2,-1,-1,-1,0,-5,-2,7.565
1514,0,2,0,-1,0,-1,-1,-1,7.57
1515,-1,1,0,0,-1,-1,-1,-1,7.575
1516,-1,-1,-2,0,-1,-4,-3,-2,7.58
1517,0,0,-2,0,-1,1,2,1,7.585
1518,0,0,2,0,-1,0,1,0,7.59
1519,0,0,1,-1,-1,-1,0,-1,7.595
1520,-2,-2,-1,-1,-1,0,1,-1,7.6000000000000005
1521,0,1,2,0,0,-1,0,-1,7.605
1522,-2,-4,-4,-2,-2,-3,-2,-2,7.61
1523,0,0,1,2,0,0,2,-1,7.615
1524,-1,-1,0,-2,-2,-1,0,0,7.62
1525,-4,-4,-9,-4,-3,-1,1,-1,7.625
1526,-1,-1,-3,-3,-2,0,0,-1,7.63
1527,0,0,2,0,0,0,0,-2,7.635
1528,-1,-1,0,0,0,-1,-1,-1,7.640000000000001
1529,0,0,1,0,0,-1,1,0,7.6450000000000005
1530,-1,-2,-2,-2,0,-2,-1,0,7.65
1531,-1,0,-1,0,0,-2,0,-2,7.655
1532,-1,-1,0,0,-1,0,-2,-1,7.66
1533,-1,-2,-1,-1,-1,0,1,-1,7.665
1534,1,1,3,0,-1,-1,0,0,7.67
1535,-1,-1,2,-1,-1,-1,-3,0,7.675
1536,-2,-4,-9,-5,-2,-3,1,-1,7.68
1537,0,1,-1,0,0,0,-2,-2,7.6850000000000005
1538,-1,-1,-2,0,0,-1,-1,0,7.69
1539,0,-1,0,0,-1,0,-1,0,7.695
1540,1,1,1,0,2,-1,0,0,7.7
1541,-2,-2,1,-1,0,-1,-3,-2,7.705
1542,-2,-1,-2,-1,-2,-1,0,-1,7.71
1543,-1,-1,-1,0,-2,-2,-1,-1,7.715
1544,-1,0,-1,1,-3,-1,-3,-1,7.72
1545,0,-1,1,1,0,-2,-1,0,7.7250000000000005
1546,-1,-2,-1,1,-1,-1,0,-1,7.73
1547,0,0,-2,-3,-1,1,-1,0,7.735
1548,0,1,0,-1,-1,2,-1,0,7.74
1549,-1,-1,-1,-1,-1,-2,-1,-2,7.745
1550,-1,-1,-1,-2,0,-2,0,0,7.75
1551,-1,-4,-2,-2,0,-1,0,1,7.755
1552,1,0,0,1,0,0,-1,1,7.76
1553,1,-2,-2,-3,-1,-1,0,-1,7.765000000000001
1554,1,-1,-1,0,-1,1,0,-1,7.7700000000000005
1555,-1,1,1,1,-2,0,-1,0,7.775
1556,-1,-2,-4,-1,0,-2,-3,-3,7.78
1557,-1,-2,-4,-5,-2,-1,-1,1,7.785
1558,-1,-1,0,0,-1,-3,-3,-2,7.79
1559,-1,-1,-3,0,-1,0,-1,-2,7.795
1560,-1,-1,3,4,-1,-1,-1,-1,7.8
1561,0,1,3,1,0,0,0,-1,7.805000000000001
1562,0,-2,-1,-2,-1,-3,-3,0,7.8100000000000005
1563,0,2,1,0,-1,0,0,1,7.815
1564,-1,0,-1,-4,-2,-1,-1,0,7.82
1565,0,0,2,2,0,1,-1,-1,7.825
1566,-2,-1,-4,-3,1,0,2,1,7.83
1567,-2,0,-1,0,-2,-5,-4,-1,7.835
1568,0,0,1,-4,-2,-1,1,-1,7.84
1569,-4,-4,-7,-1,1,0,-2,-2,7.845
1570,-1,1,1,-3,-2,-1,1,0,7.8500000000000005
1571,0,-1,-1,-1,-2,-1,1,-1,7.855
1572,-1,-2,-2,0,-1,0,-1,-1,7.86
1573,-1,2,5,1,-1,-1,-1,1,7.865
1574,0,-1,-1,-1,0,0,0,-2,7.87
1575,-4,-2,-5,-3,0,1,-1,-2,7.875
1576,0,0,0,0,0,-1,-1,0,7.88
1577,-1,0,0,-1,0,0,-1,-1,7.885
1578,-1,0,4,-1,-2,0,-2,0,7.890000000000001
1579,0,-1,2,1,-1,0,2,-1,7.8950000000000005
1580,-3,-4,-8,-1,-3,-1,-4,-4,7.9
1581,-1,-2,-1,-1,0,0,0,0,7.905
1582,-1,0,-2,-1,0,-1,0,-2,7.91
1583,-1,1,0,-1,0,-2,-2,-1,7.915
1584,0,-1,1,-1,0,-2,2,1,7.92
1585,2,1,3,3,1,0,0,0,7.925
1586,-4,-5,-7,0,0,1,-3,-3,7.930000000000001
1587,-1,0,1,-1,1,1,0,0,7.9350000000000005
1588,-2,-1,-1,-1,0,0,1,-1,7.94
1589,0,0,-2,-3,-5,-1,-2,-2,7.945
1590,1,0,1,2,0,0,-2,2,7.95
1591,1,-2,-4,-3,0,-1,-2,-2,7.955
1592,-1,0,0,0,-1,2,1,1,7.96
1593,-2,-1,-2,-1,0,-1,-3,-1,7.965
1594,-2,-1,-2,0,0,0,-2,-1,7.97
1595,1,0,-1,-2,0,-2,-1,0,7.9750000000000005
1596,1,0,0,1,-1,-2,0,0,7.98
1597,-2,-1,-2,-2,-1,1,0,0,7.985
1598,-1,1,1,1,-2,0,0,-2,7.99
1599,-1,-2,-1,0,-2,0,1,-2,7.995
1600,-1,-1,1,-1,1,-2,-1,-3,8.0
1601,1,0,-2,1,-1,-2,0,-2,8.005
1602,-1,-3,-3,-5,-2,0,-1,-1,8.01
1603,-1,0,0,-1,-2,-2,-2,0,8.015
1604,-1,-2,-1,-2,0,-1,-2,0,8.02
1605,-2,-1,0,0,0,-1,0,0,8.025
1606,1,-1,1,-1,0,-1,0,-1,8.03
1607,-2,-1,-4,-1,-1,-1,0,1,8.035
1608,-1,-1,0,-2,-1,0,0,-1,8.040000000000001
1609,0,-2,-2,0,0,-1,-2,-2,8.045
1610,-1,-1,-2,0,0,0,0,1,8.05
1611,0,-2,2,-1,-2,0,0,0,8.055
1612,1,0,2,1,0,-1,-1,-2,8.06
1613,0,-3,0,-2,-2,0,1,-1,8.065
1614,-1,-3,0,-1,-1,-2,-1,-1,8.07
1615,0,-1,0,0,0,2,0,-2,8.075
1616,-1,-1,-3,0,-2,-1,0,1,8.08
1617,0,0,-2,-1,-1,-1,-1,1,8.085
1618,0,-2,-2,1,-1,-1,-2,-2,8.09
1619,-2,-2,-5,-4,-1,-3,0,-1,8.095
1620,-1,0,0,0,-2,-1,-1,-1,8.1
1621,0,-2,-2,2,1,-1,1,0,8.105
1622,1,3,1,0,0,1,-1,-1,8.11
1623,0,-2,-4,-3,-3,-1,-2,-1,8.115
1624,-1,-1,-4,-3,-2,0,0,-1,8.120000000000001
1625,1,0,1,0,0,0,0,1,8.125
1626,-2,-1,1,-2,-1,-1,0,-1,8.13
1627,-3,-3,-1,0,-1,-1,-2,-1,8.135
1628,-1,-1,2,-1,1,-1,-1,1,8.14
1629,-1,-1,-2,-1,-1,-1,-1,-2,8.145
1630,-1,0,2,-2,-1,-1,1,0,8.15
1631,0,1,2,1,-1,-1,0,1,8.155
1632,-2,1,-2,0,-1,-3,-1,-2,8.16
1633,-2,-1,0,-1,-1,0,-2,-1,8.165000000000001
1634,-2,-3,0,-1,0,-1,-1,1,8.17
1635,0,-1,0,2,0,-1,-2,-1,8.175
1636,0,0,-1,1,-1,2,2,2,8.18
1637,-2,-3,-5,-3,-2,-3,-1,-3,8.185
1638,-1,-1,-3,-1,0,-2,1,-2,8.19
1639,-1,2,1,2,-1,0,-1,-1,8.195
1640,-2,-2,0,-1,3,-2,-2,-3,8.2
1641,-1,0,0,1,-2,-1,-1,0,8.205
1642,-2,-2,-1,1,-2,-1,-1,-1,8.21
1643,0,-1,-2,0,-1,0,0,-2,8.215
1644,1,-1,-1,0,0,1,-1,0,8.22
1645,-1,0,0,0,0,0,-2,-1,8.225
1646,2,1,0,-1,1,-1,0,1,8.23
1647,-1,-1,-3,-6,-2,-3,-1,-1,8.235
1648,-3,-4,-9,-5,-3,-1,-1,-2,8.24
1649,-1,0,-1,-1,-2,1,-1,1,8.245000000000001
1650,2,0,1,2,-1,0,-2,-2,8.25
1651,-1,0,0,2,1,0,3,1,8.255
1652,-2,-1,0,-1,-1,-1,-2,-1,8.26
1653,-2,0,-1,-1,1,-1,0,-1,8.265
1654,-1,1,-3,-1,-2,-2,-1,-1,8.27
1655,-2,-1,-2,0,0,-1,-1,0,8.275
1656,0,-1,0,1,0,0,0,0,8.28
1657,0,1,-3,-1,-1,-1,0,0,8.285
1658,-1,1,-3,-2,-2,0,0,-2,8.290000000000001
1659,0,0,1,-1,0,-1,0,-2,8.295
1660,-2,0,0,-2,-3,0,-1,0,8.3
1661,-2,-3,-5,-3,-1,-1,-1,-4,8.305
1662,1,1,-2,-3,-3,-2,-1,-1,8.31
1663,-2,-1,-3,0,-2,0,-3,-1,8.315
1664,-1,-1,1,0,0,-2,-1,-1,8.32
1665,0,0,2,0,-2,-1,1,1,8.325
1666,-2,-2,0,-2,-1,-1,1,-1,8.33
1667,-1,-1,1,-1,-1,0,0,-1,8.335
1668,-1,-1,0,-1,0,-1,1,-1,8.34
1669,-2,-1,0,-1,-1,-2,1,1,8.345
1670,-1,-1,0,0,-1,-1,-1,-1,8.35
1671,1,-1,0,0,-2,0,-2,0,8.355
1672,1,0,0,0,-2,0,-2,0,8.36
1673,-1,0,0,-2,0,0,-1,-1,8.365
1674,1,1,3,1,1,2,-2,0,8.370000000000001
1675,-2,-1,-4,-2,-1,-1,-1,-2,8.375
1676,0,-2,-4,-1,1,0,-1,-1,8.38
1677,0,0,0,0,0,0,1,0,8.385
1678,-2,-6,-7,-2,0,-3,-3,-3,8.39
1679,-1,-1,-1,-3,-3,0,0,-2,8.395
1680,-1,1,1,2,-1,1,-1,1,8.4
1681,0,0,-2,-1,1,-1,-2,-2,8.405
1682,0,0,0,-1,0,0,-1,0,8.41
1683,-1,-1,0,2,0,-2,-1,-1,8.415000000000001
1684,-2,-2,-1,-1,-1,-1,-2,-2,8.42
1685,0,-2,2,-1,-2,-1,-1,-1,8.425
1686,-1,-1,0,-1,-1,-1,-1,0,8.43
1687,-1,-1,-1,-1,0,-1,2,1,8.435
1688,-2,1,1,-2,-1,-1,1,-1,8.44
1689,-2,0,-1,-2,-1,-2,-1,-3,8.445
1690,-1,-2,-3,-1,0,-3,-2,-2,8.45
1691,1,0,0,0,-1,-1,-2,-1,8.455
1692,-1,1,3,-1,-1,-2,-1,-1,8.46
1693,-2,-2,-6,-1,-2,-1,-2,-2,8.465
1694,-2,-1,-3,-3,-2,-1,0,-1,8.47
1695,1,-2,2,1,0,0,-1,0,8.475
1696,-1,-3,-6,-3,-2,-1,0,-2,8.48
1697,-1,-1,-3,0,0,-1,-1,0,8.485
1698,0,0,0,-1,-2,2,0,1,8.49
1699,0,-1,0,2,0,0,1,0,8.495000000000001
1700,-1,-2,-3,-2,-1,-1,1,-1,8.5
1701,0,-1,1,1,0,0,0,0,8.505
1702,-1,-1,-2,0,-1,0,-1,-2,8.51
1703,0,-2,1,-1,0,0,0,-1,8.515
1704,1,-1,-2,-1,-2,-1,0,1,8.52
1705,-1,0,1,0,-1,-1,-4,-2,8.525
1706,-2,-1,0,-1,-1,0,-2,-2,8.53
1707,-3,-1,0,-1,1,-2,0,-1,8.535
1708,-2,-2,-2,-1,-1,-1,0,-2,8.540000000000001
1709,0,0,0,0,-2,0,0,1,8.545
1710,-1,-1,-2,-1,-2,-1,-1,-1,8.55
1711,-1,-1,-2,0,1,0,-1,-2,8.555
1712,-1,-1,-3,-3,0,-1,-2,-1,8.56
1713,1,-1,0,-2,-2,-1,-2,1,8.565
1714,-2,0,-1,-2,-1,0,-1,0,8.57
1715,0,-1,-5,-1,-2,-3,-3,-1,8.575000000000001
1716,0,0,2,-2,-1,0,0,1,8.58
1717,0,0,1,2,1,-1,1,-1,8.585
1718,-1,-1,-1,-1,2,0,0,1,8.59
1719,-2,-1,-1,-4,-2,-1,1,-1,8.595
1720,-2,0,4,2,0,-1,1,-1,8.6
1721,0,-1,-2,-1,-2,0,-1,-3,8.605
1722,1,1,1,3,0,1,-2,-2,8.61
1723,-2,-2,-3,-2,-2,-1,-1,-1,8.615
1724,-1,0,-4,1,-1,-1,-1,-2,8.620000000000001
1725,0,-1,1,-2,-1,-1,0,-1,8.625
1726,1,-2,-1,-1,-1,-1,-1,-3,8.63
1727,0,-2,0,-1,0,1,0,-1,8.635
1728,-2,-1,0,-2,-1,-2,-2,-3,8.64
1729,0,-1,-2,0,-3,0,-1,0,8.645
1730,-3,0,-1,-2,-3,-1,-2,0,8.65
1731,-2,-1,-1,2,-1,-2,-2,0,8.655
1732,0,-1,1,0,0,-1,0,0,8.66
1733,-1,0,0,0,0,1,1,0,8.665000000000001
1734,-1,-1,0,-1,0,-2,0,-3,8.67
1735,-2,-2,-7,-4,-3,-2,-2,-3,8.675
1736,1,1,1,0,-3,2,0,0,8.68
1737,-1,0,-1,0,-1,-2,-1,-1,8.685
1738,-1,-2,-3,-2,-1,-2,0,1,8.69
1739,-1,1,0,3,0,0,-1,-2,8.695
1740,0,1,-2,-3,-1,1,-1,-1,8.700000000000001
1741,-1,-1,-4,-3,-2,-1,-2,-2,8.705
1742,0,2,1,-1,-1,1,-1,0,8.71
1743,0,-1,1,1,1,2,1,0,8.715
1744,-1,0,-1,-1,1,-1,-1,0,8.72
1745,-1,1,0,1,1,-1,-1,-3,8.725
1746,-2,-1,-3,-1,-2,-1,0,-2,8.73
1747,0,-2,1,0,0,-1,0,-2,8.735
1748,-1,0,-1,1,-1,-1,-2,-1,8.74
1749,-2,-1,-1,-2,0,-1,1,1,8.745000000000001
1750,-1,-2,-1,0,-1,0,-1,-2,8.75
1751,1,3,3,0,-1,0,0,1,8.755
1752,-2,-3,-1,1,0,-1,0,-1,8.76
1753,-2,-3,-2,-2,-2,-1,-1,1,8.765
1754,0,-1,-3,-2,-1,-1,0,2,8.77
1755,0,-1,0,-3,-2,-3,1,-1,8.775
1756,-1,-1,-1,-1,0,-2,-3,-3,8.78
1757,-2,-2,-2,1,0,1,-1,0,8.785
1758,-1,0,-1,1,-1,-1,0,1,8.790000000000001
1759,-2,-1,-4,-3,-1,-1,-2,-1,8.795
1760,-1,1,-1,1,-2,-2,1,0,8.8
1761,-1,1,0,-1,-2,-1,-1,-1,8.805
1762,-1,-2,-4,-3,-1,-1,-3,-2,8.81
1763,-2,-1,0,-3,-1,1,-2,-1,8.815
1764,-2,-1,0,-3,-1,1,-3,-3,8.82
1765,2,-1,0,0,0,-1,0,-1,8.825000000000001
1766,0,0,-1,-1,-2,-3,-2,-1,8.83
1767,-1,-1,-1,-1,-3,-2,0,0,8.835
1768,0,-3,-2,-1,-1,0,0,1,8.84
1769,-1,-2,-1,-1,-2,-2,0,0,8.845
1770,-1,-1,0,1,0,-2,1,-1,8.85
1771,0,-1,-2,0,-1,-1,-2,-1,8.855
1772,0,-2,2,1,1,0,1,0,8.86
1773,-2,-1,-2,-1,-1,-2,0,-1,8.865
1774,-1,-2,-2,-1,-1,-1,-1,-1,8.870000000000001
1775,-1,1,-1,-1,-2,0,-1,0,8.875
1776,-2,0,1,1,1,-1,-2,-2,8.88
1777,-2,-1,-4,-3,0,-1,-1,-1,8.885
1778,1,0,2,0,-1,0,0,0,8.89
1779,-1,0,-1,1,1,1,-2,0,8.895
1780,0,0,-1,-2,-2,1,1,-1,8.9
1781,-1,0,0,-1,0,-1,-1,0,8.905
1782,-1,3,7,3,-1,-1,0,-1,8.91
1783,0,-3,-1,-1,0,0,0,-1,8.915000000000001
1784,-1,-2,-2,-1,0,-1,-1,-1,8.92
1785,1,2,4,4,1,1,-1,-1,8.925
1786,-1,-2,0,-4,-2,0,0,-1,8.93
1787,1,2,-2,0,-2,-2,-2,-1,8.935
1788,-2,-1,-4,-2,0,-2,-1,-1,8.94
1789,-1,0,2,1,1,0,1,-1,8.945
1790,-1,-1,-1,0,1,-1,-1,-1,8.950000000000001
1791,-2,-1,0,-1,-1,0,0,-1,8.955
1792,1,1,-3,-2,-1,1,1,1,8.96
1793,0,-2,0,-1,-3,-2,-4,-2,8.965
1794,-2,-2,-4,-2,0,-2,-1,-2,8.97
1795,0,0,-1,-1,-1,-1,-1,0,8.975
1796,-1,0,1,1,-2,-3,-1,1,8.98
1797,-2,-3,-1,-1,-1,1,1,-1,8.985
1798,0,-2,-4,0,-2,0,1,-2,8.99
1799,-1,1,2,1,1,-2,0,-1,8.995000000000001
1800,-1,-1,-1,-1,-1,1,0,-1,9.0
1801,-1,-1,-2,-1,-2,0,-1,-1,9.005
1802,-2,-1,-1,0,-1,0,-5,1,9.01
1803,-3,-2,1,1,0,-1,-2,-2,9.015
1804,1,0,-1,0,0,-4,-1,0,9.02
1805,-1,-2,-3,-3,-1,-1,2,0,9.025
1806,1,1,1,-1,-1,-1,0,0,9.03
1807,-1,-1,-1,0,-3,0,-2,0,9.035
1808,-1,0,2,1,1,-1,-2,0,9.040000000000001
1809,0,-4,-9,-8,-4,-2,-1,0,9.045
1810,-1,-3,-2,0,0,-1,3,0,9.05
1811,-1,-1,-1,-4,-1,0,0,-1,9.055
1812,1,0,0,0,-2,-1,-1,-3,9.06
1813,0,2,4,1,1,-1,-2,1,9.065
1814,-1,-1,-1,1,-1,-1,-1,0,9.07
1815,0,-1,-2,0,0,-1,-1,2,9.075000000000001
1816,1,1,1,1,0,-1,0,-2,9.08
1817,-2,-1,-2,-3,1,-1,0,-1,9.085
1818,-1,0,-1,1,0,0,-1,-1,9.09
1819,0,0,3,0,0,1,1,0,9.095
1820,-3,-2,-2,0,0,-1,-2,0,9.1
1821,-2,0,0,0,0,-1,-1,-1,9.105
1822,0,-1,-1,-1,0,-1,-1,-1,9.11
1823,-1,-2,-2,-2,-2,-2,0,-1,9.115
1824,-1,-1,-2,-2,0,0,1,0,9.120000000000001
1825,0,0,2,1,-1,0,-2,-1,9.125
1826,-3,-2,-2,-1,-2,-2,-4,-2,9.13
1827,-1,-1,-1,1,0,0,0,-2,9.135
1828,-1,-3,-5,-4,-1,-1,-2,-2,9.14
1829,0,-1,0,-1,-1,-1,-1,0,9.145
1830,0,-2,-2,-3,-1,-2,0,0,9.15
1831,-1,-1,0,1,-1,0,-1,-1,9.155
1832,-2,-1,0,0,0,-1,-1,-1,9.16
1833,-2,-3,-3,0,-2,0,-1,-1,9.165000000000001
1834,0,0,-1,-2,0,-1,0,0,9.17
1835,0,-2,-2,-2,-1,-1,-1,-1,9.175
1836,0,-3,0,-1,-1,2,1,1,9.18
1837,0,-2,-1,1,0,-1,-1,-1,9.185
1838,-1,-2,-2,-3,-3,-1,-1,-1,9.19
1839,1,-2,-2,-2,0,-1,0,0,9.195
1840,0,0,1,0,-1,-2,-2,0,9.200000000000001
1841,-1,-1,-2,-4,-3,-1,0,0,9.205
1842,0,-2,-1,-1,0,-1,-1,0,9.21
1843,0,-1,1,1,1,-1,0,-1,9.215
1844,-1,-1,-2,-1,-2,-1,0,0,9.22
1845,-4,-4,-5,-2,-2,-1,-1,-2,9.225
1846,-1,1,1,0,-1,1,0,-1,9.23
1847,-1,-2,0,-2,-2,-2,-1,-1,9.235
1848,0,-2,-2,0,-1,-1,0,0,9.24
1849,-1,0,0,0,-1,-1,0,-1,9.245000000000001
1850,2,0,1,0,-1,-2,1,-1,9.25
1851,-3,0,-1,-1,-2,0,0,-1,9.255
1852,-3,-2,-4,-1,0,-1,-2,-1,9.26
1853,0,-2,-1,-2,-2,-2,-2,-1,9.265
1854,0,1,0,-2,0,0,-1,-1,9.27
1855,-2,-1,-1,-2,-1,-1,0,1,9.275
1856,-1,0,-2,-2,0,-1,-1,-1,9.28
1857,0,0,0,-1,0,1,-2,-1,9.285
1858,0,-1,-1,2,-1,-1,0,-1,9.290000000000001
1859,0,0,0,0,-1,-1,-1,-2,9.295
1860,0,0,3,2,-1,0,1,0,9.3
1861,-2,1,-2,0,-2,0,-1,1,9.305
1862,-2,0,-2,-3,-2,-1,0,-1,9.31
1863,0,0,1,0,0,0,1,0,9.315
1864,-1,-2,-1,-3,-2,-1,-2,-2,9.32
1865,1,0,-1,1,0,-2,-1,-1,9.325000000000001
1866,-1,-2,-1,0,-1,0,-1,-2,9.33
1867,-2,-1,-1,1,0,-1,1,0,9.335
1868,-1,-1,-1,0,-1,-2,-1,0,9.34
1869,1,-1,2,-1,-3,-1,0,-2,9.345
1870,-1,-1,-4,-2,-1,-2,-1,-1,9.35
1871,-1,0,-3,0,-1,0,-2,-1,9.355
1872,1,-1,-2,-2,0,0,-1,0,9.36
1873,-1,0,0,-1,0,-1,1,0,9.365
1874,-1,1,1,1,-2,-2,-1,-2,9.370000000000001
1875,-1,0,-3,-2,0,-1,-2,1,9.375
1876,0,0,2,-2,-1,0,0,-1,9.38
1877,0,0,0,1,-1,0,-1,-2,9.385
1878,-1,-1,1,0,-1,-1,0,0,9.39
1879,0,0,-1,0,-1,-3,-1,-1,9.395
1880,-2,-2,2,1,-1,0,-1,-1,9.4
1881,-1,-2,-3,0,-1,-2,1,-1,9.405
1882,-1,-3,-2,-1,-1,0,-1,-1,9.41
1883,0,0,-1,1,0,0,0,-3,9.415000000000001
1884,-2,0,-3,-1,-1,-4,-2,-1,9.42
1885,0,-1,-1,-2,-1,0,0,0,9.425
1886,-1,1,0,-3,-1,-2,-1,-2,9.43
1887,-1,-1,-1,1,0,-1,0,-1,9.435
1888,0,1,2,1,-2,-2,-1,0,9.44
1889,-1,-2,-2,-1,0,-1,0,0,9.445
1890,0,-1,-1,0,-2,0,0,0,9.450000000000001
1891,0,-1,-1,-1,0,0,-1,0,9.455
1892,-2,-1,-3,-3,-2,-2,0,-1,9.46
1893,-1,-1,0,0,1,-1,0,0,9.465
1894,-1,0,0,-1,1,0,-2,0,9.47
1895,-2,-1,-1,-1,-2,-3,-2,0,9.475
1896,0,-1,-2,-2,-1,-1,-2,0,9.48
1897,0,1,1,0,0,0,1,-2,9.485
1898,-2,-2,0,0,-1,0,1,-1,9.49
1899,0,-2,0,-1,-1,-1,-2,0,9.495000000000001
1900,-2,-3,-1,-1,1,1,0,-1,9.5
1901,-1,-3,-1,-1,0,0,-1,-1,9.505
1902,-2,0,0,-2,0,0,-1,0,9.51
1903,-2,-2,-1,-1,-2,-1,-2,-1,9.515
1904,0,-2,-1,0,0,1,1,-2,9.52
1905,0,0,0,-1,-1,-1,-1,1,9.525
1906,-1,-2,-3,-1,-2,-3,-1,-2,9.53
1907,0,0,-2,-2,-2,-2,1,-1,9.535
1908,-1,2,1,0,-1,-1,-1,-1,9.540000000000001
1909,-2,-4,-2,-2,-1,0,0,-1,9.545
1910,-1,-1,0,1,-1,0,-1,0,9.55
1911,-2,1,1,0,0,2,0,0,9.555
1912,-1,-3,-4,-3,-2,-1,0,-1,9.56
1913,-1,-1,-1,-2,-1,-2,-1,0,9.565
1914,-2,-3,-6,-3,-1,-2,-1,-1,9.57
1915,-1,-1,1,-1,-1,-2,0,-1,9.575000000000001
1916,0,-1,-1,1,0,1,-3,-1,9.58
1917,0,0,0,0,0,-1,-3,-1,9.585
1918,0,-2,0,-1,-1,-1,-2,0,9.59
1919,0,-1,-2,-1,0,0,-2,-3,9.595
1920,-1,0,-1,1,2,-2,1,-1,9.6
1921,0,1,0,3,0,-1,-1,-1,9.605
1922,1,-1,-1,-2,-2,1,0,-1,9.61
1923,0,-2,-2,-1,-2,-1,0,-1,9.615
1924,-1,1,1,-1,-2,1,-1,0,9.620000000000001
1925,-1,-1,1,0,-1,-1,-1,-1,9.625
1926,-1,-2,-1,-2,-1,-3,1,0,9.63
1927,0,-1,-1,-1,0,1,-1,-1,9.635
1928,0,-1,-1,-1,0,-1,-1,-2,9.64
1929,-1,-1,-1,0,-1,-1,-1,-2,9.645
1930,-2,1,0,-1,-1,-2,-2,1,9.65
1931,-1,-1,0,-2,-2,-2,-2,-1,9.655
1932,-2,-2,0,1,-2,-2,0,-1,9.66
1933,-2,0,0,0,0,2,-1,-1,9.665000000000001
1934,0,0,1,1,2,-1,0,-1,9.67
1935,-1,-2,-2,-2,-2,-2,0,-2,9.675
1936,-1,0,1,1,-2,0,0,0,9.68
1937,-1,0,3,-2,-1,-2,-1,-1,9.685
1938,-2,-7,-12,-4,-2,-1,-3,-1,9.69
1939,-1,1,-1,0,-1,-1,-1,-1,9.695
1940,0,0,3,0,-2,0,0,1,9.700000000000001
1941,-1,-2,-3,0,-1,-1,1,0,9.705
1942,1,0,2,1,1,-1,1,0,9.71
1943,0,-1,-1,0,1,-1,0,-2,9.715
1944,1,-1,-1,-4,-1,-1,-1,0,9.72
1945,-2,0,0,-1,0,0,-1,-1,9.725
1946,-1,0,0,0,0,1,0,-1,9.73
1947,-2,0,-2,-1,-1,0,-2,0,9.735
1948,-1,-2,0,0,-1,-3,0,0,9.74
1949,0,-1,-2,-3,-2,-1,0,1,9.745000000000001
1950,1,1,2,1,1,0,0,-1,9.75
1951,1,0,-1,-1,-1,0,1,-1,9.755
1952,-1,0,-4,-1,0,-2,-1,-1,9.76
1953,0,1,-2,0,0,-1,-1,-1,9.765
1954,-1,1,0,0,0,0,-1,-1,9.77
1955,-2,-1,-3,0,-2,-1,0,0,9.775
1956,-1,-1,0,0,0,-1,0,-1,9.78
1957,-2,-2,1,-1,-1,-2,-1,-2,9.785
1958,-2,-6,-9,-3,-4,-2,0,-1,9.790000000000001
1959,0,-1,-1,-4,-1,-1,-1,0,9.795
1960,0,1,-1,0,-1,1,-1,-2,9.8
1961,-2,-2,-1,0,-1,-2,-2,-1,9.805
1962,1,2,1,1,-1,0,-1,1,9.81
1963,-1,-2,0,0,-1,0,-1,0,9.815
1964,-1,-2,-1,-2,0,0,0,0,9.82
1965,1,-2,-1,0,0,0,-3,-1,9.825000000000001
1966,0,0,1,-2,-1,-1,1,0,9.83
1967,-1,0,-1,0,0,-1,-2,-1,9.835
1968,1,-1,2,0,-1,-1,0,-3,9.84
1969,0,0,0,0,-1,0,0,-1,9.845
1970,-3,-1,-3,-1,-3,0,-2,-3,9.85
1971,-1,0,-2,0,0,-1,0,0,9.855
1972,-1,0,-1,-2,-1,-1,0,0,9.86
1973,0,-1,-1,-2,-3,-1,-1,1,9.865
1974,1,0,2,2,0,2,1,-1,9.870000000000001
1975,2,-1,-2,-3,-1,-1,-2,-4,9.875
1976,-2,-1,1,2,1,0,0,3,9.88
1977,-2,-3,-4,-4,0,-1,-1,-2,9.885
1978,-3,-4,-4,-2,0,-2,-2,-2,9.89
1979,0,-2,-2,1,0,-1,1,-1,9.895
1980,0,1,-1,1,-2,-3,-2,-2,9.9
1981,-1,-1,-4,-3,0,0,0,-1,9.905
1982,2,2,2,1,-1,-2,-2,-1,9.91
1983,-1,0,0,1,-1,1,-1,0,9.915000000000001
1984,-1,0,2,0,-1,-2,-2,0,9.92
1985,-1,-3,-2,0,0,0,0,-1,9.925
1986,-2,0,3,-1,0,-1,0,-2,9.93
1987,-2,0,0,-1,-1,-1,1,-1,9.935
1988,2,0,-1,-3,-3,1,-2,-1,9.94
1989,0,1,-1,0,-3,-3,-3,-1,9.945
1990,-1,-2,-1,-1,0,-3,-2,-2,9.950000000000001
1991,-1,-2,1,2,3,1,0,0,9.955
1992,1,2,4,1,0,-1,-5,-1,9.96
1993,0,-1,0,1,-1,0,3,-3,9.965
1994,2,0,-5,-1,-3,0,1,-1,9.97
1995,-2,2,0,1,0,-1,-2,1,9.975
1996,-1,-5,-5,-3,3,-1,-9,-4,9.98
1997,-1,-3,-3,-4,0,-2,-6,-4,9.985
1998,4,6,9,5,2,2,35,20,9.99
1999,-4,-5,-3,-9,-4,-3,-5,-7,9.995000000000001
2000,0,-4,-4,-2,-1,0,4,2,10.0
2001,-2,-3,-4,-3,-3,-2,-9,-4,10.005
2002,-3,-2,2,-2,-2,-2,-11,-7,10.01
2003,-1,0,1,3,-1,-2,1,1,10.015
2004,-3,-2,-3,-1,-1,-2,-3,-2,10.02
2005,0,1,2,4,2,1,2,1,10.025
2006,0,-2,-1,0,-1,0,-5,-2,10.03
2007,2,-2,-3,1,1,2,1,2,10.035
2008,-4,0,-2,-4,-5,-4,-8,-5,10.040000000000001
2009,3,3,2,2,0,2,7,4,10.045
2010,-2,-1,-3,-1,-1,1,-2,0,10.05
2011,0,1,2,7,4,0,-2,-2,10.055
2012,15,3,0,-3,-2,-2,3,2,10.06
2013,-14,-9,-4,-6,-7,-7,-1,-2,10.065
2014,0,-3,-5,-3,2,5,0,-1,10.07
2015,2,4,-2,-8,-5,-4,0,0,10.075000000000001
2016,0,-2,-1,-2,-2,-1,2,-1,10.08
2017,3,2,0,4,1,1,-4,-4,10.085
2018,-2,1,7,6,2,0,-2,-1,10.09
2019,-12,-5,2,2,2,1,-1,-7,10.095
2020,7,1,-1,2,2,2,5,1,10.1
2021,3,1,-3,-5,-2,-1,-1,2,10.105
2022,-1,-1,0,-3,-2,-5,-17,-8,10.11
2023,-5,-4,-1,3,0,3,21,5,10.115
2024,9,6,9,-2,4,1,-5,3,10.120000000000001
2025,-15,-9,-8,1,-4,-3,0,0,10.125
2026,-4,0,2,-6,-9,-6,1,-3,10.13
2027,-4,-9,-12,-23,-14,-5,-5,0,10.135
2028,-6,-5,-2,2,3,0,1,-2,10.14
2029,-5,2,1,25,18,7,1,-1,10.145
2030,24,5,-6,-42,-27,-2,-4,5,10.15
2031,0,2,8,3,3,1,-5,4,10.155
2032,-19,-10,-8,-7,-1,6,7,-4,10.16
2033,6,5,4,11,8,-1,-7,0,10.165000000000001
2034,-11,-4,-5,18,3,2,4,-9,10.17
2035,23,7,4,10,11,1,2,11,10.175
2036,17,2,-1,-45,-33,-8,-4,5,10.18
2037,14,2,-2,-7,-9,-1,5,5,10.185
2038,-16,1,9,18,16,3,0,-2,10.19
2039,12,1,-4,20,3,0,-9,-11,10.195
2040,-25,-10,1,57,39,5,-3,-10,10.200000000000001
2041,-11,-1,4,-48,-27,-1,0,2,10.205
2042,12,-2,2,80,44,2,-2,3,10.21
2043,-6,-6,-16,-76,-38,-8,-8,-7,10.215
2044,-9,2,10,7,8,-3,-2,2,10.22
2045,-4,-13,-32,-26,-3,-2,3,0,10.225
2046,-6,-2,5,19,-7,-1,-2,1,10.23
2047,-1,2,0,-26,-25,-10,-6,-3,10.235
2048,8,9,4,-43,-20,-2,4,3,10.24
2049,-17,-6,4,-39,1,-4,-4,-11,10.245000000000001
2050,26,2,-5,-20,-15,-13,-7,0,10.25
2051,33,6,-4,11,7,1,-3,9,10.255
2052,1,5,1,-2,-4,2,5,0,10.26
2053,-2,1,2,39,13,-1,-9,-10,10.265
2054,-4,-6,-2,-4,16,7,0,4,10.27
2055,-22,4,18,6,-1,-2,-2,-12,10.275
2056,11,9,11,59,33,7,2,10,10.28
2057,20,10,13,53,16,12,23,16,10.285
2058,-32,-17,-24,-93,-58,-12,-6,-13,10.290000000000001
2059,6,-1,-2,13,8,1,3,9,10.295
2060,-18,2,-5,8,-11,-8,-9,-10,10.3
2061,8,1,0,12,-9,-5,-5,2,10.305
2062,4,9,12,27,21,7,6,4,10.31
2063,-16,-12,-5,11,4,2,0,-3,10.315
2064,-10,-12,-17,-24,-10,-6,-12,-14,10.32
2065,11,4,9,9,-27,-11,-9,-5,10.325000000000001
2066,-7,1,7,38,14,-3,-3,1,10.33
2067,-7,6,7,-48,-33,-7,-2,-1,10.335
2068,-12,-8,-5,-3,7,-1,2,-3,10.34
2069,21,5,-2,-31,-8,2,3,2,10.345
2070,-11,-6,-6,28,19,4,0,-5,10.35
2071,24,5,9,31,-1,-1,-2,7,10.355
2072,5,-16,-18,-18,-4,3,4,6,10.36
2073,-19,-8,6,14,3,-6,-3,-1,10.365
2074,-22,-10,-6,-7,-6,-1,-2,-7,10.370000000000001
2075,7,-5,-11,-28,-9,-1,-2,-5,10.375
2076,-18,5,-4,-14,-19,-15,-12,-19,10.38
2077,7,-1,6,81,59,9,-3,-3,10.385
2078,4,5,0,-15,-5,6,8,14,10.39
2079,-19,-10,0,19,17,0,0,-2,10.395
2080,6,7,8,0,-8,2,7,11,10.4
2081,-5,2,4,-19,-16,-7,-5,0,10.405
2082,-18,-5,-12,27,24,3,-3,-10,10.41
2083,9,-3,-1,-12,-15,-4,-2,3,10.415000000000001
2084,-6,-7,-7,-5,-12,-2,1,-2,10.42
2085,12,4,3,-3,5,1,-2,1,10.425
2086,10,5,5,-33,-22,-3,-2,0,10.43
2087,-13,-12,-29,-43,-13,-1,0,-10,10.435
2088,-14,-8,-1,33,19,0,-1,-6,10.44
2089,-1,3,4,-62,-41,-11,-4,3,10.445
2090,3,-2,-8,-17,-12,-8,-8,-6,10.450000000000001
2091,-10,-3,-1,53,24,-1,-3,-1,10.455
2092,16,3,3,-6,-2,5,5,8,10.46
2093,2,1,-4,-4,1,2,3,-1,10.465
2094,5,1,11,-25,-10,-6,-7,-3,10.47
2095,0,9,4,20,16,10,5,3,10.475
2096,-1,-7,-7,-14,0,-3,-4,-7,10.48
2097,-4,1,2,40,26,4,2,6,10.485
2098,2,4,3,-7,-4,-3,3,5,10.49
2099,-4,3,-9,-10,-1,4,5,5,10.495000000000001
2100,3,-1,-1,9,9,-4,-7,-9,10.5
2101,-10,2,0,7,-2,0,-3,-10,10.505
2102,6,-5,-6,-10,-6,-5,-6,-4,10.51
2103,7,0,4,19,20,-1,-2,0,10.515
2104,2,4,-3,11,0,5,6,7,10.52
2105,-1,-8,-11,-18,-7,3,2,1,10.525
2106,-7,4,-8,-7,16,9,5,-2,10.53
2107,7,3,15,19,-9,-11,-3,0,10.535
2108,11,6,3,8,8,-2,-3,2,10.540000000000001
2109,-9,-1,-1,1,-1,1,2,-3,10.545
2110,2,-4,-3,-7,-7,3,4,2,10.55
2111,-9,-4,-6,19,22,3,-5,-4,10.555
2112,6,1,-2,-32,-28,-4,-1,3,10.56
2113,-8,-4,-7,-23,-5,-3,-3,-2,10.565
2114,4,-1,5,15,-1,-1,0,2,10.57
2115,-3,5,9,0,-7,1,2,0,10.575000000000001
2116,-2,-8,-6,15,7,2,-2,-1,10.58
2117,-3,-5,-9,-41,-21,-1,1,1,10.585
2118,5,1,3,5,10,3,4,3,10.59
2119,-3,0,-2,8,7,0,-2,-2,10.595
2120,-1,3,4,-1,4,2,3,2,10.6
2121,-3,-7,-10,-8,-12,-3,-2,-2,10.605
2122,7,0,-5,45,12,-4,-4,-2,10.61
2123,-12,-1,-2,-82,-46,-4,-1,-3,10.615
2124,-4,-1,1,-3,0,0,-2,-2,10.620000000000001
2125,-2,1,-1,15,11,-1,-1,-3,10.625
2126,4,2,2,-13,-16,-2,-2,-1,10.63
2127,-1,-2,-2,20,14,1,0,-4,10.635
2128,3,1,-1,-8,-6,0,2,0,10.64
2129,2,2,3,0,1,0,1,-1,10.645
2130,-3,-2,-7,-10,0,1,-1,-2,10.65
2131,1,2,6,21,9,4,2,2,10.655
2132,-5,-9,-10,-13,-5,-3,-2,-2,10.66
2133,0,-2,2,14,-3,-2,-2,-2,10.665000000000001
2134,1,0,1,-4,2,-1,0,1,10.67
2135,-2,-2,-2,1,2,-1,-1,-3,10.675
2136,1,3,5,4,-4,-2,-2,2,10.68
2137,-1,0,-1,-3,2,1,-1,-3,10.685
2138,1,-1,1,21,6,2,0,-2,10.69
2139,-3,1,4,-41,-18,-5,-2,-4,10.695
2140,-3,-3,-1,-9,-9,-5,-4,-4,10.700000000000001
2141,0,-2,-4,-5,4,1,-1,-2,10.705
2142,0,3,4,-6,-4,-3,-1,0,10.71
2143,-2,-3,-3,22,13,0,-1,0,10.715
2144,1,-1,0,-1,-1,1,-2,-1,10.72
2145,6,3,4,-2,-6,-1,0,2,10.725
2146,-3,-4,-8,-4,0,-2,0,-1,10.73
2147,-5,-4,-2,9,5,2,-1,1,10.735
2148,1,2,0,-5,1,0,0,3,10.74
2149,-3,-4,-4,13,0,-5,-3,-5,10.745000000000001
2150,4,-1,-2,7,7,2,3,0,10.75
2151,1,-3,-3,-8,-13,-6,-3,1,10.755
2152,0,-1,3,-2,-1,1,2,-1,10.76
2153,-1,0,-3,-18,-4,-1,0,-2,10.765
2154,1,0,2,-14,3,0,0,0,10.77
2155,-2,-1,-2,9,-8,-2,2,1,10.775
2156,0,-1,-2,10,1,-2,-4,-2,10.78
2157,-3,-3,-7,-8,0,-1,0,0,10.785
2158,-2,-2,-1,-9,-5,-2,1,1,10.790000000000001
2159,-4,-1,-2,4,7,1,-1,-1,10.795
2160,-1,1,5,-7,-3,-1,-1,-1,10.8
2161,-4,-2,2,10,5,-1,-7,-6,10.805
2162,-1,-1,4,-9,-9,-1,-10,-8,10.81
2163,1,-2,-5,-1,3,-1,11,7,10.815
2164,2,1,-1,9,4,0,12,6,10.82
2165,-2,-2,-3,-5,-1,-1,0,3,10.825000000000001
2166,-1,-1,1,-2,-3,-2,-2,-1,10.83
2167,-1,0,1,1,-1,-5,-10,-7,10.835
2168,1,2,3,6,0,0,2,-1,10.84
2169,0,0,-3,3,2,0,1,1,10.845
2170,0,1,-1,-6,-4,-2,0,-1,10.85
2171,1,-2,-1,6,3,0,-1,-2,10.855
2172,-1,-1,-1,3,-2,-2,0,0,10.86
2173,0,1,3,1,0,-2,2,-1,10.865
2174,-1,0,-3,7,-3,-3,-1,1,10.870000000000001
2175,2,0,0,-10,3,2,3,0,10.875
2176,-1,1,-3,-3,2,-2,-3,-2,10.88
2177,-1,0,1,-1,2,2,0,-3,10.885
2178,-3,-3,-5,-6,-4,-2,2,1,10.89
2179,1,2,0,-1,3,2,-4,-2,10.895
2180,-3,-2,-2,-4,-1,0,-2,-2,10.9
2181,0,2,1,-2,-2,-2,-4,-1,10.905
2182,-4,-2,0,0,-1,-2,-2,-5,10.91
2183,-1,0,-3,-11,-7,-4,-15,-5,10.915000000000001
2184,2,-2,-1,-4,1,2,17,5,10.92
2185,1,-1,3,5,0,0,-6,-1,10.925
2186,2,-1,-1,-8,-6,0,9,6,10.93
2187,0,-3,-4,5,3,2,-2,-1,10.935
2188,-1,0,1,12,8,1,-12,-1,10.94
2189,0,-1,1,-15,-10,-3,14,3,10.945
2190,-1,2,8,7,4,2,-6,-1,10.950000000000001
2191,1,-2,1,-3,1,2,5,0,10.955
2192,-3,-2,1,-1,-1,-2,-7,-3,10.96
2193,-3,-2,-2,3,2,-1,-2,-4,10.965
2194,-1,-1,0,-3,-3,1,-4,-2,10.97
2195,-1,-1,-2,2,1,0,6,2,10.975
2196,-2,-3,-10,-5,-2,1,-1,-2,10.98
2197,-3,-4,-5,-1,-3,-2,-5,2,10.985
2198,-3,-5,-4,-5,-6,-4,-2,-5,10.99
2199,0,1,-1,-1,2,0,4,1,10.995000000000001
2200,1,3,5,0,-3,-1,1,0,11.0
2201,3,3,6,3,-4,2,3,1,11.005
2202,0,0,-1,13,8,0,0,1,11.01
2203,-1,1,1,1,1,1,1,-1,11.015
2204,-1,-1,4,-2,-2,-2,-1,0,11.02
2205,-2,-1,-5,-3,-1,0,1,0,11.025
2206,-1,-1,-2,-8,-4,-1,0,0,11.03
2207,-1,-3,-3,2,-1,-1,0,-1,11.035
2208,-1,-1,-3,-3,-2,-1,-3,-4,11.040000000000001
2209,-2,-1,-3,-2,-1,-2,-7,-3,11.045
2210,1,0,-2,-6,-3,-3,2,1,11.05
2211,-1,0,0,2,-1,-2,0,-2,11.055
2212,-2,-5,-9,-9,-3,-2,-3,-3,11.06
2213,1,0,4,1,3,-1,1,-1,11.065
2214,-2,-4,-6,-3,-4,0,-6,-4,11.07
2215,-1,-3,-2,-4,-4,1,1,0,11.075000000000001
2216,0,1,1,0,-5,-5,0,0,11.08
2217,0,-2,-3,4,4,2,1,-2,11.085
2218,-2,-2,-2,-1,1,-1,-2,-1,11.09
2219,-2,-2,-4,-1,-1,-3,-8,-4,11.095
2220,-2,-3,-6,-2,1,1,8,4,11.1
2221,0,-1,1,-1,-1,-1,-3,0,11.105
2222,0,1,0,-3,-4,0,0,1,11.11
2223,-1,-2,-2,2,0,1,-2,-3,11.115
2224,-1,0,2,1,-1,-1,-3,0,11.120000000000001
2225,-1,0,1,2,-1,-2,-1,1,11.125
2226,1,0,0,-1,-1,-1,-2,0,11.13
2227,-1,0,0,-2,-1,-3,-2,-1,11.135
2228,0,0,0,-1,-2,0,1,-2,11.14
2229,1,1,0,-1,-1,0,-1,-1,11.145
2230,0,1,3,2,-1,0,1,0,11.15
2231,-2,-1,-2,1,0,-2,0,-1,11.155
2232,-2,-3,-5,-4,-2,-1,-2,-5,11.16
2233,-2,-1,2,-1,0,0,0,-2,11.165000000000001
2234,-1,-2,-2,-5,0,-1,-1,0,11.17
2235,-2,-2,-2,-1,0,-2,-2,-3,11.175
2236,0,-1,-1,1,-1,1,-1,1,11.18
2237,-1,-3,-4,-3,-3,-2,-2,-3,11.185
2238,-1,-1,-5,-1,-1,-2,-1,-1,11.19
2239,1,-1,5,0,-1,-1,1,0,11.195
2240,2,2,7,4,1,0,-5,0,11.200000000000001
2241,1,0,0,-1,0,2,7,5,11.205
2242,-2,-3,-1,-2,-2,1,1,-2,11.21
2243,0,-1,-2,0,-2,-1,-1,0,11.215
2244,2,1,2,1,1,1,0,-1,11.22
2245,0,-1,-1,-1,0,-2,-2,-1,11.225
2246,0,2,3,0,-2,-1,-1,1,11.23
2247,-1,1,0,0,0,0,1,-1,11.235
2248,-2,-2,1,-3,0,-2,-7,-3,11.24
2249,-1,-2,-2,6,2,-2,1,-3,11.245000000000001
2250,2,3,1,-8,-5,1,7,3,11.25
2251,-1,-3,-3,-1,0,-2,-2,0,11.255
2252,0,-2,-2,-1,0,-2,2,-1,11.26
2253,-1,0,2,0,0,1,-3,-1,11.265
2254,-3,-5,-7,-2,0,-3,-6,-2,11.27
2255,-1,-1,1,-2,-1,0,1,0,11.275
2256,1,0,3,-3,-1,-1,-3,0,11.28
2257,-3,-5,-5,-3,1,-3,-5,-3,11.285
2258,-1,0,0,2,0,-1,1,-3,11.290000000000001
2259,-1,-1,-2,-1,-1,-1,-2,0,11.295
2260,-3,-1,-3,0,-3,0,0,0,11.3
2261,-1,2,-1,-2,0,1,2,1,11.305
2262,-1,1,1,1,1,-1,-1,-1,11.31
2263,-1,-2,0,0,-1,0,-3,0,11.315
2264,-1,-1,-3,2,-1,-1,0,0,11.32
2265,1,1,2,-1,-2,1,2,1,11.325000000000001
2266,1,0,-1,-1,-1,0,2,2,11.33
2267,0,-1,2,2,0,-1,-2,0,11.335
2268,-1,-2,-4,-2,-1,1,0,0,11.34
2269,1,1,-2,-1,0,-2,-4,-1,11.345
2270,0,-1,0,-1,0,-2,-3,-2,11.35
2271,0,2,-2,-2,-1,0,1,-1,11.355
2272,-2,-1,0,-2,-1,0,-3,0,11.36
2273,-1,-1,1,-2,-3,-1,-1,0,11.365
2274,0,1,0,2,0,-1,1,-2,11.370000000000001
2275,0,-1,-2,-4,0,-1,-2,-1,11.375
2276,-2,0,-2,-2,2,0,1,-1,11.38
2277,0,-2,-1,-2,-2,-1,0,-2,11.385
2278,-2,0,2,2,0,-1,-2,0,11.39
2279,-1,0,1,1,-2,-1,-1,-1,11.395
2280,-2,-1,-2,-1,-1,0,-1,-2,11.4
2281,-1,0,2,0,0,0,-1,-1,11.405
2282,1,-2,-1,0,-3,-2,-1,0,11.41
2283,-1,0,-1,-2,0,-1,-2,-2,11.415000000000001
2284,1,4,6,2,-1,-2,0,0,11.42
2285,-1,-2,-5,-2,-3,-1,1,0,11.425
2286,-2,-3,-7,-3,-2,-1,-3,-3,11.43
2287,-2,-1,1,-1,0,1,-2,1,11.435
2288,-1,-1,0,0,0,-1,2,0,11.44
2289,0,-3,-1,-1,1,-1,0,0,11.445
2290,0,-1,2,1,0,1,-4,-2,11.450000000000001
2291,0,1,0,0,-2,-2,2,-1,11.455
2292,-1,-1,0,0,-2,-3,-2,-4,11.46
2293,-1,1,1,0,-2,-1,-1,0,11.465
2294,-1,-2,-1,-2,0,-2,0,0,11.47
2295,1,3,6,5,0,3,1,0,11.475
2296,-2,-3,-3,-4,-2,-2,-6,-3,11.48
2297,-4,-8,-16,-8,-5,-5,0,-2,11.485
2298,3,0,1,0,0,-1,0,3,11.49
2299,-1,-3,-8,-6,-3,-2,-1,-1,11.495000000000001
2300,0,-1,-3,-2,-2,0,4,0,11.5
2301,0,2,4,2,-1,1,-4,-3,11.505
2302,-2,0,0,-1,-1,-2,0,-1,11.51
2303,-1,-2,-1,0,0,-1,-2,0,11.515
2304,-2,-3,0,-1,-2,-1,-2,-1,11.52
2305,0,-1,1,0,-1,-1,-1,0,11.525
2306,-1,-1,-2,0,-2,-1,-1,-2,11.53
2307,1,1,2,1,1,1,0,0,11.535
2308,0,-2,-2,-2,-1,-2,0,0,11.540000000000001
2309,0,1,0,0,1,-1,0,0,11.545
2310,-3,-2,-3,-4,-2,0,2,0,11.55
2311,-2,0,1,0,-2,-2,-2,1,11.555
2312,1,-2,-2,-1,0,1,0,0,11.56
2313,-2,-1,2,-1,-1,0,-2,-2,11.565
2314,-1,2,0,-1,0,1,-1,-1,11.57
2315,-1,0,0,0,1,0,1,-2,11.575000000000001
2316,-1,-1,0,1,1,3,0,-1,11.58
2317,-1,-1,3,3,2,-2,-4,-1,11.585
2318,-1,0,0,-3,-1,0,2,-1,11.59
2319,-3,-8,-11,-5,-4,-4,-2,-3,11.595
2320,0,1,0,1,0,-2,-2,0,11.6
2321,-1,1,-2,-2,-1,0,-2,-3,11.605
2322,-1,-1,-1,-1,1,0,1,0,11.61
2323,0,0,2,1,0,-2,-1,-3,11.615
2324,-2,-1,1,-1,1,-1,-1,0,11.620000000000001
2325,2,-2,-3,0,-2,-1,-1,-1,11.625
2326,1,0,0,2,-2,-1,-2,1,11.63
2327,0,1,0,-1,-1,-1,1,1,11.635
2328,-1,0,-1,-2,-4,-2,0,0,11.64
2329,-1,0,3,-2,-1,0,1,2,11.645
2330,-1,0,-1,0,-1,-1,-3,-4,11.65
2331,-1,1,0,1,0,-1,-1,-2,11.655
2332,0,0,-2,0,-1,0,0,0,11.66
2333,0,1,-1,-1,-2,-1,1,0,11.665000000000001
2334,-1,-2,0,-1,-1,-2,-2,0,11.67
2335,-1,-1,-1,-2,-1,2,0,0,11.675
2336,-4,-6,-9,-5,-1,-3,0,-1,11.68
2337,-1,2,3,-1,0,1,1,0,11.685
2338,-1,-4,-5,-2,-2,-1,-1,-1,11.69
2339,1,0,1,0,0,-2,-3,-1,11.695
2340,1,0,0,-1,1,-1,-1,0,11.700000000000001
2341,-1,-1,-2,1,-1,0,0,0,11.705
2342,-1,0,2,1,1,1,0,0,11.71
2343,0,0,2,4,-1,0,1,0,11.715
2344,0,0,-2,-1,1,0,1,1,11.72
2345,-1,-5,-8,-2,0,-3,-2,-2,11.725
2346,0,-1,2,0,0,-1,0,-1,11.73
2347,-2,-2,-3,-2,-2,0,-1,-2,11.735
2348,-2,0,2,1,0,0,-1,-1,11.74
2349,-2,-1,-3,-3,-1,1,-2,-1,11.745000000000001
2350,0,-2,-1,-3,-1,1,2,0,11.75
2351,-3,-6,-8,-3,-3,-1,-3,-1,11.755
2352,-1,0,-1,0,0,-4,-3,-1,11.76
2353,-2,1,1,1,-1,-3,2,-1,11.765
2354,0,1,3,1,0,0,-1,-1,11.77
2355,0,-1,-2,0,0,-1,0,0,11.775
2356,-1,-4,-5,-3,-2,0,1,-1,11.78
2357,0,-1,1,0,1,-1,-1,0,11.785
2358,0,-1,-3,-1,-2,-2,0,-2,11.790000000000001
2359,1,0,3,-1,-1,0,1,-2,11.795
2360,0,-1,1,0,-2,0,-1,-2,11.8
2361,-1,-3,-3,-1,-1,-1,0,-1,11.805
2362,-2,0,-2,-2,-1,1,-2,1,11.81
2363,-1,0,2,0,2,0,0,2,11.815
2364,0,2,0,0,-2,-1,-1,-2,11.82
2365,0,-1,1,-1,0,1,-2,0,11.825000000000001
2366,-1,-3,-3,-1,-1,-5,-1,-1,11.83
2367,-2,-1,-2,0,-1,1,0,-1,11.835
2368,0,1,3,1,-1,-1,-1,1,11.84
2369,-2,1,2,0,0,1,-3,-1,11.845
2370,0,-1,1,1,-1,0,1,-1,11.85
2371,-1,0,-1,-1,1,-2,0,1,11.855
2372,0,-1,1,2,1,0,0,0,11.86
2373,-3,-4,-6,-4,-1,-1,0,0,11.865
2374,0,0,-1,0,0,1,0,-2,11.870000000000001
2375,0,-1,-1,-2,-2,-2,1,-3,11.875
2376,-2,-1,2,0,-2,-1,-3,-1,11.88
2377,-1,1,-1,0,-1,-2,-2,0,11.885
2378,1,-1,2,-2,-1,-1,2,0,11.89
2379,1,0,1,-1,-2,0,-1,-1,11.895
2380,-2,-3,-1,0,0,0,-1,0,11.9
2381,0,-1,1,0,-2,-1,1,1,11.905
2382,-1,-1,-3,-1,-1,-1,-2,-2,11.91
2383,2,1,7,2,0,1,1,1,11.915000000000001
2384,-1,-5,-5,-5,-3,0,-1,-2,11.92
2385,-2,-2,-6,-4,-1,-1,0,0,11.925
2386,-2,1,-2,0,-1,0,0,-1,11.93
2387,1,1,2,0,-1,-2,-1,-1,11.935
2388,-1,0,-1,-2,0,-1,0,1,11.94
2389,2,2,1,3,2,0,0,-1,11.945
2390,-1,-3,-4,-4,-1,-2,-2,-2,11.950000000000001
2391,-1,-1,-2,-3,-1,-1,-3,-1,11.955
2392,0,0,0,-1,-3,0,-1,-1,11.96
2393,-1,0,-1,1,0,-2,-3,-1,11.965
2394,-2,1,4,4,1,1,1,0,11.97
2395,-1,-2,-2,-4,1,-1,1,0,11.975
2396,0,-1,-3,-1,-1,-2,2,0,11.98
2397,0,-2,1,-2,-1,0,0,-2,11.985
2398,-1,-1,0,-1,-1,0,-1,-1,11.99
2399,-2,-1,-3,-2,-2,-2,-2,-1,11.995000000000001
2400,-1,1,-1,1,0,-2,-1,0,12.0
2401,0,-1,0,0,-1,-1,1,0,12.005
2402,-1,-1,-3,0,0,-2,-1,0,12.01
2403,-1,0,-4,-1,-1,0,0,-1,12.015
2404,0,2,0,-2,0,0,-3,-2,12.02
2405,-1,-4,-2,-2,-2,-1,-2,-2,12.025
2406,-1,0,-2,-1,-1,1,-3,-4,12.030000000000001
2407,-1,-1,-1,-2,-2,1,1,1,12.035
2408,-2,0,-1,-3,-2,-2,-1,-4,12.040000000000001
2409,0,-3,-5,-5,-1,-1,0,1,12.045
2410,0,-2,0,-1,-1,-2,-1,2,12.05
2411,-3,-1,-2,1,-1,-2,-1,-3,12.055
2412,1,0,1,4,1,2,1,0,12.06
2413,0,0,1,0,0,-1,-4,-2,12.065
2414,-1,-2,-2,-2,-2,0,-1,0,12.07
2415,-1,-1,1,0,-1,-2,-3,0,12.075000000000001
2416,-1,-2,-2,-3,-1,0,0,2,12.08
2417,-1,-2,-2,1,-1,-1,-2,-1,12.085
2418,1,1,0,-2,-3,-2,0,-1,12.09
2419,0,-1,0,2,-1,0,-2,0,12.095
2420,0,-2,-4,-3,0,-2,-2,-2,12.1
2421,-2,1,3,0,0,0,0,-2,12.105
2422,-1,-3,0,1,-1,0,-4,0,12.11
2423,0,-2,-2,-3,-2,-1,2,1,12.115
2424,0,0,0,1,0,-1,-2,-1,12.120000000000001
2425,-2,1,1,1,0,0,0,0,12.125
2426,-2,-2,0,-1,0,-1,-2,1,12.13
2427,-1,-1,0,1,0,0,-2,-1,12.135
2428,0,-2,1,-1,-1,1,0,1,12.14
2429,-1,-2,-3,-1,-3,-2,-3,-2,12.145
2430,0,0,-2,-3,-1,-1,-1,-1,12.15
2431,-1,-2,-1,-3,0,-1,-2,-1,12.155000000000001
2432,-4,-5,-8,-2,-2,-3,-2,-1,12.16
2433,1,4,5,0,1,3,2,0,12.165000000000001
2434,0,-1,-1,-2,-1,-1,0,-1,12.17
2435,-1,-2,-2,-1,0,0,-1,0,12.175
2436,-1,1,0,0,-1,0,-2,-1,12.18
2437,2,-3,2,1,-1,-2,0,0,12.185
2438,-2,-1,-2,1,-1,-2,1,-1,12.19
2439,-1,1,2,-2,0,-1,0,0,12.195
2440,-1,-1,0,0,-2,-1,-1,-1,12.200000000000001
2441,-1,-2,-1,0,-2,-2,-1,-2,12.205
2442,-1,0,3,0,2,1,-1,0,12.21
2443,-2,-4,-5,-1,-1,-1,-3,0,12.215
2444,0,1,0,0,-1,0,2,-1,12.22
2445,-2,0,-2,1,-1,-2,-2,1,12.225
2446,-1,-2,-1,2,1,-1,-3,1,12.23
2447,-1,1,1,0,-1,1,2,-2,12.235
2448,-2,-1,-1,-3,1,-2,0,1,12.24
2449,-2,-5,-4,-4,-3,0,2,0,12.245000000000001
2450,1,2,2,1,-1,-1,-2,-2,12.25
2451,-2,-2,-6,-7,-2,-1,0,-2,12.255
2452,2,0,1,0,-1,-1,1,0,12.26
2453,-1,-1,0,1,-1,-1,-2,-2,12.265
2454,1,-1,-1,0,-1,0,-3,0,12.27
2455,0,2,1,2,-2,-3,-2,-1,12.275
2456,0,1,3,0,1,-2,-2,-2,12.280000000000001
2457,-2,-1,-2,-1,0,0,0,0,12.285
2458,0,-1,-1,-2,0,1,1,0,12.290000000000001
2459,1,1,0,0,-1,1,-1,0,12.295
2460,0,-2,0,-1,-1,-1,-1,0,12.3
2461,0,1,0,-2,0,-3,-1,-1,12.305
2462,-1,-1,-1,-1,-1,0,0,-1,12.31
2463,-1,-1,-1,-2,-1,2,1,-1,12.315
2464,0,2,-1,0,-2,-1,0,-1,12.32
2465,1,1,2,0,0,0,1,0,12.325000000000001
2466,-1,-2,-1,-1,0,0,1,-1,12.33
2467,0,0,1,0,-1,-1,-3,1,12.335
2468,1,3,5,5,1,0,0,0,12.34
2469,-3,-7,-12,-7,-2,-3,-6,-2,12.345
2470,-1,0,-4,-3,-1,-1,-1,-2,12.35
2471,0,-1,0,0,-2,-1,0,0,12.355
2472,0,0,-1,0,-1,0,-1,-1,12.36
2473,-2,-1,2,0,-1,-1,1,-2,12.365
2474,-1,0,-2,-1,-1,0,-1,-1,12.370000000000001
2475,-2,0,-1,0,-2,0,-2,-1,12.375
2476,-1,-4,-2,-1,-1,0,-1,0,12.38
2477,0,2,1,0,0,-1,0,-2,12.385
2478,-3,-3,-5,-3,-3,-2,1,-1,12.39
2479,0,-1,1,0,-1,-2,-3,-3,12.395
2480,1,-2,-1,-1,0,-2,0,-1,12.4
2481,0,0,1,0,-1,-2,-2,0,12.405000000000001
2482,0,0,1,0,-2,-2,0,1,12.41
2483,-1,-1,-1,1,1,0,1,0,12.415000000000001
2484,-3,-2,-3,-1,0,-1,-3,-1,12.42
2485,0,0,2,-1,-3,3,0,0,12.425
2486,-1,0,0,1,-1,-1,-1,-1,12.43
2487,0,-1,0,-1,1,1,1,2,12.435
2488,-1,-3,-3,-1,0,-3,-4,-3,12.44
2489,-1,0,1,2,0,1,-2,-3,12.445
2490,0,1,2,-1,-1,-1,0,0,12.450000000000001
2491,-2,-2,-4,-4,-1,-1,-3,-1,12.455
2492,1,0,3,0,1,0,0,0,12.46
2493,-3,-3,-5,-2,0,-1,-2,-2,12.465
2494,-1,-1,-2,-4,0,0,-1,-1,12.47
2495,-2,-3,-4,-4,-3,-1,-4,-3,12.475
2496,0,-1,0,-1,-1,0,1,2,12.48
2497,1,0,1,1,-1,0,-1,0,12.485
2498,-2,-1,0,-1,0,0,1,-2,12.49
2499,0,-2,1,3,0,0,0,-2,12.495000000000001
2500,-2,-2,-1,-1,-2,-1,-2,0,12.5
2501,1,0,-1,0,0,1,2,0,12.505
2502,0,0,-2,-1,0,-3,0,0,12.51
2503,0,-2,1,-1,-1,-2,1,-1,12.515
2504,-3,0,-1,0,-2,-2,-1,-1,12.52
2505,-1,-2,0,0,0,-3,-2,0,12.525
2506,0,-1,0,0,0,1,1,0,12.530000000000001
2507,-2,0,-1,2,-1,-2,-2,-3,12.535
2508,0,2,4,2,-2,1,0,0,12.540000000000001
2509,-2,-3,-5,-4,-3,-2,-1,-2,12.545
2510,-1,-2,2,1,0,-3,-1,-1,12.55
2511,-1,0,0,1,1,1,3,1,12.555
2512,-1,-2,-2,-1,1,2,-1,-3,12.56
2513,-1,1,3,1,1,-2,0,-1,12.565
2514,0,-1,0,-3,-2,-2,-1,0,12.57
2515,1,0,1,0,-1,0,0,1,12.575000000000001
2516,-1,0,-1,-1,-1,-2,-2,-1,12.58
2517,0,0,0,-1,0,2,1,-1,12.585
2518,-2,-4,-3,1,-1,0,-2,-2,12.59
2519,-2,-1,0,0,0,-1,-1,-1,12.595
2520,-1,-2,-5,-3,-2,0,-1,-3,12.6
2521,0,2,-2,-1,-1,0,1,-1,12.605
2522,0,0,0,-1,-1,3,-1,0,12.61
2523,2,1,0,0,0,-2,-2,0,12.615
2524,-2,-2,-2,0,-1,-1,-1,-1,12.620000000000001
2525,0,-3,0,-1,-1,-1,0,0,12.625
2526,0,-2,-3,-1,-3,-2,-4,-2,12.63
2527,0,-1,-2,-2,0,1,-1,-1,12.635
2528,-1,-2,-4,-3,-1,-2,1,-1,12.64
2529,-1,-1,1,2,-1,1,3,3,12.645
2530,-3,1,-1,0,-3,-2,-4,-3,12.65
2531,0,0,3,0,1,-1,-2,0,12.655000000000001
2532,-1,-1,1,-2,-1,-1,-1,0,12.66
2533,0,0,-2,-2,1,0,-4,-1,12.665000000000001
2534,-1,0,0,4,1,0,3,-1,12.67
2535,1,-2,-3,-6,-3,1,1,-1,12.675
2536,0,0,0,-1,-2,-1,0,0,12.68
2537,-2,-1,-3,-1,-1,-1,-1,-1,12.685
2538,-1,1,4,1,-2,0,-1,2,12.69
2539,0,1,0,0,0,0,0,-2,12.695
2540,-1,-2,-1,-1,0,1,2,0,12.700000000000001
2541,-3,-4,-4,-1,-2,-3,-3,-1,12.705
2542,0,-2,-4,-3,0,-1,3,-1,12.71
2543,-1,-1,0,1,-2,-2,2,0,12.715
2544,1,0,-4,-2,-1,-1,-1,-2,12.72
2545,1,0,1,1,0,0,0,-1,12.725
2546,-1,0,-1,-1,0,-1,0,1,12.73
2547,-2,-4,-4,-1,-1,-3,-2,-3,12.735
2548,0,1,3,4,0,-1,-1,0,12.74
2549,-2,-3,-2,-1,-2,-2,-3,-2,12.745000000000001
2550,0,-1,0,-2,0,-1,-2,2,12.75
2551,-1,-1,-3,-3,-1,0,0,1,12.755
2552,-1,0,-1,-2,-1,-2,-1,-2,12.76
2553,0,0,-1,-1,-1,0,-1,0,12.765
2554,0,-1,-1,-1,0,-2,1,0,12.77
2555,-1,0,3,0,-1,-2,-2,-2,12.775
2556,-2,-2,-7,-5,-1,-1,-2,-1,12.780000000000001
2557,-2,-3,-4,-1,-2,1,-1,-1,12.785
2558,-1,-2,-1,-4,-3,-1,-1,-2,12.790000000000001
2559,0,-1,-4,-2,-2,-1,0,0,12.795
2560,-1,-3,0,-1,-1,-1,-1,1,12.8
2561,1,1,2,0,0,-1,1,0,12.805
2562,0,-1,-3,0,-1,1,0,0,12.81
2563,-1,-2,-1,2,-1,-2,-3,-3,12.815
2564,0,-2,-1,-1,-1,-1,1,-1,12.82
2565,0,-1,0,-2,0,-1,-2,-1,12.825000000000001
2566,-1,1,2,1,1,-1,-1,0,12.83
2567,-1,1,-2,-3,-1,0,0,-1,12.835
2568,-1,-1,0,0,0,0,-1,1,12.84
2569,0,-1,1,0,-1,0,1,-2,12.845
2570,-1,-3,0,0,-3,0,-1,-2,12.85
2571,0,0,2,0,-1,-2,-1,1,12.855
2572,0,-1,-2,-2,-1,-1,0,0,12.86
2573,-2,-2,-2,-2,-1,-3,0,0,12.865
2574,-2,-1,-4,-1,-1,2,1,0,12.870000000000001
2575,-2,-1,-3,1,0,-1,-1,-1,12.875
2576,1,3,7,2,1,2,-1,1,12.88
2577,-3,-5,-9,-4,-4,-6,-4,-3,12.885
2578,1,0,0,0,1,1,2,-2,12.89
2579,1,-1,1,-2,-1,-2,0,0,12.895
2580,-3,-3,-2,0,0,0,-1,-2,12.9
2581,1,3,3,2,0,0,0,1,12.905000000000001
2582,-1,-1,-1,-1,-1,-3,-1,0,12.91
2583,-2,0,0,1,-1,0,4,1,12.915000000000001
2584,-2,-2,-2,-2,0,-2,-5,-2,12.92
2585,0,0,0,-1,0,1,0,-1,12.925
2586,-1,-2,0,0,0,-2,-5,-1,12.93
2587,-1,-2,-2,-1,-2,0,-2,-2,12.935
2588,-1,2,3,-2,-3,-1,0,0,12.94
2589,-1,-3,-1,-2,0,-1,0,0,12.945
2590,1,0,-2,0,0,-2,-3,-2,12.950000000000001
2591,1,-1,-1,-2,0,0,-1,1,12.955
2592,-1,0,-2,-2,-2,0,1,-3,12.96
2593,-1,0,0,0,-1,0,0,-1,12.965
2594,1,1,3,0,-1,1,1,1,12.97
2595,-2,-2,-1,-3,-2,0,-2,1,12.975
2596,-2,-1,-2,0,-1,0,1,-1,12.98
2597,-1,-2,-3,-2,-2,1,0,0,12.985
2598,0,-1,0,-3,-1,0,2,0,12.99
2599,-1,-1,-1,0,-1,-3,0,0,12.995000000000001
2600,0,-1,-3,0,-1,-1,0,0,13.0
2601,1,2,6,0,-2,1,-1,-1,13.005
2602,-4,-3,-5,-2,-3,-3,0,-1,13.01
2603,-2,-4,-7,-2,-1,0,-3,-4,13.015
2604,-1,-2,-3,0,1,-3,-2,-2,13.02
2605,-3,-1,-2,0,1,-1,-2,-3,13.025
2606,1,-2,-2,-4,-1,1,1,1,13.030000000000001
2607,1,1,3,1,0,0,-1,0,13.035
2608,-1,0,-1,0,-2,0,-2,0,13.040000000000001
2609,1,0,-1,0,-2,0,-1,-1,13.045
2610,-2,0,-1,0,0,0,-2,0,13.05
2611,-1,-1,0,1,-1,-1,0,0,13.055
2612,1,0,0,-2,-1,-3,-2,-1,13.06
2613,0,0,-1,-4,0,-2,0,-1,13.065
2614,0,0,1,0,-1,-1,-1,-2,13.07
2615,0,2,-1,-2,-1,0,-1,-1,13.075000000000001
2616,0,-3,-1,0,0,1,-1,0,13.08
2617,-1,-1,-1,2,-1,0,0,0,13.085
2618,-1,-3,-4,-1,-2,-1,-1,0,13.09
2619,-1,2,2,0,0,0,1,0,13.095
2620,-2,-2,-1,-2,-3,-4,0,0,13.1
2621,1,0,1,1,2,1,3,1,13.105
2622,-1,1,2,1,1,1,-2,-1,13.11
2623,-2,-1,-1,-3,-1,-1,-1,-2,13.115
2624,0,0,-1,-2,-1,0,-3,0,13.120000000000001
2625,-1,-1,1,2,-1,0,0,-1,13.125
2626,-3,-3,-3,-3,-3,-3,-1,-2,13.13
2627,0,-1,-2,1,0,1,0,0,13.135
2628,-1,-2,-1,-2,-1,0,0,-1,13.14
2629,-1,0,-1,-1,-3,-3,-2,-1,13.145
2630,-1,0,1,-1,1,-2,1,-2,13.15
2631,1,-1,1,0,0,0,0,0,13.155000000000001
2632,-1,-3,-7,-2,-2,-4,-4,0,13.16
2633,-1,0,-4,-1,-2,-2,-1,-1,13.165000000000001
2634,1,-2,-3,-2,-1,0,-1,-1,13.17
2635,-1,0,-2,-1,1,0,-1,-2,13.175
2636,-1,1,1,0,0,1,2,-1,13.18
2637,0,-2,-1,-1,-1,0,0,-1,13.185
2638,0,0,-1,0,-1,-2,-3,-2,13.19
2639,0,-3,-1,-2,-1,0,3,-1,13.195
2640,0,1,1,0,1,-2,-3,-1,13.200000000000001
2641,0,0,1,-2,-1,-2,-2,-1,13.205
2642,0,0,2,2,-1,0,0,-2,13.21
2643,0,-1,-3,-5,0,-1,-2,-2,13.215
2644,0,0,1,-1,0,1,0,-1,13.22
2645,-2,-1,0,-1,0,-2,2,-1,13.225
2646,-1,-1,0,0,-1,-1,0,1,13.23
2647,-2,0,-2,2,-2,-2,-1,0,13.235
2648,-1,0,-1,0,-1,-1,0,-1,13.24
2649,-1,-1,0,1,0,1,-2,0,13.245000000000001
2650,0,0,2,-2,-3,-1,-1,-1,13.25
2651,-4,-5,-8,-3,-1,-2,-3,-3,13.255
2652,0,0,2,0,1,-1,0,1,13.26
2653,-2,-2,-2,-1,-1,-2,-2,-1,13.265
2654,1,1,-1,-2,-1,-1,2,0,13.27
2655,1,1,1,1,-2,-1,-3,0,13.275
2656,1,0,0,1,0,2,2,-1,13.280000000000001
2657,-1,-1,-3,-1,-1,0,-2,-1,13.285
2658,-1,-3,-2,-1,-2,-1,-2,-2,13.290000000000001
2659,-1,0,4,0,-1,-1,-2,0,13.295
2660,-2,-2,-6,0,-2,-1,-2,-3,13.3
2661,0,1,2,2,-2,1,-1,-1,13.305
2662,1,-1,0,-1,1,0,0,0,13.31
2663,-1,-2,0,-1,0,-3,-1,-2,13.315
2664,-1,-2,1,0,-1,0,1,0,13.32
2665,-2,0,1,0,1,-1,0,0,13.325000000000001
2666,-1,1,-1,0,1,-2,-3,-1,13.33
2667,0,0,1,1,-1,-1,0,0,13.335
2668,-3,-4,-3,-1,-3,-1,-1,1,13.34
2669,0,-1,-2,0,-1,-1,-2,-3,13.345
2670,-2,-2,-2,1,-1,-2,0,0,13.35
2671,0,0,2,0,1,-1,0,2,13.355
2672,-2,-4,-7,-4,-3,-2,-3,-3,13.36
2673,0,0,-1,-2,-2,-1,0,-1,13.365
2674,-2,0,0,1,-2,-1,-1,-1,13.370000000000001
2675,-1,-2,0,1,-1,-2,1,-2,13.375
2676,0,0,2,-1,-1,1,2,0,13.38
2677,-1,-2,-1,0,0,-1,0,1,13.385
2678,0,0,-3,-4,-1,1,-1,0,13.39
2679,0,1,0,-1,-1,2,0,0,13.395
2680,0,1,1,3,0,-3,-7,-3,13.4
2681,0,-2,0,-2,-3,-1,1,1,13.405000000000001
2682,-1,-2,-1,-1,-1,-1,-1,0,13.41
2683,-1,-1,-1,0,-1,1,-2,-2,13.415000000000001
2684,-2,-2,-1,0,1,-1,2,-1,13.42
2685,0,1,0,-2,-1,0,-3,0,13.425
2686,-1,-1,0,1,-2,-1,-1,0,13.43
2687,-1,0,-3,-1,0,-3,-2,0,13.435
2688,-2,-2,-2,0,-2,-1,1,1,13.44
2689,-1,-2,-1,0,0,-1,-1,-2,13.445
2690,0,3,3,3,1,1,1,1,13.450000000000001
2691,0,-3,-4,-2,-2,-3,-1,-2,13.455
2692,0,0,0,-1,-1,-1,0,-1,13.46
2693,-1,-2,-4,0,-1,-1,-3,0,13.465
2694,-2,-1,-3,-4,0,0,-3,-2,13.47
2695,1,1,2,1,-1,-2,1,1,13.475
2696,-1,-3,-2,-2,-2,-2,0,-1,13.48
2697,-1,-1,1,1,-2,-3,3,-1,13.485
2698,-1,-3,1,1,0,-1,-1,0,13.49
2699,-1,0,-2,-1,-1,0,-1,1,13.495000000000001
2700,-1,0,2,-2,1,1,-1,0,13.5
2701,-1,0,-2,-4,-3,-2,-3,-1,13.505
2702,1,-2,0,0,-1,-1,-3,-1,13.51
2703,-1,1,-1,0,-2,0,3,1,13.515
2704,1,-1,1,-1,0,-1,-1,-2,13.52
2705,-1,1,0,0,0,1,-1,0,13.525
2706,-1,0,-1,-2,-3,1,1,0,13.530000000000001
2707,-2,-5,-3,-1,-2,0,-2,-2,13.535
2708,0,0,-2,-2,0,1,-1,0,13.540000000000001
2709,-1,-1,-1,-1,0,-1,-2,1,13.545
2710,-1,0,-3,-2,-1,-1,-1,-1,13.55
2711,0,1,2,-1,-3,-3,0,-3,13.555
2712,-2,0,-1,1,-2,-2,1,0,13.56
2713,-1,-2,-2,-2,-1,-2,1,0,13.565
2714,-2,0,-4,-2,-1,-1,0,-3,13.57
2715,0,-1,0,0,0,-1,-2,0,13.575000000000001
2716,-1,1,-1,-2,2,1,-2,1,13.58
2717,-2,-2,0,-1,-2,-5,-1,-3,13.585
2718,-2,-1,-2,-1,-1,-1,-1,-1,13.59
2719,0,0,0,-2,-2,-1,-1,-1,13.595
2720,1,0,0,-3,-2,0,0,-3,13.6
2721,-1,0,-2,-1,1,1,-1,0,13.605
2722,0,-1,1,2,-1,0,-2,-1,13.61
2723,0,-1,0,0,-1,0,-1,0,13.615
2724,-2,-3,-3,0,-2,-3,-1,0,13.620000000000001
2725,0,0,3,1,-1,1,-2,-1,13.625
2726,-1,-2,-3,-2,-2,-2,-1,-3,13.63
2727,-1,-1,-3,0,-1,-1,0,1,13.635
2728,0,0,-1,-1,-1,-5,-2,-1,13.64
2729,0,-3,-1,-1,-1,2,2,-2,13.645
2730,-2,-2,-4,-3,-2,-1,-2,0,13.65
2731,0,-2,-1,-1,0,0,-2,-1,13.655000000000001
2732,-1,1,1,1,-1,0,-1,0,13.66
2733,0,-2,-5,-1,0,-1,0,-1,13.665000000000001
2734,-1,0,0,0,1,-1,0,0,13.67
2735,0,0,5,0,0,-1,2,2,13.675
2736,-2,-2,-2,-1,-3,-1,-1,-1,13.68
2737,-3,-5,-5,0,0,-1,-2,-1,13.685
2738,-1,1,2,-1,0,-1,-1,-2,13.69
2739,-1,1,3,0,0,0,-1,-1,13.695
2740,-1,0,0,2,-1,-3,0,-2,13.700000000000001
2741,-1,1,1,-1,-2,1,-1,-2,13.705
2742,-1,-3,-2,0,-3,-2,0,0,13.71
2743,-2,-1,-1,-3,-3,-1,-5,-2,13.715
2744,-1,1,2,0,-1,0,2,0,13.72
2745,-1,-3,-4,0,-2,-4,-4,-2,13.725
2746,1,0,0,1,0,1,-1,0,13.73
2747,0,1,0,4,1,2,0,1,13.735
2748,0,-1,-2,-3,-1,0,2,-1,13.74
2749,0,0,-2,-1,0,0,-1,1,13.745000000000001
2750,1,3,3,-2,-2,-2,-1,-1,13.75
2751,-1,-2,-4,-2,-1,-2,-1,-2,13.755
2752,0,-1,-4,-1,0,0,-1,-1,13.76
2753,0,0,3,0,-2,-1,2,1,13.765
2754,0,-3,-2,-2,0,-2,1,0,13.77
2755,-2,1,-1,-1,-1,-1,-1,-2,13.775
2756,0,0,-1,0,0,0,-2,-1,13.780000000000001
2757,0,1,3,-3,-1,1,3,0,13.785
2758,-2,-2,-1,0,-1,-3,-7,-3,13.790000000000001
2759,-2,-6,-8,-6,-1,-1,-1,0,13.795
2760,-1,0,2,1,-2,-1,0,1,13.8
2761,-3,-2,0,0,1,-2,-1,1,13.805
2762,-1,2,1,2,1,3,3,1,13.81
2763,-2,-3,-5,-5,-2,-3,-4,-2,13.815
2764,0,-1,1,0,0,0,-1,-1,13.82
2765,0,0,0,0,-1,-1,0,-2,13.825000000000001
2766,-1,-3,-3,-2,0,-1,0,0,13.83
2767,1,-2,0,1,2,1,0,-1,13.835
2768,1,-1,-3,-2,-2,-2,-1,3,13.84
2769,-2,1,-1,-3,-3,-1,-2,-2,13.845
2770,-2,-1,-3,-1,0,-3,-1,-2,13.85
2771,0,1,1,0,-1,-1,2,-1,13.855
2772,-1,-1,-1,-2,-1,-1,-6,-4,13.86
2773,0,2,0,0,1,1,5,2,13.865
2774,-1,-4,-1,-1,-1,-1,-3,0,13.870000000000001
2775,0,0,0,1,-1,0,2,0,13.875
2776,0,3,4,1,0,0,1,-3,13.88
2777,-1,-3,-4,-1,-3,-2,-2,-1,13.885
2778,0,-2,0,-2,0,1,1,-1,13.89
2779,-3,-1,0,1,1,1,0,1,13.895
2780,-3,-4,-6,-4,-2,-2,0,-3,13.9
2781,1,-1,-2,0,1,1,-1,-1,13.905000000000001
2782,1,0,-2,-3,-4,-2,2,0,13.91
2783,-3,-2,-1,-2,-3,-3,-4,-3,13.915000000000001
2784,4,-3,-3,-4,-1,-2,-2,-5,13.92
2785,-7,-4,1,0,0,-2,-8,-6,13.925
2786,-30,-6,-6,-1,-1,-2,-3,-6,13.93
2787,12,6,2,-2,1,0,-5,3,13.935
2788,-3,-1,0,2,3,3,30,14,13.94
2789,11,2,-3,-1,0,-4,-8,-5,13.945
2790,-8,-4,1,0,-3,-3,8,0,13.950000000000001
2791,8,-1,-7,-4,-2,0,1,-1,13.955
2792,26,15,11,1,1,1,0,11,13.96
2793,-7,-4,-7,-3,2,0,10,5,13.965
2794,15,3,-1,-2,-2,-2,-6,-2,13.97
2795,-11,-3,-5,6,3,3,-1,-6,13.975
2796,0,-4,2,-1,-4,-4,-12,-5,13.98
2797,-5,1,4,0,1,1,1,-3,13.985
2798,-4,-4,-8,8,5,3,1,0,13.99
2799,10,3,0,0,-3,-6,-9,-3,13.995000000000001
2800,-38,-13,-14,-36,-22,-4,-3,-13,14.0
2801,11,3,1,5,2,3,4,11,14.005
2802,13,2,1,-3,2,4,7,2,14.01
2803,-19,0,6,7,0,0,-1,-10,14.015
2804,13,2,0,9,10,2,3,7,14.02
2805,21,5,1,-2,-4,-1,-7,1,14.025
2806,10,3,7,5,-5,2,6,11,14.030000000000001
2807,-14,-4,0,0,5,-2,-4,-10,14.035
2808,-5,-2,-4,-9,-10,-1,-9,-5,14.040000000000001
2809,-13,-4,0,-16,-13,-6,-1,-5,14.045
2810,-3,2,0,9,8,-2,-9,-6,14.05
2811,9,-1,-7,0,0,1,7,7,14.055
2812,-26,-6,-1,-12,-5,-5,-9,-12,14.06
2813,1,1,-5,1,-7,-3,-5,-2,14.065
2814,12,3,0,-8,0,-2,3,7,14.07
2815,-15,-5,6,15,2,3,5,0,14.075000000000001
2816,4,0,-4,2,10,-1,-22,-4,14.08
2817,20,7,2,-5,-9,-4,0,-6,14.085
2818,-20,-7,-3,11,8,6,27,13,14.09
2819,25,10,-6,-26,-15,-5,-4,11,14.095
2820,29,-2,-1,1,1,3,6,2,14.1
2821,-38,-7,-2,0,2,-1,-7,-9,14.105
2822,5,3,7,27,7,1,-12,-12,14.11
2823,-32,-10,-5,-18,8,-1,2,1,14.115
2824,3,-1,-5,6,-3,-2,2,0,14.120000000000001
2825,-14,-9,-6,-9,-5,2,-2,0,14.125
2826,8,5,0,27,16,0,-3,-5,14.13
2827,13,-7,1,-35,-22,-3,-2,4,14.135
2828,-25,-3,4,12,16,6,4,-5,14.14
2829,7,4,0,-24,-6,-1,4,2,14.145
2830,-14,-3,0,28,11,-5,-11,-9,14.15
2831,31,8,3,-4,0,-5,-6,6,14.155000000000001
2832,23,9,3,-13,3,1,5,-1,14.16
2833,-5,-21,7,100,53,11,8,10,14.165000000000001
2834,33,2,-5,-117,-49,-2,-3,12,14.17
2835,-15,1,2,24,-1,0,4,-1,14.175
2836,-24,-15,6,83,77,18,11,0,14.18
2837,-6,6,-5,-102,-90,-28,-12,-50,14.185
2838,29,7,-9,79,53,11,-11,1,14.19
2839,73,5,-4,-1,28,19,42,79,14.195
2840,13,4,-8,-44,-32,-7,-7,-52,14.200000000000001
2841,8,-6,-7,39,33,2,6,64,14.205
2842,-26,-8,0,-6,-5,-9,-19,-57,14.21
2843,-2,6,-1,-19,-33,-5,-12,-7,14.215
2844,-15,2,5,-34,-16,-6,2,16,14.22
2845,-10,-9,3,-6,7,6,-1,-5,14.225
2846,1,3,-2,9,-3,5,10,10,14.23
2847,-13,0,12,24,20,-1,-7,-13,14.235
2848,-27,-17,-11,-33,-47,-18,-7,5,14.24
2849,-3,14,3,-31,-22,-1,-4,-19,14.245000000000001
2850,8,-4,-1,-14,-21,-5,1,14,14.25
2851,-42,-2,-7,14,8,3,-5,-23,14.255
2852,7,-12,-1,-59,-27,0,-2,2,14.26
2853,9,-3,-13,56,33,4,1,3,14.265
2854,-12,-9,-2,-55,-19,0,2,7,14.27
2855,-10,-11,-2,-19,-17,-8,-6,-16,14.275
2856,8,18,13,88,41,4,2,9,14.280000000000001
2857,4,-2,-3,-85,-81,-13,-2,-4,14.285
2858,-8,3,4,-4,-3,-4,1,3,14.290000000000001
2859,9,1,11,44,18,-7,-11,-12,14.295
2860,21,7,-3,14,6,2,1,9,14.3
2861,-5,1,7,13,22,2,-2,-5,14.305
2862,-33,-23,-2,43,22,7,1,-9,14.31
2863,-8,-4,-4,-63,-44,-9,-3,-2,14.315
2864,13,8,1,8,5,1,3,18,14.32
2865,-7,-14,-13,-22,4,3,3,3,14.325000000000001
2866,-8,0,-1,37,15,2,3,0,14.33
2867,29,13,-1,-25,-19,-1,-5,-8,14.335
2868,-58,-33,-9,-26,-26,-12,-15,-23,14.34
2869,2,8,4,30,33,7,3,4,14.345
2870,6,2,-4,-51,-32,-9,-4,0,14.35
2871,0,-8,-8,37,36,11,4,-2,14.355
2872,-1,5,11,27,17,-6,-4,4,14.36
2873,13,8,-4,4,7,3,1,-3,14.365
2874,12,-3,1,14,6,-5,-6,1,14.370000000000001
2875,-17,-13,-8,-7,2,-4,-4,-9,14.375
2876,6,13,3,31,22,7,6,7,14.38
2877,27,13,14,67,46,3,4,12,14.385
2878,6,6,1,-18,-1,0,1,3,14.39
2879,17,10,1,21,8,3,3,2,14.395
2880,-8,1,6,26,10,6,1,2,14.4
2881,11,-10,-6,-18,-11,0,-2,-5,14.405000000000001
2882,-49,-10,-5,12,5,0,-1,-11,14.41
2883,-20,-1,3,-8,10,3,1,1,14.415000000000001
2884,18,4,-9,-3,-7,-7,-3,4,14.42
2885,10,11,8,3,13,1,-2,1,14.425
2886,1,2,-3,3,-18,-6,-4,1,14.43
2887,-22,-5,4,21,6,1,-1,0,14.435
2888,-7,-7,-12,-5,-10,-4,-9,-14,14.44
2889,-20,-6,3,-41,-27,-7,-6,-8,14.445
2890,8,0,-9,0,10,1,1,5,14.450000000000001
2891,5,0,1,-26,-22,-3,1,3,14.455
2892,13,9,3,-12,-8,-3,-1,-1,14.46
2893,0,6,3,39,18,8,5,2,14.465
2894,13,6,14,-13,-9,-1,-1,1,14.47
2895,-13,2,-9,-3,1,-3,-2,-6,14.475
2896,7,-1,1,-5,2,6,3,5,14.48
2897,-17,-8,1,29,19,-1,-3,-7,14.485
2898,9,2,3,6,5,4,2,6,14.49
2899,-13,0,2,-2,-8,-6,-1,-4,14.495000000000001
2900,17,0,-5,-7,-3,-4,-1,-4,14.5
2901,-4,-6,-3,-14,-23,-9,-4,-1,14.505
2902,-9,-3,-3,-37,-36,-11,-4,-4,14.51
2903,7,1,6,37,19,5,1,-1,14.515
2904,-12,-11,-5,-35,-40,-6,0,1,14.52
2905,-19,-7,0,14,13,1,1,-9,14.525
2906,11,5,-4,-10,3,-4,-3,-1,14.530000000000001
2907,-6,-4,-3,6,-7,0,-3,-1,14.535
2908,-10,-8,5,15,21,0,4,0,14.540000000000001
2909,-1,13,6,-10,-10,-6,-3,2,14.545
2910,-18,-9,-2,10,16,6,2,-2,14.55
2911,3,0,-6,-5,0,-2,0,1,14.555
2912,8,4,-3,1,5,5,0,-1,14.56
2913,17,6,2,4,-2,-2,-1,1,14.565
2914,-12,-7,0,-9,1,-2,-1,-1,14.57
2915,8,-3,0,11,3,-3,0,4,14.575000000000001
2916,0,-1,-2,13,4,2,2,-2,14.58
2917,-6,0,-3,-20,-14,-3,-7,-4,14.585
2918,8,2,-5,-4,0,1,1,1,14.59
2919,1,-4,-1,3,6,-2,-4,-4,14.595
2920,-6,-1,5,19,11,6,4,6,14.6
2921,-21,-12,-19,-18,-3,1,-1,-5,14.605
2922,-5,-4,2,10,1,0,2,2,14.61
2923,1,3,-4,-18,-10,-5,-1,-2,14.615
2924,1,1,1,7,3,-1,1,-2,14.620000000000001
2925,2,3,2,3,1,2,1,0,14.625
2926,2,-3,-1,7,7,-2,-2,-1,14.63
2927,2,1,-4,15,11,4,3,-4,14.635
2928,-9,0,-3,-45,-25,-12,-7,-1,14.64
2929,1,2,3,-2,-2,2,2,0,14.645
2930,10,2,-2,2,-5,-2,1,1,14.65
2931,0,-7,-8,-19,-9,-2,-2,0,14.655000000000001
2932,-1,-3,-3,-4,-10,-4,-4,-4,14.66
2933,-4,-1,4,-1,-1,0,1,2,14.665000000000001
2934,11,4,-3,-4,-4,-3,-2,0,14.67
2935,-8,-5,1,3,0,0,-1,-1,14.675
2936,7,2,3,29,5,2,2,2,14.68
2937,1,-3,-7,-54,-24,-5,-3,-3,14.685
2938,-4,-1,5,0,3,1,-1,-2,14.69
2939,3,0,1,-1,-6,-2,-3,-1,14.695
2940,-1,0,-7,-8,-4,-2,-1,-1,14.700000000000001
2941,2,-2,-3,7,8,0,3,2,14.705
2942,-1,0,3,9,-4,0,1,0,14.71
2943,-7,1,-4,1,-1,-3,-2,-4,14.715
2944,1,-1,1,4,7,2,0,0,14.72
2945,-1,-4,-1,6,0,-1,-2,-1,14.725
2946,-1,-3,-5,-16,-8,-4,-4,-1,14.73
2947,-3,0,3,4,1,1,-1,-1,14.735
2948,2,0,3,-7,-2,0,-1,0,14.74
2949,-1,-2,-2,15,9,0,1,-1,14.745000000000001
2950,1,1,0,-14,-9,-2,-4,-1,14.75
2951,-1,-1,0,1,1,-2,-4,-1,14.755
2952,-1,-3,-10,-8,-5,-3,-2,-2,14.76
2953,-1,-3,-5,1,-4,-1,0,-2,14.765
2954,1,1,0,4,-2,-2,0,-2,14.77
2955,-7,-6,-4,-9,-5,-1,0,-1,14.775
2956,-1,1,2,-5,-2,1,-2,-1,14.780000000000001
2957,0,2,4,10,3,2,-1,2,14.785
2958,-1,-2,-3,-1,0,2,-4,-3,14.790000000000001
2959,-3,-2,1,-2,-2,-3,1,-1,14.795
2960,2,-1,-1,3,-2,-1,-2,0,14.8
2961,1,1,4,9,3,0,1,0,14.805
2962,-1,-1,-2,2,2,2,-1,0,14.81
2963,0,1,0,-8,1,0,1,0,14.815
2964,1,-1,-5,-7,-1,-5,-1,-1,14.82
2965,-5,-3,1,3,-3,-1,-1,0,14.825000000000001
2966,1,-2,-3,-3,-4,-3,0,-1,14.83
2967,1,3,2,4,2,0,0,0,14.835
2968,-1,-3,-2,-5,1,3,1,2,14.84
2969,1,1,1,-3,-3,-2,-3,-4,14.845
2970,0,-1,-1,-3,-1,-1,0,-1,14.85
2971,1,0,1,-1,1,0,0,1,14.855
2972,-1,-1,0,-2,-1,0,-1,1,14.86
2973,2,1,0,0,-1,2,1,1,14.865
2974,-3,0,2,0,2,-1,-1,-1,14.870000000000001
2975,0,-1,-1,0,0,0,2,-1,14.875
2976,-3,0,-4,-6,-3,-2,-6,-2,14.88
2977,-3,-2,-4,3,-1,-4,-11,-7,14.885
2978,0,-1,-3,3,0,2,8,1,14.89
2979,0,-2,-2,0,-2,0,1,0,14.895
2980,2,3,6,2,1,0,3,-1,14.9
2981,1,0,-3,-1,1,1,2,3,14.905000000000001
2982,-1,-3,-3,-5,-2,-2,-7,-4,14.91
2983,-1,-1,2,1,0,0,-3,-1,14.915000000000001
2984,-2,-3,-1,-1,-1,1,1,-4,14.92
2985,-1,0,-2,-1,-2,-4,-2,-2,14.925
2986,-1,3,1,0,0,0,1,0,14.93
2987,0,-2,-4,1,1,-1,0,1,14.935
2988,-2,0,-3,0,-1,1,-3,1,14.94
2989,0,-3,-2,-1,-1,0,4,2,14.945
2990,2,0,2,4,1,2,0,1,14.950000000000001
2991,-2,-4,-7,-5,-3,-3,-4,-3,14.955
2992,0,-1,-1,-1,0,-2,-2,0,14.96
2993,-1,-1,-2,-1,-2,-3,0,-1,14.965
2994,7,1,0,2,-1,-1,0,0,14.97
2995,-7,-1,1,2,1,-1,-3,-4,14.975
2996,-2,-2,-1,-2,0,-1,-1,-2,14.98
2997,1,0,-1,-1,-1,0,2,1,14.985
2998,-1,0,-1,0,0,-4,-4,-2,14.99
2999,1,-2,-3,-2,-2,0,-4,0,14.995000000000001
3000,0,-2,-3,-4,-2,-2,1,1,15.0
3001,-1,0,0,1,0,2,1,0,15.005
3002,-2,-1,-4,-3,-1,0,-2,0,15.01
3003,2,-1,1,-2,-1,-3,1,-1,15.015
3004,-3,-1,1,0,-1,-2,0,-2,15.02
3005,1,-2,-2,-1,-1,1,-1,-3,15.025
3006,-3,-1,-1,-3,-1,-2,-2,-1,15.030000000000001
3007,0,-1,-1,0,0,-2,1,0,15.035
3008,0,2,1,3,-1,0,-3,-2,15.040000000000001
3009,-2,-4,-4,0,-1,-1,2,-1,15.045
3010,-3,-3,-2,-1,-2,0,0,-1,15.05
3011,2,0,-1,0,-3,-1,0,1,15.055
3012,0,1,5,5,3,0,3,-2,15.06
3013,-4,-3,-8,-3,-1,-3,-4,-3,15.065
3014,-2,-4,-2,1,-1,-2,0,-1,15.07
3015,0,-1,-1,-3,-2,0,0,0,15.075000000000001
3016,-4,-2,-5,-2,-1,1,-1,1,15.08
3017,0,3,2,-1,-1,2,-1,0,15.085
3018,-1,-1,3,3,3,0,-1,-2,15.09
3019,0,0,-1,1,-1,-1,-1,-1,15.095
3020,-1,0,0,4,0,-2,-2,0,15.1
3021,1,-1,-1,1,-1,0,0,2,15.105
3022,-2,-2,-5,0,-2,-1,-1,0,15.11
3023,0,-2,0,-1,-2,1,0,0,15.115
3024,-3,-1,-4,-4,-2,-2,-1,-1,15.120000000000001
3025,0,-1,-1,-2,1,-2,-2,-1,15.125
3026,-1,0,0,-3,-1,-1,0,-2,15.13
3027,0,-2,-1,-1,0,-1,-2,-3,15.135
3028,-1,-3,-1,-3,-1,-1,-1,0,15.14
3029,-1,1,3,0,-1,-1,-2,0,15.145
3030,-1,0,3,1,-1,-1,-2,0,15.15
3031,-1,-2,-3,-3,-3,0,1,1,15.155000000000001
3032,0,-2,-1,-1,-3,-3,-1,-1,15.16
3033,-1,0,3,1,0,-1,0,0,15.165000000000001
3034,0,-1,0,-2,-1,-2,0,-3,15.17
3035,-2,1,3,1,2,1,1,0,15.175
3036,-3,-2,-5,-1,0,2,0,-1,15.18
3037,-1,0,1,-4,-3,1,-1,1,15.185
3038,-2,1,1,1,-1,1,-1,1,15.19
3039,-1,1,3,1,0,0,-1,0,15.195
3040,1,-3,-4,1,-2,-4,-4,-3,15.200000000000001
3041,-1,-1,0,-1,-1,-2,-1,-1,15.205
3042,1,0,1,0,-1,0,1,0,15.21
3043,-2,-2,-1,-2,0,-1,-2,-2,15.215
3044,-1,-1,3,-1,-2,1,0,-2,15.22
3045,0,-2,-2,-1,-1,-3,-3,-1,15.225
3046,-1,-2,0,0,-2,-1,0,0,15.23
3047,0,-2,-2,-1,-1,-2,0,0,15.235
3048,1,0,1,-3,0,-1,-1,0,15.24
3049,-1,-1,-1,1,1,0,1,0,15.245000000000001
3050,0,0,-2,0,-1,0,0,-1,15.25
3051,-1,-1,-1,1,-1,-3,0,0,15.255
3052,-1,2,3,1,-1,-2,2,2,15.26
3053,1,0,-1,0,-1,-1,0,-4,15.265
3054,-3,-6,-8,-3,-2,-4,-2,-3,15.27
3055,0,1,-3,-4,-3,1,-1,-2,15.275
3056,-1,0,2,0,0,0,1,-1,15.280000000000001
3057,0,2,0,-3,-2,-1,-1,0,15.285
3058,-1,0,1,0,-2,-2,-2,0,15.290000000000001
3059,0,1,-1,-1,1,0,-3,-2,15.295
3060,-1,1,-1,0,-1,1,-3,0,15.3
3061,-2,-2,-1,1,-3,-1,-1,-2,15.305
3062,1,-1,1,0,-1,-1,-2,-1,15.31
3063,-1,-3,-1,-2,-2,-2,-1,0,15.315
3064,1,-1,0,-1,-1,0,0,0,15.32
3065,-2,-2,0,0,-1,-1,2,0,15.325000000000001
3066,1,3,8,2,2,-2,-3,1,15.33
3067,-2,-6,-5,-6,-3,-1,-1,-1,15.335
3068,-2,-5,-10,-4,-1,-1,-1,-2,15.34
3069,0,-4,-7,2,1,-2,1,-2,15.345
3070,0,1,-3,-1,-1,1,2,0,15.35
3071,-1,3,2,2,0,-2,-2,-1,15.355
3072,-1,1,0,1,-1,-1,-7,-1,15.36
3073,1,0,1,-1,-3,0,-2,1,15.365
3074,-1,0,-2,-2,-3,-1,2,0,15.370000000000001
3075,-2,1,-1,-1,0,0,1,-1,15.375
3076,0,-1,-1,0,-1,-1,3,0,15.38
3077,0,-1,3,0,1,1,0,0,15.385
3078,1,-2,-1,-1,1,-1,-3,-2,15.39
3079,-1,-2,-2,1,0,0,0,-1,15.395
3080,1,1,2,3,-1,1,1,-2,15.4
3081,-1,-2,-7,-5,-2,-3,-3,-1,15.405000000000001
3082,-3,-1,-2,-2,1,1,-1,0,15.41
3083,-1,-2,-1,-1,-1,0,1,-1,15.415000000000001
3084,-1,-1,0,-2,-1,1,3,0,15.42
3085,-3,-2,1,-1,0,-2,-1,-1,15.425
3086,0,0,-2,-1,-2,0,0,-2,15.43
3087,0,0,0,-1,-1,-1,-2,0,15.435
3088,1,0,2,-1,-1,-2,-1,-2,15.44
3089,0,0,1,-3,-2,-2,-1,-1,15.445
3090,-1,-1,0,-1,-1,-2,0,-1,15.450000000000001
3091,1,1,2,1,0,-1,-2,-1,15.455
3092,-2,-2,-2,-2,0,-1,0,-1,15.46
3093,0,2,-1,-2,-2,-3,0,-2,15.465
3094,0,-1,0,0,1,0,-2,-1,15.47
3095,-4,-5,-9,-3,-4,0,-1,0,15.475
3096,-1,0,1,1,-1,-2,-3,0,15.48
3097,0,1,1,2,0,2,1,-1,15.485000000000001
3098,-2,-1,-2,-2,1,3,1,0,15.49
3099,2,0,0,0,1,-1,-1,2,15.495000000000001
3100,-2,-1,-3,-6,-3,-2,-1,0,15.5
3101,-2,-1,1,2,1,-2,-2,0,15.505
3102,0,-2,0,1,-2,-2,1,-1,15.51
3103,-1,0,-1,0,0,-2,-2,0,15.515
3104,-2,-1,1,-2,0,-1,-1,0,15.52
3105,-1,0,-2,0,-1,-1,-2,0,15.525
3106,0,-2,-1,-3,-2,-2,-3,-2,15.530000000000001
3107,0,1,0,-2,-2,-1,0,-1,15.535
3108,0,-2,-2,0,-1,-3,-4,-1,15.540000000000001
3109,-1,-2,-1,1,0,0,0,1,15.545
3110,-2,0,-2,0,0,0,-1,-1,15.55
3111,0,1,1,0,0,0,1,-1,15.555
3112,-1,-1,-3,-2,0,0,1,-1,15.56
3113,-1,0,0,-2,1,0,-1,-2,15.565
3114,-1,-1,1,0,-1,0,-1,0,15.57
3115,1,2,3,1,0,-1,-2,-2,15.575000000000001
3116,-1,0,0,2,-2,-2,1,0,15.58
3117,-2,-4,-4,0,0,-1,0,-2,15.585
3118,-2,-1,-3,-5,-3,-1,1,-2,15.59
3119,-1,-2,0,-1,0,0,-1,-2,15.595
3120,2,1,2,-3,-1,0,-1,2,15.6
3121,0,-2,-2,-1,0,-3,-1,0,15.605
3122,-2,0,-1,0,1,0,-2,-1,15.610000000000001
3123,0,-2,2,2,-1,-1,-1,0,15.615
3124,1,1,-3,1,-1,0,0,-3,15.620000000000001
3125,-1,-2,-1,-2,-1,0,2,0,15.625
3126,-1,-1,-3,-2,0,-1,-2,1,15.63
3127,-2,-1,-2,-1,-3,-1,1,0,15.635
3128,-1,-2,-2,0,-2,-1,-3,-2,15.64
3129,0,2,2,-2,0,1,-1,-1,15.645
3130,-1,-2,0,2,1,-3,-1,-2,15.65
3131,-2,-1,-2,-1,-2,-3,-1,-1,15.655000000000001
3132,0,0,0,1,-1,-1,2,0,15.66
3133,-3,-1,-5,-3,-2,-1,-1,1,15.665000000000001
3134,0,3,3,0,0,1,2,3,15.67
3135,-1,-4,-4,-3,0,-1,1,-2,15.675
3136,-1,-2,-1,2,0,-2,0,0,15.68
3137,1,-1,-1,-1,-4,-1,1,-3,15.685
3138,-2,-2,-3,-5,-2,-1,-2,0,15.69
3139,1,1,0,0,-2,-2,-1,0,15.695
3140,0,0,-4,-1,0,2,0,-2,15.700000000000001
3141,1,-1,1,-2,-4,-4,-3,-1,15.705
3142,0,-1,-2,1,-1,0,0,-2,15.71
3143,-2,0,1,0,-1,1,3,1,15.715
3144,-1,-2,0,1,0,0,-3,1,15.72
3145,-1,-4,-5,-3,0,-1,-2,0,15.725
3146,0,-2,0,0,-1,-1,-1,0,15.73
3147,1,0,4,2,0,-1,-1,-1,15.735000000000001
3148,-2,-2,-5,-3,-3,-1,0,-2,15.74
3149,0,2,0,2,0,-2,-2,-1,15.745000000000001
3150,0,0,0,1,-4,-3,0,0,15.75
3151,0,-1,-2,-1,-1,-2,1,-1,15.755
3152,-2,0,1,-1,-1,-2,-1,0,15.76
3153,0,0,2,1,0,-1,-2,-1,15.765
3154,-1,0,-2,-2,-1,-1,-1,-2,15.77
3155,0,1,0,-1,-1,-2,-3,-1,15.775
3156,-2,-1,1,-4,-2,1,2,0,15.780000000000001
3157,-1,-2,-1,1,-1,0,0,2,15.785
3158,-2,-2,2,2,2,1,0,-1,15.790000000000001
3159,-1,-3,-1,-3,0,0,0,-1,15.795
3160,1,-2,1,0,0,1,-1,1,15.8
3161,-1,0,3,0,1,2,0,-1,15.805
3162,-3,-3,-2,-3,-1,-3,-2,-1,15.81
3163,-3,-3,-6,-4,-4,-2,-2,-1,15.815
3164,0,-1,-3,-4,0,-1,-2,-2,15.82
3165,0,1,1,1,-1,1,0,1,15.825000000000001
3166,1,2,4,1,-1,1,3,2,15.83
3167,-2,-3,-4,-1,0,0,1,-1,15.835
3168,1,-1,0,-1,-2,-1,0,0,15.84
3169,-1,0,-3,-1,-1,-2,-3,0,15.845
3170,0,0,-2,-1,0,-1,0,0,15.85
3171,-1,1,0,1,0,-1,-1,0,15.855
3172,-1,1,-1,1,0,-2,0,1,15.860000000000001
3173,0,-2,1,-2,0,-1,3,1,15.865
3174,-1,-3,0,-2,-2,-2,-2,-2,15.870000000000001
3175,-1,-2,1,0,-3,-1,-4,-2,15.875
3176,-1,1,-1,-3,-2,1,0,1,15.88
3177,-2,-1,1,-2,-2,-1,-1,0,15.885
3178,-1,1,0,-1,-1,-1,-1,1,15.89
3179,0,-2,-1,1,0,-1,-3,-1,15.895
3180,-2,-2,-3,-4,-1,-2,-2,-2,15.9
3181,2,-1,3,-1,-1,0,-1,-1,15.905000000000001
3182,-1,-6,-10,-3,-2,-1,-1,-4,15.91
3183,-1,-2,-3,0,1,1,0,-3,15.915000000000001
3184,-1,0,0,-1,-1,-2,0,0,15.92
3185,-1,-1,-3,-4,-3,-1,-3,-3,15.925
3186,-1,-4,-6,-2,-1,-2,-4,-1,15.93
3187,1,1,3,1,1,2,-1,1,15.935
3188,0,-1,-1,1,1,-1,2,0,15.94
3189,-1,-1,0,3,0,-3,0,-2,15.945
3190,0,-1,2,-2,2,1,-1,-1,15.950000000000001
3191,-1,0,-2,-1,-1,1,0,1,15.955
3192,0,0,1,-2,-1,2,-3,-2,15.96
3193,-1,1,-1,1,0,0,-2,-1,15.965
3194,-1,0,-1,-2,-3,-3,-3,-1,15.97
3195,-1,-1,0,-2,-1,0,1,0,15.975
3196,-2,-2,3,2,-1,-2,0,-2,15.98
3197,-3,-2,0,-1,-1,-3,-1,-1,15.985000000000001
3198,1,0,1,-1,0,-1,-2,0,15.99
3199,-2,1,-2,-1,0,0,-1,-3,15.995000000000001
3200,1,0,-1,0,0,-1,-1,-1,16.0
3201,0,-1,-3,0,-1,1,-1,0,16.005
3202,0,2,2,3,-1,-1,2,-1,16.01
3203,-1,-2,-1,-1,0,-1,-2,-2,16.015
3204,1,0,1,2,-1,-1,1,-2,16.02
3205,-2,-2,-5,-3,0,-1,-2,-1,16.025
3206,1,3,6,3,0,-2,-1,-1,16.03
3207,0,-5,-7,-2,-3,-1,0,-1,16.035
3208,-4,-4,-7,-4,-3,-1,-6,-4,16.04
3209,1,1,-1,-2,-1,0,1,-1,16.045
3210,-1,0,3,0,-1,1,0,-1,16.05
3211,-1,0,0,1,-1,-2,-1,2,16.055
3212,1,0,0,2,-1,-1,1,0,16.06
3213,1,-2,-2,-2,-2,0,-2,0,16.065
3214,-2,-3,-2,-3,-2,-1,0,-2,16.07
3215,0,1,3,-2,0,1,2,0,16.075
3216,-4,-1,0,0,0,-2,-1,0,16.080000000000002
3217,-2,0,1,-2,2,0,1,-1,16.085
3218,-1,-1,-4,-2,-1,1,0,2,16.09
3219,-2,-1,0,-2,-2,-2,0,0,16.095
3220,0,-1,0,0,-1,-2,0,0,16.1
3221,-1,0,-2,-1,-2,-1,0,-1,16.105
3222,1,0,0,1,0,-3,0,0,16.11
3223,-2,-2,-7,-1,-2,-1,-1,-1,16.115000000000002
3224,-1,-1,-1,0,0,0,2,2,16.12
3225,0,2,3,4,0,-1,1,1,16.125
3226,-2,-6,-11,-5,-2,-2,-2,-1,16.13
3227,1,0,2,2,2,0,-2,2,16.135
3228,-1,1,2,0,0,0,-2,-2,16.14
3229,-2,-2,-3,-2,-3,0,-4,-1,16.145
3230,0,2,1,1,0,1,3,1,16.15
3231,1,1,3,0,-1,-2,-1,-2,16.155
3232,-1,-2,-3,-2,0,-1,1,0,16.16
3233,-1,5,8,3,1,-1,0,1,16.165
3234,-2,-3,-6,-6,-3,-2,-2,-2,16.17
3235,-1,-1,-1,-4,-2,-3,-3,-2,16.175
3236,-1,-2,0,-3,-2,1,-4,-1,16.18
3237,0,0,-1,-2,-1,-1,4,1,16.185
3238,0,-1,0,1,-1,-1,0,-1,16.19
3239,0,1,1,1,-1,0,1,-1,16.195
3240,1,-1,-3,1,-2,0,-1,-1,16.2
3241,-3,-4,-4,-4,1,0,-2,-3,16.205000000000002
3242,-1,-1,2,0,1,-1,-2,-1,16.21
3243,1,1,0,-1,-1,-2,-1,-1,16.215
3244,0,-2,-1,0,-1,-1,-1,0,16.22
3245,-2,-2,-4,-1,-2,0,-1,-4,16.225
3246,-1,0,-1,-1,-2,1,0,0,16.23
3247,-1,-1,0,1,-1,-1,0,-1,16.235
3248,-1,1,-3,-1,0,-2,1,-1,16.240000000000002
3249,-1,-2,-1,0,0,0,-1,0,16.245
3250,1,3,2,4,2,1,-1,0,16.25
3251,-3,-3,-4,-3,-1,-2,-1,-1,16.255
3252,-1,-3,-1,-1,1,1,-1,-3,16.26
3253,0,-3,-3,-3,-1,-1,-1,-1,16.265
3254,-1,0,0,0,0,-1,-2,0,16.27
3255,-1,-1,1,-1,-1,0,0,0,16.275
3256,-1,0,3,2,-1,0,1,1,16.28
3257,0,-1,0,1,0,0,0,0,16.285
3258,-2,-1,0,0,-3,-1,0,-2,16.29
3259,0,-3,-3,0,-1,-1,-1,-6,16.295
3260,-1,0,-1,-3,-3,1,-4,-2,16.3
3261,0,-2,-3,-1,-1,-1,-1,0,16.305
3262,-1,-3,-1,-2,-1,-1,-3,0,16.31
3263,-2,-2,0,0,0,-1,-1,1,16.315
3264,1,0,3,-1,1,-1,0,0,16.32
3265,-1,-1,1,2,0,0,-1,-1,16.325
3266,2,-1,-1,-2,0,0,1,-2,16.330000000000002
3267,0,1,2,0,0,-1,0,-2,16.335
3268,-2,-3,-3,-1,-1,-1,-1,0,16.34
3269,-2,0,1,0,-1,-1,-1,0,16.345
3270,-1,-3,-3,-1,-1,-2,-4,-2,16.35
3271,-1,0,3,-1,0,0,-3,-1,16.355
3272,-1,-2,-2,0,-1,-1,0,-3,16.36
3273,2,2,3,0,1,2,1,0,16.365000000000002
3274,-1,-1,-2,-1,-1,0,2,1,16.37
3275,0,-1,2,1,1,0,-1,-1,16.375
3276,-2,-1,-2,-2,-1,0,1,0,16.38
3277,0,1,1,0,-2,-2,-2,-2,16.385
3278,0,2,1,0,0,-1,-1,-1,16.39
3279,0,0,-1,0,-1,-1,-3,-3,16.395
3280,1,1,0,-2,-2,-1,1,-1,16.4
3281,-2,-2,-5,-4,-2,-1,-3,-1,16.405
3282,-3,-1,0,-1,0,-2,-1,0,16.41
3283,0,-2,-4,-1,-1,-2,0,-1,16.415
3284,0,-1,-1,1,0,0,-3,-2,16.42
3285,0,-4,-4,-3,-2,-2,-2,-1,16.425
3286,0,1,0,0,-1,-1,0,-1,16.43
3287,0,1,-1,-3,-3,1,1,0,16.435
3288,0,1,1,-1,-2,-2,-1,0,16.44
3289,-2,-3,-3,-3,-1,-1,-2,-1,16.445
3290,-1,-1,1,0,0,3,2,1,16.45
3291,-2,-2,-8,-2,-2,-1,-1,0,16.455000000000002
3292,0,-2,-3,-2,0,-2,-3,-1,16.46
3293,1,1,3,1,-2,0,1,-1,16.465
3294,-2,-1,2,-1,-2,-2,-2,-3,16.47
3295,-3,-1,-2,-2,1,1,0,-1,16.475
3296,-2,0,0,0,-1,-2,1,1,16.48
3297,-2,-2,-3,0,1,-1,-1,-1,16.485
3298,0,0,1,-2,-1,-3,-1,-2,16.490000000000002
3299,1,0,1,0,-1,0,-1,0,16.495
3300,-1,-1,0,-2,-2,0,-2,0,16.5
3301,-1,-2,-1,1,0,1,2,-1,16.505
3302,-1,1,-2,0,0,-2,1,0,16.51
3303,-1,0,-2,-4,-2,-1,-1,0,16.515
3304,0,-1,0,-2,1,-1,1,1,16.52
3305,-2,-2,-1,-1,-2,0,-3,-2,16.525
3306,0,-1,-1,-2,-1,-3,-2,-3,16.53
3307,-1,-1,-3,-1,-2,-1,-1,0,16.535
3308,1,2,2,2,1,1,-1,0,16.54
3309,-2,-3,-10,-5,-3,-3,0,-3,16.545
3310,-4,-3,-5,0,-2,-2,0,-1,16.55
3311,-1,0,1,2,-1,1,-1,0,16.555
3312,-3,0,-2,-2,-2,0,0,1,16.56
3313,0,-1,2,-2,1,0,-1,1,16.565
3314,0,-2,-3,0,-2,0,-2,1,16.57
3315,0,-2,-2,-1,-2,-3,0,-2,16.575
3316,0,0,-1,-1,-1,-2,0,0,16.580000000000002
3317,0,1,2,-1,0,-1,-1,-2,16.585
3318,-2,-3,-3,-2,0,0,-1,-2,16.59
3319,-1,-1,3,0,0,0,-2,0,16.595
3320,-2,-1,0,-1,-1,-2,-2,-1,16.6
3321,0,-2,-1,2,-1,-2,2,-1,16.605
3322,2,-1,1,2,-1,1,2,1,16.61
3323,-1,-1,-3,0,-2,-2,-1,-1,16.615000000000002
3324,0,1,1,2,-1,-1,-1,0,16.62
3325,-1,1,0,2,-1,-1,-2,1,16.625
3326,-1,1,-1,-3,-3,-3,-2,-1,16.63
3327,0,-2,-2,-1,0,0,-2,-2,16.635
3328,-1,-2,-3,-3,0,-1,0,-2,16.64
3329,0,0,1,0,-2,-1,0,0,16.645
3330,1,0,1,1,0,1,-1,0,16.65
3331,-2,0,1,0,-1,0,0,0,16.655
3332,-1,-1,1,0,1,1,-1,-2,16.66
3333,-2,-1,-2,-1,-3,-1,-2,-2,16.665
3334,-2,-1,-5,-2,1,-1,-1,0,16.67
3335,-1,-3,-4,-2,-2,-1,3,-2,16.675
3336,-1,-2,-5,-2,-2,-1,0,-1,16.68
3337,-2,-3,-4,-3,-2,0,-4,-2,16.685
3338,-2,0,2,-1,0,0,0,0,16.69
3339,0,0,2,-1,1,-1,-1,1,16.695
3340,1,0,0,0,-1,-1,-2,-1,16.7
3341,1,1,1,-1,-2,0,-1,0,16.705000000000002
3342,0,-1,-3,0,-1,0,-2,-1,16.71
3343,-1,-3,0,1,0,2,0,-2,16.715
3344,-2,-1,0,-3,-1,0,1,0,16.72
3345,-3,-1,-2,-2,-2,0,0,-2,16.725
3346,-1,-1,1,-2,-2,0,1,-1,16.73
3347,-2,2,-1,-1,-1,-1,-1,-2,16.735
3348,0,-1,1,1,0,1,0,0,16.740000000000002
3349,0,-1,-2,3,-1,-1,0,0,16.745
3350,-1,-4,-7,-3,-3,-2,-1,0,16.75
3351,0,-1,-1,-1,-1,-2,-1,-2,16.755
3352,0,0,-3,-1,-3,-2,-2,-1,16.76
3353,-1,0,1,0,2,1,1,0,16.765
3354,0,1,2,2,1,-2,-2,-2,16.77
3355,-2,-3,-2,-1,-2,0,-1,0,16.775
3356,-2,-1,0,1,0,0,-1,-1,16.78
3357,1,-2,-2,-2,-1,1,-1,0,16.785
3358,-2,2,3,0,1,0,0,1,16.79
3359,-2,-2,-4,-3,-1,1,-3,0,16.795
3360,-1,-2,-3,-1,-1,-2,-1,-1,16.8
3361,-1,-1,0,-1,-1,-2,-2,0,16.805
3362,0,-1,2,1,0,0,2,-3,16.81
3363,-1,1,-1,0,0,-1,-1,0,16.815
3364,0,-2,0,-1,0,0,-1,0,16.82
3365,-1,-4,-1,-1,-1,1,-1,0,16.825
3366,1,-1,-2,-2,-2,-3,-3,0,16.830000000000002
3367,1,-1,0,0,-1,-1,1,-1,16.835
3368,-2,0,-2,0,-1,-1,-1,0,16.84
3369,-1,0,0,-1,1,-2,-2,1,16.845
3370,-2,-2,-2,-1,-2,-1,-1,1,16.85
3371,1,1,2,0,1,-1,0,-1,16.855
3372,-2,1,4,1,-1,0,1,-2,16.86
3373,-2,-2,-6,-1,0,-2,-3,-1,16.865000000000002
3374,0,0,-1,-3,-1,1,-1,0,16.87
3375,0,-1,-1,-1,-2,-1,-1,0,16.875
3376,0,-2,-2,1,-1,0,0,-1,16.88
3377,-1,1,2,2,-3,-2,-1,-3,16.885
3378,-1,-1,-2,1,0,-1,2,-2,16.89
3379,-2,-2,-3,-2,-1,-1,0,-2,16.895
3380,1,1,-1,-1,0,-2,-3,0,16.9
3381,0,1,1,-3,-1,0,0,1,16.905
3382,1,0,0,-1,0,0,-3,-2,16.91
3383,0,0,-1,-2,-2,-2,0,-1,16.915
3384,-1,-2,-2,-3,-2,-3,0,-1,16.92
3385,-1,-2,-2,-1,-1,-1,1,-2,16.925
3386,1,-1,1,1,0,1,-2,0,16.93
3387,0,2,5,1,-1,-2,0,1,16.935
3388,-1,-2,-4,-2,-2,-2,-1,-2,16.94
3389,1,0,1,-1,2,-2,-3,0,16.945
3390,0,0,0,-3,-2,-2,-3,-5,16.95
3391,-2,-2,0,0,-1,0,0,-1,16.955000000000002
3392,-2,-3,-3,-2,0,0,1,-1,16.96
3393,-1,0,0,0,-1,-2,0,0,16.965
3394,-1,0,2,1,0,-1,3,1,16.97
3395,0,1,1,0,-1,-2,-3,0,16.975
3396,-1,-1,1,-4,-1,-1,-1,-1,16.98
3397,0,-1,0,-1,-3,-3,0,0,16.985
3398,-1,-1,0,-1,-1,-1,-2,-1,16.990000000000002
3399,1,-2,-4,-2,0,-2,-5,-3,16.995
3400,-2,0,0,1,1,-1,-1,-1,17.0
3401,-1,-2,-3,0,0,0,-1,-2,17.005
3402,0,1,-1,-2,-2,-3,2,-1,17.01
3403,-2,-2,-3,1,0,0,0,0,17.015
3404,0,0,-1,0,-1,1,-1,-1,17.02
3405,2,1,0,0,-1,0,0,1,17.025
3406,-2,-3,-7,-3,-1,-2,-3,0,17.03
3407,0,-1,-1,-3,0,-1,2,-1,17.035
3408,1,-2,-3,0,1,-2,-1,-1,17.04
3409,-1,0,3,-3,-1,1,0,-2,17.045
3410,0,-1,0,1,-1,0,0,-2,17.05
3411,-1,-1,1,-1,-1,0,-1,-1,17.055
3412,-2,-2,-1,0,-3,1,-1,-1,17.06
3413,0,-2,-3,2,-1,0,1,0,17.065
3414,-2,-1,-1,1,-1,1,0,-2,17.07
3415,-1,-2,-2,-2,0,1,1,0,17.075
3416,0,0,-1,0,-1,-1,-3,1,17.080000000000002
3417,-1,-1,-1,-3,-1,0,0,-1,17.085
3418,-1,1,3,0,-1,-1,0,0,17.09
3419,-1,0,0,-1,-1,1,-1,0,17.095
3420,-1,-1,-4,-5,-3,-3,-4,-3,17.1
3421,-2,-2,-3,-1,-1,-1,-2,-3,17.105
3422,0,0,1,0,1,-2,-1,-1,17.11
3423,-1,-3,-4,-2,-2,-1,2,0,17.115000000000002
3424,-1,0,1,-1,-1,-2,0,0,17.12
3425,0,-1,0,-2,-2,-2,-2,0,17.125
3426,1,-2,-2,0,-1,0,-2,-1,17.13
3427,0,0,0,2,1,-1,-2,0,17.135
3428,-1,0,-1,1,0,0,1,-1,17.14
3429,0,-1,-2,-1,1,-2,1,1,17.145
3430,-3,-2,-3,-2,0,-2,-2,0,17.150000000000002
3431,-1,-1,-2,-1,-4,-1,-1,-1,17.155
3432,-1,0,-1,-1,0,2,-1,-2,17.16
3433,-1,-1,2,1,-1,-1,-1,0,17.165
3434,0,0,0,-1,-1,0,1,-2,17.17
3435,-1,-2,-1,-2,-1,-2,0,-3,17.175
3436,0,0,0,-1,-2,0,2,-2,17.18
3437,2,2,3,0,-3,-1,1,1,17.185
3438,-1,-2,-3,0,-2,0,0,1,17.19
3439,0,-1,-3,-4,-2,0,0,1,17.195
3440,1,0,-1,-1,1,0,-1,1,17.2
3441,-2,-2,-1,1,-1,-1,-2,-1,17.205000000000002
3442,1,2,2,0,-1,-1,-2,-1,17.21
3443,-2,-3,-3,1,-1,-1,0,-2,17.215
3444,2,-1,1,3,0,-1,1,0,17.22
3445,1,0,-2,-1,2,0,0,0,17.225
3446,-2,-5,-3,-3,-1,-2,0,-1,17.23
3447,0,1,0,-1,-1,0,0,0,17.235
3448,1,0,1,-2,-1,-1,0,1,17.240000000000002
3449,-4,-4,-7,-3,-2,-4,-2,-2,17.245
3450,-1,-1,-3,-2,-1,1,-1,-1,17.25
3451,-1,1,2,0,2,0,-1,-1,17.255
3452,-1,-2,0,0,-2,-2,1,-1,17.26
3453,2,2,3,1,-1,2,-1,0,17.265
3454,-1,-2,-4,-4,1,-1,-1,0,17.27
3455,0,-1,0,1,-2,-1,1,-1,17.275000000000002
3456,-2,-1,2,1,2,-1,1,0,17.28
3457,0,-2,-5,-1,-1,-2,-4,0,17.285
3458,-1,0,2,0,-2,-1,-1,0,17.29
3459,-1,-1,-2,-2,1,-2,-2,-1,17.295
3460,0,-1,-1,1,-2,1,0,-2,17.3
3461,0,2,5,1,1,1,0,-2,17.305
3462,-2,0,-4,0,1,1,-2,-1,17.31
3463,2,3,3,0,-1,1,0,0,17.315
3464,-2,-3,-6,-4,-1,-2,-6,-2,17.32
3465,-2,0,-1,0,-1,-1,-2,0,17.325
3466,-1,1,-1,-1,-1,-2,1,0,17.330000000000002
3467,0,0,0,-1,0,0,-2,-2,17.335
3468,-2,0,0,-1,0,-1,1,0,17.34
3469,-1,-1,-1,0,0,0,-2,-2,17.345
3470,1,0,2,1,-2,-2,0,-1,17.35
3471,-2,0,-3,-3,-1,-4,0,-2,17.355
3472,-1,-4,-3,-2,0,-1,1,-1,17.36
3473,-3,-1,-4,-3,-2,-1,3,-1,17.365000000000002
3474,-2,0,-1,-1,1,0,0,-1,17.37
3475,0,-2,-1,2,-1,-2,-2,-1,17.375
3476,-1,1,1,0,-1,0,-2,-1,17.38
3477,-4,-2,-3,-2,-2,-3,-2,-1,17.385
3478,0,-1,-3,-4,-3,-1,-1,-2,17.39
3479,0,1,6,2,0,1,0,-1,17.395
3480,-3,-5,-9,-4,-1,-3,-6,-2,17.400000000000002
3481,0,0,0,-2,1,-1,-4,-2,17.405
3482,0,-1,0,-2,-1,-1,7,4,17.41
3483,-3,-4,-7,-2,0,-2,-2,-1,17.415
3484,0,-1,0,1,0,0,-2,-3,17.42
3485,-1,-2,2,0,-1,-1,0,-2,17.425
3486,-2,-4,-5,-2,1,-1,1,0,17.43
3487,0,-1,0,0,-1,2,-1,1,17.435
3488,-1,-1,-1,-2,0,-1,1,0,17.44
3489,1,-2,-3,-3,-1,-2,-1,-2,17.445
3490,-1,-1,2,-1,-1,0,-3,-2,17.45
3491,-3,-2,-4,-4,-3,-1,0,-1,17.455000000000002
3492,1,0,0,0,-1,0,-1,-1,17.46
3493,-1,2,2,-1,0,-1,2,0,17.465
3494,-1,-2,-5,-1,-2,-2,-3,-3,17.47
3495,-1,0,0,1,0,-1,-2,-1,17.475
3496,-1,1,-1,-2,-3,2,1,0,17.48
3497,-3,-1,-1,-1,-1,-1,1,0,17.485
3498,1,1,2,0,0,-1,-2,0,17.490000000000002
3499,-1,-2,-3,-2,-1,-3,-1,0,17.495
3500,0,-1,1,-4,-2,-1,1,-2,17.5
3501,1,0,-1,-1,-4,0,0,0,17.505
3502,-2,-3,-1,-3,-5,-3,-2,-2,17.51
3503,0,0,-1,-3,-1,-1,-1,-2,17.515
3504,1,1,1,3,3,-1,0,0,17.52
3505,-1,-1,-2,0,1,1,-1,0,17.525000000000002
3506,2,4,-1,-1,-1,-2,-3,-4,17.53
3507,0,1,2,2,0,-1,-1,0,17.535
3508,-1,-2,-2,0,0,2,4,1,17.54
3509,-3,1,1,-1,-1,-2,-7,-3,17.545
3510,-1,-2,0,-2,-2,-1,-2,-1,17.55
3511,1,-2,3,0,-1,0,2,-1,17.555
3512,0,2,1,-1,-2,-1,-6,-2,17.56
3513,1,-2,-2,1,1,-3,6,4,17.565
3514,0,2,4,0,-1,-3,-2,-2,17.57
