slno,emg1,emg2,emg3,emg4,emg5,emg6,emg7,emg8,Time
0,1,1,2,-2,0,-1,-2,-2,0.0
1,-2,-3,-5,0,0,-1,5,0,0.005
2,-2,-2,-4,-2,0,0,-12,-2,0.01
3,-2,-1,0,-1,0,-1,-7,-4,0.015
4,-2,-2,-3,-4,-2,0,3,1,0.02
5,0,0,2,1,0,1,-6,-1,0.025
6,0,1,-1,2,-1,-3,1,0,0.03
7,1,-1,1,-1,0,2,5,3,0.035
8,0,-1,-2,0,1,-4,-5,0,0.04
9,-1,-1,0,0,-1,-1,-5,-3,0.045
10,-2,0,0,1,-2,2,1,-4,0.05
11,-3,-1,-1,-2,-2,-4,-2,-1,0.055
12,0,0,-1,-2,-3,-3,-13,0,0.06
13,0,0,1,-1,0,1,15,0,0.065
14,-1,-1,0,-1,0,-2,-2,-2,0.07
15,-2,1,-2,-3,-1,-3,-7,-3,0.075
16,-3,-3,-2,-3,-2,0,1,-3,0.08
17,1,2,4,3,-1,-4,-7,-2,0.085
18,-1,-2,-2,-3,-1,1,4,0,0.09
19,0,0,-2,-3,-2,-4,0,-3,0.095
20,0,0,-2,-2,-1,-2,0,-1,0.1
21,0,-1,-2,-2,-1,0,0,0,0.105
22,-1,0,0,-1,-2,-1,2,-2,0.11
23,-1,-2,2,0,0,-2,-7,-3,0.115
24,2,-1,-2,0,0,-2,7,1,0.12
25,-2,-1,0,-2,0,-2,-3,0,0.125
26,-3,-3,-5,-2,-2,-1,-5,-1,0.13
27,0,0,-1,1,1,2,13,6,0.135
28,-2,-3,-3,-2,-1,-3,-7,-4,0.14
29,-1,0,2,0,1,1,1,-1,0.145
30,0,0,1,-1,0,-1,-2,-2,0.15
31,1,1,-1,0,0,-1,3,2,0.155
32,-3,-1,-3,-2,-1,0,-2,0,0.16
33,0,0,-6,-2,-2,-1,0,-1,0.165
34,0,-1,-2,0,-1,-1,-5,-1,0.17
35,-2,-2,-1,0,-2,-1,-2,-3,0.17500000000000002
36,1,1,2,0,0,0,2,0,0.18
37,-2,-1,-1,0,-2,-4,-7,-1,0.185
38,-1,0,-1,-2,0,-2,0,-1,0.19
39,-1,-1,-1,0,-1,-2,-11,-4,0.195
40,0,-1,-2,0,0,3,6,2,0.2
41,-1,-1,-1,-3,-1,-2,4,1,0.20500000000000002
42,0,0,1,1,-1,0,0,0,0.21
43,-2,-2,-1,-2,-2,-4,-11,-8,0.215
44,0,2,1,-2,-2,0,3,1,0.22
45,1,-3,-3,0,0,-1,-6,-2,0.225
46,-1,-3,-2,-1,-2,0,-1,-1,0.23
47,-1,0,-4,-1,-1,0,1,1,0.23500000000000001
48,-1,-2,-4,0,-2,-1,6,1,0.24
49,-1,0,0,-3,0,0,3,0,0.245
50,1,-1,2,0,0,-1,-4,-1,0.25
51,-2,-5,-2,-3,-2,-1,-6,-3,0.255
52,0,-2,-1,0,1,0,2,0,0.26
53,3,3,2,1,-1,-1,-1,3,0.265
54,0,-2,-1,-2,-2,-1,2,0,0.27
55,-1,-1,0,0,-1,0,0,1,0.275
56,-1,-1,0,0,0,-2,-16,-5,0.28
57,-2,-2,0,-3,0,0,15,0,0.28500000000000003
58,-1,0,-1,-1,0,-2,-7,-1,0.29
59,1,-1,1,-2,-1,1,4,0,0.295
60,-1,-1,1,-1,-1,-2,-10,-1,0.3
61,-2,-5,-6,0,-2,0,3,0,0.305
62,0,0,-3,-2,-2,-1,1,0,0.31
63,-1,2,-1,-2,-1,-2,-2,0,0.315
64,-1,-1,1,-2,-2,-2,-4,-4,0.32
65,-1,-1,-1,0,-1,-1,-7,-3,0.325
66,2,1,-3,2,0,0,7,0,0.33
67,0,-1,-5,-2,-2,0,2,0,0.335
68,0,-1,-3,-3,-2,-2,2,0,0.34
69,-1,-2,1,-2,-1,1,-2,0,0.34500000000000003
70,-3,-1,0,-3,-1,-2,-1,-5,0.35000000000000003
71,0,1,2,0,1,-2,-12,-3,0.355
72,1,0,1,0,0,0,16,5,0.36
73,-3,-1,-1,0,-2,-2,-2,-4,0.365
74,-2,-3,-2,0,-2,-1,-6,-1,0.37
75,0,-1,0,0,0,-1,0,1,0.375
76,1,0,0,-2,-1,-1,1,2,0.38
77,0,1,0,1,-1,-4,-7,-3,0.385
78,0,-1,0,-2,1,2,-1,1,0.39
79,-1,0,-1,0,-2,-3,0,-4,0.395
80,-2,0,-1,2,0,0,-5,0,0.4
81,0,-1,-1,-2,-1,-1,-9,-4,0.405
82,-1,2,3,-1,-1,0,10,5,0.41000000000000003
83,0,2,-1,1,-1,0,-10,-2,0.41500000000000004
84,-1,-2,-1,0,0,2,20,1,0.42
85,0,0,1,1,-2,-2,-9,-1,0.425
86,-2,-1,-2,-2,-1,-2,-6,-4,0.43
87,0,0,1,-1,0,2,10,4,0.435
88,0,-1,0,1,-1,-1,-8,-5,0.44
89,-2,-3,-3,-3,0,0,-1,-3,0.445
90,1,0,2,0,1,1,3,3,0.45
91,-1,-1,-1,-2,-1,-3,-4,-2,0.455
92,-2,-2,-5,-2,0,-2,-9,-5,0.46
93,-1,0,-2,-2,0,1,9,3,0.465
94,-1,0,-2,-1,-1,-2,-5,-3,0.47000000000000003
95,1,-2,0,-1,0,2,1,1,0.47500000000000003
96,0,-1,-1,-3,-1,-1,-3,-1,0.48
97,1,0,1,1,1,1,-1,0,0.485
98,-2,-1,-1,0,-2,-2,0,-1,0.49
99,0,1,0,1,0,0,4,1,0.495
100,1,-2,0,0,1,1,7,2,0.5
101,-1,0,0,0,-2,-1,-1,-1,0.505
102,-1,-1,0,-1,-1,0,-1,-3,0.51
103,-2,-4,-5,-1,-2,-2,-1,-1,0.515
104,-1,2,0,-1,-3,-2,1,0,0.52
105,-1,-1,-2,0,-2,0,1,-1,0.525
106,2,0,1,-1,0,1,4,1,0.53
107,-1,-1,-2,0,0,-2,-4,-2,0.535
108,-1,0,1,1,-2,-3,-8,-1,0.54
109,-2,-3,-3,-3,-1,-1,5,1,0.545
110,-1,-1,0,0,-1,-3,-7,-3,0.55
111,0,1,0,0,-1,0,5,0,0.555
112,-1,-2,-2,-1,-1,0,-3,-2,0.56
113,0,0,2,-2,0,-2,-10,0,0.5650000000000001
114,-1,-3,0,0,-1,0,0,-1,0.5700000000000001
115,-1,-1,0,0,1,-1,0,-1,0.5750000000000001
116,-1,-1,-1,0,0,0,2,0,0.58
117,0,1,-1,0,0,-1,-5,-2,0.585
118,0,-1,0,-1,-1,-2,3,0,0.59
119,-1,1,0,0,0,-3,-5,-3,0.595
120,0,0,1,-2,0,0,-2,-1,0.6
121,-1,-2,0,0,0,0,4,3,0.605
122,-1,0,-2,-1,0,2,3,2,0.61
123,0,0,0,0,-1,-1,-7,-4,0.615
124,-1,0,-1,-1,-2,-3,3,-3,0.62
125,0,-1,0,-2,-1,-2,0,0,0.625
126,0,0,1,0,-1,0,-3,-3,0.63
127,-2,-4,-4,-2,-1,0,1,-1,0.635
128,1,1,0,0,-1,0,3,0,0.64
129,-1,-2,-3,1,-1,-1,-1,-2,0.645
130,0,0,-1,-1,-2,0,-3,1,0.65
131,-1,0,0,-1,-1,1,2,-2,0.655
132,-1,-1,-5,-1,0,-1,-12,-3,0.66
133,0,-2,-4,2,0,0,10,-3,0.665
134,0,-3,-6,-3,-1,0,-7,0,0.67
135,0,-1,0,1,-2,-2,6,1,0.675
136,-1,-1,2,0,0,0,-2,-1,0.68
137,-1,1,3,-1,-2,-2,-7,-1,0.685
138,-3,0,1,0,-2,-1,-5,-6,0.6900000000000001
139,0,-1,3,-3,0,1,10,2,0.6950000000000001
140,-1,-1,0,-1,-1,-1,-6,-3,0.7000000000000001
141,-2,0,-1,-1,-1,-2,0,-3,0.705
142,0,0,0,0,0,0,-1,2,0.71
143,-1,-1,-1,0,0,-2,-4,-1,0.715
144,0,1,0,-1,0,-1,-1,-2,0.72
145,-1,-1,0,-1,-1,-1,-3,-1,0.725
146,-2,1,0,0,-2,-3,-5,-3,0.73
147,0,0,0,-1,-1,-2,2,0,0.735
148,-1,-1,-1,0,-2,1,3,2,0.74
149,-1,0,1,-1,-1,-2,-5,-3,0.745
150,0,-3,-4,-1,0,-3,-1,-1,0.75
151,0,1,-2,1,0,3,2,3,0.755
152,0,0,0,-2,-3,-4,-2,-4,0.76
153,1,0,-3,-1,-2,0,4,2,0.765
154,0,0,0,3,-1,0,-2,0,0.77
155,-2,-1,-5,0,-1,-2,-3,-5,0.775
156,-1,-2,-1,-2,-1,-1,0,2,0.78
157,0,-1,1,0,0,0,-4,1,0.785
158,1,0,3,-2,0,1,15,2,0.79
159,-1,0,1,-3,-2,-3,-5,-3,0.795
160,-2,-1,-2,0,-1,-2,-4,-3,0.8
161,0,0,-1,0,-2,-1,2,0,0.805
162,-1,0,1,1,-1,-3,-1,-1,0.81
163,-1,-2,-1,-2,-1,-1,-4,1,0.8150000000000001
164,-3,-1,-2,-1,0,-2,-2,-5,0.8200000000000001
165,0,-1,-2,1,0,0,-2,2,0.8250000000000001
166,0,-1,-1,-1,-1,-1,11,3,0.8300000000000001
167,-1,1,-1,1,1,1,0,2,0.835
168,0,0,-1,0,-1,-2,-3,1,0.84
169,-1,-1,-1,-2,-1,-3,-2,-6,0.845
170,-1,1,-1,-1,-1,0,-2,-4,0.85
171,-1,-1,0,-1,0,-1,-6,-1,0.855
172,0,-1,2,0,-1,1,-1,-2,0.86
173,-3,-5,-5,-1,0,-1,-3,-3,0.865
174,-1,-4,-6,-4,-1,0,6,4,0.87
175,-1,0,0,-1,0,0,1,-1,0.875
176,-1,0,-2,-1,-1,0,-3,-1,0.88
177,0,1,2,-1,-1,-1,0,2,0.885
178,0,0,0,-1,-1,-1,-10,-4,0.89
179,-1,-1,-2,-1,-1,-2,-3,-2,0.895
180,-1,-1,-1,0,0,0,0,0,0.9
181,0,1,0,-2,1,0,-2,3,0.905
182,-1,0,-1,-2,0,1,2,-2,0.91
183,-1,-3,0,-1,-2,1,2,-2,0.915
184,-1,0,2,0,-1,-1,-3,0,0.92
185,-1,-2,0,-3,0,0,0,-2,0.925
186,-1,-1,-2,0,0,1,0,0,0.93
187,-1,-1,-1,-1,-2,-1,2,2,0.935
188,1,1,2,-1,0,-2,-3,0,0.9400000000000001
189,-3,-3,-5,1,-2,0,-3,-3,0.9450000000000001
190,0,-3,2,-1,0,-1,-1,-3,0.9500000000000001
191,1,2,2,1,-1,0,-5,-2,0.9550000000000001
192,0,0,1,-2,0,-1,8,4,0.96
193,2,0,1,1,1,2,-5,-1,0.965
194,1,1,2,-1,0,1,20,5,0.97
195,-1,-1,-1,1,0,-1,0,-1,0.975
196,0,-1,-3,-1,-1,-1,-4,-4,0.98
197,-1,1,-1,-1,0,0,1,0,0.985
198,-2,-1,-1,1,-2,-4,-14,-8,0.99
199,0,0,0,-1,0,1,-4,-2,0.995
200,1,-1,-1,-1,0,0,3,0,1.0
201,-1,1,-1,0,-3,-2,-1,-2,1.0050000000000001
202,-1,-1,-2,0,0,2,-2,0,1.01
203,-1,-1,-3,0,-1,-1,-3,-2,1.0150000000000001
204,-2,-1,-2,1,-1,1,1,-3,1.02
205,1,0,2,0,-1,-1,0,0,1.025
206,0,2,1,1,0,0,-4,-1,1.03
207,0,-1,-1,-2,-1,-3,-2,-1,1.035
208,-3,-3,-5,-1,-1,2,0,-3,1.04
209,-2,-2,-2,-2,0,-3,-3,2,1.045
210,-1,2,0,0,-2,0,9,5,1.05
211,-3,-5,-6,-4,-3,-2,-2,-1,1.055
212,-1,1,5,2,1,-3,-8,-3,1.06
213,-1,-2,-3,-3,-1,-1,7,2,1.065
214,-1,-1,-2,0,0,-2,-7,-4,1.07
215,0,-1,0,2,0,0,4,1,1.075
216,-1,0,-2,-3,-2,-1,-1,2,1.08
217,-1,-1,-1,-2,0,0,-1,-4,1.085
218,0,-1,-2,0,0,-1,2,2,1.09
219,0,-2,0,0,-1,-1,2,0,1.095
220,-1,-2,-2,1,-1,-2,-2,-1,1.1
221,-1,0,1,2,-3,-1,-12,-4,1.105
222,0,-2,-3,-2,-1,0,1,-3,1.11
223,0,0,-2,-1,0,1,0,-2,1.115
224,0,0,0,-1,-2,-4,-2,4,1.12
225,1,0,0,-1,0,0,5,2,1.125
226,-1,-2,1,-1,1,-1,-12,-4,1.1300000000000001
227,-1,-2,0,-1,0,-1,3,0,1.135
228,0,-1,0,-1,0,2,-6,2,1.1400000000000001
229,-2,-1,-1,2,-1,-1,9,-1,1.145
230,-1,-2,-2,-4,-2,-2,2,1,1.1500000000000001
231,-1,0,0,-2,-1,-2,0,0,1.155
232,0,0,1,1,-1,0,2,0,1.16
233,-1,-3,-1,-2,-1,0,0,0,1.165
234,0,1,-1,-1,-1,-1,-4,-4,1.17
235,0,-2,1,2,1,1,-1,0,1.175
236,-2,0,-1,-1,-1,-1,1,2,1.18
237,-1,0,1,0,0,-1,-4,-4,1.185
238,-2,-2,-1,0,-2,-2,-10,-1,1.19
239,1,1,0,0,0,-1,6,-2,1.195
240,-1,-1,1,-1,-1,1,5,0,1.2
241,1,0,-3,-1,-1,-2,-3,-4,1.205
242,0,-1,-1,0,1,1,2,3,1.21
243,-1,1,-1,-3,0,-2,-4,-1,1.215
244,1,0,0,-1,-1,-1,1,0,1.22
245,-1,1,0,-3,-2,-2,-1,0,1.225
246,0,-1,-3,-1,-1,1,9,1,1.23
247,-1,1,-1,-2,-2,-1,-3,1,1.235
248,0,-1,-2,-3,-1,1,3,-2,1.24
249,-2,-2,-1,-1,-1,-2,-7,-1,1.245
250,-3,-3,-4,-2,-3,-3,-7,-3,1.25
251,-1,-1,-1,-1,0,-3,3,-1,1.2550000000000001
252,-2,0,-1,-1,0,-1,1,0,1.26
253,2,-2,0,-2,-2,0,2,2,1.2650000000000001
254,-1,-1,1,0,-1,0,3,-1,1.27
255,1,-1,1,-1,0,-2,-6,-1,1.2750000000000001
256,-2,-2,-1,-1,-1,-1,-8,-3,1.28
257,-2,0,-1,-4,-1,0,-1,-2,1.285
258,-1,-1,-2,-1,0,0,8,5,1.29
259,-1,0,0,1,0,1,1,2,1.295
260,-3,-1,-2,-2,0,-2,-1,-2,1.3
261,-1,0,1,1,-1,1,-2,0,1.305
262,1,-1,1,-1,0,-3,-7,-3,1.31
263,-2,-1,0,2,-3,-2,-6,-3,1.315
264,0,-2,-3,-2,1,-2,-3,2,1.32
265,-1,-1,-1,-1,0,1,2,0,1.325
266,0,1,0,0,-2,-2,-3,-4,1.33
267,-1,0,0,0,-2,1,7,3,1.335
268,-2,-2,-4,-3,-4,-4,-7,-4,1.34
269,-1,1,0,-1,-1,-5,1,-2,1.345
270,0,0,1,1,0,0,-6,-1,1.35
271,-1,-4,-4,-5,-3,-2,-2,-2,1.355
272,0,1,0,1,-1,0,1,1,1.36
273,0,1,-1,-1,1,-1,-8,-1,1.365
274,-1,-1,1,0,-2,0,5,-2,1.37
275,0,-2,-5,-3,0,0,-1,1,1.375
276,-1,-2,-1,0,1,0,4,0,1.3800000000000001
277,0,-1,-1,1,0,0,0,0,1.385
278,-2,0,2,1,0,-3,-9,-4,1.3900000000000001
279,1,1,1,0,1,1,8,2,1.395
280,0,-1,-2,0,-1,0,5,-2,1.4000000000000001
281,1,-1,0,1,1,1,-2,-1,1.405
282,-1,0,-4,-3,-2,-1,-3,-1,1.41
283,0,0,-1,0,-1,-2,-4,-1,1.415
284,-2,-1,-2,-1,-1,-1,-10,-2,1.42
285,0,-2,0,-1,1,1,10,2,1.425
286,1,1,2,3,0,-1,-1,0,1.43
287,-2,-2,-3,-1,0,-1,-3,-2,1.435
288,1,2,1,0,1,0,-12,-4,1.44
289,-1,-1,-3,-2,-1,2,22,8,1.445
290,-1,-2,-3,0,-1,-2,0,-4,1.45
291,-1,0,-1,-1,-1,-1,-7,-1,1.455
292,2,-2,-1,-1,-1,-2,2,1,1.46
293,-1,-1,-1,1,0,-2,-7,-1,1.465
294,1,-3,-2,-2,-2,0,3,3,1.47
295,-2,-1,-3,-1,-2,-5,-12,-7,1.475
296,0,-1,-2,0,0,2,12,4,1.48
297,-1,-2,-1,0,-1,-3,-7,-1,1.485
298,-2,-1,0,-1,0,-1,6,-2,1.49
299,0,0,2,-1,0,-1,-9,-3,1.495
300,-1,-1,2,1,0,-2,2,-2,1.5
301,1,2,-2,-1,-1,-1,-2,-3,1.5050000000000001
302,-2,0,0,0,-1,-4,-12,-1,1.51
303,-1,-2,0,-1,0,1,9,1,1.5150000000000001
304,-1,-2,-1,-1,-2,-1,-5,-1,1.52
305,-1,-1,1,0,-1,0,5,-1,1.5250000000000001
306,-2,-2,-2,-2,-1,-1,-3,-6,1.53
307,0,1,0,0,-1,-1,1,3,1.5350000000000001
308,0,1,0,0,0,-1,-2,1,1.54
309,-1,-1,-1,0,-1,-2,-7,-2,1.545
310,0,-3,-4,-1,0,-1,-1,0,1.55
311,-2,-3,-3,-2,1,2,3,1,1.555
312,-3,-1,-1,-3,-1,-3,-3,-4,1.56
313,-2,-5,-6,0,-1,-2,-2,0,1.565
314,0,0,2,-1,0,0,0,-1,1.57
315,0,-1,0,1,0,3,7,4,1.575
316,-1,0,-1,-1,-3,-1,1,0,1.58
317,0,1,0,1,-2,-2,-1,0,1.585
318,-1,1,-1,-1,-1,0,1,1,1.59
319,0,-2,-2,0,-4,-4,-11,-6,1.595
320,1,0,-1,-1,0,1,6,1,1.6
321,0,0,2,0,0,1,3,1,1.605
322,-1,-1,-3,-2,-1,1,-1,1,1.61
323,0,-1,1,-1,-1,-1,-1,-3,1.615
324,0,-2,-1,-3,0,0,0,-2,1.62
325,1,1,0,-2,-2,-2,-7,-2,1.625
326,-1,0,-1,1,0,-1,2,-1,1.6300000000000001
327,-2,-1,2,1,-1,-2,-2,1,1.635
328,0,-3,-2,-2,-4,-2,0,2,1.6400000000000001
329,-1,1,-1,-1,0,0,-1,-3,1.645
330,-1,-2,-2,0,0,2,7,4,1.6500000000000001
331,0,2,0,-3,-4,-4,-2,-3,1.655
332,-3,-1,-1,1,0,0,-3,-3,1.6600000000000001
333,-2,-4,-2,-1,-1,0,0,0,1.665
334,-2,-1,-1,-2,-3,-2,-12,-4,1.67
335,-1,1,0,3,1,2,13,4,1.675
336,0,-1,-1,1,2,0,4,3,1.68
337,-2,-2,-5,-3,-1,1,-4,-4,1.685
338,-1,1,0,0,0,-1,-2,-1,1.69
339,0,-2,-3,-3,-2,-1,-3,-2,1.695
340,0,2,1,-2,-4,-2,-3,-3,1.7
341,-1,0,0,-1,-1,-1,-1,-2,1.705
342,-1,0,-2,-1,-1,-2,2,5,1.71
343,0,-2,1,-3,0,-1,-1,2,1.715
344,0,0,1,0,-2,0,0,-3,1.72
345,1,0,1,2,0,-1,-5,-1,1.725
346,0,0,0,-2,-1,-2,-6,0,1.73
347,-3,-4,-6,-4,-2,-1,-12,-4,1.735
348,0,-1,0,0,1,-3,-3,1,1.74
349,-2,0,2,2,1,1,12,1,1.745
350,0,1,2,-1,-1,0,2,0,1.75
351,0,1,3,1,-1,-1,-5,-1,1.7550000000000001
352,-1,-3,-6,-6,-2,-2,-2,-2,1.76
353,1,-2,-2,0,-1,0,-5,-2,1.7650000000000001
354,0,-2,1,1,-1,1,-1,-2,1.77
355,1,1,2,0,1,1,6,1,1.7750000000000001
356,0,-3,-5,-3,-1,1,-2,-3,1.78
357,2,-2,1,1,0,0,8,4,1.7850000000000001
358,-2,-2,-3,-2,0,2,1,-2,1.79
359,-1,-1,0,-2,0,0,-2,0,1.795
360,0,1,1,-1,2,-1,1,-3,1.8
361,-2,-1,-1,-2,-4,0,-8,-4,1.805
362,-1,-4,-2,-2,-1,-2,1,1,1.81
363,-1,-3,-4,-2,1,-1,4,0,1.815
364,1,0,1,0,-1,1,2,0,1.82
365,0,1,0,1,-1,-2,-4,1,1.825
366,-1,-1,-1,-3,-2,-2,-8,-2,1.83
367,0,-1,-1,0,0,0,13,1,1.835
368,-2,0,1,-1,-1,0,-8,0,1.84
369,-1,-2,-2,-3,-1,-1,0,-3,1.845
370,0,-2,-1,1,1,0,-2,-1,1.85
371,-1,-2,-4,0,-1,0,5,2,1.855
372,0,0,1,1,-1,0,-3,-1,1.86
373,-1,-2,-4,-1,-1,-1,-5,-3,1.865
374,-1,-1,-4,-4,0,1,5,2,1.87
375,0,-2,0,-1,-3,-3,-13,-5,1.875
376,0,2,3,0,-1,0,2,0,1.8800000000000001
377,-1,-1,0,-1,0,-2,5,3,1.885
378,0,0,0,1,-1,-2,-5,-4,1.8900000000000001
379,0,0,-1,2,1,2,11,4,1.895
380,-3,-1,0,1,1,0,1,0,1.9000000000000001
381,-1,0,0,-1,0,-1,-5,-4,1.905
382,1,-1,0,1,1,0,8,3,1.9100000000000001
383,-2,0,1,0,0,-2,-8,-1,1.915
384,-2,-2,-2,0,0,-2,-5,-5,1.92
385,0,0,3,1,-1,-1,4,2,1.925
386,-2,-1,-2,0,-2,-1,-8,-3,1.93
387,-1,-1,2,-1,-1,-1,-2,-3,1.935
388,0,0,-2,1,0,0,6,3,1.94
389,-1,1,-1,-2,-2,-2,-7,-2,1.945
390,0,-1,1,2,-2,-2,1,0,1.95
391,-1,0,0,-1,-1,1,-6,-4,1.955
392,-1,-2,-1,0,-2,-2,-8,0,1.96
393,0,0,1,-1,-2,1,15,3,1.965
394,0,-1,-3,-1,-1,-1,-2,1,1.97
395,-1,2,-2,-1,-2,-1,-3,-6,1.975
396,-1,-2,-1,0,-1,-2,-1,1,1.98
397,-1,-2,-4,-2,0,-1,-1,0,1.985
398,-1,0,0,0,-1,1,0,1,1.99
399,-1,-2,-1,1,0,-1,2,-2,1.995
400,-2,-1,-2,0,-1,-2,-9,-3,2.0
401,-3,-1,0,-1,-2,-2,-5,-3,2.005
402,-1,-1,-2,0,0,-1,6,2,2.0100000000000002
403,0,-1,-2,-3,-3,-2,-5,-1,2.015
404,-1,0,0,-2,-2,0,-3,-2,2.02
405,-3,-3,-2,-2,0,-2,0,-2,2.025
406,0,0,1,-2,0,1,8,3,2.0300000000000002
407,-2,-3,-2,-3,-1,-1,-1,1,2.035
408,0,0,0,0,-2,-1,2,3,2.04
409,-3,-1,-2,-1,-1,-2,-14,-8,2.045
410,2,0,0,-1,-2,0,0,1,2.05
411,-1,0,1,0,-1,1,2,0,2.055
412,-1,-4,-6,-2,-1,-3,-1,-1,2.06
413,0,-1,-1,-1,-1,0,4,2,2.065
414,-1,0,1,2,0,1,-1,-2,2.07
415,0,0,-1,-2,0,-3,-2,0,2.075
416,0,-2,0,0,1,1,4,0,2.08
417,1,-1,2,0,-2,-2,3,1,2.085
418,-1,-1,-3,0,-1,-1,-3,-2,2.09
419,1,-1,1,2,-2,0,-5,-1,2.095
420,0,1,2,1,1,-2,-11,-3,2.1
421,-2,-2,-3,-3,-1,-1,-4,-7,2.105
422,1,-1,-2,-3,-2,-1,10,2,2.11
423,-1,-2,-2,-1,0,0,-3,-2,2.115
424,0,1,1,0,-2,-4,0,-2,2.12
425,1,-1,2,1,1,0,-3,-1,2.125
426,-1,-1,-2,1,-1,-3,-8,-3,2.13
427,-3,0,0,2,-1,0,2,-2,2.1350000000000002
428,-1,-1,-2,-1,-1,1,5,0,2.14
429,-1,0,-2,-2,-1,-2,-6,0,2.145
430,-2,-1,-1,-4,-3,-3,-2,-4,2.15
431,1,2,3,1,-2,0,3,1,2.1550000000000002
432,0,-2,-4,-1,0,1,4,0,2.16
433,0,0,-1,-1,-2,0,-5,0,2.165
434,1,-1,0,0,-1,1,9,3,2.17
435,0,1,2,2,0,-2,-4,-1,2.1750000000000003
436,0,-2,-3,-1,-1,-1,1,0,2.18
437,0,-1,0,0,-1,-1,-1,1,2.185
438,-1,-1,0,-1,-1,1,-4,-2,2.19
439,0,-3,-4,-3,0,1,4,-1,2.195
440,0,1,1,-1,-1,-1,1,0,2.2
441,-1,0,-1,2,-1,-1,-5,-1,2.205
442,-1,0,0,0,-1,0,2,1,2.21
443,-3,-2,-2,-2,0,-1,-1,-1,2.215
444,1,1,1,-1,-1,0,3,2,2.22
445,0,-1,0,0,-1,1,3,3,2.225
446,0,-1,1,0,-1,-1,-5,-2,2.23
447,1,-3,-4,-2,-1,0,1,-1,2.235
448,-3,-1,-2,-3,-2,-1,0,-1,2.24
449,0,1,2,-2,-1,-3,5,2,2.245
450,-2,-2,-2,0,-1,-1,-3,-2,2.25
451,-1,0,-4,-1,-2,-2,-7,-1,2.255
452,-1,0,0,1,0,0,0,-1,2.2600000000000002
453,-2,-2,-2,-2,-2,-2,-10,-2,2.265
454,-2,-4,-8,-5,-2,-1,12,0,2.27
455,1,2,0,-1,-1,-1,-7,0,2.275
456,-1,-3,-1,-1,-1,-1,2,-1,2.2800000000000002
457,0,0,-1,1,1,0,2,-1,2.285
458,0,-1,2,0,1,-1,-6,-3,2.29
459,-4,-2,1,-1,-2,-1,-6,-5,2.295
460,-1,-2,-1,-2,-2,1,5,2,2.3000000000000003
461,-1,-1,0,-1,-1,-1,-8,-4,2.305
462,-2,-1,-1,1,-3,-1,2,-1,2.31
463,1,1,0,0,0,0,10,5,2.315
464,-2,1,1,0,-1,-1,-9,-4,2.32
465,0,0,-2,-3,0,-2,2,-2,2.325
466,0,-1,3,0,0,-2,-5,-2,2.33
467,-1,1,-1,-1,0,0,0,-1,2.335
468,-1,-1,-3,-2,-2,-1,0,-1,2.34
469,1,-1,-1,1,1,1,8,5,2.345
470,-1,0,3,0,-1,-1,-5,-2,2.35
471,-1,-4,-3,-2,-1,-2,-2,-4,2.355
472,1,0,-1,1,-1,1,3,0,2.36
473,-1,1,-2,0,0,0,-6,-5,2.365
474,-1,1,-3,-1,-1,-1,9,4,2.37
475,-2,-3,-1,0,0,-1,-6,-3,2.375
476,1,-1,0,-1,-1,-3,0,0,2.38
477,0,0,1,1,-2,-2,1,-1,2.3850000000000002
478,0,0,3,2,1,1,-8,-2,2.39
479,-2,-2,-5,-4,-2,-2,0,-1,2.395
480,0,-1,-2,-2,-1,2,14,3,2.4
481,-1,0,0,-3,0,-2,-6,-5,2.4050000000000002
482,0,-1,1,0,1,-1,2,1,2.41
483,0,2,3,1,0,2,6,3,2.415
484,-1,0,-1,0,0,-1,-9,-3,2.42
485,0,-4,-2,-3,-2,-3,5,1,2.4250000000000003
486,-1,-1,-2,-1,0,-1,-10,-5,2.43
487,-3,1,-1,1,0,1,2,0,2.435
488,-2,-3,-1,-2,-3,-2,-9,-3,2.44
489,0,1,1,0,-1,1,16,6,2.445
490,-4,0,-2,-2,-2,-1,-6,-4,2.45
491,1,0,2,0,-1,-2,-2,1,2.455
492,-2,-2,-3,-1,0,0,-4,-3,2.46
493,-2,-2,2,-1,0,0,-3,-2,2.465
494,-1,-2,-3,-3,-2,-1,-2,1,2.47
495,1,0,0,-2,0,1,2,0,2.475
496,-1,-1,0,0,0,1,0,-1,2.48
497,0,0,0,1,0,-2,-5,-1,2.485
498,-3,-1,-4,-3,-1,-4,-1,-3,2.49
499,0,0,1,0,-2,-2,-13,-1,2.495
500,-1,0,0,0,-1,0,12,1,2.5
501,-2,0,-3,-2,0,-2,-12,-3,2.505
502,2,-1,0,0,-1,2,13,2,2.5100000000000002
503,0,0,-2,-1,-1,-1,1,1,2.515
504,-2,-1,-2,-1,-1,-3,-7,-3,2.52
505,-2,1,-3,-4,-1,1,6,2,2.525
506,-1,0,-1,-1,-2,-3,-14,-5,2.5300000000000002
507,1,-1,-1,0,0,0,9,3,2.535
508,1,-1,0,-1,-1,-3,-3,-2,2.54
509,-1,0,-1,0,-2,1,0,0,2.545
510,0,1,0,-2,-1,-2,0,-1,2.5500000000000003
511,1,0,1,2,-1,0,0,-2,2.555
512,-2,-1,-1,-1,-1,0,-4,0,2.56
513,-1,-2,0,-1,-1,-1,3,1,2.565
514,0,1,-1,0,-1,-2,-4,-1,2.57
515,-2,-4,-6,0,-1,-3,-1,0,2.575
516,-1,0,-4,-4,-1,0,1,-1,2.58
517,-1,-1,1,1,-1,-1,-5,-1,2.585
518,-2,-1,-3,1,-1,1,4,-2,2.59
519,0,1,0,-1,-1,0,-5,-1,2.595
520,1,-1,-1,-1,-1,2,13,1,2.6
521,0,1,-2,1,-3,-1,5,2,2.605
522,-1,-3,-4,-3,-2,-1,-8,-2,2.61
523,-4,-2,-2,-3,-2,-1,-9,-2,2.615
524,0,0,-1,-1,-1,-1,0,0,2.62
525,-2,-2,-1,0,0,0,1,-3,2.625
526,1,2,2,1,1,-2,0,2,2.63
527,0,1,0,0,-1,-1,-2,-2,2.6350000000000002
528,0,1,-1,0,1,-1,-3,0,2.64
529,-2,-2,-3,-2,-2,-1,-2,-2,2.645
530,-1,-1,0,0,0,0,-7,-4,2.65
531,0,-1,0,-1,-3,-1,9,2,2.6550000000000002
532,-1,1,-5,0,0,3,9,3,2.66
533,2,-1,1,-1,0,0,-1,-3,2.665
534,0,-1,-1,-1,0,1,5,0,2.67
535,-2,0,-3,0,0,-4,-10,-4,2.6750000000000003
536,-2,-1,-3,1,-1,-5,-10,-4,2.68
537,-1,-2,-5,-2,-2,-1,2,-1,2.685
538,0,-1,-3,-1,2,1,0,-2,2.69
539,-1,0,-1,-1,-1,1,7,0,2.695
540,-2,0,2,0,2,-4,-5,0,2.7
541,-2,-1,2,1,-1,-2,-4,-6,2.705
542,-2,-2,0,-2,-1,-4,-5,-3,2.71
543,-3,-1,3,0,1,-1,1,-5,2.715
544,1,-3,0,-1,-1,0,3,0,2.72
545,0,0,1,1,-2,-2,1,-2,2.725
546,0,1,3,2,-1,0,-2,0,2.73
547,-1,-1,-1,-4,0,0,2,-2,2.735
548,-1,-1,3,-1,-2,-3,-11,-4,2.74
549,0,-1,0,0,3,1,14,3,2.745
550,-1,-1,0,0,-2,-4,0,-1,2.75
551,-1,-1,-2,0,-1,0,6,3,2.755
552,-1,-3,-1,-2,-3,-2,-7,-2,2.7600000000000002
553,-1,0,-1,-1,-2,-1,-1,0,2.765
554,-1,-1,-3,-3,-4,0,0,-1,2.77
555,-1,-1,-1,-2,-1,-1,-5,1,2.775
556,-1,-2,-1,0,0,0,-1,0,2.7800000000000002
557,-1,0,-2,0,-2,-1,-3,1,2.785
558,0,-2,-2,-2,-1,-2,-2,0,2.79
559,-1,-2,-2,0,0,-1,-3,-2,2.795
560,0,-1,0,0,-2,1,4,1,2.8000000000000003
561,-2,-3,-2,-3,-2,-1,-4,-3,2.805
562,-1,0,1,0,-1,0,1,2,2.81
563,-1,-1,1,1,0,1,1,0,2.815
564,-1,-1,-2,-2,-3,-3,2,1,2.82
565,0,1,0,0,-1,0,-8,2,2.825
566,-2,-2,-3,-2,-3,-1,5,2,2.83
567,0,-2,-3,-1,-2,-1,0,0,2.835
568,0,0,0,1,1,-1,-4,-1,2.84
569,-2,-1,-3,-3,-1,-2,0,1,2.845
570,0,2,3,0,1,0,-1,-2,2.85
571,-2,-4,-5,-2,0,1,-1,-4,2.855
572,1,2,2,0,0,-1,5,4,2.86
573,-2,-1,-2,0,0,-2,-5,-6,2.865
574,-1,0,0,-1,-1,0,5,3,2.87
575,1,1,1,1,-1,-3,-12,-7,2.875
576,-1,0,-2,-5,-2,0,4,-1,2.88
577,-1,-2,0,1,0,1,-4,-1,2.8850000000000002
578,-1,-2,-2,-1,1,0,-2,-2,2.89
579,0,0,2,-1,-1,0,5,1,2.895
580,-2,-2,-1,0,-3,-1,-1,-4,2.9
581,0,-1,-1,0,1,-1,-1,-2,2.9050000000000002
582,-1,-1,-3,-1,-2,-1,-5,-5,2.91
583,1,-1,0,-2,0,-2,2,1,2.915
584,-1,-2,2,-1,1,-2,-2,-4,2.92
585,1,0,0,-3,-1,-2,0,-1,2.9250000000000003
586,-1,-2,0,-1,-1,1,0,0,2.93
587,-1,-1,-2,0,-1,-2,2,0,2.935
588,-3,-2,-6,-3,-2,-1,-4,-2,2.94
589,0,0,2,1,-2,-3,-1,0,2.945
590,-2,0,-2,-2,1,0,5,4,2.95
591,-3,0,0,1,1,-1,-2,-2,2.955
592,-1,0,2,1,-2,-1,-1,-1,2.96
593,-2,-2,-1,0,0,1,4,0,2.965
594,-1,1,-1,2,-1,-1,-13,-4,2.97
595,-1,0,1,-1,-2,0,13,6,2.975
596,-1,-1,0,-1,-1,0,4,2,2.98
597,0,0,-1,0,-1,0,0,-1,2.985
598,-1,-1,4,0,-2,-1,0,-3,2.99
599,-1,-2,-5,-3,-1,-1,-6,-1,2.995
600,-1,1,-1,0,-1,-1,1,1,3.0
601,-1,0,-3,-1,-2,-2,-1,-1,3.005
602,-1,-1,-2,-2,-1,-2,1,-2,3.0100000000000002
603,-1,0,-2,0,-2,-2,-11,-4,3.015
604,0,-3,-3,-1,0,1,12,5,3.02
605,-1,0,-1,-1,-1,-2,-2,1,3.025
606,-3,-1,-2,-1,-2,-1,-1,-3,3.0300000000000002
607,-1,1,2,-2,-2,0,0,2,3.035
608,0,1,1,-1,-1,-2,-3,-1,3.04
609,-3,-2,-6,-3,-2,-1,-1,0,3.045
610,0,-1,-1,-2,0,-1,3,1,3.0500000000000003
611,-1,1,3,1,1,-1,-4,-2,3.055
612,-3,-1,0,0,-1,1,-4,-5,3.06
613,-1,-1,2,0,-1,-2,1,1,3.065
614,-1,-1,0,-1,0,0,0,-1,3.0700000000000003
615,-2,-1,-1,-1,-1,-1,-9,-1,3.075
616,-1,-3,-2,1,0,-1,1,-3,3.08
617,-2,-2,0,-2,0,-1,-1,0,3.085
618,1,-1,-1,-1,-2,1,7,5,3.09
619,-1,-3,0,-1,0,-1,-1,-3,3.095
620,0,0,-1,-1,0,2,0,2,3.1
621,0,0,2,-1,0,1,-4,-5,3.105
622,-2,0,-2,-1,-1,0,-1,-2,3.11
623,-1,-1,-2,-1,-1,-2,-2,0,3.115
624,1,-1,-1,-2,-1,-1,-4,-2,3.12
625,-1,-1,0,-1,1,1,2,0,3.125
626,0,-1,-1,1,0,-1,-1,0,3.13
627,-1,-3,-3,-3,0,-1,4,0,3.1350000000000002
628,-2,-3,-3,-1,-3,-3,-9,-3,3.14
629,1,0,-1,-3,-1,0,7,2,3.145
630,-1,-1,-3,0,0,-2,-2,-4,3.15
631,-2,0,0,0,-1,-2,0,0,3.1550000000000002
632,-1,0,0,0,0,-1,-2,-3,3.16
633,0,1,2,-1,0,0,-2,0,3.165
634,-1,-3,-2,-2,-2,-1,-2,-1,3.17
635,-1,-2,-4,-4,-3,-2,-1,-4,3.1750000000000003
636,0,-1,0,-2,-2,0,-1,-2,3.18
637,-1,-1,0,1,0,-1,-4,-3,3.185
638,0,0,-1,1,2,1,9,5,3.19
639,0,1,2,0,-1,1,0,1,3.1950000000000003
640,-2,-1,-2,2,2,1,12,7,3.2
641,-1,-2,-2,-1,0,-2,-3,-3,3.205
642,0,-2,-3,-2,-1,-1,4,2,3.21
643,-1,-1,-1,0,0,0,-1,1,3.215
644,-1,-1,-1,-1,-1,-2,-7,0,3.22
645,-2,-1,-1,0,-1,-1,-2,-1,3.225
646,-1,0,0,-3,0,-1,-5,-1,3.23
647,1,1,0,-1,0,0,0,-3,3.235
648,-1,-1,-1,-1,-2,-1,-2,-2,3.24
649,0,0,-1,2,0,0,1,1,3.245
650,-1,-3,-1,-2,-3,-1,-4,-4,3.25
651,-1,-1,1,-1,-2,-1,2,-1,3.255
652,-1,0,0,1,0,-2,-1,-2,3.2600000000000002
653,-2,-2,1,-1,0,-1,0,-2,3.265
654,0,0,0,0,-1,-1,-1,-1,3.27
655,0,0,2,3,2,1,1,-2,3.275
656,-2,-3,-5,-3,-1,-2,-3,-4,3.2800000000000002
657,-1,-1,-4,-1,-1,0,2,2,3.285
658,1,0,1,1,1,1,-4,-2,3.29
659,-1,-1,1,0,-2,-3,0,0,3.295
660,0,0,2,0,-1,0,-2,-1,3.3000000000000003
661,-1,-1,-2,0,-1,-4,-5,-1,3.305
662,-2,1,1,-3,-1,-1,0,-1,3.31
663,-1,-1,-2,0,-3,0,-3,2,3.315
664,0,1,4,0,-2,1,1,0,3.3200000000000003
665,-1,-2,-1,-1,-2,-1,-8,0,3.325
666,-2,-2,-1,-1,-1,-2,-2,-3,3.33
667,0,-1,-1,0,-1,0,1,0,3.335
668,0,0,3,1,0,1,-6,-1,3.34
669,-1,0,0,-1,-1,0,1,-1,3.345
670,-3,-2,-3,-4,-1,-3,-4,-2,3.35
671,0,-1,-3,-2,-1,-2,-2,-2,3.355
672,0,1,0,1,0,-1,2,1,3.36
673,0,-1,-2,-2,-1,2,-1,-2,3.365
674,0,-1,0,2,0,-1,-6,-2,3.37
675,0,-2,-3,-1,-1,1,4,2,3.375
676,0,-1,0,-1,-1,2,5,-1,3.38
677,-1,1,1,0,-1,1,2,-2,3.3850000000000002
678,-2,-3,-2,-2,-2,-1,-2,0,3.39
679,-3,2,-1,1,0,0,-3,-4,3.395
680,-2,-3,-3,-2,-3,-2,-5,-1,3.4
681,-1,-1,-4,-4,-1,-2,0,0,3.4050000000000002
682,-2,-2,0,1,0,-1,0,-2,3.41
683,-1,-2,-1,-1,-1,-1,0,0,3.415
684,-2,-2,-2,-2,-1,-3,-6,-3,3.42
685,0,-3,-2,1,0,2,5,3,3.4250000000000003
686,1,0,-1,-2,-1,0,0,0,3.43
687,1,-1,-3,-2,0,1,6,2,3.435
688,0,-1,-1,1,1,0,3,-2,3.44
689,1,-1,0,-2,-1,-5,-2,0,3.4450000000000003
690,-1,-1,-3,0,1,0,-2,0,3.45
691,-1,-2,0,-1,0,-1,-2,-4,3.455
692,0,-1,-1,0,-1,1,0,5,3.46
693,-1,-1,0,0,-1,-1,0,-3,3.465
694,-3,-1,-1,0,-2,-3,-4,0,3.47
695,-3,-3,-7,-3,-4,-3,1,-4,3.475
696,-1,-2,-1,-1,-1,-1,-3,0,3.48
697,0,0,0,2,-2,2,6,4,3.485
698,-1,1,-1,2,-2,-2,-2,-2,3.49
699,-2,1,3,0,0,-1,-7,-3,3.495
700,0,-1,-6,-4,-1,1,8,2,3.5
701,-2,-2,0,-1,-3,-4,-6,-3,3.505
702,1,-1,0,0,0,3,13,2,3.5100000000000002
703,-2,-3,-3,0,-1,0,-5,0,3.515
704,-1,0,1,0,0,-2,-2,-3,3.52
705,-1,-1,2,0,1,-1,-6,-4,3.525
706,-2,0,2,0,-1,0,0,0,3.5300000000000002
707,-1,-2,-3,-4,-3,-3,-1,-1,3.535
708,-3,-2,-3,-3,-1,0,-3,-1,3.54
709,0,0,0,0,-1,-2,-2,-3,3.545
710,-1,-1,-3,-1,-1,-2,-5,-2,3.5500000000000003
711,1,1,3,1,0,2,0,-2,3.555
712,-3,-3,-3,0,-2,-1,1,-1,3.56
713,0,1,-2,-2,-1,-2,-4,-1,3.565
714,0,0,-1,-1,0,0,1,-2,3.5700000000000003
715,0,-2,-1,-1,1,-1,1,1,3.575
716,1,-2,-1,-1,-1,0,-5,-3,3.58
717,-4,-1,-1,-1,0,0,0,0,3.585
718,-1,-3,0,-1,-1,0,1,1,3.59
719,1,0,1,-1,-1,1,0,1,3.595
720,-2,2,2,2,1,-2,-3,-3,3.6
721,-2,-2,-4,-1,0,1,5,0,3.605
722,-1,0,0,-2,-2,-2,-3,-3,3.61
723,-1,-1,0,0,-1,-4,-7,-1,3.615
724,0,-1,1,-3,1,2,2,0,3.62
725,0,-1,-1,-1,-2,-2,-2,-1,3.625
726,2,0,-1,0,1,1,5,0,3.63
727,0,-1,-1,1,-1,1,0,-3,3.6350000000000002
728,0,1,-2,-1,-1,-2,-7,-1,3.64
729,-1,-2,0,0,0,-1,1,-1,3.645
730,0,1,1,-1,0,1,4,3,3.65
731,-3,0,-1,2,0,-3,-5,-2,3.6550000000000002
732,0,1,1,0,0,-1,3,0,3.66
733,-1,-3,-3,-4,-1,-1,-4,1,3.665
734,1,1,3,0,0,0,-1,1,3.67
735,-2,-5,-6,-4,-1,0,1,0,3.6750000000000003
736,-1,-2,-1,-1,-1,-2,-7,-6,3.68
737,-1,1,2,1,-1,1,1,1,3.685
738,-4,-3,-5,-5,-4,-4,-4,-2,3.69
739,1,-1,3,0,0,1,5,2,3.6950000000000003
740,-2,-3,-1,-1,0,-3,1,-2,3.7
741,0,1,1,1,-1,-2,-2,-2,3.705
742,-2,-3,-2,-4,-2,-1,-5,-5,3.71
743,1,0,1,-1,-1,0,-4,-1,3.715
744,-1,-1,0,-1,-1,1,7,3,3.72
745,-2,-1,-1,-1,-1,-2,-4,-2,3.725
746,-1,-1,0,0,-1,-2,0,-1,3.73
747,0,0,-1,0,-2,-1,1,-1,3.735
748,-1,-2,1,0,0,-1,-2,-2,3.74
749,1,0,1,2,0,0,1,0,3.745
750,1,0,-2,-2,-1,-2,0,-1,3.75
751,-1,-2,-2,-3,-1,-3,-6,-1,3.755
752,-2,-1,-2,-3,-2,-1,3,-3,3.7600000000000002
753,-1,-1,-4,-5,0,-1,-3,-1,3.765
754,-2,-2,-2,-2,-1,-1,-6,-2,3.77
755,-2,0,1,-2,-2,1,-3,0,3.775
756,-1,-1,1,0,-1,-1,-1,0,3.7800000000000002
757,1,-2,0,1,-1,1,5,3,3.785
758,0,-2,-2,1,1,0,3,1,3.79
759,-1,-3,-5,-5,-2,-2,1,-1,3.795
760,-2,-2,-2,-2,-3,-2,-8,1,3.8000000000000003
761,1,-1,-1,0,-1,1,1,-2,3.805
762,0,-1,1,1,0,0,-1,-1,3.81
763,-1,0,2,3,0,0,3,-2,3.815
764,0,-1,-1,0,0,-1,3,2,3.8200000000000003
765,-1,-1,0,1,0,1,0,-1,3.825
766,0,1,-1,-2,0,-1,-1,0,3.83
767,-1,0,1,0,1,0,0,0,3.835
768,0,-1,0,0,-2,2,-3,-2,3.84
769,0,0,5,0,0,0,0,-3,3.845
770,0,0,0,1,-1,0,8,10,3.85
771,1,-1,-1,0,0,-1,0,1,3.855
772,0,-1,-5,-3,-4,-2,0,0,3.86
773,-2,-1,-3,-2,-2,-1,-1,-1,3.865
774,-1,1,1,0,-1,0,-7,-4,3.87
775,-1,-1,0,0,-1,-3,1,-1,3.875
776,0,2,0,-2,-1,0,-1,0,3.88
777,-2,0,-3,0,0,-2,-3,-2,3.8850000000000002
778,0,-1,4,-2,-1,-1,-3,-4,3.89
779,-1,-2,-3,-2,0,0,4,2,3.895
780,-2,-1,-2,-1,0,0,-3,-2,3.9
781,0,-1,-1,1,-2,0,-3,-3,3.9050000000000002
782,-1,-3,-6,-1,-2,-1,2,1,3.91
783,0,1,0,-1,-2,-3,-7,-2,3.915
784,0,0,1,1,-1,-2,0,-1,3.92
785,-1,-1,-2,-3,-2,-1,1,0,3.9250000000000003
786,0,0,1,2,0,-1,-2,-3,3.93
787,-1,0,1,-1,-2,0,-3,-2,3.935
788,1,1,-1,0,0,-2,3,0,3.94
789,-1,-2,-2,-2,-1,-2,-5,0,3.9450000000000003
790,-1,-1,-1,-3,-1,-1,5,2,3.95
791,-3,-1,0,1,0,0,3,0,3.955
792,0,-2,2,0,0,0,1,1,3.96
793,0,-1,2,0,1,0,3,1,3.9650000000000003
794,-2,-2,-4,-3,-1,-3,-11,-3,3.97
795,1,1,1,1,-1,1,6,-1,3.975
796,-1,-1,-4,-4,-2,0,-2,-1,3.98
797,-1,1,1,-1,0,-2,1,1,3.985
798,-2,-4,-6,-3,-1,-1,-4,-2,3.99
799,0,-1,0,-3,-1,0,-1,-1,3.995
800,-3,-4,-5,-1,-1,-1,-4,-4,4.0
801,0,-2,-6,-4,-5,-4,2,1,4.005
802,-2,1,2,1,0,-1,-4,-4,4.01
803,0,-1,-2,1,0,-1,1,1,4.015
804,-1,2,2,0,-1,0,2,1,4.0200000000000005
805,-1,-1,-3,0,0,0,-5,-2,4.025
806,0,-1,0,1,0,-1,0,2,4.03
807,0,-1,-2,-3,-2,0,-1,-2,4.035
808,-2,0,0,1,0,-1,-3,1,4.04
809,-1,-1,-2,0,-1,0,0,-1,4.045
810,0,0,-1,0,-1,1,1,-1,4.05
811,0,1,2,2,0,0,0,2,4.055
812,1,1,-1,1,1,0,-2,-1,4.0600000000000005
813,-3,-3,-3,-4,-3,-1,-2,-2,4.065
814,0,0,2,0,-1,1,1,-1,4.07
815,-1,-2,-2,-3,0,0,-2,-1,4.075
816,-1,1,1,0,-1,-1,1,0,4.08
817,-3,-2,-5,-1,1,0,-3,-3,4.085
818,1,-1,0,-2,-2,0,-3,-1,4.09
819,-1,-2,-3,-2,-1,-2,-4,-1,4.095
820,0,-1,-1,-2,-1,2,3,0,4.1
821,0,0,4,2,0,0,-1,-2,4.105
822,-2,0,-1,-2,-2,0,2,0,4.11
823,0,2,0,0,-3,-3,-5,-2,4.115
824,-1,0,2,-1,-1,-1,-1,-1,4.12
825,1,-2,-2,-1,-2,-3,-1,1,4.125
826,-1,-1,-1,1,0,2,3,3,4.13
827,-1,-2,0,0,-1,0,1,-2,4.135
828,0,0,-1,-3,-1,-2,-1,0,4.14
829,0,0,0,0,-2,0,1,0,4.1450000000000005
830,-1,0,-2,-1,-2,-1,-1,-1,4.15
831,1,-1,-3,-1,-1,-4,-1,-2,4.155
832,0,0,-2,0,-1,-2,-2,-2,4.16
833,0,1,0,0,1,0,0,0,4.165
834,-1,-4,-4,-1,1,-1,-1,0,4.17
835,0,0,1,3,1,2,1,1,4.175
836,-3,-3,-4,-3,-2,-2,-2,-2,4.18
837,1,1,1,-2,-1,-2,0,-2,4.1850000000000005
838,-1,-1,-1,0,-1,-1,-2,-4,4.19
839,-1,-2,-6,-4,-2,0,1,-1,4.195
840,0,-3,-2,-3,-1,-2,-2,-3,4.2
841,-1,-3,-2,-1,0,2,0,-1,4.205
842,-1,-2,-1,-1,0,0,5,1,4.21
843,-2,-2,0,-1,-2,-1,-2,-1,4.215
844,1,1,0,1,-2,0,0,1,4.22
845,1,-1,0,-2,-3,-2,-1,-3,4.225
846,-1,2,1,0,1,0,-4,1,4.23
847,-2,-2,-3,-1,0,-2,-1,-2,4.235
848,-2,0,0,2,-1,0,0,-3,4.24
849,-3,-2,-5,-3,-1,-2,-1,-2,4.245
850,0,0,2,-1,-1,-1,-3,-4,4.25
851,-1,1,1,-1,-1,0,4,4,4.255
852,-2,-3,2,-1,1,-2,-4,-2,4.26
853,-1,0,-3,-1,-2,0,-1,1,4.265
854,1,0,-1,4,-1,0,0,-2,4.2700000000000005
855,-2,-1,-2,-2,-1,-1,-3,-2,4.275
856,-2,-4,-5,-1,0,0,0,-1,4.28
857,0,0,1,-2,0,0,1,1,4.285
858,-3,-1,-1,-2,-1,-1,-2,0,4.29
859,-1,1,0,1,-2,0,1,0,4.295
860,0,0,4,3,0,0,-2,0,4.3
861,-2,-3,-4,-1,-2,-3,-3,-4,4.305
862,0,-1,-2,-2,0,0,-4,0,4.3100000000000005
863,0,-3,-5,-1,-1,-1,9,2,4.315
864,-1,0,0,-1,-2,1,3,2,4.32
865,-1,-1,-2,1,-1,0,1,-2,4.325
866,-2,-2,1,-1,-2,-2,-2,-4,4.33
867,-2,-1,1,-2,1,0,-1,1,4.335
868,1,-1,-2,-2,0,-2,-2,-2,4.34
869,-1,0,0,0,0,-1,0,2,4.345
870,1,-1,0,0,-1,-1,-1,-2,4.3500000000000005
871,-1,0,4,-1,-1,-1,-5,-3,4.355
872,-1,-1,-2,-1,-2,-2,0,0,4.36
873,-2,0,-1,-2,1,1,-1,1,4.365
874,-2,0,-3,-2,-2,-4,-3,-3,4.37
875,0,0,2,-1,-1,0,1,1,4.375
876,-1,0,-3,-2,-1,0,-2,-1,4.38
877,-1,-1,1,1,0,0,-1,-1,4.385
878,-1,1,-1,-1,-1,-1,2,-1,4.39
879,-2,0,-1,-1,-1,-2,-4,-4,4.3950000000000005
880,-4,-4,-6,-5,0,-2,0,-2,4.4
881,-1,1,2,1,0,-1,-1,1,4.405
882,-1,-4,-4,-1,-2,-2,1,0,4.41
883,-1,-1,-1,0,-1,0,-3,1,4.415
884,0,0,1,-1,0,-1,-1,-1,4.42
885,-1,0,1,0,-1,1,-1,0,4.425
886,-1,-2,0,1,1,0,-2,-1,4.43
887,0,-2,-3,-4,-1,-1,0,-3,4.4350000000000005
888,-2,-3,0,-1,-1,0,-3,0,4.44
889,1,0,1,1,-1,0,2,1,4.445
890,0,2,1,2,-1,-1,2,2,4.45
891,-3,-3,-4,0,-1,-1,-1,-3,4.455
892,0,0,0,-1,-2,-1,-2,-1,4.46
893,-1,-2,-1,-1,-2,-1,-2,-1,4.465
894,0,1,3,-1,-2,-1,1,-1,4.47
895,-2,-6,-11,-2,0,0,-3,-2,4.4750000000000005
896,0,-1,1,0,-2,1,1,0,4.48
897,-1,-2,-3,-2,-1,-2,-5,-5,4.485
898,-1,-1,0,-2,-1,0,3,3,4.49
899,2,2,2,2,2,1,-2,1,4.495
900,0,1,-2,1,-1,-3,-3,-1,4.5
901,-1,-2,-4,-2,-1,-1,-2,0,4.505
902,-2,0,-3,0,1,0,-1,0,4.51
903,-1,-2,1,0,-2,-2,-2,-1,4.515
904,0,-1,0,1,0,0,1,0,4.5200000000000005
905,-2,0,-3,-2,-1,-1,-1,-1,4.525
906,-1,-3,-5,-3,-2,-1,0,-2,4.53
907,1,0,0,0,-1,1,2,3,4.535
908,1,1,5,1,0,-1,-2,-1,4.54
909,-1,-5,-6,-3,-1,-5,-1,-1,4.545
910,0,-1,-2,-2,-1,0,-3,-2,4.55
911,0,0,1,0,0,-3,-4,-2,4.555
912,-1,0,2,-1,-1,0,-1,-1,4.5600000000000005
913,0,2,2,0,1,2,8,4,4.565
914,1,-2,-3,-1,1,-1,-2,-1,4.57
915,0,-1,-1,-1,-2,0,-1,-2,4.575
916,-2,0,-3,0,0,-3,-1,1,4.58
917,-1,-2,0,-2,-1,1,-2,1,4.585
918,1,-1,-1,-1,-2,-1,-2,-2,4.59
919,-2,-2,-1,1,0,-3,-3,-1,4.595
920,-1,-2,-2,-1,-1,0,1,-1,4.6000000000000005
921,1,-1,2,1,-2,0,-1,-2,4.605
922,0,0,1,-1,-1,0,1,1,4.61
923,1,2,5,0,-1,1,-3,-3,4.615
924,-3,0,0,-2,-1,-1,0,-1,4.62
925,1,2,2,1,0,-1,-1,-1,4.625
926,-4,-3,-3,-4,-2,-3,-3,-2,4.63
927,-1,0,0,2,-1,0,2,2,4.635
928,0,-2,-3,-2,-2,-2,-2,0,4.64
929,-2,-1,-1,0,-1,0,-2,-2,4.6450000000000005
930,-1,0,2,-2,0,1,-1,-1,4.65
931,-1,0,-3,-2,-2,-2,0,-2,4.655
932,1,-1,1,0,0,0,0,0,4.66
933,-3,-2,-6,-3,-2,-4,-5,-6,4.665
934,-2,-1,-2,1,0,1,0,1,4.67
935,-1,0,0,-3,-2,0,-2,-2,4.675
936,-2,0,-1,1,-2,1,4,1,4.68
937,-2,-3,-3,-3,-2,-2,-2,-3,4.6850000000000005
938,0,1,4,2,-1,-2,0,0,4.69
939,-4,-4,-8,-4,-1,-2,-2,-2,4.695
940,-1,-1,0,-1,0,0,-1,-4,4.7
941,-1,1,3,1,2,1,-1,2,4.705
942,0,-1,-5,-1,-1,-2,2,2,4.71
943,0,-2,1,1,0,-1,0,-1,4.715
944,-1,-2,-3,-3,-3,-1,-1,-2,4.72
945,0,0,0,0,0,-2,1,0,4.7250000000000005
946,0,-1,0,0,1,1,1,-2,4.73
947,0,0,1,0,0,-1,-2,0,4.735
948,-1,-3,-4,-2,0,-1,1,-1,4.74
949,0,-1,-1,-1,-1,-1,2,1,4.745
950,0,-1,1,-1,-2,0,-4,-1,4.75
951,0,0,0,-1,0,0,-1,-2,4.755
952,-1,0,-2,-1,-2,-2,-2,-2,4.76
953,-1,-1,1,1,1,-1,-1,1,4.765
954,-1,1,-1,-3,0,-2,-2,-3,4.7700000000000005
955,-2,0,-4,-2,-2,0,3,3,4.775
956,1,-2,-1,-1,-1,0,-5,-2,4.78
957,1,-1,-2,-3,-1,-2,2,-1,4.785
958,-3,-2,-4,-1,-2,-1,-3,-4,4.79
959,0,0,2,0,-1,-1,0,0,4.795
960,0,0,0,0,-1,-2,3,4,4.8
961,-1,-1,0,3,0,2,-1,-3,4.805
962,0,0,0,-2,0,-2,-2,0,4.8100000000000005
963,-1,1,2,1,0,1,-1,0,4.815
964,-3,-1,-3,-3,-3,-2,-2,-1,4.82
965,0,0,3,-2,0,-3,-2,0,4.825
966,-2,-3,-3,0,-1,-1,0,0,4.83
967,0,1,1,1,0,-1,-2,-3,4.835
968,0,-1,0,0,0,0,0,-2,4.84
969,1,3,2,0,-1,1,-3,3,4.845
970,0,0,-3,-2,-2,-1,-1,-1,4.8500000000000005
971,0,-1,-4,0,0,0,1,0,4.855
972,-2,0,-1,0,1,1,0,0,4.86
973,0,-2,-2,-1,-2,-3,-5,-4,4.865
974,0,0,3,2,-1,0,1,-1,4.87
975,-1,-2,-3,-2,0,-1,0,-3,4.875
976,-1,-1,1,1,-3,-2,0,0,4.88
977,-3,1,-1,0,-4,0,1,1,4.885
978,1,-1,0,-2,-2,-1,-2,1,4.89
979,-1,0,2,-1,-2,1,1,-1,4.8950000000000005
980,-2,-2,-3,-2,-2,-2,-3,-2,4.9
981,0,-2,-2,-1,0,-2,2,-1,4.905
982,-2,-1,-1,-1,-2,0,-3,-3,4.91
983,-1,0,-2,-3,-1,-1,-1,-3,4.915
984,1,0,0,-1,0,-1,1,-1,4.92
985,-2,-1,0,0,0,1,-1,0,4.925
986,-1,-1,0,1,1,-2,0,0,4.93
987,1,-2,0,-1,0,-2,0,0,4.9350000000000005
988,-1,-1,-2,1,0,2,0,-2,4.94
989,1,-1,-1,1,-1,-2,-1,-1,4.945
990,1,-1,-2,0,-1,0,4,0,4.95
991,0,0,0,0,-2,2,0,2,4.955
992,-2,-4,-5,-5,0,-2,-2,-3,4.96
993,0,-2,-1,-1,-1,1,3,2,4.965
994,-1,-2,-2,0,-1,-1,2,1,4.97
995,0,-1,2,1,-1,-1,-2,-1,4.9750000000000005
996,-1,0,3,2,0,-2,0,0,4.98
997,-3,-4,-6,-4,-1,-1,-1,-4,4.985
998,-3,-1,-1,0,1,-1,-3,-2,4.99
999,-1,-2,-2,-1,-2,-1,-1,0,4.995
1000,-1,0,2,3,1,-2,-2,0,5.0
1001,1,0,-1,0,-2,-2,-2,0,5.005
1002,-1,0,0,-1,-1,0,2,2,5.01
1003,0,-1,-1,-3,-1,0,-1,3,5.015
1004,-2,-2,-1,-2,-2,-1,-4,-1,5.0200000000000005
1005,-1,-1,0,0,-2,0,-1,-1,5.025
1006,0,-1,-1,0,-1,1,3,0,5.03
1007,-2,-1,-1,0,-1,-3,-4,-2,5.035
1008,-2,0,-2,1,0,2,3,-1,5.04
1009,0,-1,-3,0,-1,-3,-1,-1,5.045
1010,-1,-1,1,0,-2,0,-1,-1,5.05
1011,-1,-1,-3,-2,0,-2,0,-2,5.055
1012,0,2,4,5,2,0,1,-1,5.0600000000000005
1013,-1,-3,-2,-4,-1,-1,-1,-3,5.065
1014,0,0,-2,-1,-3,-3,-2,2,5.07
1015,-1,-1,-1,0,-2,-1,2,-2,5.075
1016,0,0,1,-1,-2,-1,-4,-1,5.08
1017,0,-2,-6,-1,-1,0,-2,0,5.085
1018,-1,0,-1,1,-2,-1,2,-1,5.09
1019,-1,-1,-2,0,0,0,-2,-3,5.095
1020,1,-1,-1,-2,-2,-1,0,-1,5.1000000000000005
1021,-1,-1,-2,-2,-1,0,1,0,5.105
1022,-1,-2,-3,-4,-1,0,-5,-2,5.11
1023,-1,0,-3,1,-2,-2,2,2,5.115
1024,1,1,-2,-1,-2,-2,-2,0,5.12
1025,-1,-1,-2,1,-1,0,7,1,5.125
1026,-1,-1,5,1,1,2,-2,-2,5.13
1027,-1,-4,-4,-2,0,1,-2,-2,5.135
1028,0,-2,-2,-1,-3,-1,2,2,5.14
1029,-2,-1,1,1,-1,-1,-4,-2,5.1450000000000005
1030,0,0,-3,-6,-2,-2,0,-2,5.15
1031,0,1,-1,1,-1,-1,0,0,5.155
1032,-1,-2,-4,-2,-2,-4,-5,-4,5.16
1033,0,0,3,1,0,0,-2,-1,5.165
1034,0,0,2,1,-2,1,2,2,5.17
1035,-1,-1,-2,-3,-1,-1,-2,-4,5.175
1036,-1,1,0,0,0,0,0,0,5.18
1037,-2,-1,2,1,1,0,1,-2,5.1850000000000005
1038,0,-2,-3,-1,-1,-2,-5,-4,5.19
1039,-2,-1,1,-3,0,0,1,-1,5.195
1040,-1,1,2,0,-1,0,-1,0,5.2
1041,-1,-2,-2,-3,-3,-2,-5,-2,5.205
1042,-2,-2,-2,0,-1,-1,0,0,5.21
1043,0,1,2,0,-1,1,-1,1,5.215
1044,-2,-1,-2,1,0,0,-1,-1,5.22
1045,1,0,2,-2,-1,-1,0,0,5.2250000000000005
1046,-1,-2,-6,-2,0,-1,-2,-1,5.23
1047,-2,-2,-1,0,-1,1,-2,-2,5.235
1048,-1,0,-3,-1,-1,-1,0,1,5.24
1049,0,2,0,-1,-1,0,0,1,5.245
1050,-1,0,0,2,0,-2,-2,-1,5.25
1051,-1,-2,0,2,1,-2,-3,1,5.255
1052,1,-3,-4,-2,-1,-1,2,1,5.26
1053,-2,-1,-1,1,0,0,0,0,5.265
1054,-2,-1,-1,-3,-2,0,0,-1,5.2700000000000005
1055,-1,0,-1,-1,-3,-2,-1,-1,5.275
1056,-1,-2,1,-4,0,1,-2,-2,5.28
1057,0,1,-2,2,-1,-1,0,0,5.285
1058,0,1,1,1,1,0,-3,-1,5.29
1059,-1,-1,-1,-3,-1,-2,0,2,5.295
1060,1,-3,-2,-1,-2,1,0,1,5.3
1061,1,2,2,1,-1,-1,-1,-1,5.305
1062,-1,-2,-2,0,-1,-1,0,-2,5.3100000000000005
1063,0,1,-2,-2,0,1,1,0,5.315
1064,-3,-1,-1,-1,0,-1,-1,-1,5.32
1065,-2,-2,-2,-3,-1,-1,-2,0,5.325
1066,-2,-2,-2,-1,-1,-1,0,0,5.33
1067,1,-1,2,1,-2,0,3,-2,5.335
1068,-2,-1,-4,-3,-2,-1,-2,-2,5.34
1069,1,1,2,-1,-1,1,0,0,5.345
1070,-1,-3,-1,-1,-1,-3,-4,-5,5.3500000000000005
1071,-1,-1,-1,0,-1,1,2,1,5.355
1072,2,0,0,1,-1,-4,-3,0,5.36
1073,-1,-1,-1,1,0,0,-1,1,5.365
1074,-1,1,0,-1,0,0,-1,1,5.37
1075,-2,-1,0,-2,-3,-2,-4,-3,5.375
1076,-1,0,1,0,-1,-1,-3,-3,5.38
1077,0,-1,-4,-3,-1,-2,4,2,5.385
1078,1,0,2,2,1,0,3,3,5.39
1079,-2,-3,-3,-3,-1,-1,0,0,5.3950000000000005
1080,-3,0,0,0,-1,1,1,-1,5.4
1081,-1,-2,-2,-1,-2,-2,-4,-3,5.405
1082,0,-2,-1,-2,-1,0,1,0,5.41
1083,-1,0,1,2,0,-2,0,-1,5.415
1084,0,0,2,2,-1,1,2,-1,5.42
1085,-2,-4,-5,-3,-1,0,0,-2,5.425
1086,-1,-2,-6,-2,-2,0,-1,-2,5.43
1087,1,0,0,0,0,-3,-2,-2,5.4350000000000005
1088,-1,-2,-3,-3,-2,1,-1,-1,5.44
1089,0,0,2,-2,-1,-1,0,-1,5.445
1090,1,0,0,1,-1,-2,0,-1,5.45
1091,0,0,-1,-2,-1,-1,-1,-1,5.455
1092,-2,-1,-1,2,0,0,-1,-1,5.46
1093,-1,-1,1,1,-1,0,-1,-2,5.465
1094,0,0,1,-2,-1,0,1,1,5.47
1095,-2,-2,1,-1,0,0,-3,-2,5.4750000000000005
1096,-1,-2,-2,-3,-1,-3,1,-1,5.48
1097,-1,-1,0,0,1,0,-2,-2,5.485
1098,-1,-1,-3,-2,-2,-3,-3,-2,5.49
1099,0,-1,-1,1,-1,2,-1,-1,5.495
1100,0,-2,-2,-3,-1,-1,-2,0,5.5
1101,0,0,-3,0,0,-2,-1,-1,5.505
1102,-1,1,1,0,0,1,1,1,5.51
1103,-2,0,-2,0,0,-1,0,-1,5.515
1104,-1,0,2,-3,-2,0,-2,-1,5.5200000000000005
1105,-1,-3,-5,-5,-2,-1,-2,-1,5.525
1106,-2,-2,-3,-1,0,-3,-4,-3,5.53
1107,1,-2,-3,-3,-2,-1,5,3,5.535
1108,1,1,3,3,0,0,0,-1,5.54
1109,-2,-2,-4,-1,-2,-1,4,1,5.545
1110,0,-2,0,-2,-3,-2,-2,-1,5.55
1111,-1,-1,-2,-2,-1,-2,-5,-5,5.555
1112,0,0,-2,0,0,-2,1,-1,5.5600000000000005
1113,0,1,2,1,0,0,-2,-2,5.565
1114,0,-2,-1,-2,0,-2,-2,-1,5.57
1115,-1,0,-2,0,-1,0,-2,-1,5.575
1116,0,-1,-1,-1,-2,-1,0,1,5.58
1117,-1,0,-1,1,1,-2,-3,-2,5.585
1118,0,-1,0,1,1,0,1,0,5.59
1119,0,0,1,-3,-1,0,-1,0,5.595
1120,-1,-2,-2,-1,0,0,0,0,5.6000000000000005
1121,-1,-2,0,-1,-2,-1,-1,-2,5.605
1122,-1,1,2,1,0,0,0,1,5.61
1123,0,-2,0,1,-1,-2,0,1,5.615
1124,0,1,-1,-1,-2,-1,-2,-1,5.62
1125,1,1,4,1,0,-1,0,-2,5.625
1126,-1,1,0,0,-1,0,-1,0,5.63
1127,-2,-1,-1,0,-1,-3,-1,-1,5.635
1128,0,-3,-1,0,0,-1,-3,-2,5.64
1129,-1,2,4,2,-1,1,1,0,5.6450000000000005
1130,-4,-4,-10,-5,-2,0,-3,-2,5.65
1131,0,0,2,0,0,0,-1,-3,5.655
1132,0,0,-1,-1,0,0,1,2,5.66
1133,-1,-2,-1,-5,-1,-2,1,-1,5.665
1134,-1,1,1,1,0,-3,0,1,5.67
1135,-2,0,-1,-2,1,1,0,-1,5.675
1136,-2,0,0,2,0,-1,-4,-2,5.68
1137,-2,-2,-5,-3,-2,-1,-3,-2,5.6850000000000005
1138,0,0,1,-1,-1,-1,-2,1,5.69
1139,-1,-2,-6,-3,-2,-1,0,1,5.695
1140,0,0,-2,-3,-1,-2,-2,-1,5.7
1141,-1,-2,-3,1,-1,1,1,1,5.705
1142,-1,-1,0,-1,-1,0,-1,-3,5.71
1143,-1,1,1,3,-1,-1,-2,-1,5.715
1144,-3,-2,-3,0,0,0,1,-2,5.72
1145,0,1,2,1,-1,1,-1,-1,5.7250000000000005
1146,0,-2,-2,-2,-2,0,0,-1,5.73
1147,-2,-1,-2,-3,-1,-1,-1,-1,5.735
1148,-1,0,-1,0,-1,0,-1,0,5.74
1149,-2,0,0,-1,-2,-3,-2,-1,5.745
1150,1,1,2,0,0,1,3,0,5.75
1151,0,-3,-3,1,-2,-3,-7,-3,5.755
1152,1,0,-2,-2,-2,1,1,0,5.76
1153,-1,1,1,0,0,-1,-2,0,5.765
1154,-1,-2,-1,-4,-2,-1,2,0,5.7700000000000005
1155,-1,0,-3,2,-2,-2,-3,-2,5.775
1156,-1,-5,-4,-3,-1,0,0,3,5.78
1157,-1,-1,-1,-1,-1,0,0,1,5.785
1158,0,-1,-1,1,0,0,-1,-2,5.79
1159,0,-1,1,-3,-1,0,-1,-2,5.795
1160,-2,0,4,-1,-1,-2,-2,-3,5.8
1161,-2,-3,-6,-1,-1,-1,0,-1,5.805
1162,-3,-1,-2,-1,-1,-2,-1,0,5.8100000000000005
1163,-1,-1,-2,-3,-2,0,1,-1,5.815
1164,-1,-2,-2,0,-1,-2,-3,-1,5.82
1165,1,-2,0,0,0,-1,1,-1,5.825
1166,-1,0,0,-1,-1,-1,0,-1,5.83
1167,-1,0,0,-1,0,-1,0,1,5.835
1168,-3,-1,0,-1,0,0,1,1,5.84
1169,-1,0,2,0,-1,1,1,-1,5.845
1170,0,0,0,-3,-2,-2,-3,-2,5.8500000000000005
1171,0,0,-2,-3,0,1,0,1,5.855
1172,-1,0,-1,1,-1,0,-2,-1,5.86
1173,0,2,0,-1,0,-2,-2,0,5.865
1174,-3,-1,-2,0,0,-1,-2,-1,5.87
1175,-1,-1,1,1,-1,1,2,2,5.875
1176,2,1,-1,-2,0,-2,0,-1,5.88
1177,-1,-2,-2,-2,-2,0,-3,-3,5.885
1178,1,1,1,2,-1,0,-1,2,5.89
1179,-2,1,2,-1,-1,-1,1,-3,5.8950000000000005
1180,-3,-3,-3,1,-1,0,-2,-2,5.9
1181,-3,-2,0,-4,-2,-1,-1,-1,5.905
1182,-1,-3,-2,-1,0,-1,-2,-3,5.91
1183,1,0,0,1,-1,-1,-1,0,5.915
1184,1,1,0,0,-2,0,0,-1,5.92
1185,-1,-1,-1,-2,0,-1,-1,-2,5.925
1186,-1,-1,-1,1,0,-1,-2,-3,5.93
1187,-1,-1,0,-1,0,-1,-1,-1,5.9350000000000005
1188,-2,-2,0,-1,-1,-2,1,-1,5.94
1189,-1,-1,-2,-1,0,-1,-1,0,5.945
1190,-1,1,-1,-2,-1,1,1,2,5.95
1191,0,-1,0,1,1,0,0,0,5.955
1192,-1,-1,-2,-3,0,-1,-2,-1,5.96
1193,1,0,-2,-2,-1,0,0,-1,5.965
1194,0,-2,-1,3,0,0,1,0,5.97
1195,-4,-4,-7,-6,-1,-2,-5,-1,5.9750000000000005
1196,1,-1,1,-1,-2,-1,1,1,5.98
1197,-2,0,-4,-2,-3,-1,-1,-2,5.985
1198,0,0,2,-1,0,2,2,0,5.99
1199,-1,-1,2,4,0,0,0,2,5.995
1200,-1,0,1,-2,-2,-1,-1,-1,6.0
1201,0,-1,2,1,1,-1,0,0,6.005
1202,0,-2,-2,-2,0,-3,-2,-1,6.01
1203,0,-1,-1,-1,-2,-1,1,0,6.015000000000001
1204,-2,0,-1,0,0,-1,-4,-5,6.0200000000000005
1205,0,-2,-5,-2,-2,-2,4,2,6.025
1206,-6,0,0,-1,0,-1,1,-1,6.03
1207,-2,-1,-2,-5,-3,-1,0,1,6.035
1208,7,-1,-1,-1,0,-1,-2,-1,6.04
1209,-7,-3,1,1,0,0,-4,2,6.045
1210,1,1,2,-1,-1,-1,-2,-2,6.05
1211,0,2,0,-1,-2,0,1,-1,6.055
1212,-1,1,3,0,-2,-2,-2,-1,6.0600000000000005
1213,0,-1,-2,2,-2,-1,-2,-1,6.065
1214,-1,-2,0,-1,-1,0,-2,0,6.07
1215,0,-3,-4,1,-2,-2,-4,-3,6.075
1216,-2,-2,-1,-1,-1,-3,1,1,6.08
1217,1,3,5,0,1,0,1,-1,6.085
1218,-1,-2,-6,-1,-1,1,0,2,6.09
1219,1,-1,1,0,0,0,-2,-1,6.095
1220,-2,1,-1,1,-3,-1,1,1,6.1000000000000005
1221,0,-4,-3,-1,-1,-1,-1,-1,6.105
1222,-1,-2,-1,-8,-3,-3,-3,0,6.11
1223,3,0,-2,-3,-3,-1,-1,-3,6.115
1224,-7,1,2,-1,-1,1,1,1,6.12
1225,-1,1,0,2,0,1,1,-1,6.125
1226,-2,-2,-1,1,0,-3,-5,-1,6.13
1227,-2,-1,-1,-1,0,-2,1,-1,6.135
1228,0,-1,-2,1,0,2,-2,-2,6.140000000000001
1229,2,0,1,-1,-2,1,0,0,6.1450000000000005
1230,-2,-1,-3,1,-1,-1,-1,-3,6.15
1231,-1,-2,-4,-3,-1,-1,-1,-1,6.155
1232,0,-1,-2,1,0,0,0,0,6.16
1233,0,0,0,-1,-1,0,-1,-1,6.165
1234,1,-3,-3,3,1,-1,0,-3,6.17
1235,0,-2,-2,0,1,-1,0,1,6.175
1236,-1,2,4,2,2,0,1,0,6.18
1237,-1,-4,-8,-5,-1,-1,-1,-2,6.1850000000000005
1238,0,1,1,-1,-4,0,0,1,6.19
1239,0,2,10,3,-2,-1,1,0,6.195
1240,-3,-6,-9,-3,0,-2,-2,-4,6.2
1241,0,0,-1,-2,-2,-2,-2,-4,6.205
1242,2,0,1,-3,-3,-2,1,0,6.21
1243,-1,1,2,1,-1,0,1,1,6.215
1244,-3,-1,-1,-1,-1,-3,-7,-2,6.22
1245,2,1,0,-1,1,-4,-2,0,6.2250000000000005
1246,-2,-1,-1,0,-1,-1,-4,-4,6.23
1247,-1,0,2,1,-1,0,1,2,6.235
1248,0,-3,-4,-5,0,2,2,1,6.24
1249,-8,-3,-2,-1,0,1,1,-2,6.245
1250,-3,-1,2,0,0,0,-5,-3,6.25
1251,2,1,1,1,1,-1,-2,-2,6.255
1252,0,-1,-3,-1,-2,-2,0,-1,6.26
1253,2,0,1,1,0,-1,-1,0,6.265000000000001
1254,-1,-3,-6,0,0,1,2,2,6.2700000000000005
1255,-4,-1,-1,-2,0,0,-2,-2,6.275
1256,0,-1,1,-2,-2,-2,-1,-1,6.28
1257,0,-1,-3,-3,-1,-2,-3,0,6.285
1258,-2,1,3,-1,1,-1,2,0,6.29
1259,-3,1,-2,2,0,-3,-1,-2,6.295
1260,0,-2,-2,-6,-2,1,-1,3,6.3
1261,-5,-1,3,-1,0,1,-1,-1,6.305
1262,3,1,-1,0,0,1,1,1,6.3100000000000005
1263,-1,-2,-2,0,0,-1,-2,-1,6.315
1264,-2,-3,-4,-1,0,0,2,-2,6.32
1265,-4,1,2,3,-2,-1,-1,-3,6.325
1266,-1,-5,-6,-7,-3,-2,-5,-5,6.33
1267,-3,-1,1,1,0,2,12,7,6.335
1268,14,3,2,2,0,0,1,6,6.34
1269,-6,-3,-1,1,1,1,0,0,6.345
1270,-2,1,3,1,0,-2,-1,-2,6.3500000000000005
1271,6,0,2,-3,-2,-2,-5,-5,6.355
1272,-11,-1,2,0,0,-2,-3,-4,6.36
1273,-3,-2,0,0,2,1,-1,-5,6.365
1274,10,1,-2,-2,-1,2,4,7,6.37
1275,-4,-3,-7,-3,-3,-5,-8,-4,6.375
1276,3,2,-1,-2,-2,0,3,-2,6.38
1277,-4,-5,-2,0,0,-2,-2,0,6.385
1278,-4,1,1,4,0,-1,2,1,6.390000000000001
1279,-1,-1,-4,-5,-3,-1,-2,-3,6.3950000000000005
1280,7,1,1,6,3,2,-1,0,6.4
1281,-7,-5,-3,0,-1,-3,0,0,6.405
1282,-8,0,1,-2,-2,-2,-3,-4,6.41
1283,-1,0,-3,0,-3,-2,-2,-1,6.415
1284,-6,-3,-4,-6,-3,-1,-4,-3,6.42
1285,8,2,1,-1,-1,1,2,2,6.425
1286,4,0,-4,-2,-2,-2,1,2,6.43
1287,-2,-3,-1,-2,-2,1,-2,-1,6.4350000000000005
1288,-3,-1,1,0,-1,-3,0,-2,6.44
1289,4,1,-2,-3,-2,-1,-1,1,6.445
1290,1,-3,-2,-2,-1,1,-1,-1,6.45
1291,-3,0,1,0,0,0,-3,-2,6.455
1292,-4,0,3,1,0,-1,0,2,6.46
1293,1,-2,-2,-2,-3,-2,-1,1,6.465
1294,0,-1,-1,1,3,0,0,-2,6.47
1295,1,-2,0,3,1,0,1,-2,6.4750000000000005
1296,0,2,2,-2,-3,1,1,0,6.48
1297,7,1,-1,-3,-2,-1,0,1,6.485
1298,-1,1,-1,-4,-1,0,2,-1,6.49
1299,-11,-4,-1,2,0,-2,-3,-3,6.495
1300,-1,0,-1,0,-2,-2,-1,0,6.5
1301,-2,-3,0,-1,0,0,-1,1,6.505
1302,1,-1,0,0,0,-1,-2,0,6.51
1303,-1,-2,-4,-6,-2,-2,-2,-4,6.515000000000001
1304,1,4,6,3,1,-1,-3,-1,6.5200000000000005
1305,-1,-3,-3,0,-1,-2,-2,-3,6.525
1306,-2,-2,-2,-6,-3,0,-1,-2,6.53
1307,-2,0,-1,-5,0,-1,0,0,6.535
1308,-4,-5,-5,-4,1,-1,-2,-3,6.54
1309,-4,1,7,4,-3,0,1,-2,6.545
1310,20,2,-9,-4,-1,-2,-1,1,6.55
1311,-9,-2,-2,-1,-2,1,2,1,6.555
1312,6,-3,-5,-4,-3,0,-4,0,6.5600000000000005
1313,-8,0,2,3,3,0,5,3,6.565
1314,-1,1,1,3,0,-2,-3,-4,6.57
1315,5,0,0,2,-1,0,1,1,6.575
1316,-12,-3,-5,0,-2,-2,-4,-3,6.58
1317,8,2,-2,-2,-1,0,-2,1,6.585
1318,-11,-8,2,-1,-1,-2,-2,-3,6.59
1319,11,7,4,3,3,2,1,2,6.595
1320,-12,-3,2,-3,-5,-2,1,2,6.6000000000000005
1321,9,-1,-6,0,0,0,-3,-2,6.605
1322,-6,-3,1,-3,-2,-2,-1,4,6.61
1323,2,-2,-2,-3,-2,-2,-3,-1,6.615
1324,6,1,1,3,2,0,0,1,6.62
1325,-7,1,-4,-5,-5,-3,-2,0,6.625
1326,0,1,0,-5,-2,1,1,-3,6.63
1327,0,-2,-2,-4,-2,-4,-1,1,6.635
1328,-6,-3,-3,1,0,1,2,-2,6.640000000000001
1329,9,3,1,1,0,0,1,3,6.6450000000000005
1330,0,1,6,7,3,-2,-4,-3,6.65
1331,-7,-7,-5,-2,0,0,-2,1,6.655
1332,8,3,1,5,1,1,0,-1,6.66
1333,-18,-4,-1,0,2,-1,-2,-7,6.665
1334,13,6,-1,0,-6,3,3,0,6.67
1335,-2,-1,1,-1,1,0,1,2,6.675
1336,-6,-7,-7,0,3,-1,-1,-1,6.68
1337,12,2,-2,-3,-2,0,-2,0,6.6850000000000005
1338,-9,-4,-4,-5,-1,1,-1,-3,6.69
1339,4,4,2,-1,-1,2,1,0,6.695
1340,4,3,3,-1,-2,1,2,0,6.7
1341,-6,-2,-2,0,3,0,-1,0,6.705
1342,7,2,2,7,3,-1,-1,0,6.71
1343,-2,-2,-2,-7,-11,-2,-2,1,6.715
1344,-1,2,2,7,6,2,0,0,6.72
1345,-14,0,5,4,-1,-2,-1,-6,6.7250000000000005
1346,-5,-1,-4,-5,-2,-2,0,6,6.73
1347,-14,-1,3,-1,3,1,0,-7,6.735
1348,18,8,2,2,0,2,1,7,6.74
1349,-7,-4,0,1,-2,-3,-3,-5,6.745
1350,-6,-2,-4,3,1,-1,-3,2,6.75
1351,13,1,-3,9,5,0,1,3,6.755
1352,-6,-8,-6,-21,-17,-4,-6,-7,6.76
1353,-11,-7,-4,-3,1,0,4,0,6.765000000000001
1354,6,7,3,-1,-2,-3,-1,2,6.7700000000000005
1355,-2,-2,-4,-2,1,1,-1,0,6.775
1356,-4,-2,-1,5,1,-3,0,0,6.78
1357,14,-3,-4,7,3,0,-1,3,6.785
1358,-17,-6,2,-11,-6,-4,-6,-10,6.79
1359,5,4,6,23,12,2,0,1,6.795
1360,1,3,0,-32,-22,-3,0,1,6.8
1361,6,6,2,-7,-4,-2,-4,1,6.805
1362,-5,-6,-5,2,7,1,-1,-8,6.8100000000000005
1363,-4,-3,-3,5,-1,-2,-1,12,6.815
1364,3,-1,-3,12,11,3,0,-1,6.82
1365,9,-5,0,-14,-7,-1,-1,-2,6.825
1366,-15,-2,3,3,-1,2,3,-1,6.83
1367,-3,-2,-1,6,-3,-2,-3,-6,6.835
1368,-13,-6,2,48,17,2,2,0,6.84
1369,12,-1,-12,-75,-32,-7,-3,-1,6.845
1370,9,3,1,15,4,-1,3,4,6.8500000000000005
1371,-4,-5,-7,-29,-9,0,0,-4,6.855
1372,-9,-5,-2,-4,-1,-5,-2,-4,6.86
1373,0,2,3,25,10,0,-3,-2,6.865
1374,-3,-4,-5,2,-1,1,1,3,6.87
1375,5,5,3,-14,-7,-3,-1,-2,6.875
1376,6,-1,-3,2,3,-1,-1,-1,6.88
1377,-15,-3,3,10,6,2,0,2,6.885
1378,4,-1,-5,-8,0,-2,-3,0,6.890000000000001
1379,-3,-3,-3,5,1,0,1,-2,6.8950000000000005
1380,0,-3,1,-5,1,-3,-3,1,6.9
1381,3,6,4,10,2,1,4,5,6.905
1382,-10,-1,3,-1,-4,-3,-2,-7,6.91
1383,5,-1,-5,9,3,0,-3,-4,6.915
1384,-5,-2,1,7,3,1,-2,-3,6.92
1385,8,2,-3,-27,-10,-1,-1,6,6.925
1386,0,-1,-1,1,0,0,-2,2,6.93
1387,0,-6,-8,3,4,0,-2,-4,6.9350000000000005
1388,-12,-1,-2,-17,-16,-2,1,-2,6.94
1389,-2,-4,0,27,14,-2,0,-4,6.945
1390,1,0,2,-9,-5,-1,0,1,6.95
1391,3,0,0,-9,-4,-3,-2,0,6.955
1392,3,1,-1,7,4,0,0,0,6.96
1393,-8,-4,-2,8,3,1,0,-7,6.965
1394,2,-2,-3,-10,-6,0,0,4,6.97
1395,-2,-1,2,10,4,0,1,0,6.9750000000000005
1396,7,4,2,-12,-4,-5,-4,-5,6.98
1397,-10,-3,-4,3,-1,-1,0,-2,6.985
1398,3,-1,-3,2,1,1,-1,-1,6.99
1399,-1,1,4,4,1,0,1,-1,6.995
1400,-3,-4,-4,-6,-3,-2,-2,-3,7.0
1401,-1,2,-2,-3,-7,-5,-3,1,7.005
1402,7,-1,-1,15,3,-1,-2,2,7.01
1403,2,-1,-3,-26,-10,-3,-1,-1,7.015000000000001
1404,-8,-4,0,-8,-3,-2,1,-1,7.0200000000000005
1405,-2,0,0,12,6,1,-1,1,7.025
1406,-4,-1,1,-11,-10,-1,0,-1,7.03
1407,1,1,1,13,5,1,0,0,7.035
1408,9,0,-6,-16,-3,0,1,2,7.04
1409,-8,-2,-1,-1,0,-1,-2,-6,7.045
1410,0,2,2,6,6,3,1,0,7.05
1411,-2,-2,-1,-5,-5,-3,0,-1,7.055
1412,-1,-2,0,9,8,1,0,-1,7.0600000000000005
1413,2,0,2,4,-1,1,2,3,7.065
1414,-6,-5,-5,-8,-3,-1,-1,-3,7.07
1415,-2,1,-1,1,2,0,0,-2,7.075
1416,1,0,2,6,3,1,0,1,7.08
1417,9,4,4,-4,-3,3,2,2,7.085
1418,-2,-4,-5,2,0,0,-3,-3,7.09
1419,-4,-4,-1,-5,-3,0,-2,0,7.095
1420,1,0,-4,-3,-3,-1,0,-1,7.1000000000000005
1421,2,0,1,1,-2,1,1,-1,7.105
1422,-5,-3,-4,-8,-5,-4,-4,-2,7.11
1423,-4,0,2,-1,0,-1,-2,-2,7.115
1424,1,1,2,-2,-2,-3,0,0,7.12
1425,-3,-1,-4,1,3,-1,-3,-3,7.125
1426,7,0,1,8,4,2,2,2,7.13
1427,-7,-3,0,-11,-8,-4,-2,-4,7.135
1428,-4,2,3,2,0,0,-2,1,7.140000000000001
1429,-1,-1,0,-4,-3,-2,-2,-3,7.1450000000000005
1430,-2,-1,2,1,-2,-2,-2,1,7.15
1431,6,3,1,1,-1,-1,-1,-1,7.155
1432,-1,-4,-5,-1,2,-1,-3,-2,7.16
1433,-2,-1,3,2,1,-2,0,3,7.165
1434,1,0,-4,-5,-2,-3,0,-1,7.17
1435,0,1,3,4,1,1,2,1,7.175
1436,-2,0,-3,-1,0,1,0,0,7.18
1437,1,1,-4,2,-2,1,1,0,7.1850000000000005
1438,2,2,7,4,-2,-1,0,0,7.19
1439,-5,-5,-6,-6,1,-3,-1,-2,7.195
1440,1,0,2,-4,-1,2,0,-3,7.2
1441,1,1,2,4,5,-1,0,-1,7.205
1442,-3,0,0,4,2,2,-1,1,7.21
1443,0,-1,-2,-11,4,3,3,2,7.215
1444,3,0,1,6,1,-1,-1,0,7.22
1445,-3,-5,-8,-5,-3,-1,-2,-3,7.2250000000000005
1446,-1,0,-3,-4,1,0,0,-1,7.23
1447,0,-3,-3,6,2,-1,-1,-1,7.235
1448,0,0,-4,-2,-2,-1,0,0,7.24
1449,-3,-2,-2,-2,-2,-1,1,0,7.245
1450,-1,-2,-4,-4,-1,-3,0,-2,7.25
1451,1,0,-1,1,-3,-1,-1,-3,7.255
1452,1,-1,-1,-4,-3,-2,-2,1,7.26
1453,-1,-2,-4,0,-2,-1,-2,-2,7.265000000000001
1454,0,2,2,2,2,3,3,1,7.2700000000000005
1455,-3,-1,0,2,-2,-2,-2,1,7.275
1456,1,1,2,0,-2,-2,-2,-2,7.28
1457,0,-2,-3,0,1,1,1,1,7.285
1458,-2,-2,-2,-4,-4,-1,-1,-1,7.29
1459,0,0,-1,2,-3,-1,1,0,7.295
1460,-1,-3,-3,0,-2,-1,-3,-3,7.3
1461,-2,-1,1,-1,-1,-3,-1,-1,7.305
1462,-1,-2,-5,-4,-1,-1,-1,0,7.3100000000000005
1463,1,-1,-1,3,0,-2,-1,-1,7.315
1464,-2,-2,-3,0,-2,-1,-1,-2,7.32
1465,0,0,-1,-5,-1,-1,-1,0,7.325
1466,-2,-2,-3,-4,-3,-4,-4,-3,7.33
1467,-2,-1,-1,-2,-3,-2,-3,-2,7.335
1468,0,1,0,2,1,-1,1,0,7.34
1469,0,-1,1,1,0,0,-1,0,7.345
1470,-1,-2,-3,0,1,-2,1,1,7.3500000000000005
1471,-1,0,0,-1,-1,1,0,0,7.355
1472,-4,-3,-4,-5,0,0,-1,0,7.36
1473,1,2,4,0,-1,-2,-1,0,7.365
1474,-1,-1,0,-1,1,0,-1,-3,7.37
1475,-1,-1,-3,0,-1,-1,-1,-2,7.375
1476,-3,-1,0,1,-2,-1,-2,-1,7.38
1477,3,0,-3,-5,-3,-1,-1,-3,7.385
1478,-1,-1,-1,-5,-4,-1,-1,-3,7.390000000000001
1479,0,-2,-2,-3,-2,-2,-2,-1,7.3950000000000005
1480,-1,-1,1,0,-1,1,0,0,7.4
1481,0,-2,-3,0,-1,-2,-1,-3,7.405
1482,0,0,3,-1,0,1,1,0,7.41
1483,0,-3,-5,-1,-1,-1,-2,-1,7.415
1484,-1,-3,-3,-3,1,0,-1,0,7.42
1485,-3,-2,-1,-1,-1,0,1,-2,7.425
1486,0,-1,-1,-1,-1,-2,-2,-2,7.43
1487,-2,-1,1,-1,-1,1,0,-2,7.4350000000000005
1488,-1,0,0,-1,-2,-4,-1,-1,7.44
1489,-1,0,1,-1,-1,-1,0,-1,7.445
1490,-1,-1,1,0,-2,0,0,-1,7.45
1491,-1,-3,-3,2,0,-1,-2,-2,7.455
1492,0,-1,-2,-5,-1,-1,1,-1,7.46
1493,0,-1,-4,-1,2,1,1,1,7.465
1494,-1,0,1,0,-2,-1,0,0,7.47
1495,1,3,8,9,3,1,1,0,7.4750000000000005
1496,0,-2,-3,-3,-3,-1,-1,0,7.48
1497,-2,-2,-1,-1,-2,-2,0,-1,7.485
1498,-1,-1,-1,1,1,-1,-2,-3,7.49
1499,-2,-1,-3,-5,-2,0,1,1,7.495
1500,1,-1,0,0,-1,-1,0,-2,7.5
1501,1,-1,0,-1,0,-1,0,-1,7.505
1502,0,0,-1,0,0,1,0,-1,7.51
1503,1,0,1,-1,-2,0,-1,0,7.515000000000001
1504,-2,0,-2,-3,-5,-2,-1,-2,7.5200000000000005
1505,-1,1,2,0,-1,-2,-1,-3,7.525
1506,-1,-3,-4,-2,0,-1,-1,-1,7.53
1507,0,-2,-1,-3,-2,-3,-3,1,7.535
1508,0,0,4,6,1,0,1,1,7.54
1509,-2,-2,-2,-1,-1,-1,-3,-1,7.545
1510,-1,1,3,0,-1,-2,-2,-1,7.55
1511,-1,-2,0,-2,-1,0,0,0,7.555
1512,-1,-3,-5,-1,-1,-1,-1,-1,7.5600000000000005
1513,0,-1,-2,0,-2,0,-2,-1,7.565
1514,0,-1,0,0,0,-2,-1,0,7.57
1515,-1,0,-2,-1,0,-2,0,-3,7.575
1516,2,2,5,0,2,1,-1,-1,7.58
1517,-3,-3,-4,-3,-1,-1,-1,-1,7.585
1518,0,-2,-1,-3,-3,0,-2,-3,7.59
1519,1,-1,-3,-1,-1,0,-1,-2,7.595
1520,-1,-2,2,-1,-1,-1,-1,1,7.6000000000000005
1521,-1,0,2,-1,-1,-1,0,1,7.605
1522,-2,1,2,1,1,-3,0,1,7.61
1523,-1,-1,1,-1,1,0,1,-1,7.615
1524,0,0,-3,3,2,0,0,0,7.62
1525,-3,-3,-4,0,1,0,-3,-2,7.625
1526,0,0,-3,-2,-1,-1,-1,-1,7.63
1527,0,0,2,-1,-1,0,0,0,7.635
1528,-2,-1,-1,-1,-2,-3,-2,-2,7.640000000000001
1529,-1,-1,1,-3,-1,-1,0,0,7.6450000000000005
1530,0,-1,0,1,3,1,1,2,7.65
1531,-2,-1,-2,-2,0,-2,-1,-2,7.655
1532,0,1,1,-1,0,0,0,0,7.66
1533,1,1,2,1,1,-1,0,0,7.665
1534,0,-1,-3,-3,-1,0,-2,0,7.67
1535,-1,0,0,-2,-2,0,-1,-1,7.675
1536,-2,-3,-4,-2,-1,-1,-1,-2,7.68
1537,0,1,0,1,-2,0,-1,-1,7.6850000000000005
1538,-2,-1,-3,2,-1,0,0,-1,7.69
1539,0,-2,-1,-2,0,-1,-1,-1,7.695
1540,0,-1,1,-1,-1,-1,0,-1,7.7
1541,-1,-2,-1,-1,0,-2,1,0,7.705
1542,-2,0,-1,0,-1,-2,0,-1,7.71
1543,-2,-2,-1,-1,0,-1,-1,1,7.715
1544,0,0,-1,1,2,1,0,0,7.72
1545,-2,0,-2,-1,-1,0,-1,1,7.7250000000000005
1546,0,-1,-3,-1,-1,-1,-1,-2,7.73
1547,-1,-1,-1,-4,-3,-2,-2,-1,7.735
1548,-1,-1,-3,-1,-1,0,0,-1,7.74
1549,-2,-2,0,0,-2,-1,-2,-1,7.745
1550,0,1,3,-2,-1,0,0,1,7.75
1551,-1,0,1,1,0,-1,-1,-1,7.755
1552,0,-1,0,0,-2,-2,-2,-1,7.76
1553,1,0,-3,-1,-3,-3,-2,-1,7.765000000000001
1554,-1,-4,-1,1,0,-1,-2,-1,7.7700000000000005
1555,1,0,-1,-2,-1,-1,-1,-2,7.775
1556,1,0,-1,0,-2,1,0,-1,7.78
1557,1,1,2,0,0,0,-1,-2,7.785
1558,0,-1,-3,-3,0,0,-3,-1,7.79
1559,-2,-1,-2,-1,-3,-1,-2,-1,7.795
1560,-1,0,-3,-1,0,-1,-2,0,7.8
1561,-3,-1,-3,-4,-1,-2,-2,-2,7.805000000000001
1562,-3,-4,-5,-3,-2,-4,-2,-1,7.8100000000000005
1563,2,4,4,-1,-1,-3,-2,1,7.815
1564,-1,-4,-5,-5,-2,-2,-1,-2,7.82
1565,-1,-4,-3,0,0,-1,1,-1,7.825
1566,0,-1,2,2,0,0,-1,-1,7.83
1567,-2,-2,-7,-1,-1,0,0,-2,7.835
1568,0,0,1,1,-1,-1,0,-2,7.84
1569,-1,-2,-1,1,0,0,0,-2,7.845
1570,1,2,1,-1,-1,-2,0,0,7.8500000000000005
1571,-1,-1,-1,1,0,-2,0,-1,7.855
1572,-1,-1,1,0,0,0,-1,0,7.86
1573,1,2,1,1,0,0,-1,0,7.865
1574,-2,-2,-1,-1,-2,-1,0,-1,7.87
1575,-1,-2,-1,0,-2,0,0,-1,7.875
1576,-1,-1,-4,-2,-3,0,-1,-1,7.88
1577,0,0,1,0,-1,-1,0,0,7.885
1578,0,0,-1,-1,-2,-2,0,-1,7.890000000000001
1579,-1,-1,-3,-1,0,-1,-1,0,7.8950000000000005
1580,-1,0,0,1,-1,-1,-1,0,7.9
1581,-1,-3,-2,1,1,-1,-2,-1,7.905
1582,1,0,0,-4,-2,0,0,0,7.91
1583,-1,-2,-2,3,1,0,0,-1,7.915
1584,0,0,0,-1,-1,-2,-2,0,7.92
1585,0,0,1,-1,0,-2,0,0,7.925
1586,-2,-3,-1,-2,0,0,0,-1,7.930000000000001
1587,-2,-1,-1,-2,0,0,-1,-1,7.9350000000000005
1588,0,0,3,-2,1,-2,-1,0,7.94
1589,0,1,0,1,2,-1,-1,1,7.945
1590,0,-1,1,-1,1,1,0,0,7.95
1591,0,-1,0,-2,-3,-2,-1,0,7.955
1592,-3,-3,-6,1,-1,-1,0,-3,7.96
1593,-1,-2,0,-3,-2,0,-1,0,7.965
1594,-1,0,-2,0,0,-2,-1,-2,7.97
1595,1,1,3,0,-1,0,-2,1,7.9750000000000005
1596,0,2,3,3,2,0,1,1,7.98
1597,1,-2,-5,-2,-2,-1,0,-1,7.985
1598,-1,0,0,-1,-2,-1,-3,-1,7.99
1599,-2,-1,0,1,1,1,0,0,7.995
1600,0,1,1,-2,-2,-3,-2,-2,8.0
1601,0,-1,-3,-2,-1,1,-1,-2,8.005
1602,0,-1,0,-1,-2,-3,0,1,8.01
1603,0,-1,0,0,1,-2,0,-1,8.015
1604,1,-2,-3,-3,-3,-1,-1,-1,8.02
1605,-1,-2,-2,-2,-3,-1,-1,1,8.025
1606,-1,0,0,0,-1,0,0,1,8.03
1607,-2,-1,1,0,-3,-2,-4,-3,8.035
1608,-1,1,4,3,0,1,0,0,8.040000000000001
1609,-3,-3,-5,-2,-2,-2,-2,-1,8.045
1610,1,-1,-2,-1,-1,1,-2,-1,8.05
1611,0,-1,-6,-3,-1,-1,1,1,8.055
1612,0,-1,1,-1,-1,0,1,-1,8.06
1613,0,1,1,1,-1,-1,-3,-1,8.065
1614,1,-2,-3,0,0,0,-1,-1,8.07
1615,1,-3,-1,-1,0,-2,1,-2,8.075
1616,-1,-2,-3,0,1,0,-2,-1,8.08
1617,0,0,-1,-4,-1,0,2,-1,8.085
1618,-1,0,0,-3,-3,-2,-1,-1,8.09
1619,-2,-1,-3,-2,-1,-2,-2,-3,8.095
1620,0,-1,-3,-1,-1,1,1,0,8.1
1621,0,3,8,2,-1,-1,0,-1,8.105
1622,-1,-3,-2,0,-2,0,0,0,8.11
1623,-2,0,2,-2,-1,-1,-2,0,8.115
1624,-1,-3,-3,-2,-1,-3,-2,-1,8.120000000000001
1625,-2,1,4,1,-2,-1,0,-1,8.125
1626,-1,-1,1,-2,-2,-2,-1,-3,8.13
1627,1,0,2,1,-1,1,0,0,8.135
1628,-1,0,-1,-1,1,-1,0,1,8.14
1629,-1,-3,-5,-2,0,-1,-1,-2,8.145
1630,1,0,-1,0,1,-1,-1,-1,8.15
1631,0,-2,-2,0,-1,-1,-1,-1,8.155
1632,-1,1,2,-1,0,1,0,0,8.16
1633,-1,-1,0,3,2,1,-1,-1,8.165000000000001
1634,-3,1,-2,-1,-2,-1,-1,-1,8.17
1635,0,0,-2,-1,1,2,1,1,8.175
1636,-3,-5,-5,0,-3,0,-2,0,8.18
1637,0,-2,-2,-3,-3,-1,-2,0,8.185
1638,-2,0,2,0,0,0,0,0,8.19
1639,-2,-1,1,0,0,0,0,0,8.195
1640,0,-2,-3,-2,-2,-2,1,0,8.2
1641,-1,-3,0,-4,-3,-3,0,0,8.205
1642,0,-1,1,2,0,1,-1,-1,8.21
1643,-1,-1,-2,-2,0,-1,-1,0,8.215
1644,0,1,3,-1,-1,-1,0,-1,8.22
1645,-2,-3,-6,-2,-1,0,-2,-1,8.225
1646,0,-1,0,1,1,0,0,0,8.23
1647,0,0,-2,-1,-2,-1,-2,-1,8.235
1648,-1,-1,-3,-1,-2,-2,-2,-2,8.24
1649,1,1,1,-1,0,-1,-2,-1,8.245000000000001
1650,-1,-1,-1,-2,-1,1,-1,-1,8.25
1651,-1,-1,-1,1,-1,0,1,-2,8.255
1652,0,2,3,-2,1,0,-1,0,8.26
1653,-1,-1,-5,-3,-2,-2,-1,-1,8.265
1654,-2,-4,-5,-3,-1,-2,-1,0,8.27
1655,0,1,0,-1,-1,0,0,0,8.275
1656,-1,2,0,0,0,1,0,-3,8.28
1657,-1,-1,2,1,0,0,1,0,8.285
1658,0,2,1,2,-2,0,0,0,8.290000000000001
1659,-1,-2,-1,0,-2,-2,-2,-1,8.295
1660,0,0,2,0,0,-1,0,-1,8.3
1661,0,-2,-1,-1,0,0,1,-1,8.305
1662,0,-1,-2,1,0,0,0,-1,8.31
1663,0,1,0,-1,-2,0,-1,-1,8.315
1664,0,-1,0,0,-1,0,-1,0,8.32
1665,-3,-1,-2,2,0,-2,-1,-2,8.325
1666,0,1,1,0,-1,1,0,0,8.33
1667,-1,0,1,-2,-1,-1,0,1,8.335
1668,-1,0,-1,-3,-1,-1,-1,0,8.34
1669,0,1,2,1,1,0,0,1,8.345
1670,-2,-1,-3,0,-1,-2,1,-1,8.35
1671,0,-2,-2,1,1,0,-2,0,8.355
1672,0,-3,-1,-3,-1,-1,-1,0,8.36
1673,-1,-1,-1,0,-3,-2,-3,-2,8.365
1674,-1,0,0,1,1,-1,-2,-1,8.370000000000001
1675,0,-1,0,1,1,-1,-1,-1,8.375
1676,0,-1,-1,2,0,0,-1,-1,8.38
1677,0,-1,0,-1,1,-1,0,0,8.385
1678,-1,-4,-4,-2,-1,-2,-1,-2,8.39
1679,-3,-2,-3,0,-2,-1,-1,-2,8.395
1680,-1,-3,-4,-2,-1,1,1,0,8.4
1681,-1,-1,-3,-2,-2,0,1,1,8.405
1682,0,1,2,-1,-1,-1,-2,-3,8.41
1683,1,-1,-1,-1,0,-2,-2,-1,8.415000000000001
1684,-1,-4,-2,0,0,0,-1,0,8.42
1685,-1,-2,1,1,-3,-1,-3,1,8.425
1686,1,-1,-1,2,1,-1,-1,0,8.43
1687,0,0,0,-1,-2,0,-1,0,8.435
1688,-2,0,-1,0,-1,-2,0,0,8.44
1689,1,0,-1,0,-3,-1,0,0,8.445
1690,-1,0,1,-2,0,-2,0,-2,8.45
1691,-1,-1,2,-2,0,0,0,-2,8.455
1692,-1,0,1,-2,-2,-1,0,0,8.46
1693,1,-1,1,1,0,1,-1,0,8.465
1694,-1,-1,0,0,1,-1,-2,1,8.47
1695,-1,0,0,-1,-1,-1,0,-1,8.475
1696,-2,0,2,-1,-1,-1,0,-3,8.48
1697,-1,-2,-3,-1,-1,-1,0,-2,8.485
1698,0,1,3,3,0,1,0,-1,8.49
1699,0,-2,-2,-3,0,2,0,1,8.495000000000001
1700,1,2,0,-2,-3,-3,-1,0,8.5
1701,-1,0,1,-1,1,0,0,-1,8.505
1702,-1,-1,-5,-1,-2,-1,0,0,8.51
1703,0,1,-1,0,-3,-1,1,0,8.515
1704,-2,-1,0,1,0,-1,-1,-1,8.52
1705,1,-1,-1,-1,0,-1,0,-1,8.525
1706,-1,-1,-2,-1,-1,-1,1,-1,8.53
1707,0,1,0,0,0,-2,-1,-1,8.535
1708,0,-1,0,-1,-1,-1,-1,-1,8.540000000000001
1709,-2,-1,1,1,-1,1,1,0,8.545
1710,-1,0,2,0,-1,-1,-1,0,8.55
1711,-2,-1,-6,-4,-3,-3,-3,-2,8.555
1712,-1,-2,-4,-1,1,-1,-2,-1,8.56
1713,1,2,3,4,0,0,-1,-1,8.565
1714,-1,-3,-4,-7,-4,0,-1,-1,8.57
1715,-1,-1,0,-2,0,-1,0,0,8.575000000000001
1716,-2,-3,-2,0,-2,-2,-2,-1,8.58
1717,0,-1,-2,-2,1,-2,-1,-1,8.585
1718,2,0,2,1,0,0,-1,-1,8.59
1719,0,2,5,1,0,0,0,1,8.595
1720,-1,-4,-4,-2,-1,-1,0,-1,8.6
1721,0,-3,-2,0,-2,-2,0,0,8.605
1722,0,-1,0,1,-2,-1,-1,-1,8.61
1723,-2,-2,-1,-2,0,1,-2,-1,8.615
1724,1,1,5,1,-1,1,0,0,8.620000000000001
1725,-2,-2,-4,1,-1,0,1,1,8.625
1726,1,1,2,-2,0,0,1,1,8.63
1727,0,-2,-1,0,-1,-1,0,0,8.635
1728,-1,0,-1,-1,0,0,1,-1,8.64
1729,-1,2,-1,-2,-1,-1,-2,-3,8.645
1730,-1,-1,-1,0,0,-1,-1,0,8.65
1731,0,0,-1,-1,-2,0,-1,-1,8.655
1732,-1,-2,-1,-3,-2,0,0,-1,8.66
1733,-1,1,1,-1,0,0,-3,-1,8.665000000000001
1734,-1,-2,-1,-1,0,0,1,0,8.67
1735,0,-1,-1,0,-2,0,-1,-2,8.675
1736,-1,0,1,2,-1,-1,-1,1,8.68
1737,-1,1,1,0,1,-1,-2,-1,8.685
1738,-1,0,1,0,-1,-2,-1,-1,8.69
1739,1,1,3,1,0,-1,0,0,8.695
1740,-4,-4,-11,-7,-3,-2,-3,-1,8.700000000000001
1741,0,-2,-1,-2,-3,-1,-1,-1,8.705
1742,-1,-1,-3,3,1,0,-2,0,8.71
1743,1,1,-3,-5,-3,-2,1,0,8.715
1744,0,1,1,1,0,-1,0,-1,8.72
1745,-1,-1,-2,-2,-2,-1,-1,0,8.725
1746,-2,-3,-2,-2,-2,-1,0,-1,8.73
1747,-3,-4,0,2,0,-1,0,-1,8.735
1748,-1,-1,-1,1,-1,0,-1,0,8.74
1749,-3,-2,-2,-3,-1,-1,0,-1,8.745000000000001
1750,0,1,1,-1,-1,-1,1,0,8.75
1751,0,-1,-1,0,-1,-1,-1,0,8.755
1752,0,2,2,-1,0,-1,-2,0,8.76
1753,1,-1,1,1,0,-1,-2,-2,8.765
1754,-2,-1,-1,-1,-2,-1,-1,-1,8.77
1755,-1,-2,-4,-5,-2,-3,-2,-1,8.775
1756,-2,-1,-2,-2,-1,-1,-1,-1,8.78
1757,-1,0,-1,1,-1,0,0,0,8.785
1758,-1,-1,-2,-4,0,0,-1,-3,8.790000000000001
1759,-2,1,0,0,-1,0,-1,0,8.795
1760,0,-2,-1,4,-1,0,-1,0,8.8
1761,-2,0,-1,-3,-3,-2,0,-1,8.805
1762,-1,-3,-1,-1,-1,-2,-2,-1,8.81
1763,0,-1,0,-2,0,-1,0,0,8.815
1764,-1,1,0,-2,0,-1,-1,-1,8.82
1765,-2,-2,-6,0,-1,-2,-2,-1,8.825000000000001
1766,-3,-1,-5,-1,1,-1,-1,1,8.83
1767,-3,-3,-2,-1,0,-1,-2,0,8.835
1768,1,0,0,1,0,0,-1,1,8.84
1769,-3,-1,1,1,-1,0,0,0,8.845
1770,-1,0,2,0,-1,-2,0,0,8.85
1771,-1,-2,-1,0,0,1,-2,0,8.855
1772,-2,-1,-3,1,-2,-2,-2,-1,8.86
1773,-1,-4,-3,-2,1,-1,-1,-1,8.865
1774,1,-1,2,2,0,1,0,-1,8.870000000000001
1775,1,1,3,2,0,0,2,1,8.875
1776,0,-1,2,0,0,-1,-2,-3,8.88
1777,0,0,0,1,0,0,-1,1,8.885
1778,0,-1,-3,-4,-1,-1,0,0,8.89
1779,0,-2,-2,0,1,1,0,-1,8.895
1780,0,0,2,-2,0,0,0,0,8.9
1781,0,-1,0,1,-1,-2,0,-1,8.905
1782,0,0,0,0,-1,-1,-1,-1,8.91
1783,0,-3,-1,-1,-1,-2,-1,0,8.915000000000001
1784,-2,-2,-2,-3,-1,-1,1,0,8.92
1785,0,0,0,-1,-1,-1,-2,-2,8.925
1786,0,-2,0,0,-3,-2,-1,-2,8.93
1787,0,-1,-1,-2,-1,-1,-1,-2,8.935
1788,0,0,0,1,2,0,-1,0,8.94
1789,1,1,2,-3,-2,-1,0,0,8.945
1790,-1,-1,-3,-1,1,-1,-2,-1,8.950000000000001
1791,-1,-3,-2,-1,-2,1,-1,-2,8.955
1792,0,0,2,1,-2,-1,0,0,8.96
1793,-1,-2,-3,-1,0,0,-2,-2,8.965
1794,-1,1,1,-2,0,0,-1,0,8.97
1795,0,1,0,-1,-1,0,0,-1,8.975
1796,-2,-1,-3,1,1,1,1,0,8.98
1797,-1,1,-2,-1,0,0,0,0,8.985
1798,-2,-1,0,1,-2,-2,-1,-3,8.99
1799,-1,-2,-4,-2,2,1,-1,-2,8.995000000000001
1800,0,-1,-2,-2,-4,-1,-1,-2,9.0
1801,-1,-2,-1,0,-1,0,-2,-1,9.005
1802,1,3,5,2,0,1,-1,0,9.01
1803,-1,0,0,2,-1,-1,0,-1,9.015
1804,-1,-1,-3,-2,-1,-1,1,0,9.02
1805,0,-2,-1,0,-1,0,0,0,9.025
1806,0,0,-3,-2,-2,0,-1,0,9.03
1807,0,0,-2,-1,-1,-2,-2,-1,9.035
1808,-1,-1,-1,-1,-1,-1,-1,-1,9.040000000000001
1809,-1,-1,-2,-1,-3,-2,-1,-2,9.045
1810,0,-1,1,-1,-1,-1,0,-1,9.05
1811,-1,-1,-1,-1,-2,-1,-1,-1,9.055
1812,-1,-2,-1,-1,-2,0,-2,-1,9.06
1813,1,0,0,-2,-1,-2,-2,-1,9.065
1814,-1,-2,-4,0,0,0,-1,-1,9.07
1815,-3,-1,-2,0,-2,-3,0,0,9.075000000000001
1816,0,2,4,2,2,0,1,0,9.08
1817,-2,-5,-10,-5,-4,-4,-2,-3,9.085
1818,-2,-6,-6,-9,-3,-2,-1,-1,9.09
1819,-1,0,1,-1,-1,0,-1,-1,9.095
1820,-2,-3,-3,0,-1,-1,-1,-1,9.1
1821,1,1,5,4,0,1,0,1,9.105
1822,-1,0,-1,2,0,-1,-1,-2,9.11
1823,-2,-2,-2,-2,-3,-2,-1,0,9.115
1824,0,-1,-3,-2,-2,-3,-1,-2,9.120000000000001
1825,-1,-1,0,-1,0,0,-1,0,9.125
1826,-1,-2,-2,0,-1,-1,-2,-2,9.13
1827,0,-1,-3,-1,0,0,0,-1,9.135
1828,-2,-2,-3,-1,-2,-3,-2,-1,9.14
1829,-1,-1,-2,-4,-1,-1,-1,-2,9.145
1830,-2,0,0,-1,-1,0,-1,0,9.15
1831,1,-1,1,-2,-2,-2,-1,-1,9.155
1832,-1,-1,-1,1,-1,-2,-2,0,9.16
1833,-2,-1,-2,-1,0,-1,0,-1,9.165000000000001
1834,0,-2,-2,1,1,1,-1,0,9.17
1835,-1,-2,-1,-1,0,-1,0,-1,9.175
1836,-2,-2,-3,-5,-4,-3,-1,-1,9.18
1837,0,1,3,-1,-1,0,-1,0,9.185
1838,-1,1,1,0,-1,-2,0,0,9.19
1839,-2,-1,-1,2,1,1,-1,1,9.195
1840,1,0,2,-3,-2,-1,0,-1,9.200000000000001
1841,-1,0,0,0,-1,0,1,0,9.205
1842,-1,-1,-1,-2,-2,-1,1,-1,9.21
1843,-2,-2,-3,-2,-1,0,-2,-2,9.215
1844,-1,0,1,3,0,1,0,-1,9.22
1845,-1,-2,-4,-1,0,0,-1,-2,9.225
1846,0,0,0,0,-2,0,-1,-1,9.23
1847,1,1,0,-1,1,-1,0,0,9.235
1848,0,-1,2,3,0,-1,0,0,9.24
1849,-1,-2,-1,0,0,-1,-2,-1,9.245000000000001
1850,-1,0,-1,-3,0,-1,0,-1,9.25
1851,0,-1,-3,-1,-2,-2,0,-3,9.255
1852,0,1,0,-1,0,0,-1,0,9.26
1853,-1,1,2,1,1,0,1,0,9.265
1854,0,-3,-3,-1,-1,0,2,-1,9.27
1855,-2,-1,1,0,-1,-1,0,0,9.275
1856,-1,-1,-4,-2,-2,0,0,-1,9.28
1857,-3,-1,-2,-1,0,-2,-1,-1,9.285
1858,-1,1,1,1,1,0,-1,-1,9.290000000000001
1859,1,0,2,1,-1,-1,0,0,9.295
1860,-1,-2,-2,0,-2,0,-1,-2,9.3
1861,0,0,1,1,1,-1,1,-1,9.305
1862,-1,-3,-3,-3,-1,-2,-1,-1,9.31
1863,0,0,1,1,1,0,-1,-2,9.315
1864,-2,-1,-5,-4,-1,-2,-1,0,9.32
1865,-2,-1,-2,-1,-1,0,0,0,9.325000000000001
1866,0,3,4,1,0,-1,-1,-1,9.33
1867,-2,-2,-5,-4,-2,0,-2,0,9.335
1868,-1,-2,0,-1,0,-1,1,-1,9.34
1869,0,-2,-2,-3,-1,-1,0,-1,9.345
1870,-1,-1,1,0,1,-1,-1,0,9.35
1871,-1,0,0,-1,1,-1,-1,-1,9.355
1872,0,-1,0,0,-1,-1,-2,-1,9.36
1873,0,-1,0,0,-2,0,-1,-1,9.365
1874,-2,-2,-1,0,-2,-1,-1,-2,9.370000000000001
1875,2,1,1,-1,0,-1,1,-2,9.375
1876,-1,-3,-3,-1,2,0,-1,-2,9.38
1877,0,-1,-2,-4,-2,-1,-3,-1,9.385
1878,-1,-1,0,2,-1,-1,0,1,9.39
1879,-1,-1,0,1,0,-1,-2,0,9.395
1880,0,1,0,-1,0,1,-1,-1,9.4
1881,-1,-2,1,0,1,0,0,0,9.405
1882,-1,-2,-8,-4,-3,-3,-1,-1,9.41
1883,-1,0,-1,0,0,-1,-2,1,9.415000000000001
1884,1,1,0,2,-1,-1,-1,-1,9.42
1885,-1,0,-1,2,0,-1,-2,0,9.425
1886,0,-1,-1,0,0,-1,-1,1,9.43
1887,-1,0,-1,0,-1,-1,-1,0,9.435
1888,0,1,1,1,0,1,1,1,9.44
1889,-2,-2,0,-1,0,-1,0,-1,9.445
1890,-1,0,1,0,-1,-2,-1,0,9.450000000000001
1891,-2,-1,-2,-1,-2,-1,-1,-2,9.455
1892,1,-2,1,0,0,0,-1,-2,9.46
1893,-1,0,-1,-2,-2,-2,0,0,9.465
1894,0,-1,1,0,-1,-1,1,-2,9.47
1895,-1,-2,-4,0,-1,-1,-1,-1,9.475
1896,-2,-3,-5,-4,-2,-2,-2,-4,9.48
1897,1,0,-1,-1,-2,-2,-1,1,9.485
1898,-3,-2,-5,-6,0,-1,-2,-3,9.49
1899,0,1,2,0,-1,-1,0,0,9.495000000000001
1900,0,-1,-1,0,0,-2,0,-1,9.5
1901,0,-1,1,1,-1,0,-1,-1,9.505
1902,-2,-1,1,3,0,2,-2,0,9.51
1903,1,-2,0,0,-1,-1,1,-1,9.515
1904,0,1,2,0,0,-1,0,2,9.52
1905,0,-2,1,-2,1,-2,0,-2,9.525
1906,0,2,4,2,-1,-2,0,1,9.53
1907,-2,-2,-3,-1,-1,-2,0,-1,9.535
1908,-2,-2,-1,1,-2,-2,-1,0,9.540000000000001
1909,-2,-1,-1,-2,-2,-2,-2,0,9.545
1910,0,-1,-2,-3,0,-1,0,-1,9.55
1911,-1,-4,-3,-2,0,0,-1,-1,9.555
1912,0,0,-1,-1,-1,0,0,0,9.56
1913,1,0,-1,2,-1,-3,0,0,9.565
1914,-1,-1,-1,-2,-2,-1,-1,-3,9.57
1915,0,0,1,-1,-2,-3,-1,-2,9.575000000000001
1916,-1,0,2,0,-1,-1,-2,-2,9.58
1917,1,-2,0,-2,-2,1,-1,1,9.585
1918,-1,-2,0,0,-1,-1,0,-1,9.59
1919,-2,-7,-11,-4,-2,-2,-3,-2,9.595
1920,0,-1,0,-2,0,0,-1,0,9.6
1921,-1,-2,0,1,1,0,0,-1,9.605
1922,0,0,1,-2,-3,-2,-1,-1,9.61
1923,-2,1,3,1,2,1,0,-1,9.615
1924,-2,-2,1,1,0,0,-1,0,9.620000000000001
1925,-3,-2,-7,-1,-1,-1,-2,-2,9.625
1926,0,-1,-1,0,1,-2,1,1,9.63
1927,1,1,4,2,-2,0,0,0,9.635
1928,-1,-5,-7,-3,-1,-2,-2,-3,9.64
1929,-1,1,1,0,-2,-1,1,-1,9.645
1930,-1,-1,-1,-1,-2,-1,0,-1,9.65
1931,-1,0,-2,-2,-2,-2,0,1,9.655
1932,0,-2,-1,-1,0,0,1,0,9.66
1933,0,0,1,-1,-1,0,1,-2,9.665000000000001
1934,0,-1,-2,-1,1,0,-3,-1,9.67
1935,0,0,1,-1,0,1,0,-1,9.675
1936,-1,0,2,1,-2,0,0,1,9.68
1937,-1,-4,-5,-3,-1,-2,-1,-3,9.685
1938,-1,2,0,0,-1,1,0,0,9.69
1939,-2,-2,-3,-1,-2,-1,-1,-2,9.695
1940,-2,0,-1,-1,0,0,0,0,9.700000000000001
1941,-2,1,0,2,-1,1,0,0,9.705
1942,1,0,2,-1,0,-2,-1,0,9.71
1943,0,-2,-4,0,-1,-3,-1,-1,9.715
1944,-2,-1,-2,0,-1,-1,-1,-1,9.72
1945,-1,0,2,0,0,-2,-2,-1,9.725
1946,-2,0,-2,1,0,-1,1,-1,9.73
1947,0,1,3,-1,0,1,-1,-1,9.735
1948,-1,-1,2,0,-1,-2,0,0,9.74
1949,-1,-1,1,-3,-2,-2,-1,-1,9.745000000000001
1950,-1,-2,-5,0,0,1,-2,-2,9.75
1951,-1,1,0,-1,2,0,-1,0,9.755
1952,-1,0,-2,-1,-1,-1,-1,-1,9.76
1953,-1,0,-1,-1,-1,1,1,1,9.765
1954,-2,0,0,0,0,-2,-3,-2,9.77
1955,1,-2,-1,1,0,0,-1,2,9.775
1956,-1,-1,0,1,-1,-1,0,-1,9.78
1957,-1,0,-1,1,0,0,0,2,9.785
1958,0,-1,3,-1,-1,1,-1,0,9.790000000000001
1959,0,-3,-1,-3,-2,-1,-1,-2,9.795
1960,1,2,2,1,0,-2,0,1,9.8
1961,-2,-4,-5,-4,-2,-2,-2,-3,9.805
1962,-1,-2,-5,-3,-2,0,1,0,9.81
1963,-3,0,1,-3,-1,0,-1,-2,9.815
1964,-1,0,0,0,-1,0,0,0,9.82
1965,-1,0,-3,0,-2,0,-1,-1,9.825000000000001
1966,0,0,0,0,-1,0,-1,-1,9.83
1967,0,-1,-2,-2,-4,-2,0,-1,9.835
1968,-1,-2,-6,-4,-1,0,0,-1,9.84
1969,0,-1,0,1,0,-1,0,2,9.845
1970,-1,-2,-2,-1,-2,-2,-1,-2,9.85
1971,0,0,1,1,1,0,0,0,9.855
1972,0,0,-3,-2,-2,0,-2,-3,9.86
1973,0,0,-2,-2,-1,-1,0,-3,9.865
1974,0,0,-1,1,-1,-1,2,0,9.870000000000001
1975,-1,-1,-1,-1,-1,0,0,0,9.875
1976,0,-1,-1,-3,-1,-1,0,0,9.88
1977,0,2,4,1,1,1,0,0,9.885
1978,0,0,0,1,-1,-1,-3,0,9.89
1979,-1,1,1,0,0,-2,0,1,9.895
1980,-2,-1,-3,-1,-1,-1,-2,-1,9.9
1981,1,-1,0,-1,-2,-1,-2,0,9.905
1982,-3,-1,-1,2,0,0,-1,-1,9.91
1983,1,1,1,0,0,1,1,-2,9.915000000000001
1984,-2,-1,0,-4,-3,-1,0,0,9.92
1985,0,-1,-2,0,-1,0,-1,-2,9.925
1986,0,-2,0,-1,0,-2,0,0,9.93
1987,0,1,-1,0,-1,-1,-2,-1,9.935
1988,0,-1,1,0,1,1,2,1,9.94
1989,0,-3,-4,-2,-1,-1,-3,-2,9.945
1990,-3,-2,-3,-3,0,-1,-1,-1,9.950000000000001
1991,-1,-1,-2,1,0,-2,-1,-4,9.955
1992,2,-2,-1,0,0,-1,-6,-1,9.96
1993,0,0,1,0,-1,-2,5,2,9.965
1994,-1,0,-2,1,1,1,2,1,9.97
1995,-1,0,-1,-1,-1,-1,-1,0,9.975
1996,-4,0,-2,-3,-2,0,0,-1,9.98
1997,-4,-4,0,0,1,0,-2,-3,9.985
1998,1,0,0,-1,-3,-2,-3,-1,9.99
1999,-6,-3,1,-1,0,-1,0,-1,9.995000000000001
2000,3,3,1,-1,-1,0,-3,-3,10.0
2001,-3,-3,-3,0,0,0,-1,2,10.005
2002,-2,0,0,-1,0,-1,-1,-1,10.01
2003,4,-2,-4,-2,-2,-1,-6,-4,10.015
2004,-5,-3,-1,-1,-1,-2,4,1,10.02
2005,-1,2,3,0,1,1,2,-1,10.025
2006,2,0,1,-1,-4,-1,0,4,10.03
2007,-3,-1,0,0,0,-2,-3,-1,10.035
2008,1,-3,-1,-1,-2,-2,2,0,10.040000000000001
2009,1,1,-1,-1,-1,-4,-2,-1,10.045
2010,-2,-2,-4,-2,-2,0,0,-1,10.05
2011,-1,-2,0,3,0,0,-1,0,10.055
2012,1,2,2,-1,-5,0,0,-2,10.06
2013,-1,-2,-2,-1,1,0,0,-1,10.065
2014,0,0,0,1,0,-1,-3,-2,10.07
2015,0,-1,-2,0,0,2,2,0,10.075000000000001
2016,2,-2,-2,0,0,0,-2,-1,10.08
2017,-10,-3,-1,-2,-4,-2,-3,-3,10.085
2018,-7,-2,-2,-3,-1,-1,-1,-4,10.09
2019,6,0,-2,2,1,0,1,4,10.095
2020,-1,0,0,3,1,1,-2,-1,10.1
2021,3,2,3,-1,0,-1,-1,0,10.105
2022,-4,-4,-5,-4,-2,-3,0,-3,10.11
2023,-5,-2,0,-3,-4,-1,0,0,10.115
2024,-2,-1,-1,1,3,-1,-4,-4,10.120000000000001
2025,7,-1,-1,-2,-3,-1,-1,2,10.125
2026,3,1,7,8,2,0,0,4,10.13
2027,5,1,-3,-8,-2,0,-1,0,10.135
2028,-13,-4,-5,5,0,-4,-4,-1,10.14
2029,4,1,1,-9,-3,1,2,-1,10.145
2030,-5,-1,-4,0,-2,-3,-3,-5,10.15
2031,7,3,4,-2,-3,-1,2,3,10.155
2032,2,-1,-1,-3,-4,-2,-4,-1,10.16
2033,-4,-3,-2,5,2,1,2,-1,10.165000000000001
2034,3,-1,-1,-3,1,0,-2,1,10.17
2035,-7,2,3,1,-2,-3,-3,-5,10.175
2036,-2,-4,-4,0,2,3,2,1,10.18
2037,-4,-2,0,0,-5,-2,-3,-1,10.185
2038,3,0,-1,-3,-1,1,0,0,10.19
2039,-2,-2,-2,3,1,-1,-1,-3,10.195
2040,2,0,0,-3,-2,-1,2,2,10.200000000000001
2041,2,5,6,4,2,-2,-2,0,10.205
2042,-9,-8,-10,-2,2,1,1,-5,10.21
2043,-4,-1,-4,-7,-5,-5,-4,-1,10.215
2044,-4,-6,-6,-1,-4,-2,-1,-1,10.22
2045,2,1,0,-5,2,1,-1,0,10.225
2046,3,0,-1,0,-4,0,0,-1,10.23
2047,-1,-2,-2,10,2,1,-1,-6,10.235
2048,-1,-1,-3,-13,-3,-2,-1,3,10.24
2049,-7,-5,-7,-9,-4,-2,-2,-1,10.245000000000001
2050,4,1,0,-5,-1,-1,-2,0,10.25
2051,-8,-3,-4,1,0,1,0,-1,10.255
2052,3,2,3,3,-1,-2,-4,-5,10.26
2053,-3,-3,-2,0,2,-1,1,2,10.265
2054,-3,3,3,1,-2,-2,2,2,10.27
2055,3,1,3,-2,0,1,1,3,10.275
2056,-5,-2,-1,3,1,-1,-1,-4,10.28
2057,-11,-2,2,-9,-4,-3,-5,-6,10.285
2058,5,-1,-3,-3,-1,-1,0,5,10.290000000000001
2059,-7,-4,-2,-3,-2,-1,0,2,10.295
2060,3,5,4,15,5,-1,-3,-2,10.3
2061,2,0,-1,-7,1,0,-1,-5,10.305
2062,1,0,3,3,3,-1,1,3,10.31
2063,4,2,3,21,8,1,1,1,10.315
2064,-2,3,-1,-33,-17,-3,-2,-4,10.32
2065,0,-2,-4,9,5,1,1,0,10.325000000000001
2066,3,2,2,0,-2,-3,-3,2,10.33
2067,-6,-3,-2,-14,-3,-3,-4,-9,10.335
2068,5,1,2,14,7,1,0,2,10.34
2069,13,2,-4,4,-1,2,2,3,10.345
2070,-18,-6,3,4,3,-1,-2,-7,10.35
2071,0,2,2,-19,-14,-4,1,-1,10.355
2072,1,-1,1,2,3,2,-1,1,10.36
2073,-14,-3,-7,-13,-7,-3,-5,-5,10.365
2074,5,-2,-4,5,1,2,-1,0,10.370000000000001
2075,2,-4,3,7,3,1,0,0,10.375
2076,-5,-4,-7,2,3,1,1,-1,10.38
2077,4,3,3,-6,-11,-3,0,3,10.385
2078,-2,-1,1,4,3,1,0,-3,10.39
2079,-4,-1,0,-1,1,-1,0,-1,10.395
2080,26,5,-1,0,0,-2,1,7,10.4
2081,-13,-5,1,23,8,1,0,-1,10.405
2082,4,1,-5,-14,-2,0,-1,-1,10.41
2083,14,5,-1,-7,-5,-2,-1,0,10.415000000000001
2084,-7,-4,2,1,2,2,1,0,10.42
2085,6,0,1,-2,-3,-2,2,0,10.425
2086,0,0,3,3,-2,0,0,-2,10.43
2087,-4,-5,-7,3,3,1,0,2,10.435
2088,-5,-1,-3,-17,-2,-1,-1,-4,10.44
2089,3,-1,0,3,0,-1,0,0,10.445
2090,-2,-1,-2,5,3,0,0,0,10.450000000000001
2091,-3,-1,2,7,4,3,1,0,10.455
2092,1,0,-3,-1,-4,-1,1,0,10.46
2093,-8,-3,-3,-5,-1,-1,-3,-2,10.465
2094,-14,-3,1,6,0,-1,-1,-5,10.47
2095,5,1,-2,-9,-4,1,1,3,10.475
2096,-3,0,2,3,0,-2,-3,-5,10.48
2097,7,2,1,11,3,-2,1,3,10.485
2098,0,2,1,-18,-13,-1,1,2,10.49
2099,-3,-2,-3,1,3,-2,-3,-4,10.495000000000001
2100,6,-1,-1,1,-2,-2,-1,0,10.5
2101,5,-1,-2,-1,0,-1,0,-4,10.505
2102,3,-2,-2,1,1,0,1,0,10.51
2103,1,-1,0,-6,-5,-2,-1,-2,10.515
2104,-18,-6,-3,-3,-1,-5,-4,-2,10.52
2105,13,5,-2,2,1,0,0,0,10.525
2106,-1,-4,-4,3,3,2,1,-1,10.53
2107,5,4,1,-6,0,-1,-1,2,10.535
2108,-8,-5,-3,5,0,-2,1,-3,10.540000000000001
2109,-5,0,-4,-7,-3,-3,-4,-4,10.545
2110,-9,-2,-2,-5,-4,-3,-2,2,10.55
2111,0,-1,-5,6,1,1,3,1,10.555
2112,-3,0,2,-12,-1,1,0,-1,10.56
2113,-4,-3,-1,1,-1,1,1,0,10.565
2114,4,3,-2,26,11,-1,-5,-6,10.57
2115,-5,-2,1,-47,-38,-7,-4,-3,10.575000000000001
2116,-19,-6,0,5,4,-1,-1,-5,10.58
2117,20,10,2,-10,-5,-3,0,10,10.585
2118,-6,-2,3,4,-2,-2,-2,-6,10.59
2119,3,-1,0,8,6,-5,-3,-1,10.595
2120,-14,-8,-10,-6,-5,0,-1,-5,10.6
2121,3,0,0,-4,-1,1,0,1,10.605
2122,0,1,-2,-7,-3,-2,-2,-2,10.61
2123,5,0,6,6,7,0,-1,2,10.615
2124,-1,0,-5,-2,-7,-1,-2,-1,10.620000000000001
2125,-15,-11,-3,-7,0,-2,-5,-9,10.625
2126,3,-3,-8,-5,-1,1,2,3,10.63
2127,-12,-4,-1,5,6,3,1,-4,10.635
2128,18,11,3,1,2,-2,0,2,10.64
2129,-9,-16,-8,11,1,-2,-2,-3,10.645
2130,-6,1,3,-23,-12,-1,-1,2,10.65
2131,5,2,-2,4,0,-2,-2,-1,10.655
2132,7,1,5,32,17,4,1,5,10.66
2133,-7,-2,-2,-41,-30,-4,-2,-5,10.665000000000001
2134,10,-1,1,8,-1,-1,-1,3,10.67
2135,-1,-2,-3,-2,0,-3,-1,-3,10.675
2136,2,1,2,10,2,-2,-2,-2,10.68
2137,-2,2,0,4,7,0,1,-1,10.685
2138,3,-5,-5,-9,-2,1,1,0,10.69
2139,11,6,1,8,0,1,0,0,10.695
2140,-2,-7,3,-1,-4,1,0,1,10.700000000000001
2141,-5,3,2,10,9,6,2,-2,10.705
2142,23,2,0,2,2,-3,0,6,10.71
2143,-7,-3,-4,13,11,1,-1,-3,10.715
2144,4,1,-1,-9,-5,-1,-1,2,10.72
2145,9,3,0,20,11,2,2,2,10.725
2146,-14,-6,-2,-13,-10,-1,-1,-4,10.73
2147,-6,-2,1,5,4,1,1,0,10.735
2148,10,3,0,-6,0,2,3,1,10.74
2149,-9,-3,-1,17,5,-2,-2,-1,10.745000000000001
2150,4,-1,-5,-20,-17,-4,-2,-3,10.75
2151,-4,-7,-5,-5,-2,-4,-4,0,10.755
2152,3,1,-3,-16,-3,-2,-1,-2,10.76
2153,0,-2,-2,-2,-3,0,1,2,10.765
2154,4,5,4,2,7,-4,-3,-5,10.77
2155,-6,-2,-3,1,-2,0,-1,1,10.775
2156,2,0,3,8,4,-1,-1,-2,10.78
2157,11,0,-4,-5,-1,-1,-3,2,10.785
2158,-10,-5,1,6,5,1,-1,-3,10.790000000000001
2159,-10,-6,-2,-1,-3,-1,1,-1,10.795
2160,-2,0,-1,-4,-5,-4,-1,0,10.8
2161,-1,-3,-3,-2,-1,0,1,-1,10.805
2162,-3,3,2,5,1,1,0,1,10.81
2163,-2,-1,1,-2,5,1,-4,-2,10.815
2164,-2,1,0,-5,-6,0,-2,-2,10.82
2165,-2,1,3,1,2,-2,-2,0,10.825000000000001
2166,6,-2,-4,-3,-11,-3,-1,-1,10.83
2167,-13,-7,-4,-7,5,-3,0,-1,10.835
2168,7,3,5,-1,-2,2,0,1,10.84
2169,10,2,1,-1,-2,-1,0,2,10.845
2170,-9,0,1,9,7,0,0,-1,10.85
2171,11,5,5,-5,-6,0,-1,2,10.855
2172,-9,-8,-7,0,-2,-1,-1,-2,10.86
2173,-3,-2,-6,-6,-3,-3,-1,-2,10.865
2174,5,1,-2,5,3,2,-2,-2,10.870000000000001
2175,-4,0,-1,-10,-9,-5,-3,-1,10.875
2176,-4,-1,2,1,0,-1,-1,1,10.88
2177,-4,-1,-1,0,0,0,-1,-4,10.885
2178,-1,1,3,-2,-2,1,1,-1,10.89
2179,0,-4,-9,-1,-2,1,-2,-2,10.895
2180,1,2,-1,-5,1,0,-2,1,10.9
2181,-5,-1,3,1,-2,-3,-1,-2,10.905
2182,3,-2,-5,-6,-2,-3,-4,-3,10.91
2183,-11,-4,0,6,1,0,1,3,10.915000000000001
2184,-3,-3,-2,-1,-4,-3,-2,0,10.92
2185,6,0,2,-8,-3,1,1,1,10.925
2186,-13,-4,0,2,3,-1,-2,-4,10.93
2187,10,1,-2,3,-2,-1,0,1,10.935
2188,-3,-1,-2,-4,-4,0,-1,-2,10.94
2189,-3,0,4,2,1,-1,-1,1,10.945
2190,-2,-2,-3,0,0,-2,-1,-1,10.950000000000001
2191,-1,0,-2,1,1,0,0,-1,10.955
2192,3,-4,0,20,6,-2,-1,-1,10.96
2193,3,2,2,-12,5,0,-1,-2,10.965
2194,4,0,0,-4,-9,-3,-3,0,10.97
2195,-8,-3,-2,-1,-3,-1,-2,-3,10.975
2196,-1,-4,-7,-10,-6,-1,-1,-1,10.98
2197,-5,-6,-6,8,0,-2,-3,-2,10.985
2198,2,3,6,5,5,1,-1,-2,10.99
2199,6,0,-3,-6,-1,2,1,2,10.995000000000001
2200,-4,1,0,3,3,0,2,-4,11.0
2201,6,4,1,0,-2,-2,-1,4,11.005
2202,0,0,0,-5,-2,-2,-1,1,11.01
2203,-5,-4,1,3,-3,-1,1,-1,11.015
2204,-2,-1,-1,-4,-2,-2,-1,-2,11.02
2205,1,1,-2,-1,-1,0,2,-2,11.025
2206,2,2,0,-3,-1,1,0,2,11.03
2207,0,-2,0,7,6,2,0,0,11.035
2208,2,0,-2,-5,-4,-3,0,-1,11.040000000000001
2209,-7,-1,1,0,-4,-2,-3,-4,11.045
2210,-3,-3,-5,1,3,-1,0,1,11.05
2211,2,2,1,-2,-1,-1,-1,-2,11.055
2212,-1,-3,-8,-4,1,4,1,2,11.06
2213,-2,0,1,4,0,2,1,-1,11.065
2214,-1,1,2,2,1,0,0,1,11.07
2215,2,2,0,-3,-3,-3,-2,0,11.075000000000001
2216,1,-2,1,-1,-2,-1,-2,-2,11.08
2217,-5,-1,0,-2,0,0,0,1,11.085
2218,-3,-2,-3,-1,0,2,1,-1,11.09
2219,1,2,2,0,-1,-1,-2,-1,11.095
2220,-2,2,0,-1,-1,-4,-2,0,11.1
2221,-4,-1,1,-1,-1,-2,-2,-1,11.105
2222,-2,-1,0,-1,0,-2,-1,-3,11.11
2223,2,1,-2,-1,0,-1,0,-2,11.115
2224,-1,2,4,1,0,1,0,0,11.120000000000001
2225,-3,-4,-7,-1,-3,-1,0,-2,11.125
2226,2,0,-3,-5,-1,0,0,1,11.13
2227,-1,-2,1,0,0,-1,0,0,11.135
2228,0,0,-2,-3,-3,-1,-2,1,11.14
2229,-1,-2,0,2,0,0,-1,-1,11.145
2230,-1,0,-1,-1,0,-2,0,-1,11.15
2231,-1,0,-1,0,-2,-1,0,0,11.155
2232,-1,-3,-1,-2,-2,-2,-1,-1,11.16
2233,-1,-1,-5,-4,-1,-3,-1,0,11.165000000000001
2234,-1,0,1,0,-1,-1,0,-1,11.17
2235,0,-2,-5,-2,0,-1,0,-2,11.175
2236,-3,-1,0,-3,0,-1,0,-1,11.18
2237,0,-1,1,1,-1,0,-1,-3,11.185
2238,0,-3,-2,-1,1,-1,0,0,11.19
2239,-1,2,3,1,0,1,0,-1,11.195
2240,-3,-2,-7,-6,-4,-4,-2,-2,11.200000000000001
2241,-1,-2,-1,-3,-2,1,0,0,11.205
2242,-1,-3,-3,-1,-1,-2,1,-1,11.21
2243,0,-2,0,2,0,-1,2,-1,11.215
2244,-3,2,0,1,0,1,-2,-1,11.22
2245,-1,-1,-2,0,0,0,-2,-2,11.225
2246,-2,-3,-2,0,0,-1,-1,0,11.23
2247,-2,-1,1,-3,-2,-1,-2,-2,11.235
2248,-4,-1,-2,-1,2,-2,-3,-3,11.24
2249,3,2,1,-2,0,0,1,1,11.245000000000001
2250,6,3,2,1,1,0,-1,2,11.25
2251,0,-1,-1,1,1,0,-2,0,11.255
2252,-1,-3,-2,-4,-3,-2,0,-1,11.26
2253,-1,-2,0,0,-2,0,0,0,11.265
2254,-3,-1,-1,0,-1,-2,-1,0,11.27
2255,1,1,-1,-2,-1,0,-1,0,11.275
2256,1,-1,1,0,-2,1,-2,-2,11.28
2257,-2,-2,-1,1,1,0,-1,-2,11.285
2258,1,2,1,1,1,0,0,0,11.290000000000001
2259,-1,-2,-2,-1,-1,-3,-1,-2,11.295
2260,-1,-1,-1,0,0,0,2,0,11.3
2261,-1,-2,-3,-1,-1,0,-2,-1,11.305
2262,0,-1,0,-2,-2,0,1,-1,11.31
2263,-4,-3,-2,-2,-2,-2,-2,-3,11.315
2264,2,1,4,0,0,-1,-1,2,11.32
2265,-3,-1,0,-1,-1,-1,-2,-2,11.325000000000001
2266,-4,-1,-1,-2,-2,-1,-3,-2,11.33
2267,1,0,0,-1,-1,0,0,0,11.335
2268,2,0,0,1,-2,0,0,0,11.34
2269,0,0,-1,-3,-4,-1,-1,0,11.345
2270,-3,0,-1,0,-1,-2,-2,-4,11.35
2271,0,0,-2,-1,-1,0,-1,0,11.355
2272,0,0,0,1,0,-1,0,0,11.36
2273,-1,-2,-1,1,-1,-1,0,-2,11.365
2274,-2,-4,-1,2,-1,-2,-1,-2,11.370000000000001
2275,-1,-1,-4,-2,-1,-1,-2,0,11.375
2276,1,-1,-2,1,0,0,1,2,11.38
2277,1,-1,1,-1,-1,-3,-1,-1,11.385
2278,-1,-1,-6,-4,-1,-1,-1,-1,11.39
2279,1,0,2,2,0,0,-1,-1,11.395
2280,-2,-4,-4,-3,-2,-1,-1,-1,11.4
2281,-2,-1,-1,0,-2,1,-1,0,11.405
2282,0,-1,-1,-1,-1,-1,-1,0,11.41
2283,-1,-2,0,-1,0,-1,-1,0,11.415000000000001
2284,0,-2,-2,-4,0,0,0,-2,11.42
2285,-1,0,-1,-1,0,0,-1,2,11.425
2286,-1,0,0,0,-1,-1,-2,-1,11.43
2287,-1,-1,-2,-1,-1,-1,-1,0,11.435
2288,-1,0,0,1,-1,-2,-2,-1,11.44
2289,-2,-1,-3,-1,-1,-2,0,-1,11.445
2290,-1,-1,1,-1,-1,1,0,-1,11.450000000000001
2291,-1,-2,-2,0,-1,-1,-1,-1,11.455
2292,-2,-1,1,-1,0,0,-1,-2,11.46
2293,0,0,1,0,0,0,0,1,11.465
2294,-2,-2,-2,0,0,-2,-1,-1,11.47
2295,-1,0,-1,-3,0,-1,-1,-2,11.475
2296,-1,0,1,1,-1,0,0,-1,11.48
2297,-2,-1,-3,-3,-1,-2,-1,-2,11.485
2298,0,-1,0,0,-1,-1,-3,0,11.49
2299,0,1,1,2,-1,0,1,0,11.495000000000001
2300,-2,-4,-5,-1,0,-2,-2,-4,11.5
2301,-1,-2,-1,0,1,0,1,0,11.505
2302,-1,-3,-4,-3,-3,-2,-1,-1,11.51
2303,0,2,2,-2,-2,0,0,0,11.515
2304,0,1,4,1,0,-2,-3,0,11.52
2305,-2,-2,0,1,1,0,0,-2,11.525
2306,-1,-1,-2,-2,0,1,1,1,11.53
2307,-1,-2,-1,0,-1,1,0,0,11.535
2308,-3,0,0,0,2,1,0,-2,11.540000000000001
2309,-2,-2,-4,-2,-3,-3,-3,-2,11.545
2310,0,0,2,0,-2,-2,0,1,11.55
2311,-1,-1,-1,-2,-3,-2,1,1,11.555
2312,0,-1,0,-1,-1,-1,0,0,11.56
2313,0,0,2,0,0,0,0,1,11.565
2314,-1,-1,0,-2,-2,0,-1,-1,11.57
2315,-3,-2,-3,-2,-1,-1,-1,-1,11.575000000000001
2316,0,0,0,0,-2,0,-1,0,11.58
2317,0,0,0,-2,-1,-1,-1,0,11.585
2318,1,-1,-1,1,0,0,-1,0,11.59
2319,-1,-1,1,-1,-1,0,-1,-2,11.595
2320,-2,-3,-4,-2,0,-2,0,1,11.6
2321,0,1,-2,0,0,0,1,0,11.605
2322,0,2,3,1,1,-1,-1,-2,11.61
2323,-1,-1,0,-3,-1,-1,1,1,11.615
2324,1,0,3,2,-1,0,1,0,11.620000000000001
2325,-3,-3,-5,-2,-2,-1,-1,-1,11.625
2326,-1,0,4,3,-1,-1,0,-1,11.63
2327,-1,-4,-6,-3,1,0,-3,-1,11.635
2328,0,1,0,-3,0,-1,-1,0,11.64
2329,1,-1,1,1,0,-2,-1,0,11.645
2330,-1,0,-1,-2,-3,0,-2,-1,11.65
2331,-2,-2,0,1,1,-2,-1,-1,11.655
2332,-1,-1,-2,-3,-1,-1,0,-1,11.66
2333,-1,-2,1,0,0,-2,0,0,11.665000000000001
2334,-2,-1,-3,-1,0,-1,-1,0,11.67
2335,-1,-2,-1,-1,-1,0,-1,-2,11.675
2336,-1,-1,0,-2,-1,-1,-1,-2,11.68
2337,-1,0,0,-1,-2,-1,1,-2,11.685
2338,-1,-1,2,-1,1,0,0,-1,11.69
2339,-2,0,-1,-1,-1,-1,0,-1,11.695
2340,-1,-1,0,-1,0,-1,0,-1,11.700000000000001
2341,0,0,1,-1,0,-1,-1,-2,11.705
2342,-1,-1,-1,-4,-2,1,0,0,11.71
2343,1,2,3,1,1,1,0,1,11.715
2344,-2,0,-2,0,0,-2,-2,0,11.72
2345,-1,-1,0,-1,-1,-1,-3,-2,11.725
2346,-1,-2,-7,-2,-1,-3,-1,-2,11.73
2347,-3,-1,-1,-4,-1,-1,0,-1,11.735
2348,0,-1,-2,0,-2,-2,0,-1,11.74
2349,-1,-3,0,1,0,1,0,0,11.745000000000001
2350,0,0,2,1,0,0,0,-1,11.75
2351,-1,-3,-2,1,-2,0,-2,-2,11.755
2352,-1,-1,0,0,1,1,0,-1,11.76
2353,-1,0,-3,-1,0,0,-1,0,11.765
2354,-2,-1,-1,-1,0,-1,0,0,11.77
2355,-2,1,0,0,-1,-2,-2,0,11.775
2356,-1,-1,0,-1,1,0,-1,0,11.78
2357,0,1,0,-2,-1,1,-1,0,11.785
2358,-1,-2,-1,-2,-1,-1,-2,-1,11.790000000000001
2359,0,0,-1,1,-2,-1,-2,-1,11.795
2360,-2,1,2,0,-1,-1,-1,1,11.8
2361,-3,-3,-3,-3,-2,-1,-1,-2,11.805
2362,-2,0,-1,0,0,-1,0,0,11.81
2363,0,0,-2,-1,-1,-1,-1,-1,11.815
2364,-1,-2,-1,-2,-2,-1,-2,-3,11.82
2365,1,0,2,-1,-1,-1,-1,0,11.825000000000001
2366,0,2,-2,1,0,1,-1,-1,11.83
2367,-1,-1,2,3,1,0,-1,-2,11.835
2368,-4,-5,-8,-6,-3,-2,-2,1,11.84
2369,-1,0,0,0,0,-2,-1,0,11.845
2370,1,0,1,1,0,-1,-1,0,11.85
2371,0,0,-2,-2,0,0,-1,0,11.855
2372,-1,-2,0,3,0,1,0,-2,11.86
2373,-1,1,0,-3,-2,-1,0,1,11.865
2374,-1,-1,-1,-1,-1,-2,-1,0,11.870000000000001
2375,-1,-1,-1,0,0,-1,0,-2,11.875
2376,1,-1,0,1,-1,-1,1,0,11.88
2377,-1,-1,-2,-2,0,-2,0,-1,11.885
2378,-1,-2,-1,1,0,1,-2,-2,11.89
2379,-1,-1,-1,-1,0,0,-2,0,11.895
2380,0,0,0,-2,-1,0,-1,1,11.9
2381,1,1,0,3,1,1,-1,-1,11.905
2382,-1,-1,-2,-3,-1,-1,0,-1,11.91
2383,0,-2,-2,0,-1,-1,1,0,11.915000000000001
2384,-1,1,2,0,-2,-2,1,0,11.92
2385,-1,-2,-2,-2,1,0,-1,-2,11.925
2386,-2,-1,-2,-3,-1,-3,-3,-1,11.93
2387,-1,-3,-5,-3,-1,1,-1,0,11.935
2388,0,0,-4,0,-1,-1,-1,-1,11.94
2389,0,0,1,1,-1,1,0,-1,11.945
2390,-1,-3,-1,-1,-2,-1,0,0,11.950000000000001
2391,0,0,2,0,-1,-2,0,-1,11.955
2392,-1,-1,-1,1,0,1,-1,0,11.96
2393,1,-1,1,0,-1,0,-2,0,11.965
2394,-2,0,0,1,-1,0,0,-1,11.97
2395,0,-1,-2,-1,-2,-3,-1,-1,11.975
2396,-1,0,2,0,0,-1,1,-2,11.98
2397,-1,0,-1,0,-1,-2,-1,-1,11.985
2398,1,-1,2,0,-1,-1,0,-2,11.99
2399,-1,0,-1,0,0,-2,0,-1,11.995000000000001
2400,-1,-1,-1,-2,-1,0,-1,-2,12.0
2401,-3,-1,-3,-1,-1,-1,-1,-2,12.005
2402,-1,0,-2,0,-1,0,0,-1,12.01
2403,0,0,-2,-1,-1,0,0,-1,12.015
2404,-1,-2,-1,-2,-1,0,-1,-1,12.02
2405,-1,-1,-3,0,-1,-1,-1,-1,12.025
2406,0,-3,-2,-3,-1,-1,-1,-1,12.030000000000001
2407,1,-1,0,0,-1,0,-2,0,12.035
2408,0,0,-1,-1,-2,-1,-1,0,12.040000000000001
2409,1,0,-2,-1,-2,-1,-1,0,12.045
2410,-2,0,0,0,0,-1,0,0,12.05
2411,-3,-3,-3,-2,-1,0,-2,-1,12.055
2412,-2,-4,-6,-2,-1,-2,0,-1,12.06
2413,-1,0,2,-1,0,0,-1,0,12.065
2414,0,0,0,0,-2,-2,1,1,12.07
2415,-1,-2,-8,-6,-2,-3,-2,-3,12.075000000000001
2416,0,0,1,-1,-2,-1,0,-1,12.08
2417,0,-2,-2,0,-1,1,-1,0,12.085
2418,0,0,-1,-2,-1,0,-1,0,12.09
2419,-2,-1,3,1,-1,0,0,-2,12.095
2420,0,1,1,-1,0,-1,-1,-1,12.1
2421,-1,-1,-1,-1,-2,-4,-1,-2,12.105
2422,-1,-3,-3,-1,-1,-2,-1,0,12.11
2423,0,0,1,1,-1,-2,1,0,12.115
2424,0,0,-2,0,0,-2,-1,1,12.120000000000001
2425,0,-2,-3,1,0,-2,0,1,12.125
2426,0,-1,-2,-1,2,0,-1,-1,12.13
2427,0,0,1,1,-1,-1,-1,-2,12.135
2428,1,-2,2,1,1,-1,-1,-1,12.14
2429,0,0,1,-1,-2,0,2,1,12.145
2430,-1,-2,0,1,-1,0,-2,-1,12.15
2431,-1,-1,-1,-2,-1,0,-1,-2,12.155000000000001
2432,0,1,3,0,-1,0,0,1,12.16
2433,1,-2,-2,-1,0,-2,-1,-3,12.165000000000001
2434,-1,0,-3,-3,1,-3,-1,0,12.17
2435,0,0,1,0,-1,-1,-1,0,12.175
2436,0,-1,-2,0,0,0,0,-1,12.18
2437,0,-1,0,1,-1,0,0,1,12.185
2438,-2,-1,-3,-5,-3,-2,0,-1,12.19
2439,0,0,1,0,2,0,0,2,12.195
2440,-1,-2,-2,-2,-2,-2,-1,0,12.200000000000001
2441,-2,-2,-6,-1,-1,-1,0,0,12.205
2442,0,2,3,0,-1,0,-1,-1,12.21
2443,-3,-2,-4,-2,-1,-1,-1,0,12.215
2444,-2,-2,0,-1,-1,1,-1,-1,12.22
2445,0,0,1,-3,-1,-2,-1,-1,12.225
2446,1,0,1,1,-2,0,-1,0,12.23
2447,-1,-1,1,-1,0,-1,0,-1,12.235
2448,-3,-1,-1,-1,-1,-3,0,-1,12.24
2449,-2,0,-1,-1,-1,0,-1,-2,12.245000000000001
2450,0,0,-1,2,-1,0,-1,-1,12.25
2451,-1,1,-1,-1,-2,-2,-1,-1,12.255
2452,0,2,0,-1,0,-1,0,-1,12.26
2453,-2,-2,-5,-3,-3,-2,-2,-1,12.265
2454,-1,-1,-4,-2,0,-1,-1,-1,12.27
2455,-1,-1,0,1,-1,-1,-1,0,12.275
2456,-1,-2,-3,-2,-1,-2,-2,-2,12.280000000000001
2457,-1,1,1,0,-1,-2,0,-2,12.285
2458,-1,0,-3,-4,-1,-2,-2,-1,12.290000000000001
2459,1,-1,0,0,0,-1,0,0,12.295
2460,-1,-4,-2,-1,-2,1,0,-3,12.3
2461,0,-2,-2,-1,-1,0,0,0,12.305
2462,-1,-1,0,1,-1,-1,0,0,12.31
2463,-2,0,2,1,1,1,2,-1,12.315
2464,-1,-3,-3,-2,0,0,-3,0,12.32
2465,1,0,4,3,0,0,1,1,12.325000000000001
2466,-2,-2,-3,-3,1,0,0,-1,12.33
2467,0,-1,-2,-1,-1,-2,-1,1,12.335
2468,-1,-1,-1,-1,-2,-1,0,0,12.34
2469,-1,0,1,-1,0,0,-1,0,12.345
2470,-1,1,1,0,1,1,2,-1,12.35
2471,-1,0,-1,-1,1,0,-1,-1,12.355
2472,-1,-2,-5,-3,-2,-2,-2,0,12.36
2473,-1,-1,-3,-2,-2,0,-1,-1,12.365
2474,-1,-1,1,-1,-1,-2,-2,0,12.370000000000001
2475,-1,-2,-2,-2,-2,-2,-2,-1,12.375
2476,0,1,2,1,-1,0,1,-2,12.38
2477,-2,-3,-4,-3,-1,-2,1,-1,12.385
2478,-1,-1,0,-1,-2,-1,-1,0,12.39
2479,-1,0,-1,-1,-1,1,-2,-1,12.395
2480,0,-1,-1,-1,-1,0,-1,0,12.4
2481,-2,1,0,-1,0,-1,-1,-1,12.405000000000001
2482,-1,-1,-2,0,-1,-2,1,-1,12.41
2483,0,-2,-1,0,-1,-1,0,-1,12.415000000000001
2484,-2,0,0,0,0,-1,0,0,12.42
2485,-1,-2,-2,-1,-1,-1,-3,-2,12.425
2486,0,-1,0,-1,-1,0,0,0,12.43
2487,0,0,-1,1,-2,0,-1,-1,12.435
2488,1,3,2,1,-1,0,0,0,12.44
2489,-1,-4,-5,-4,-1,1,-1,-1,12.445
2490,0,0,0,-1,0,0,-1,-1,12.450000000000001
2491,-1,-1,-2,-3,0,-2,-1,0,12.455
2492,0,0,3,1,1,-2,-1,-2,12.46
2493,0,2,3,2,-1,-1,0,1,12.465
2494,-2,-2,-3,-1,-2,-3,-2,-3,12.47
2495,-2,-2,-5,-4,-3,-2,-1,-1,12.475
2496,0,1,-2,1,-1,-1,0,-1,12.48
2497,0,0,1,3,-1,0,-1,0,12.485
2498,-1,-3,-4,-2,-1,-2,-1,0,12.49
2499,0,0,0,1,0,-1,-1,-1,12.495000000000001
2500,-2,-2,-2,-2,-1,-1,0,0,12.5
2501,-1,-2,-2,-1,-1,-2,-1,-1,12.505
2502,0,1,1,0,-2,0,0,1,12.51
2503,-1,0,1,0,-1,-1,-2,-1,12.515
2504,-2,-3,-2,-1,-2,1,-2,-2,12.52
2505,0,0,0,-2,-1,-1,0,-1,12.525
2506,0,-1,-1,-1,0,0,-1,-1,12.530000000000001
2507,-1,0,1,0,-1,-1,-1,-1,12.535
2508,0,0,-1,0,-2,-2,1,1,12.540000000000001
2509,1,0,2,-1,0,0,-2,-1,12.545
2510,-1,0,-1,0,-1,-1,-1,-3,12.55
2511,0,-2,-3,-2,0,-1,-1,-1,12.555
2512,-1,-2,1,-1,-2,-1,0,-2,12.56
2513,0,0,0,-1,0,0,0,0,12.565
2514,0,-1,-1,0,-3,-3,-1,-1,12.57
2515,-1,-1,2,4,2,0,1,0,12.575000000000001
2516,-2,-4,-6,-8,-3,-4,-2,0,12.58
2517,0,0,0,-1,-2,-1,0,1,12.585
2518,-1,0,-4,-2,0,-1,-1,-1,12.59
2519,-2,-1,-4,-2,-1,-2,-1,-1,12.595
2520,0,2,0,2,1,0,-3,-1,12.6
2521,-1,-2,-2,-1,-1,0,-1,-2,12.605
2522,1,0,1,-1,0,-2,-1,0,12.61
2523,-1,0,0,0,-1,-2,1,-2,12.615
2524,-1,-1,-4,-2,-1,0,-1,-1,12.620000000000001
2525,0,-1,-3,-3,-2,-1,0,1,12.625
2526,-1,0,0,1,1,0,-1,0,12.63
2527,0,0,0,-1,-2,0,0,0,12.635
2528,-2,1,0,-1,1,0,1,0,12.64
2529,-1,1,-1,-1,-1,-1,0,-1,12.645
2530,1,-2,-2,0,-1,-1,1,1,12.65
2531,-1,1,-1,-1,-1,-1,-1,-2,12.655000000000001
2532,2,-2,2,2,0,-1,0,-1,12.66
2533,-2,0,-1,-1,0,-1,0,0,12.665000000000001
2534,-2,-4,-3,-1,0,-1,-2,-1,12.67
2535,-1,-1,-4,-1,-3,-1,-1,-1,12.675
2536,2,1,1,1,0,1,0,-1,12.68
2537,-1,0,0,2,-1,-1,-2,-1,12.685
2538,0,1,3,1,-1,0,1,-2,12.69
2539,-1,0,1,1,-1,0,0,0,12.695
2540,-2,-3,-3,-3,-1,-1,0,-2,12.700000000000001
2541,-1,-1,-2,-2,-2,0,-1,-2,12.705
2542,0,1,1,0,-1,2,0,1,12.71
2543,0,0,3,-1,-1,0,0,-1,12.715
2544,-3,-2,-2,-1,0,-1,-2,0,12.72
2545,-1,0,-2,-2,0,-2,0,2,12.725
2546,0,-1,-2,-1,-1,-2,-2,-2,12.73
2547,0,-1,-2,-1,-1,-1,0,0,12.735
2548,0,-1,-1,1,0,-2,0,0,12.74
2549,-1,-1,-3,-2,-2,-1,0,-1,12.745000000000001
2550,-2,1,0,-2,-2,1,-2,0,12.75
2551,-1,-4,-4,-1,-2,-1,-2,-1,12.755
2552,0,1,0,-1,-2,0,0,-1,12.76
2553,-1,-1,-1,-1,0,0,0,-1,12.765
2554,-1,0,-1,0,0,-2,-1,0,12.77
2555,-1,1,2,0,0,0,-2,1,12.775
2556,-1,-2,-5,-2,-3,-1,-1,-1,12.780000000000001
2557,-1,-1,-1,0,-1,0,-1,-1,12.785
2558,0,-1,-2,-2,-2,-2,-2,-2,12.790000000000001
2559,-1,-2,0,-1,-1,-1,1,0,12.795
2560,-1,1,4,1,1,-2,-1,0,12.8
2561,-1,-2,0,-2,-3,1,-3,-1,12.805
2562,-1,-2,-1,-2,-1,0,0,0,12.81
2563,0,-1,-1,0,-1,-1,-1,-1,12.815
2564,-3,0,-1,-1,-1,-1,-1,-1,12.82
2565,0,0,2,1,2,-1,1,0,12.825000000000001
2566,-3,-1,-2,-2,-1,-1,0,-1,12.83
2567,0,0,0,-2,-1,-1,0,-1,12.835
2568,0,-1,0,-1,1,-1,-2,-1,12.84
2569,0,-1,-1,1,0,-1,-2,-2,12.845
2570,-1,-3,-2,0,0,-1,-1,0,12.85
2571,-1,-1,-1,-3,0,-1,-1,-1,12.855
2572,-1,-3,0,-2,-1,1,-2,-1,12.86
2573,-1,0,0,0,-1,-1,0,-1,12.865
2574,-1,0,1,-2,-2,-2,-2,0,12.870000000000001
2575,-2,-2,-3,-1,-3,-2,-3,-2,12.875
2576,0,0,0,0,-1,1,0,0,12.88
2577,-2,-1,-1,-2,0,1,0,1,12.885
2578,-1,-1,1,1,-1,0,0,-2,12.89
2579,-2,0,0,-4,-1,0,-2,-1,12.895
2580,-1,1,2,2,-1,-2,1,1,12.9
2581,-3,-4,-4,-4,-1,-1,-3,-2,12.905000000000001
2582,1,0,-1,-2,0,-1,-2,-1,12.91
2583,0,-2,1,2,1,0,0,0,12.915000000000001
2584,0,-1,0,0,-1,-1,1,0,12.92
2585,0,0,1,-2,-1,-1,1,-1,12.925
2586,-1,-2,-3,-1,0,-1,1,-2,12.93
2587,1,1,0,1,0,-1,0,-1,12.935
2588,-1,0,-1,-1,-1,0,-2,-2,12.94
2589,0,0,-1,-1,-1,-2,-2,-1,12.945
2590,-1,-1,-1,-2,-1,-1,0,1,12.950000000000001
2591,0,0,-1,0,-1,-1,2,1,12.955
2592,-2,1,-2,-1,-1,-2,-3,-3,12.96
2593,0,0,-2,0,1,0,0,-1,12.965
2594,1,1,1,0,1,0,1,-1,12.97
2595,-1,-1,-1,-2,0,-1,0,-1,12.975
2596,0,-3,-3,-1,-1,-1,-3,-1,12.98
2597,0,-1,-2,-2,-1,0,-2,-2,12.985
2598,-2,-1,-2,1,1,-1,0,-2,12.99
2599,-1,0,-1,-3,-1,-1,-2,0,12.995000000000001
2600,0,0,1,0,1,1,0,0,13.0
2601,-1,0,0,-2,-1,0,1,0,13.005
2602,-1,-1,-2,-1,-2,-2,-1,-1,13.01
2603,1,-1,0,-1,1,-2,-1,0,13.015
2604,-1,-2,0,0,-2,2,1,-1,13.02
2605,-1,-2,-2,-1,-1,-2,-1,0,13.025
2606,-2,-1,0,-1,-1,0,-2,0,13.030000000000001
2607,-2,-3,-1,-1,0,-1,0,0,13.035
2608,-2,0,2,-1,0,-2,-1,0,13.040000000000001
2609,0,-1,0,-1,-1,-1,-1,-1,13.045
2610,-2,-2,-1,-2,-1,1,-2,-1,13.05
2611,-2,-1,-1,1,-1,0,-1,0,13.055
2612,0,0,-3,0,-1,-1,-2,-1,13.06
2613,1,-1,-1,0,-1,0,1,0,13.065
2614,2,0,2,0,0,-2,0,-2,13.07
2615,-1,-2,-2,-2,0,2,1,-2,13.075000000000001
2616,0,-1,-1,-1,-1,-1,0,0,13.08
2617,0,2,4,3,2,0,-1,-1,13.085
2618,-2,-5,-8,-5,-1,0,0,0,13.09
2619,0,0,-1,-1,-3,0,-1,-2,13.095
2620,0,1,-1,-2,0,-1,0,1,13.1
2621,-1,-1,-1,1,0,0,-2,-1,13.105
2622,1,1,3,2,-1,-1,-2,0,13.11
2623,-2,-2,-4,1,-1,-2,-1,-1,13.115
2624,-2,-2,-3,-2,0,-1,0,0,13.120000000000001
2625,-1,0,1,0,-1,-1,-1,0,13.125
2626,-3,0,-2,-1,0,0,0,-1,13.13
2627,0,0,-2,-2,-2,0,0,0,13.135
2628,0,0,1,-2,-1,-2,-1,-2,13.14
2629,0,-2,1,-1,-1,-1,1,-1,13.145
2630,-1,-2,-3,-2,1,-1,1,-1,13.15
2631,0,1,2,1,-1,-1,-1,-1,13.155000000000001
2632,-2,-1,-3,-2,-2,-1,-2,-2,13.16
2633,0,-2,-2,-3,-1,-1,0,1,13.165000000000001
2634,0,-1,-1,-1,-1,-2,-3,-1,13.17
2635,-2,0,1,0,0,-1,-1,0,13.175
2636,-1,-1,-2,-1,1,0,-1,0,13.18
2637,0,1,2,0,0,-2,0,1,13.185
2638,-1,-1,-5,-3,-1,0,-1,-4,13.19
2639,0,-1,0,0,0,0,0,-1,13.195
2640,-1,-1,-2,-1,-3,-3,-1,-2,13.200000000000001
2641,-3,-1,0,-1,2,0,-1,-1,13.205
2642,1,1,5,2,-3,-2,-1,2,13.21
2643,-1,-3,-1,-1,0,1,-3,-1,13.215
2644,-1,-1,-1,-1,-2,-1,-3,-2,13.22
2645,-2,-1,-3,-1,-1,0,-1,-1,13.225
2646,-1,-1,-1,-1,0,-2,-1,-1,13.23
2647,-3,-1,-2,-2,-3,-3,-1,-1,13.235
2648,-1,-3,0,-1,0,-2,0,0,13.24
2649,0,-1,-3,-2,-1,-1,-2,-2,13.245000000000001
2650,0,1,1,-1,0,1,0,0,13.25
2651,-1,-1,-3,0,-1,0,-1,-2,13.255
2652,0,-1,0,-1,1,-2,0,0,13.26
2653,-1,-1,-3,0,-3,-2,-3,-3,13.265
2654,0,-2,-2,-2,-2,-1,0,2,13.27
2655,-1,1,0,0,0,-1,-1,0,13.275
2656,-2,-1,-1,-4,0,2,0,-1,13.280000000000001
2657,-1,-1,-4,-2,-2,-2,-2,1,13.285
2658,-2,-2,0,-1,-3,0,0,-2,13.290000000000001
2659,1,0,2,0,2,-1,-1,-1,13.295
2660,-1,-3,-4,-3,-3,-1,1,0,13.3
2661,0,1,0,-1,-2,0,-1,0,13.305
2662,0,0,0,2,-1,-2,0,-1,13.31
2663,0,-1,-3,1,0,1,1,0,13.315
2664,0,0,2,3,1,0,0,0,13.32
2665,-2,-4,-3,-1,-1,-2,-1,-3,13.325000000000001
2666,1,0,1,0,0,0,0,-1,13.33
2667,-1,-1,-2,-3,-1,-1,-1,-2,13.335
2668,1,-1,-1,0,-1,0,0,-1,13.34
2669,-1,-2,-2,0,-1,-1,-1,0,13.345
2670,-1,0,-2,-1,-1,1,-1,-1,13.35
2671,0,1,1,-1,-3,-1,0,-1,13.355
2672,0,-1,-2,-2,-1,-3,-1,1,13.36
2673,-3,-1,-2,-2,-1,0,-2,-3,13.365
2674,-1,-2,-1,-4,-3,-1,-2,-1,13.370000000000001
2675,0,0,2,0,-1,-2,0,0,13.375
2676,0,-1,-1,0,-1,1,-2,0,13.38
2677,-2,0,-1,-1,-1,0,0,1,13.385
2678,0,1,2,0,-1,-1,-3,-1,13.39
2679,0,-1,-3,-1,0,0,0,0,13.395
2680,0,0,-1,0,2,-3,-1,-1,13.4
2681,1,0,-2,0,1,-2,2,-1,13.405000000000001
2682,-2,-2,-3,1,0,1,0,0,13.41
2683,-2,0,0,0,-1,-2,-1,-1,13.415000000000001
2684,-1,-1,0,-1,-2,0,-1,-2,13.42
2685,-1,-2,-3,-2,-3,0,0,0,13.425
2686,0,1,1,-2,-1,-2,0,0,13.43
2687,0,-1,-1,-2,0,-1,-2,-1,13.435
2688,0,0,0,0,0,1,1,-1,13.44
2689,0,0,1,0,-2,1,-1,-2,13.445
2690,0,-2,-5,-4,-2,-1,-1,-2,13.450000000000001
2691,-2,1,-3,-2,-1,-2,-1,-2,13.455
2692,0,-1,1,-1,-2,0,0,-1,13.46
2693,0,-1,1,-1,-2,0,0,-1,13.465
2694,-1,2,4,1,-1,-1,0,-2,13.47
2695,-3,-2,-4,-1,0,-1,-2,-2,13.475
2696,-1,0,-1,1,-1,-1,-1,-1,13.48
2697,-1,-1,0,-3,-1,-1,0,1,13.485
2698,6,0,0,1,0,-2,-2,0,13.49
2699,-5,-3,1,1,0,0,0,1,13.495000000000001
2700,-2,-1,-1,-3,-1,-2,-2,-2,13.5
2701,1,-2,-1,0,0,0,1,0,13.505
2702,-1,0,1,-1,-3,-1,-3,-2,13.51
2703,2,0,0,1,-2,0,-1,-2,13.515
2704,-2,-2,-2,-1,-1,-1,-1,-1,13.52
2705,0,0,-1,1,1,0,0,-2,13.525
2706,-3,-2,-3,-3,-1,-1,-2,0,13.530000000000001
2707,-2,1,1,-1,-2,1,3,2,13.535
2708,-1,1,-1,1,-3,-1,-2,-1,13.540000000000001
2709,-1,-3,-1,-1,0,-2,-2,-1,13.545
2710,-2,-1,0,-1,0,-1,0,-2,13.55
2711,1,0,0,-1,0,-2,-1,0,13.555
2712,0,-2,-1,-2,-2,0,1,1,13.56
2713,-2,-2,-5,-4,-3,-3,-3,0,13.565
2714,-3,-1,0,-1,1,0,2,-1,13.57
2715,-1,0,0,-1,-1,0,-1,0,13.575000000000001
2716,0,2,-1,1,0,0,-1,-1,13.58
2717,1,3,4,3,1,1,0,0,13.585
2718,-3,-3,-5,-2,0,-1,-3,0,13.59
2719,-2,-5,-7,-4,-3,-2,0,-2,13.595
2720,1,-3,-1,-3,-1,-2,-4,-2,13.6
2721,-5,-1,-2,-2,1,0,0,-3,13.605
2722,-1,1,3,2,-1,-1,0,0,13.61
2723,0,-4,-5,-2,-3,-1,-2,-2,13.615
2724,-4,-2,-1,-2,2,-2,0,-1,13.620000000000001
2725,0,-1,0,1,-1,-2,-1,0,13.625
2726,0,-3,-4,-3,0,-2,2,-1,13.63
2727,4,-1,1,-2,0,-2,-2,-2,13.635
2728,-7,-3,-2,0,-1,-1,0,-4,13.64
2729,-1,0,-5,-2,-2,-1,-1,2,13.645
2730,-1,-1,-1,1,-1,-2,1,1,13.65
2731,2,0,-2,0,0,0,-1,0,13.655000000000001
2732,2,0,-1,-1,-2,-1,0,0,13.66
2733,-3,-1,-2,-2,-3,-4,-7,-5,13.665000000000001
2734,6,1,1,1,-1,1,1,4,13.67
2735,0,1,0,-1,-1,0,0,0,13.675
2736,-1,-1,-1,0,-1,-1,3,1,13.68
2737,0,-1,0,-2,-1,1,0,0,13.685
2738,-1,-1,0,-2,-1,-2,-2,-1,13.69
2739,-2,-1,0,-1,-1,0,-2,-1,13.695
2740,2,-1,-1,1,-2,1,-1,1,13.700000000000001
2741,1,2,0,-3,1,2,3,-1,13.705
2742,-4,-7,-8,-2,-1,0,-3,-4,13.71
2743,-1,0,2,2,1,0,-1,0,13.715
2744,-2,-4,-2,-3,-1,0,0,0,13.72
2745,-1,0,-4,-3,-1,-1,-2,-2,13.725
2746,-4,0,1,-3,-1,0,-1,0,13.73
2747,1,1,-1,0,-1,-3,-1,-2,13.735
2748,0,-2,-2,-2,0,-1,0,0,13.74
2749,1,-1,3,3,-1,-1,-3,-3,13.745000000000001
2750,5,1,-1,0,-1,0,1,0,13.75
2751,-5,-3,0,-2,-3,-1,-2,-2,13.755
2752,2,3,2,1,0,-1,-3,-2,13.76
2753,0,1,2,3,1,-3,-3,-2,13.765
2754,-2,-4,-3,-3,-1,-3,-2,-2,13.77
2755,-3,0,3,-2,-1,-3,-6,-1,13.775
2756,-2,0,2,2,0,-1,5,-1,13.780000000000001
2757,-2,-4,-6,-4,-2,1,0,3,13.785
2758,-2,-1,-1,1,-3,-1,-2,-2,13.790000000000001
2759,-6,-4,-1,0,0,1,0,-2,13.795
2760,0,1,1,0,-2,-1,-2,-2,13.8
2761,-6,-1,0,1,-1,-1,0,0,13.805
2762,-2,-1,3,-1,-1,0,0,1,13.81
2763,2,0,-3,-2,0,-1,0,1,13.815
2764,-2,1,2,-1,-1,-2,-2,0,13.82
2765,1,-3,0,2,2,1,2,0,13.825000000000001
2766,-2,1,1,-2,-2,0,-2,-2,13.83
2767,2,1,1,0,-1,1,1,-1,13.835
2768,-2,-3,-2,-5,-4,-3,-4,-1,13.84
2769,-8,-2,-1,-2,-1,-2,-1,-4,13.845
2770,15,2,-3,0,-2,-1,1,5,13.85
2771,-5,-1,0,0,1,0,0,0,13.855
2772,0,0,0,-2,-4,1,-2,-2,13.86
2773,-1,-4,-7,-8,-3,0,-1,0,13.865
2774,-6,-3,0,0,1,-2,-1,-2,13.870000000000001
2775,2,2,0,-2,-3,0,0,-1,13.875
2776,0,-6,-8,0,1,0,-2,0,13.88
2777,2,1,3,1,-1,-2,-1,-3,13.885
2778,-5,-2,-7,-1,0,0,-2,3,13.89
2779,-1,-1,-1,1,-2,-1,-1,0,13.895
2780,-4,1,1,-1,1,0,1,-2,13.9
2781,5,-1,1,1,-1,-1,0,2,13.905000000000001
2782,0,-2,-1,-1,0,0,-1,-3,13.91
2783,-11,-3,-2,-4,-1,0,-3,-4,13.915000000000001
2784,14,1,-1,-1,0,2,1,6,13.92
2785,3,-2,0,0,0,-2,-3,-2,13.925
2786,-3,0,5,3,0,1,1,-1,13.93
2787,0,-5,-8,-3,-2,-2,1,1,13.935
2788,-5,-1,1,-1,-1,-1,-2,-3,13.94
2789,2,-2,-4,-3,-2,-3,1,0,13.945
2790,-1,0,-1,-2,1,0,-1,-1,13.950000000000001
2791,1,-1,-2,1,0,0,-1,-4,13.955
2792,1,-3,-3,-1,0,1,3,4,13.96
2793,-1,5,3,-1,-3,-2,-3,-1,13.965
2794,-3,0,0,5,3,0,-1,-5,13.97
2795,-1,0,1,2,2,0,-1,-1,13.975
2796,-11,-4,-5,-7,-6,-3,-4,-5,13.98
2797,-2,1,-2,2,0,2,0,1,13.985
2798,5,0,1,0,-2,-1,-2,-1,13.99
2799,9,2,-1,1,1,0,0,1,13.995000000000001
2800,-10,-4,-2,0,-3,-2,-3,-6,14.0
2801,-16,-9,-8,-6,-2,-2,-1,-3,14.005
2802,2,-1,-2,-5,-4,-1,-1,-1,14.01
2803,1,1,0,-1,-1,-2,0,-3,14.015
2804,6,2,2,4,1,-2,-2,2,14.02
2805,-1,2,2,-1,-1,3,-1,-2,14.025
2806,-11,-3,-1,-1,-1,-2,0,-4,14.030000000000001
2807,47,7,-1,-2,-1,1,0,4,14.035
2808,-30,-7,-5,-3,-2,-2,-4,-7,14.040000000000001
2809,11,4,4,0,-2,-3,-2,6,14.045
2810,-21,-6,0,0,0,1,-2,-5,14.05
2811,-9,-1,2,2,0,2,1,6,14.055
2812,18,2,1,-1,0,1,0,3,14.06
2813,-2,-7,-5,-3,-2,0,0,-2,14.065
2814,2,-3,-4,-7,-4,-3,-1,3,14.07
2815,-16,-6,-2,-2,-6,-8,-7,-11,14.075000000000001
2816,2,1,2,1,0,-1,0,-4,14.08
2817,-8,-3,1,0,1,-1,-1,3,14.085
2818,0,3,7,6,1,-1,0,-1,14.09
2819,-4,-6,-8,-3,-2,1,1,-1,14.095
2820,-9,-2,0,-2,-2,1,1,3,14.1
2821,-6,-2,-1,-2,-2,-3,-2,-7,14.105
2822,-2,-2,-4,-7,-4,-4,-1,-2,14.11
2823,-10,-2,2,2,1,0,-2,0,14.115
2824,3,3,3,5,1,1,-1,1,14.120000000000001
2825,7,4,4,1,2,1,1,3,14.125
2826,2,-1,-1,0,1,1,1,0,14.13
2827,11,4,0,-5,-4,-4,-2,4,14.135
2828,3,0,-5,-4,0,0,-1,-2,14.14
2829,-8,-6,-3,6,6,3,1,-3,14.145
2830,7,3,1,-8,-6,-2,-3,-2,14.15
2831,-5,-6,-1,-2,-1,-1,1,1,14.155000000000001
2832,-3,-2,-1,5,4,1,2,-4,14.16
2833,10,-3,-1,11,4,-3,-4,3,14.165000000000001
2834,-6,-1,2,30,21,6,5,2,14.17
2835,-19,-8,1,-33,-21,-8,-2,-3,14.175
2836,19,10,1,-19,-11,-6,-5,1,14.18
2837,3,-3,-3,-6,2,2,4,0,14.185
2838,-7,-1,5,14,9,1,3,0,14.19
2839,10,9,-9,-16,-5,-2,0,2,14.195
2840,-13,-3,12,42,8,-1,-4,-2,14.200000000000001
2841,13,3,-13,-54,-21,1,3,6,14.205
2842,14,0,-11,2,-2,3,5,11,14.21
2843,-26,-6,3,19,7,-1,-3,-9,14.215
2844,-36,-6,-6,-20,-3,-5,-9,-17,14.22
2845,21,8,7,67,20,3,-2,0,14.225
2846,3,3,3,-51,-34,-6,-2,4,14.23
2847,-2,-1,-5,42,20,4,3,0,14.235
2848,10,0,-1,-56,-22,6,10,14,14.24
2849,11,9,10,19,1,-10,-6,-10,14.245000000000001
2850,-8,-3,5,-11,-2,-4,-7,-4,14.25
2851,4,6,5,15,10,3,3,1,14.255
2852,-4,-5,3,38,24,5,-1,-2,14.26
2853,10,1,-3,-26,-16,-7,0,7,14.265
2854,4,0,-1,-2,-6,-1,-2,-3,14.27
2855,5,-8,-3,8,20,3,-5,-4,14.275
2856,4,-4,-4,-26,-10,-5,-5,0,14.280000000000001
2857,7,4,0,-2,4,1,0,2,14.285
2858,42,16,-2,5,9,-1,-2,-2,14.290000000000001
2859,-36,-7,10,19,-1,-1,-1,2,14.295
2860,3,-7,-23,12,8,-3,0,-1,14.3
2861,-7,-2,1,-7,-14,-2,0,2,14.305
2862,-12,-7,-4,-13,-9,-5,-3,-4,14.31
2863,16,4,1,-23,-19,-5,-2,-3,14.315
2864,0,-1,-10,-11,5,1,3,6,14.32
2865,-19,2,18,44,22,1,-4,-4,14.325000000000001
2866,-14,-9,-7,-59,-36,-4,-3,-9,14.33
2867,-14,7,5,17,13,-2,0,-2,14.335
2868,37,5,-1,-4,-15,-6,-2,11,14.34
2869,-21,-8,-15,-30,-3,0,-6,-12,14.345
2870,-13,0,-3,13,4,-7,-4,-10,14.35
2871,4,-3,3,14,10,5,4,8,14.355
2872,-32,-3,2,-9,-17,-5,-2,-14,14.36
2873,21,2,-4,-1,1,-1,-1,1,14.365
2874,-2,-1,1,30,19,2,-4,-1,14.370000000000001
2875,8,0,-9,-9,-11,-4,-3,-4,14.375
2876,-2,5,6,7,3,3,5,7,14.38
2877,9,-3,-4,-25,-14,4,5,-2,14.385
2878,-15,-4,-4,-2,3,-3,1,1,14.39
2879,28,6,4,62,33,6,3,1,14.395
2880,-18,-5,9,-19,-25,-6,-2,-5,14.4
2881,-10,-9,-10,-7,-6,-2,-3,-3,14.405000000000001
2882,-10,1,5,0,-7,1,3,1,14.41
2883,28,15,5,2,4,4,1,4,14.415000000000001
2884,13,-4,-4,-20,3,3,5,5,14.42
2885,-18,2,1,-33,-16,-7,-3,-9,14.425
2886,26,-1,3,63,27,4,3,11,14.43
2887,-7,-3,-2,-36,-23,-7,-4,-6,14.435
2888,7,9,-2,-21,-6,-1,-3,-1,14.44
2889,-15,-4,6,-5,4,-3,-3,-1,14.445
2890,-13,-5,-5,-13,2,4,2,0,14.450000000000001
2891,4,0,-1,-15,-14,-2,-2,-16,14.455
2892,20,4,-1,33,22,-1,-5,15,14.46
2893,-14,-4,-1,10,7,4,7,3,14.465
2894,-12,-10,-13,-16,-4,-1,-6,-6,14.47
2895,-28,-2,2,-17,-7,0,-3,-5,14.475
2896,-11,-4,-4,30,13,5,2,-10,14.48
2897,-2,2,5,15,-4,-6,-6,-13,14.485
2898,25,1,2,-5,3,-1,-1,2,14.49
2899,-4,-7,-10,-12,-9,0,3,13,14.495000000000001
2900,-4,5,2,-5,-13,-1,-1,-5,14.5
2901,-5,-2,-2,-2,1,2,1,8,14.505
2902,-2,1,3,-10,-2,-2,0,-5,14.51
2903,-15,-14,-7,-1,-5,-6,-7,-6,14.515
2904,7,5,4,-13,-9,2,3,4,14.52
2905,19,1,-1,5,-3,-2,-3,2,14.525
2906,-9,4,4,27,12,4,1,2,14.530000000000001
2907,5,0,0,-17,-19,-5,0,-2,14.535
2908,-14,-10,-2,19,17,-1,-2,0,14.540000000000001
2909,3,1,-7,13,8,4,5,2,14.545
2910,-15,-10,-15,-1,-2,1,1,0,14.55
2911,21,12,0,-7,3,-6,-7,0,14.555
2912,-17,-10,-4,-10,1,-3,-4,-10,14.56
2913,15,6,4,-2,-5,0,3,5,14.565
2914,-2,5,0,-6,-2,0,-3,-1,14.57
2915,0,-5,-3,-16,1,3,3,2,14.575000000000001
2916,4,-1,-7,0,-5,-5,-7,-8,14.58
2917,-16,-2,-2,6,-1,3,1,-1,14.585
2918,6,-4,5,3,2,4,-1,1,14.59
2919,0,-2,-1,17,19,2,3,5,14.595
2920,8,8,11,8,-9,-7,-7,-5,14.6
2921,-6,-4,0,1,-2,-4,-3,2,14.605
2922,3,7,4,8,7,2,2,-4,14.61
2923,-1,-2,-7,20,13,6,1,5,14.615
2924,5,-1,-2,-39,-14,0,2,-1,14.620000000000001
2925,7,-4,-8,-2,7,6,7,7,14.625
2926,20,6,-6,-10,-7,0,0,0,14.63
2927,-18,-4,8,-24,-18,-5,-7,-7,14.635
2928,-1,2,1,18,15,3,1,-2,14.64
2929,-9,-4,2,7,4,-2,-2,-6,14.645
2930,3,3,1,-21,-14,-5,-3,6,14.65
2931,1,-2,-2,17,5,4,6,3,14.655000000000001
2932,-4,2,6,3,1,2,0,-2,14.66
2933,6,-3,-7,-18,-8,-1,-1,-1,14.665000000000001
2934,-10,-3,0,11,8,2,3,6,14.67
2935,4,1,-3,13,8,-1,-2,-1,14.675
2936,-10,-6,3,-7,-19,-7,-4,-2,14.68
2937,2,-1,-2,28,11,0,-3,-6,14.685
2938,-6,-4,-3,-68,-53,-12,-6,-1,14.69
2939,1,0,-6,-11,-3,2,3,5,14.695
2940,-5,-6,-7,6,12,6,4,1,14.700000000000001
2941,-8,5,5,14,11,-3,-4,-8,14.705
2942,-12,-4,1,27,5,2,0,-5,14.71
2943,-7,-3,-2,-27,-13,-5,-5,-4,14.715
2944,10,1,-4,12,5,3,3,6,14.72
2945,-12,-2,2,-19,-10,-1,-1,-3,14.725
2946,-4,-4,0,14,10,0,0,-1,14.73
2947,6,0,-1,-4,-1,2,2,2,14.735
2948,-1,0,-3,7,9,-1,-3,-1,14.74
2949,-3,0,-1,-7,-5,-2,-1,0,14.745000000000001
2950,10,4,4,9,3,-3,-4,-2,14.75
2951,-23,-9,-2,-4,-5,-1,-1,-1,14.755
2952,1,1,-2,7,0,0,0,0,14.76
2953,-2,-3,-5,-9,-1,-1,-2,-1,14.765
2954,-1,1,-3,10,6,-2,-1,-6,14.77
2955,2,-2,-4,-19,-2,-2,-2,-1,14.775
2956,3,2,0,-1,0,-1,-1,2,14.780000000000001
2957,-7,-3,0,-2,-2,-1,0,0,14.785
2958,-1,-1,1,2,2,-1,-1,-2,14.790000000000001
2959,1,0,1,11,8,2,-2,0,14.795
2960,-1,3,5,-5,-13,-6,-1,-1,14.8
2961,4,-1,-2,-10,-7,-1,-2,1,14.805
2962,-3,-4,-4,5,9,4,0,-1,14.81
2963,0,0,2,-6,-7,-4,-4,-3,14.815
2964,0,-4,-5,12,5,0,-1,-1,14.82
2965,0,2,3,-11,-3,0,0,1,14.825000000000001
2966,11,3,1,-1,2,0,2,2,14.83
2967,-7,-5,-3,-2,-6,0,0,0,14.835
2968,1,1,3,1,0,-2,-2,-2,14.84
2969,-1,-3,-5,-1,0,3,1,1,14.845
2970,-2,-2,4,7,-2,-1,-2,-2,14.85
2971,5,3,-1,-7,-3,2,3,1,14.855
2972,0,0,-3,6,1,-2,0,0,14.86
2973,1,-1,0,3,0,-1,1,-1,14.865
2974,-4,-2,0,-3,-3,-2,-3,-2,14.870000000000001
2975,2,1,1,3,-2,-1,0,-1,14.875
2976,-1,-2,-1,-4,0,0,0,-1,14.88
2977,-2,-1,-1,-2,-2,-3,-2,-4,14.885
2978,-2,-3,-4,-1,-1,-2,-1,0,14.89
2979,2,0,0,-3,-7,-4,-2,-2,14.895
2980,2,0,-3,7,5,0,0,-1,14.9
2981,-3,0,-1,-4,4,0,-1,-2,14.905000000000001
2982,-2,0,-1,-17,-12,-2,0,0,14.91
2983,1,2,0,0,3,1,1,-1,14.915000000000001
2984,0,-1,0,-5,1,0,0,-1,14.92
2985,-1,-1,0,11,3,-1,-1,1,14.925
2986,-2,-1,-1,-3,2,0,0,0,14.93
2987,-2,3,2,-1,-1,0,-2,-1,14.935
2988,-1,-2,-3,-5,-1,-2,-1,0,14.94
2989,-1,-1,-1,6,3,1,-1,-1,14.945
2990,0,0,0,-2,-1,-1,-2,-2,14.950000000000001
2991,0,-1,-2,0,-2,0,-1,-1,14.955
2992,1,0,1,2,3,2,0,1,14.96
2993,0,0,0,1,-8,-2,0,1,14.965
2994,-1,-2,-3,-5,-5,-5,-2,-3,14.97
2995,0,1,0,-1,-3,0,-1,2,14.975
2996,0,-1,-2,-2,-1,0,1,-1,14.98
2997,-1,1,0,-4,-3,-2,0,0,14.985
2998,-2,1,1,2,1,0,-1,1,14.99
2999,0,-1,0,3,3,-1,-1,1,14.995000000000001
3000,0,0,-2,-1,-1,-1,-1,-2,15.0
3001,-3,-4,-4,-8,-1,-1,0,-2,15.005
3002,1,-2,-2,1,-1,1,1,0,15.01
3003,0,-1,-3,-1,0,-1,-2,-1,15.015
3004,-1,0,4,4,0,0,0,0,15.02
3005,-1,-1,-2,-1,-2,0,-1,1,15.025
3006,-1,0,-1,3,1,1,-1,-1,15.030000000000001
3007,1,-2,-2,-2,-1,-1,-1,0,15.035
3008,-3,-1,-1,-5,-2,-1,-2,-2,15.040000000000001
3009,-1,-1,-1,0,-1,-1,-1,-2,15.045
3010,-1,-1,-1,2,2,0,-1,-1,15.05
3011,1,2,0,-2,-2,-2,0,-1,15.055
3012,-2,-4,-4,-2,-2,-3,-1,-1,15.06
3013,0,0,1,-2,-2,-3,-1,-1,15.065
3014,-1,-1,-1,0,0,0,-1,0,15.07
3015,0,-1,-1,0,-1,0,1,0,15.075000000000001
3016,1,0,-1,0,1,-1,0,0,15.08
3017,-1,-2,-2,-1,0,-1,-1,-1,15.085
3018,0,-1,1,-3,-2,-3,1,0,15.09
3019,-3,-4,-7,-3,-2,-4,-2,-2,15.095
3020,-1,-1,-1,-4,-2,-1,0,-2,15.1
3021,0,2,5,6,0,1,0,-2,15.105
3022,-1,-4,-6,-2,-2,-2,-2,0,15.11
3023,0,0,1,1,0,1,1,0,15.115
3024,-2,-2,-2,-2,0,1,-1,1,15.120000000000001
3025,-1,-2,0,-4,-3,-3,0,-1,15.125
3026,-1,1,3,3,3,-1,0,-1,15.13
3027,-1,-1,-1,-1,-1,1,0,-1,15.135
3028,-1,0,-2,-1,-2,-2,-2,-1,15.14
3029,-2,0,-1,-2,0,-2,-1,0,15.145
3030,-1,-2,2,-3,-1,-1,-3,-2,15.15
3031,0,-1,2,1,1,-1,-2,-2,15.155000000000001
3032,-1,0,0,1,-1,2,1,0,15.16
3033,0,-2,-4,-4,-1,0,2,2,15.165000000000001
3034,0,-1,-1,1,0,0,1,1,15.17
3035,0,1,2,1,0,-2,-4,-6,15.175
3036,-1,-4,-4,-2,-2,-1,-1,-1,15.18
3037,1,1,2,1,-1,0,1,-1,15.185
3038,1,3,3,4,0,0,1,-1,15.19
3039,-2,-2,-2,-3,-4,-3,-1,1,15.195
3040,-2,1,1,1,0,-2,-2,-1,15.200000000000001
3041,0,0,-4,-6,-1,0,0,-1,15.205
3042,0,0,2,2,2,2,0,2,15.21
3043,-1,-1,0,0,-1,0,0,-1,15.215
3044,-1,-2,-2,0,-2,1,1,-2,15.22
3045,-2,-1,0,1,0,-1,-2,-1,15.225
3046,-2,0,-3,-1,-1,-1,0,0,15.23
3047,0,1,-3,-1,-1,-2,-2,-2,15.235
3048,0,-1,-2,-3,-1,1,4,1,15.24
3049,-1,1,-1,1,-1,0,1,1,15.245000000000001
3050,-2,-1,-5,-2,-1,0,-3,-1,15.25
3051,-2,0,-1,-2,0,-2,2,2,15.255
3052,-1,0,1,0,0,-3,-4,-2,15.26
3053,1,-1,-2,0,-1,0,-3,-2,15.265
3054,0,-1,-3,-2,-2,-2,-2,-2,15.27
3055,0,0,0,0,0,0,0,1,15.275
3056,0,0,-2,-3,-1,-1,-2,-2,15.280000000000001
3057,-2,-1,-1,-3,-2,-1,-3,-1,15.285
3058,0,1,1,0,0,-1,1,-1,15.290000000000001
3059,-2,-3,-4,0,0,-1,-2,-1,15.295
3060,0,0,-2,0,-1,0,0,0,15.3
3061,-1,-2,-6,-5,-4,-4,-4,-2,15.305
3062,-1,0,1,-2,-2,1,2,-2,15.31
3063,0,0,-2,0,-1,-3,-2,2,15.315
3064,-1,-1,2,-1,0,-2,1,1,15.32
3065,-1,0,0,2,0,1,0,0,15.325000000000001
3066,0,-1,-2,0,-1,1,-3,-3,15.33
3067,-1,-2,1,-2,-3,2,3,-1,15.335
3068,0,-2,-4,-2,-2,-1,-2,-2,15.34
3069,-1,1,2,0,-1,0,0,-1,15.345
3070,-1,-2,-2,-3,-2,-4,-1,0,15.35
3071,-1,0,1,0,0,1,0,0,15.355
3072,-1,-1,-3,-1,-1,-2,0,1,15.36
3073,-2,0,0,-1,-1,0,1,0,15.365
3074,-1,-1,-3,-2,-1,-2,-1,0,15.370000000000001
3075,-1,-1,-1,-1,-2,-1,-2,0,15.375
3076,-1,0,-2,0,-1,-1,-2,-2,15.38
3077,0,-1,-1,-3,-1,0,-2,-2,15.385
3078,0,-1,-1,-1,-2,-1,0,-1,15.39
3079,0,0,1,-1,-1,0,0,-2,15.395
3080,-1,-1,1,0,-1,-1,-3,-2,15.4
3081,2,-1,-1,-4,-1,-1,1,1,15.405000000000001
3082,-1,-4,-4,-2,-2,0,-2,0,15.41
3083,0,1,0,-1,-1,0,1,-2,15.415000000000001
3084,0,0,1,0,-1,1,-2,-2,15.42
3085,-2,-1,-1,2,0,-1,1,0,15.425
3086,-1,0,2,1,1,1,-1,1,15.43
3087,1,-1,-1,0,0,-1,-2,0,15.435
3088,-1,-2,-2,-1,0,0,0,0,15.44
3089,0,0,0,0,-1,-3,-2,-1,15.445
3090,0,-2,-3,-1,-1,-1,-1,-1,15.450000000000001
3091,-2,0,-2,-1,-1,-1,-1,-2,15.455
3092,1,0,1,-1,-1,0,-2,-2,15.46
3093,-3,-3,-7,-1,-1,-2,-1,-2,15.465
3094,0,0,0,0,-1,0,-1,-1,15.47
3095,-1,0,-1,-1,-1,-1,-1,0,15.475
3096,0,-2,-1,-2,-2,-1,0,0,15.48
3097,-1,-2,1,0,-1,0,-2,0,15.485000000000001
3098,-2,0,0,1,-2,-2,0,-1,15.49
3099,1,0,1,0,0,0,-1,0,15.495000000000001
3100,-1,1,1,1,-1,1,0,-1,15.5
3101,-2,-5,-10,-4,-2,-2,1,1,15.505
3102,-1,0,-2,-3,-1,-1,-1,-1,15.51
3103,-1,0,1,1,-1,-1,-2,0,15.515
3104,-1,-2,0,-1,0,-1,-1,-1,15.52
3105,0,1,3,3,1,1,0,0,15.525
3106,0,-1,0,-1,0,-1,-1,0,15.530000000000001
3107,-1,-3,-3,-1,-2,-2,-2,-2,15.535
3108,-2,-2,-1,1,-1,-1,-1,0,15.540000000000001
3109,0,1,3,1,1,1,-1,-1,15.545
3110,-2,-2,-4,-3,-1,-3,-3,-1,15.55
3111,0,0,1,-1,-2,-1,-1,0,15.555
3112,1,-1,-3,-4,-2,0,2,-1,15.56
3113,-1,1,2,0,0,1,-2,-2,15.565
3114,-2,-1,0,0,-1,0,0,-2,15.57
3115,-1,-1,-1,2,0,-1,-2,-1,15.575000000000001
3116,-1,-1,0,0,1,-1,0,0,15.58
3117,0,-2,-1,0,-1,-3,-1,-1,15.585
3118,1,2,2,1,0,-1,-1,0,15.59
3119,-1,-2,-1,-3,0,-2,2,-1,15.595
3120,-1,0,-3,-2,-1,0,-1,-1,15.6
3121,0,0,1,-2,0,-1,-2,-2,15.605
3122,-2,0,0,-2,-2,0,0,-1,15.610000000000001
3123,-2,0,1,1,0,1,-2,0,15.615
3124,-1,-3,-10,-5,-3,-4,-3,-4,15.620000000000001
3125,-1,-2,-2,-7,-1,1,1,-1,15.625
3126,0,1,1,1,0,0,0,0,15.63
3127,0,-1,-4,-4,-1,-1,-1,-4,15.635
3128,-1,2,4,3,-1,1,0,2,15.64
3129,0,0,-1,2,0,-1,-2,-1,15.645
3130,-1,-2,-2,-1,0,-1,-1,-1,15.65
3131,1,0,2,0,-1,0,2,0,15.655000000000001
3132,-1,0,2,2,1,-1,0,-1,15.66
3133,0,0,1,-2,-1,0,2,0,15.665000000000001
3134,0,1,-1,-1,0,0,-4,-3,15.67
3135,-1,-2,-1,-1,-1,-1,-1,-1,15.675
3136,0,1,1,0,-2,0,-2,0,15.68
3137,-1,-3,-2,0,-2,0,0,0,15.685
3138,1,0,2,0,-1,0,1,0,15.69
3139,0,-1,-1,-1,-2,0,0,0,15.695
3140,-1,-2,0,-2,0,-2,-2,0,15.700000000000001
3141,0,0,0,2,0,1,0,0,15.705
3142,-1,-1,-2,-1,0,1,0,0,15.71
3143,0,0,0,2,0,-1,-3,-1,15.715
3144,-3,-1,-1,-3,2,2,3,2,15.72
3145,0,0,-1,-1,-1,-2,0,-1,15.725
3146,-1,-2,-3,-1,-1,-1,-1,-1,15.73
3147,0,-1,-3,-1,0,-1,0,0,15.735000000000001
3148,0,-1,0,-1,0,0,-1,-1,15.74
3149,-3,-2,-1,0,0,0,-1,0,15.745000000000001
3150,-3,-2,-1,-1,0,-2,0,1,15.75
3151,-2,-1,-2,1,0,-2,-1,0,15.755
3152,-1,-2,0,1,0,-1,-1,0,15.76
3153,-2,-3,-3,-3,-1,-3,-1,-2,15.765
3154,0,0,1,1,-2,2,3,1,15.77
3155,-2,-1,-1,-1,0,-3,-4,-3,15.775
3156,0,1,2,1,0,1,1,0,15.780000000000001
3157,0,0,-2,-2,-2,-2,-2,0,15.785
3158,0,-3,-5,-3,-2,-1,0,-2,15.790000000000001
3159,0,0,1,-1,-3,1,0,0,15.795
3160,0,-2,-4,1,-1,-2,-1,-2,15.8
3161,1,-2,-1,0,1,0,-1,-2,15.805
3162,0,-2,0,1,-2,-2,-2,-1,15.81
3163,-1,-3,-3,0,-1,1,0,0,15.815
3164,-1,-3,-2,-2,-3,-2,-2,-2,15.82
3165,0,1,0,0,-2,1,-1,0,15.825000000000001
3166,0,1,1,-1,-1,-1,-1,1,15.83
3167,-1,-2,-3,-3,-1,-1,-3,-1,15.835
3168,-1,0,-1,-2,-3,0,0,-1,15.84
3169,0,1,-2,0,1,-2,-2,-1,15.845
3170,0,-2,-1,-1,-1,0,-1,-1,15.85
3171,0,1,2,1,1,-2,1,-1,15.855
3172,-1,-3,-5,-3,-1,-1,-1,0,15.860000000000001
3173,0,-1,-1,-2,-1,1,-1,0,15.865
3174,0,0,-2,-1,0,-2,-1,1,15.870000000000001
3175,-2,0,-1,-1,-1,-1,0,0,15.875
3176,0,0,1,0,-1,-1,-2,-1,15.88
3177,-1,-1,-1,1,1,-1,0,0,15.885
3178,-1,0,0,1,0,0,0,-1,15.89
3179,0,0,1,1,-1,0,-2,-3,15.895
3180,0,-1,-3,-2,0,-1,0,-1,15.9
3181,1,0,3,2,-1,1,-1,-1,15.905000000000001
3182,-1,-1,-2,-5,-1,-1,-1,1,15.91
3183,-1,-1,1,-1,0,0,1,0,15.915000000000001
3184,-2,-1,1,0,-1,-1,-1,-1,15.92
3185,-1,1,2,1,-1,-1,0,0,15.925
3186,0,-1,0,-1,-2,-2,-1,-2,15.93
3187,1,0,-2,-2,-1,1,-2,-1,15.935
3188,0,2,2,1,1,-1,0,-1,15.94
3189,-3,-2,-4,-4,0,-1,-1,-2,15.945
3190,-1,0,0,0,-1,-2,-2,0,15.950000000000001
3191,0,1,-4,-2,-2,-2,-1,-1,15.955
3192,0,0,1,2,-1,0,-1,0,15.96
3193,0,-1,-1,-1,-2,-2,0,-1,15.965
3194,-1,-1,-1,0,-2,-1,-1,-2,15.97
3195,0,-1,0,1,0,0,1,0,15.975
3196,0,-2,-2,0,0,-1,1,-1,15.98
3197,0,0,-1,0,0,-1,0,-1,15.985000000000001
3198,0,1,0,0,0,-2,-2,-1,15.99
3199,0,-1,1,-3,-2,-2,0,-2,15.995000000000001
3200,0,1,-1,0,-3,1,0,0,16.0
3201,0,-2,-2,-1,-2,-1,-1,0,16.005
3202,1,1,1,-2,-1,0,-1,-2,16.01
3203,-1,-2,2,1,0,0,-1,0,16.015
3204,-1,0,0,-1,0,0,0,0,16.02
3205,-2,-2,-3,-1,1,-1,-1,-1,16.025
3206,1,3,3,1,-1,0,0,0,16.03
3207,-3,-3,-8,-4,-3,-4,-2,-1,16.035
3208,-1,-3,-3,-4,-1,0,-1,-2,16.04
3209,1,-1,1,-1,-3,-3,-3,-1,16.045
3210,-1,-3,-2,-2,-2,-2,0,-1,16.05
3211,-1,0,2,0,0,0,1,0,16.055
3212,1,1,1,0,-3,-1,-1,-1,16.06
3213,-2,-1,-2,-1,-1,0,1,-1,16.065
3214,-1,0,-2,0,0,-2,-1,0,16.07
3215,-2,0,-1,-1,0,-2,-1,-1,16.075
3216,-2,-3,0,-1,0,-1,0,-1,16.080000000000002
3217,0,-2,-1,-3,0,-1,-1,-2,16.085
3218,-1,-2,0,-1,-3,0,-1,-2,16.09
3219,1,-1,0,0,-1,0,0,0,16.095
3220,0,-1,-3,-3,-1,-1,-1,0,16.1
3221,1,0,-2,-1,-1,-2,-2,0,16.105
3222,-2,-3,-2,0,-1,1,-2,-1,16.11
3223,0,-1,-2,-2,-1,0,-1,0,16.115000000000002
3224,-1,1,1,1,-3,-1,0,-2,16.12
3225,0,-1,0,0,-1,0,0,-1,16.125
3226,-1,-2,-1,-1,-1,-2,0,-1,16.13
3227,0,-2,-2,0,-3,1,-1,1,16.135
3228,-1,-1,-1,-1,-1,-1,0,-1,16.14
3229,-2,-1,-2,1,1,1,0,-1,16.145
3230,0,-1,0,-2,0,-1,-1,0,16.15
3231,0,-1,1,1,-1,-1,-1,-1,16.155
3232,-1,0,-1,-1,2,-2,-2,-1,16.16
3233,1,0,0,-2,-2,-1,-1,0,16.165
3234,0,1,-2,0,0,-1,1,-1,16.17
3235,-1,0,-1,-2,0,-2,-1,0,16.175
3236,2,0,-1,-2,-1,-1,-1,-2,16.18
3237,0,-1,0,-1,-1,0,-2,0,16.185
3238,-2,-1,-2,-1,0,1,-2,1,16.19
3239,-2,-1,-2,-2,-1,-2,-1,0,16.195
3240,0,1,2,2,0,0,0,-1,16.2
3241,-1,-2,-2,-3,-3,-1,-1,-2,16.205000000000002
3242,1,0,-1,-2,0,1,-1,-1,16.21
3243,0,-1,-3,-3,-3,-2,0,-2,16.215
3244,-1,-1,-1,-1,-1,-1,0,2,16.22
3245,0,1,1,1,-2,0,-1,-1,16.225
3246,-1,-3,-3,0,-2,-2,0,-1,16.23
3247,-2,1,1,1,-1,-1,1,-1,16.235
3248,-2,-2,-2,1,-1,-1,-1,0,16.240000000000002
3249,-1,-1,-1,0,1,0,0,-2,16.245
3250,-1,-2,-5,-3,-1,-1,-1,-1,16.25
3251,0,0,-2,-1,0,-1,-1,0,16.255
3252,0,-2,-1,-4,-1,-1,-3,-1,16.26
3253,-2,-2,0,-1,0,-1,-1,0,16.265
3254,-1,-2,-1,1,-1,-1,-2,-1,16.27
3255,0,-1,1,0,-1,0,0,-1,16.275
3256,0,-1,-1,0,-2,1,-1,-3,16.28
3257,-1,-1,-1,2,0,-1,0,0,16.285
3258,-1,0,0,-1,-1,-1,-1,0,16.29
3259,-1,-2,-1,-1,0,-2,-2,0,16.295
3260,0,0,-4,-1,0,-1,-2,0,16.3
3261,0,-1,1,-1,1,1,0,-1,16.305
3262,1,1,-3,-2,-2,2,-1,-1,16.31
3263,0,0,-1,-1,2,-2,-2,-1,16.315
3264,-2,0,-1,-2,-1,-2,-2,0,16.32
3265,1,0,1,0,-2,0,0,2,16.325
3266,-2,-1,0,2,1,0,-1,-1,16.330000000000002
3267,-1,-2,-2,-5,-3,0,0,-1,16.335
3268,0,-2,-2,-2,0,1,0,-1,16.34
3269,0,1,-1,-1,-1,-1,0,-1,16.345
3270,0,0,0,0,-1,0,0,0,16.35
3271,-2,-3,0,0,-1,-1,-1,-1,16.355
3272,0,1,1,1,0,-1,0,0,16.36
3273,1,-1,0,1,-2,-2,-1,0,16.365000000000002
3274,1,-1,-2,-2,-2,-1,0,-1,16.37
3275,-3,0,-1,2,0,-3,-2,-2,16.375
3276,0,-2,-2,-2,0,-2,-1,0,16.38
3277,-2,0,0,-2,0,0,-1,-1,16.385
3278,-2,-1,-2,1,0,0,-1,-1,16.39
3279,-1,-2,-1,-1,-1,0,1,-1,16.395
3280,0,0,1,0,-1,0,0,0,16.4
3281,-1,-2,-2,-1,0,-3,-2,0,16.405
3282,-2,-1,0,-2,0,-3,-1,-1,16.41
3283,-1,-1,0,1,-1,0,0,0,16.415
3284,0,-1,-1,0,-1,0,0,-1,16.42
3285,-1,0,-1,-1,-1,-1,0,-1,16.425
3286,-1,-2,-3,-3,-2,-2,0,0,16.43
3287,0,0,0,2,-1,-1,-1,0,16.435
3288,-2,-1,-3,-3,-1,-1,0,-1,16.44
3289,-1,0,0,-1,-2,0,-2,-1,16.445
3290,0,-1,1,1,1,1,1,-1,16.45
3291,0,0,1,2,-2,1,-2,-1,16.455000000000002
3292,-2,-2,-4,-3,1,-2,0,1,16.46
3293,-1,-2,-2,-2,-1,-2,-2,-3,16.465
3294,-1,-2,-1,-1,0,-1,-1,-2,16.47
3295,-1,0,0,-2,0,0,1,-1,16.475
3296,1,1,2,1,0,0,-1,0,16.48
3297,0,2,2,2,1,0,1,0,16.485
3298,-1,-3,-3,-4,-3,-3,-1,-1,16.490000000000002
3299,0,-3,0,-1,0,-1,0,-2,16.495
3300,-2,-1,1,0,-1,-1,0,0,16.5
3301,-1,-1,-3,-2,-1,-1,0,0,16.505
3302,0,0,1,0,-1,1,-2,-1,16.51
3303,-2,0,-3,-2,-1,0,0,0,16.515
3304,-3,0,0,-2,0,0,-1,0,16.52
3305,-1,-2,-1,1,0,1,0,-1,16.525
3306,-2,1,2,1,0,-1,0,1,16.53
3307,0,-1,-2,-3,0,0,0,-2,16.535
3308,0,0,1,0,0,0,0,-2,16.54
3309,-2,-2,-2,-1,-2,-1,0,-1,16.545
3310,-1,-1,0,0,0,-1,1,0,16.55
3311,0,2,1,1,1,0,-1,1,16.555
3312,0,-2,-6,-2,-2,-3,-1,-4,16.56
3313,-1,-1,0,-1,-3,-1,0,0,16.565
3314,0,-1,0,-4,-3,0,0,0,16.57
3315,0,1,-1,-1,0,-1,-1,-1,16.575
3316,-2,-3,1,-1,1,1,-2,0,16.580000000000002
3317,0,1,-2,0,0,-2,-1,0,16.585
3318,-1,-3,-2,-2,-1,-1,-1,-3,16.59
3319,0,-1,0,-1,0,-1,0,0,16.595
3320,0,-2,0,0,-1,0,0,0,16.6
3321,0,-1,-3,-3,-2,1,1,0,16.605
3322,0,0,1,2,-1,-1,-1,0,16.61
3323,-2,-2,-5,-2,-2,-3,-1,-2,16.615000000000002
3324,0,-1,0,0,0,-2,1,-1,16.62
3325,1,-1,1,0,0,-2,-1,-1,16.625
3326,0,0,1,1,0,-1,-1,-1,16.63
3327,0,-1,-1,0,-2,1,-1,-1,16.635
3328,-1,-2,-1,-1,-1,-1,-1,0,16.64
3329,-1,-1,-1,-1,-1,-2,-1,-1,16.645
3330,-1,-2,-1,0,0,-1,-2,-1,16.65
3331,-1,-1,-1,-1,1,-1,0,-2,16.655
3332,-1,-1,-1,0,-3,1,1,1,16.66
3333,0,0,1,-1,0,0,-1,-1,16.665
3334,-1,-2,-5,-1,-2,-1,-1,0,16.67
3335,0,-2,-1,-4,-1,-2,-2,0,16.675
3336,1,3,5,3,0,-1,0,0,16.68
3337,-2,-6,-6,-3,-3,-1,-2,-2,16.685
3338,-1,0,0,2,0,0,0,1,16.69
3339,-1,-1,-2,0,-1,1,-1,-1,16.695
3340,0,1,1,0,-1,-2,-1,0,16.7
3341,0,0,1,-1,-1,0,1,-1,16.705000000000002
3342,-1,0,-1,-1,-1,-1,0,-2,16.71
3343,0,-1,-1,1,-3,0,0,0,16.715
3344,0,-1,0,-1,-1,-1,-1,-1,16.72
3345,-2,0,-3,-2,-1,-2,-1,-1,16.725
3346,1,-1,-1,-1,-1,-1,-2,-1,16.73
3347,-1,-1,0,0,-1,0,-1,0,16.735
3348,0,-1,-2,-3,-1,0,-3,-4,16.740000000000002
3349,1,-1,1,0,-1,0,-1,-1,16.745
3350,-2,-2,-1,-1,-1,-1,0,-1,16.75
3351,0,0,0,0,-2,-1,0,0,16.755
3352,-1,-1,-1,-3,-1,-2,0,1,16.76
3353,-1,0,-2,1,0,0,0,0,16.765
3354,1,2,2,0,0,-1,0,0,16.77
3355,0,0,2,3,-1,-1,-1,0,16.775
3356,-1,-2,-3,-3,-2,1,0,-1,16.78
3357,0,-1,1,-1,0,-1,-1,-2,16.785
3358,0,-1,1,1,-1,0,2,2,16.79
3359,0,0,-1,-4,-1,-3,-3,-1,16.795
3360,-1,-1,-6,-3,-2,-2,-2,-3,16.8
3361,-1,0,-2,-1,-2,-2,-2,-1,16.805
3362,-1,-1,-2,-2,1,2,0,-1,16.81
3363,0,-2,0,-1,-1,0,0,-1,16.815
3364,-1,-1,0,1,0,2,-1,0,16.82
3365,0,0,-2,-2,-2,-2,-2,-1,16.825
3366,-1,0,-2,-2,-2,0,-3,0,16.830000000000002
3367,1,-1,0,0,-1,-1,-1,0,16.835
3368,-1,-1,-1,0,0,0,-1,-1,16.84
3369,-1,-2,0,0,1,0,1,0,16.845
3370,1,1,4,2,1,2,-1,-1,16.85
3371,-3,-2,-5,-3,-1,-2,1,-2,16.855
3372,0,0,1,2,-1,-1,0,0,16.86
3373,0,-1,-3,-4,-1,-2,0,0,16.865000000000002
3374,0,1,1,-1,-1,0,-1,-2,16.87
3375,-2,-2,-2,0,0,-3,-1,0,16.875
3376,0,0,-1,0,1,0,-2,-1,16.88
3377,-3,-1,-1,0,0,1,0,1,16.885
3378,1,-2,-1,-2,0,-2,-1,-2,16.89
3379,0,-1,2,-1,1,1,0,-1,16.895
3380,-2,-2,-2,-1,-1,-2,1,-1,16.9
3381,0,-1,-1,-2,-1,-1,0,-1,16.905
3382,0,1,-2,0,-1,-2,0,1,16.91
3383,-1,-3,-7,-4,-2,-1,0,0,16.915
3384,-1,-2,0,-1,-2,-3,-2,-2,16.92
3385,0,-1,-2,0,-2,1,0,-1,16.925
3386,-2,-1,-2,-1,-2,-2,-1,1,16.93
3387,2,0,1,-1,0,-1,-1,-1,16.935
3388,-2,-2,-1,1,0,0,0,-1,16.94
3389,0,1,0,0,1,-1,-2,-1,16.945
3390,-1,-2,-1,0,-1,-1,-1,-1,16.95
3391,0,0,-1,0,-1,0,1,-1,16.955000000000002
3392,0,1,0,-1,0,-1,-2,-1,16.96
3393,0,-2,-1,-2,-2,-1,-1,-2,16.965
3394,-1,-2,-2,-3,-1,0,-1,0,16.97
3395,-3,1,1,1,0,-2,-1,0,16.975
3396,0,0,0,-1,-1,1,0,0,16.98
3397,-2,1,-2,-1,0,-2,-1,-2,16.985
3398,-1,-1,-2,-2,-1,-2,-1,-1,16.990000000000002
3399,1,-1,-2,-1,-1,-1,-1,-1,16.995
3400,0,0,-1,0,-1,0,1,1,17.0
3401,-2,-2,1,1,-1,-2,-2,0,17.005
3402,-1,-3,-2,-1,0,1,-1,1,17.01
3403,-2,-1,1,-1,-1,0,-1,-1,17.015
3404,-2,0,-4,-2,-1,-2,-1,0,17.02
3405,0,-1,-1,-1,1,0,1,0,17.025
3406,-1,-1,-2,0,-1,-1,0,-2,17.03
3407,-2,1,0,-2,-3,-1,-1,-1,17.035
3408,-1,-2,0,-1,-1,-1,-2,-2,17.04
3409,-1,0,1,-2,0,-1,-2,-1,17.045
3410,-1,-1,0,2,-2,0,-1,0,17.05
3411,-1,-1,-3,-3,-2,0,-1,-1,17.055
3412,-1,0,0,-1,-1,-1,0,-1,17.06
3413,-1,-2,-1,0,0,-1,-1,1,17.065
3414,-1,-2,0,1,-1,-1,0,-2,17.07
3415,-1,1,1,2,0,-1,0,2,17.075
3416,-1,-1,-2,-2,-3,-1,0,-1,17.080000000000002
3417,0,-1,-4,-1,-1,0,-1,-1,17.085
3418,-2,1,-1,-2,-2,-1,-2,0,17.09
3419,0,3,3,1,0,-1,1,0,17.095
3420,-1,-2,-4,-1,-1,0,0,-1,17.1
3421,-2,0,1,-1,0,-1,0,-3,17.105
3422,-1,-1,-3,-3,-2,-2,-2,0,17.11
3423,-1,0,1,1,2,0,0,-2,17.115000000000002
3424,-1,-2,-3,-3,-1,0,0,0,17.12
3425,-3,0,1,1,0,1,1,0,17.125
3426,-1,-2,-3,-3,0,-2,-1,-1,17.13
3427,-1,-4,-1,0,0,1,-1,-1,17.135
3428,-1,-2,-2,0,0,0,-1,-1,17.14
3429,0,-3,-5,-1,0,0,-1,0,17.145
3430,-1,-1,-1,-2,0,-1,0,-3,17.150000000000002
3431,-2,-1,-2,-2,-2,-1,-1,-1,17.155
3432,0,0,1,2,1,0,-1,1,17.16
3433,0,1,2,0,0,0,-1,-1,17.165
3434,-1,-3,-8,-2,-1,-3,0,0,17.17
3435,-2,0,-1,0,0,-1,-1,-1,17.175
3436,0,-1,1,-2,-1,-1,-1,-1,17.18
3437,0,-1,-2,-2,-2,-2,1,0,17.185
3438,-1,-1,1,-2,-1,0,1,-3,17.19
3439,-1,1,-2,-2,-1,0,-1,0,17.195
3440,0,0,2,0,0,-2,0,1,17.2
3441,0,-1,0,0,0,-1,0,-1,17.205000000000002
3442,-1,-1,2,3,0,2,0,-1,17.21
3443,1,-1,-1,-4,-2,-1,-1,-2,17.215
3444,-2,-1,0,1,-1,-1,0,-1,17.22
3445,-2,-1,0,0,-2,0,-3,-3,17.225
3446,0,-2,-3,-1,-1,1,-1,0,17.23
3447,0,-1,-1,0,0,0,-1,-1,17.235
3448,-2,-1,-3,-2,-1,-1,-1,-1,17.240000000000002
3449,0,-1,-1,-2,-2,-1,0,0,17.245
3450,-2,3,5,2,-1,0,1,0,17.25
3451,-1,-4,-6,-2,0,-1,-1,0,17.255
3452,-1,-1,-1,-2,-1,-1,-1,0,17.26
3453,-1,0,-4,-2,-1,0,-1,-1,17.265
3454,-1,1,-2,0,1,-1,-1,0,17.27
3455,0,-1,-1,-1,-3,1,1,-1,17.275000000000002
3456,0,1,0,1,-2,-3,-3,-1,17.28
3457,-1,-1,0,-1,-2,-3,-1,0,17.285
3458,-1,0,1,-2,0,-2,-2,0,17.29
3459,-3,-1,1,0,0,-1,0,-1,17.295
3460,-1,-1,0,-2,0,1,0,-2,17.3
3461,1,0,2,0,-1,0,0,0,17.305
3462,-1,0,0,-1,-2,-2,-2,-1,17.31
3463,-1,-2,0,1,-1,-1,0,1,17.315
3464,0,-2,-3,-2,0,-1,0,-2,17.32
3465,-1,0,0,0,-1,0,2,1,17.325
3466,-1,1,1,1,0,1,2,-1,17.330000000000002
3467,-1,0,-1,-4,-2,-2,-3,-2,17.335
3468,-1,1,-2,0,-1,-2,-1,0,17.34
3469,-1,-2,0,-2,0,0,-2,-2,17.345
3470,-1,-1,-2,-2,-2,-3,-1,-1,17.35
3471,-2,0,-3,-1,0,1,-1,0,17.355
3472,0,-1,0,0,-1,0,-1,0,17.36
3473,-1,-2,1,-1,-1,-1,-1,-3,17.365000000000002
3474,-1,-2,-4,-1,-3,-2,-1,-2,17.37
3475,-1,-2,0,1,0,-1,0,1,17.375
3476,-1,-1,0,-1,0,0,0,-3,17.38
3477,0,-1,1,1,-2,-2,-1,-1,17.385
3478,-1,-2,-1,-1,-2,-1,0,2,17.39
3479,0,0,-2,-3,-1,-1,0,-1,17.395
3480,0,-2,1,-1,-2,-1,-1,-2,17.400000000000002
3481,-1,0,-2,-1,-1,0,2,-2,17.405
3482,3,0,0,-1,1,1,-1,1,17.41
3483,0,-1,-1,-1,-1,-1,-2,-2,17.415
3484,0,0,1,-2,-1,-1,0,-2,17.42
3485,-4,-4,-6,-2,-1,-3,-6,-3,17.425
3486,7,-1,1,-1,-2,-1,4,3,17.43
3487,-6,-2,0,0,0,0,0,-2,17.435
3488,-1,-1,-1,-1,0,-1,-1,2,17.44
3489,-2,-1,1,0,0,-2,-3,-1,17.445
3490,-1,2,1,3,2,-1,-2,-3,17.45
3491,0,-4,-3,-4,-3,-3,-4,0,17.455000000000002
3492,-1,0,-1,1,0,-1,-2,-4,17.46
3493,-1,-1,-1,-1,-2,0,-3,-2,17.465
3494,-7,-3,-1,-3,-3,1,-5,-5,17.47
3495,6,2,0,2,0,1,13,8,17.475
3496,-8,-3,0,-1,-2,-2,-1,-2,17.48
3497,-7,-1,1,-1,0,1,1,-4,17.485
3498,-5,4,-2,-4,0,-3,-3,0,17.490000000000002
3499,1,-2,-1,1,-2,-1,-3,1,17.495
3500,10,0,-4,-1,1,0,-1,1,17.5
3501,-8,-3,-1,0,0,1,2,2,17.505
3502,-1,-3,0,-2,0,-1,-2,-8,17.51
3503,-1,0,-3,0,-1,-3,-2,-4,17.515
3504,-5,-4,-3,-5,-4,0,1,1,17.52
3505,12,4,1,9,2,1,2,3,17.525000000000002
3506,6,0,-4,-4,2,1,3,2,17.53
3507,-13,-1,-1,-6,-5,-3,-2,-3,17.535
3508,-3,-4,-3,-4,0,2,0,0,17.54
3509,-8,-1,-1,0,0,-2,-1,-3,17.545
3510,6,2,3,6,1,2,0,0,17.55
3511,-10,-3,-4,5,3,-1,-3,-3,17.555
3512,10,1,-1,-14,-9,-6,-2,1,17.56
3513,-2,2,2,-5,1,2,0,2,17.565
3514,-3,-5,-4,1,1,-1,-1,0,17.57
3515,8,4,4,0,0,1,-3,-4,17.575
3516,-5,1,-1,3,-1,-2,-2,-5,17.580000000000002
3517,11,-2,-7,-6,-1,0,1,2,17.585
3518,-15,-5,1,5,1,0,1,-2,17.59
3519,17,3,-1,1,0,-2,-2,1,17.595
3520,-8,1,2,2,-1,2,-1,-1,17.6
3521,-2,-1,-2,-3,1,-1,0,0,17.605
3522,-5,0,-2,-4,-6,-3,-2,-2,17.61
3523,-3,0,-3,-4,-2,0,-1,-5,17.615000000000002
3524,3,2,5,16,5,2,0,2,17.62
3525,-4,-2,-1,-11,-4,-3,-2,1,17.625
3526,4,-2,-3,1,0,-1,0,1,17.63
3527,5,-1,4,-6,-1,0,0,0,17.635
