slno,emg1,emg2,emg3,emg4,emg5,emg6,emg7,emg8,Time
0,0,-2,1,-1,0,0,-1,-1,0.0
1,0,-1,1,-1,-1,0,0,0,0.005
2,-1,-1,1,0,-1,0,-2,-1,0.01
3,-1,-2,2,-4,-5,-2,0,0,0.015
4,-2,-1,0,-3,-4,-1,-1,0,0.02
5,-1,0,1,0,0,-1,0,0,0.025
6,-1,-3,0,-2,0,-1,-1,-2,0.03
7,-1,-2,0,1,0,0,0,-1,0.035
8,-1,-1,0,-2,-1,-2,0,-2,0.04
9,-1,-1,0,-3,-2,-1,-1,-1,0.045
10,0,1,0,2,1,-1,0,0,0.05
11,-2,-1,-2,-1,-1,-1,-2,-2,0.055
12,-1,-2,-2,-1,1,0,0,1,0.06
13,-1,0,-1,-1,-1,-1,-1,-1,0.065
14,0,1,-1,-1,0,-2,0,-1,0.07
15,-1,0,-1,0,1,1,0,-1,0.075
16,-1,-1,-2,-1,-2,-2,0,1,0.08
17,-2,-1,-2,1,0,-1,0,0,0.085
18,-2,-2,-1,-1,-3,-1,-1,-1,0.09
19,0,1,0,1,3,-2,-1,0,0.095
20,-1,0,1,2,2,0,1,0,0.1
21,1,-2,0,0,-1,1,-1,-1,0.105
22,-1,-1,0,0,2,0,1,-1,0.11
23,1,-1,-1,-5,-5,-1,-2,-1,0.115
24,0,1,-1,0,2,0,0,-2,0.12
25,-2,-1,-1,-3,-1,-2,-2,0,0.125
26,-1,-2,0,3,0,0,0,0,0.13
27,-1,-2,-3,-6,-2,-1,-2,1,0.135
28,-1,0,0,-1,-2,-2,1,0,0.14
29,-1,-1,-2,-3,-2,1,0,-1,0.145
30,0,-1,-1,-2,-5,0,-1,0,0.15
31,0,0,1,0,3,2,0,-2,0.155
32,-2,0,0,-1,-2,0,0,-1,0.16
33,-1,-1,1,1,0,-2,1,-1,0.165
34,-1,0,-1,-1,4,0,-1,0,0.17
35,0,0,-1,-1,-1,0,0,0,0.17500000000000002
36,-3,-1,-3,0,-2,-1,-2,0,0.18
37,-1,-1,-1,1,1,1,-1,0,0.185
38,0,0,0,-2,-4,-4,-1,-3,0.19
39,-3,-2,-2,-3,0,0,-1,-2,0.195
40,0,-1,1,5,-1,0,0,0,0.2
41,-1,0,-2,-1,3,0,-2,0,0.20500000000000002
42,-1,-2,-1,0,-1,-3,-1,-1,0.21
43,0,1,1,-1,-3,-2,-2,-3,0.215
44,0,-1,-2,-3,-4,2,-1,-1,0.22
45,0,-1,-1,-3,-5,-1,-3,-2,0.225
46,1,1,-2,-1,0,-1,-1,0,0.23
47,-2,-1,0,3,1,-1,-2,-2,0.23500000000000001
48,-2,-2,0,-2,1,-1,-2,0,0.24
49,1,0,-1,0,-2,-1,0,0,0.245
50,-1,0,-3,-1,2,1,-1,0,0.25
51,-1,0,-2,-3,-5,-2,-2,-1,0.255
52,0,-3,0,1,-1,-3,-1,0,0.26
53,1,-2,0,1,-2,-1,2,-1,0.265
54,0,-1,-1,-1,-3,-2,0,0,0.27
55,0,0,-1,-4,-2,0,-1,-1,0.275
56,0,0,0,-2,3,-1,0,0,0.28
57,0,0,-2,0,0,0,1,0,0.28500000000000003
58,0,-2,0,1,4,0,-1,-2,0.29
59,1,0,-1,-3,-5,-2,1,-1,0.295
60,-1,-3,-4,-4,-2,-1,-1,-2,0.3
61,0,-2,0,3,3,0,-2,-3,0.305
62,-2,-1,0,-3,-5,1,0,0,0.31
63,-2,-3,-2,4,-1,-2,-2,-1,0.315
64,2,1,1,-2,0,0,1,0,0.32
65,0,-1,1,-4,-10,-6,-2,-1,0.325
66,0,1,-2,-3,5,1,1,2,0.33
67,-1,-2,-2,-4,1,1,-1,-1,0.335
68,-1,0,-2,1,-4,0,0,-1,0.34
69,0,1,0,-4,0,0,-2,0,0.34500000000000003
70,-1,1,-1,-1,-5,-4,-3,-2,0.35000000000000003
71,0,-1,1,4,-2,-2,-2,1,0.355
72,-1,-2,-1,-2,0,-2,1,-1,0.36
73,-1,0,0,-2,7,1,0,0,0.365
74,-1,-1,0,-3,-3,2,0,-1,0.37
75,-2,1,1,9,-5,-6,-2,-2,0.375
76,-1,0,0,-2,37,13,1,1,0.38
77,-3,-1,2,8,-38,-8,-2,-1,0.385
78,-1,-1,0,-2,36,9,1,-1,0.39
79,-1,0,-1,-4,8,3,0,0,0.395
80,0,0,1,5,-2,-6,-2,-1,0.4
81,1,-2,-4,-7,-5,-2,0,-2,0.405
82,1,1,0,10,16,7,2,2,0.41000000000000003
83,-1,-2,-3,-6,-10,-3,0,0,0.41500000000000004
84,-1,-1,-1,-2,-1,-1,-2,-2,0.42
85,1,1,-2,-8,-5,-2,2,2,0.425
86,-3,-5,-6,-9,-27,-10,-4,0,0.43
87,0,0,2,-1,10,4,0,1,0.435
88,1,0,1,-3,-13,-6,-2,1,0.44
89,-1,0,-2,-1,11,0,-2,-3,0.445
90,-1,0,2,0,-4,-2,0,-1,0.45
91,-1,0,1,5,7,1,-1,-2,0.455
92,0,-2,-3,-8,-10,-5,-1,-1,0.46
93,0,1,2,4,7,7,3,3,0.465
94,-2,-2,-1,4,-7,-4,0,-3,0.47000000000000003
95,-1,0,1,8,3,-2,-3,0,0.47500000000000003
96,-3,-2,-1,1,-5,0,-2,-2,0.48
97,0,-1,-5,-6,2,2,1,-1,0.485
98,-3,-2,-7,-11,-10,-5,-4,-4,0.49
99,-4,0,7,12,19,-4,-4,-4,0.495
100,4,-1,-4,6,4,8,5,3,0.5
101,-4,-6,-17,-13,-5,-5,-1,0,0.505
102,3,2,10,-6,-10,2,3,0,0.51
103,-1,0,-2,8,0,-4,-2,-2,0.515
104,-4,-2,0,-3,2,0,-2,-4,0.52
105,-3,-8,-7,-15,-9,-6,-3,-4,0.525
106,0,2,3,1,-1,1,-2,0,0.53
107,-1,-3,-6,-8,-2,-5,-7,-4,0.535
108,-1,-1,4,9,3,-2,2,1,0.54
109,3,7,10,7,-3,0,-2,-1,0.545
110,0,0,-7,-6,0,3,8,8,0.55
111,-1,-1,2,3,-7,3,3,1,0.555
112,-2,1,-2,8,11,0,-4,-2,0.56
113,-2,4,5,-10,-12,-11,-2,-3,0.5650000000000001
114,0,-2,-2,0,-5,0,-3,-7,0.5700000000000001
115,3,1,-6,-23,-8,10,11,10,0.5750000000000001
116,-1,6,4,23,19,-7,-8,-6,0.58
117,-1,-3,4,5,7,9,3,1,0.585
118,-3,-3,-3,-11,-1,-4,-4,-4,0.59
119,1,2,2,14,8,0,-1,-1,0.595
120,0,-6,-6,-23,-24,-7,-4,-1,0.6
121,1,5,1,8,5,-2,0,1,0.605
122,4,4,-5,-20,-23,-18,-10,-2,0.61
123,-7,-6,1,-5,15,21,10,-2,0.615
124,-3,-2,-4,-50,-22,-19,-8,-1,0.62
125,-2,-5,6,38,25,20,17,8,0.625
126,3,-4,9,46,10,7,15,15,0.63
127,-1,7,-6,-11,8,4,0,0,0.635
128,2,0,-15,-83,-43,-6,-3,0,0.64
129,-6,-3,3,56,35,-1,-9,-9,0.645
130,-5,-3,-3,-11,-6,-4,-12,-7,0.65
131,4,2,2,-11,-15,-5,-2,-2,0.655
132,-7,-5,-1,24,-3,-17,-2,-6,0.66
133,3,4,2,-43,-25,1,-7,0,0.665
134,-1,10,-2,4,15,12,8,2,0.67
135,0,-11,-8,-4,-6,-10,-6,-4,0.675
136,4,21,8,5,1,8,-2,0,0.68
137,0,-4,14,14,1,-6,0,2,0.685
138,-10,-12,-28,-12,5,-12,-9,-9,0.6900000000000001
139,-4,-5,6,12,0,13,6,3,0.6950000000000001
140,3,5,40,18,11,8,8,4,0.7000000000000001
141,-1,-4,-67,-6,-10,-12,-9,-3,0.705
142,-3,5,45,8,2,-15,-15,-7,0.71
143,0,-9,-44,4,-5,0,7,1,0.715
144,0,-3,21,-1,4,22,3,3,0.72
145,0,4,59,0,-3,1,5,-1,0.725
146,3,-4,-17,-15,6,6,5,1,0.73
147,-2,-3,11,39,-2,-22,-19,-8,0.735
148,0,-2,-7,26,8,3,0,1,0.74
149,-4,-3,12,-19,1,8,7,1,0.745
150,1,4,-2,-14,-9,-5,1,2,0.75
151,-2,3,13,0,3,-2,-2,-2,0.755
152,-2,1,-2,8,11,0,-4,-2,0.76
153,-2,4,5,-10,-12,-11,-2,-3,0.765
154,0,-2,-2,0,-5,0,-3,-7,0.77
155,3,1,-6,-23,-8,10,11,10,0.775
156,-1,6,4,23,19,-7,-8,-6,0.78
157,-1,-3,4,5,7,9,3,1,0.785
158,-3,-3,-3,-11,-1,-4,-4,-4,0.79
159,1,2,2,14,8,0,-1,-1,0.795
160,-3,-6,-16,35,3,-5,-1,-4,0.8
161,1,1,7,-24,-3,-3,-4,-2,0.805
162,-4,-2,-8,-10,-8,7,3,-5,0.81
163,3,9,14,-1,6,2,-1,3,0.8150000000000001
164,-3,-5,22,33,8,1,-1,-3,0.8200000000000001
165,0,0,-29,-13,-20,-7,1,-3,0.8250000000000001
166,-2,-8,-13,-5,7,0,-4,-1,0.8300000000000001
167,-1,-1,-2,-56,-20,-4,-2,-3,0.835
168,-2,-2,1,-5,4,-1,1,-1,0.84
169,1,7,16,17,12,1,-4,-1,0.845
170,1,1,1,27,-12,-3,1,1,0.85
171,-8,-14,6,-18,-9,-3,-1,-1,0.855
172,4,6,-27,7,13,1,1,0,0.86
173,1,-4,-9,-29,-6,1,-1,1,0.865
174,1,2,21,21,10,5,1,-1,0.87
175,-2,-5,-16,-8,-9,-6,-1,-1,0.875
176,-2,-6,-6,-15,-5,0,-2,-1,0.88
177,-2,2,7,19,7,-2,-3,-2,0.885
178,0,-3,-6,-18,-5,0,1,2,0.89
179,1,9,25,13,3,0,-1,0,0.895
180,-1,-4,-14,-1,-2,-1,1,0,0.9
181,0,0,-3,-4,1,-1,-3,-2,0.905
182,-2,-3,2,1,5,-2,-2,-3,0.91
183,0,0,-18,-11,-8,2,0,0,0.915
184,1,2,3,-4,-5,-2,-2,1,0.92
185,-3,-6,-17,-1,3,3,1,0,0.925
186,0,0,1,-2,1,4,-1,-1,0.93
187,2,3,6,9,-1,-3,0,1,0.935
188,0,-1,-5,-7,2,4,-2,0,0.9400000000000001
189,-3,0,7,1,-1,-2,-1,0,0.9450000000000001
190,-2,-3,-6,-6,-4,-3,-1,-2,0.9500000000000001
191,-1,0,0,0,2,-3,-1,-1,0.9550000000000001
192,-2,-3,4,5,2,1,-1,0,0.96
193,-1,-3,-11,-8,-4,-5,-2,-1,0.965
194,-1,0,4,3,1,2,1,-2,0.97
195,0,0,-3,4,1,-2,-2,0,0.975
196,-1,-3,-3,-7,-3,-1,1,0,0.98
197,0,0,2,0,1,-1,0,-2,0.985
198,-1,-1,8,5,3,0,-1,-1,0.99
199,0,2,3,5,0,2,0,1,0.995
200,-3,-4,-17,-11,-3,-2,-1,-3,1.0
201,1,1,9,8,1,2,0,-1,1.0050000000000001
202,-2,-3,-13,-22,-5,-3,0,1,1.01
203,-1,0,-1,0,0,0,-1,-2,1.0150000000000001
204,-1,1,0,-3,-2,-1,0,0,1.02
205,0,-1,-4,0,0,-1,0,0,1.025
206,-1,1,1,6,-3,0,-1,-1,1.03
207,0,-1,-5,-1,1,-1,-4,0,1.035
208,-1,-1,0,-4,-1,-2,0,-1,1.04
209,-4,-3,-3,-7,-10,-4,-4,-1,1.045
210,1,-1,-2,8,2,1,1,0,1.05
211,-1,1,-3,-5,2,-2,-2,-2,1.055
212,0,-1,2,-6,-19,-7,1,-2,1.06
213,0,-3,-9,-1,5,6,1,0,1.065
214,0,-1,-1,1,-2,-3,-3,0,1.07
215,1,-1,-2,0,-10,-2,-1,-2,1.075
216,-1,-1,1,1,14,4,-1,1,1.08
217,1,4,7,0,-4,-4,0,-1,1.085
218,0,-4,-10,-3,-9,2,2,1,1.09
219,-1,0,4,2,8,-2,0,-1,1.095
220,0,0,3,0,3,6,0,2,1.1
221,-4,-4,-2,-4,-3,-4,0,-2,1.105
222,-2,0,11,4,2,-2,-3,-2,1.11
223,-2,-3,1,-5,-6,3,1,0,1.115
224,-1,-3,-1,-2,0,-2,-2,-1,1.12
225,0,-1,-5,3,11,0,-2,-1,1.125
226,1,1,0,-7,-1,-1,1,3,1.1300000000000001
227,-1,0,1,2,-4,-3,0,3,1.135
228,-1,-1,-1,-2,-8,-5,-2,-2,1.1400000000000001
229,-2,1,6,-3,-5,-3,-4,-2,1.145
230,-4,-2,-13,4,9,-4,-2,-1,1.1500000000000001
231,-1,0,-2,-3,0,3,2,1,1.155
232,-2,0,-6,-2,-2,0,0,-1,1.16
233,-1,-3,-7,-3,-4,-1,-1,-1,1.165
234,0,-1,-4,-2,-4,-1,0,-1,1.17
235,-1,1,-3,-1,2,0,0,-2,1.175
236,0,0,-2,2,4,1,-2,-1,1.18
237,1,1,-1,-2,-1,0,-1,-2,1.185
238,1,1,3,1,3,1,0,-1,1.19
239,-1,-1,1,0,1,0,0,-3,1.195
240,-1,-1,0,-3,-9,-3,-1,-3,1.2
241,0,-2,-4,1,3,1,1,1,1.205
242,0,-1,1,-1,-1,2,-2,1,1.21
243,-1,0,-1,-1,-6,-3,-2,-2,1.215
244,-2,-3,-3,3,9,2,-1,0,1.22
245,-2,-1,-1,-1,1,0,-1,0,1.225
246,0,1,5,1,-4,0,2,-3,1.23
247,0,0,4,-2,-1,-3,-3,-1,1.235
248,-1,-3,0,-3,-7,-2,0,0,1.24
249,0,0,1,2,2,-2,0,1,1.245
250,-1,-2,-1,-4,-7,-2,0,0,1.25
251,-1,-2,-2,0,5,0,-1,-1,1.2550000000000001
252,-2,2,4,-2,-4,-3,-1,0,1.26
253,-2,0,-1,1,-7,-1,-2,0,1.2650000000000001
254,0,-2,-2,-3,24,4,-1,-1,1.27
255,-2,0,3,2,-5,2,1,0,1.2750000000000001
256,0,-2,-5,1,2,-1,-1,-2,1.28
257,-1,-2,0,-1,1,1,1,-1,1.285
258,0,1,1,-1,-10,-4,-1,-2,1.29
259,-1,-1,-3,-2,-1,-2,0,-1,1.295
260,-2,0,1,-1,1,1,-1,0,1.3
261,1,-2,-1,-1,-3,-2,-2,-1,1.305
262,0,-3,0,0,-2,1,0,-1,1.31
263,0,0,-3,1,-2,-3,-2,-1,1.315
264,-2,-1,1,2,4,1,0,0,1.32
265,0,-2,-2,-1,2,1,0,0,1.325
266,-3,0,1,1,-2,1,0,-1,1.33
267,-2,-2,-1,-2,1,-1,1,-1,1.335
268,0,1,-1,-3,-4,-2,0,0,1.34
269,0,0,-2,-2,1,0,0,-1,1.345
270,0,0,0,0,-2,-2,0,-3,1.35
271,0,-2,-2,-1,-4,-1,-2,0,1.355
272,0,0,2,0,0,0,-1,0,1.36
273,0,-2,-3,-1,0,-1,-1,-2,1.365
274,0,-1,-1,-1,-9,-2,-2,-2,1.37
275,0,-2,-1,0,11,0,-2,-1,1.375
276,-3,-2,0,-1,-1,-1,0,-1,1.3800000000000001
277,-1,0,1,-1,2,2,1,0,1.385
278,-2,-3,2,0,-5,-4,-2,1,1.3900000000000001
279,-1,0,-2,-2,-3,-1,-2,-1,1.395
280,0,-1,-2,-2,-3,-2,1,-1,1.4000000000000001
281,0,-2,-2,-2,0,-2,-3,-1,1.405
282,0,1,1,2,3,0,1,-2,1.41
283,1,-2,-4,-1,-4,-1,-1,2,1.415
284,0,0,2,-1,0,-1,-1,-1,1.42
285,-1,-3,-5,-2,-6,-4,-2,-2,1.425
286,2,0,-2,-1,-1,0,0,0,1.43
287,-1,-1,1,0,1,0,0,-1,1.435
288,-2,0,0,2,-4,-1,0,-1,1.44
289,-1,0,-2,-4,-1,-4,0,-2,1.445
290,-1,-1,3,5,-1,0,-2,-1,1.45
291,-3,-3,-5,-6,-6,-3,-1,-2,1.455
292,0,-3,-3,1,3,0,0,0,1.46
293,-1,-1,-1,-1,-1,1,1,-1,1.465
294,-1,-2,-2,-3,1,-1,-1,0,1.47
295,-2,-2,-1,0,0,1,-1,-1,1.475
296,-1,-1,1,-2,-9,-3,-1,-2,1.48
297,0,1,-2,-1,4,0,-2,-1,1.485
298,0,-2,-1,-2,-1,0,-1,0,1.49
299,-1,-1,4,3,-7,-3,-1,-1,1.495
300,-1,-2,-3,0,2,-2,-1,-1,1.5
301,-2,0,-4,-3,-18,-1,0,0,1.5050000000000001
302,-2,-2,-6,-3,0,-1,-1,-1,1.51
303,0,-1,3,0,8,-2,0,-1,1.5150000000000001
304,1,2,5,0,3,-1,1,1,1.52
305,-2,-2,-4,-1,6,-1,-2,-1,1.5250000000000001
306,-1,-1,0,3,-2,-3,-2,-1,1.53
307,-1,-1,-2,-5,-10,-1,-1,0,1.5350000000000001
308,0,-2,-3,-2,-2,0,-1,0,1.54
309,1,0,1,-2,-8,-2,-2,-1,1.545
310,0,-1,0,-2,5,2,-1,-1,1.55
311,-1,-2,0,3,8,0,0,-1,1.555
312,1,-4,-5,-5,-5,0,0,-2,1.56
313,-1,0,6,-2,-4,-2,0,-1,1.565
314,-1,-1,-11,1,-4,-1,0,0,1.57
315,1,1,-1,0,0,1,-2,-1,1.575
316,-2,-2,1,-1,-3,0,-2,0,1.58
317,-1,-1,-3,2,5,2,-1,1,1.585
318,-1,2,3,-3,-5,-5,-1,-1,1.59
319,-1,-2,-3,-3,-5,-1,-1,-3,1.595
320,0,1,4,0,-1,1,-1,0,1.6
321,-2,-3,-17,-3,-7,-1,-1,-2,1.605
322,-2,1,3,0,8,0,0,-1,1.61
323,-1,-1,-10,2,-4,-3,-2,1,1.615
324,0,-2,0,3,4,1,0,-2,1.62
325,0,0,6,1,0,-2,-1,-1,1.625
326,-1,-2,-4,-2,-2,-2,0,-1,1.6300000000000001
327,1,-1,0,-3,-3,2,1,0,1.635
328,0,0,2,-1,-2,-1,-1,-2,1.6400000000000001
329,-1,-1,-1,-1,1,-1,0,-1,1.645
330,-1,0,2,-1,-6,0,-1,-1,1.6500000000000001
331,0,-1,4,1,4,2,0,1,1.655
332,-2,-1,-3,0,-1,-3,-1,0,1.6600000000000001
333,0,1,3,0,2,0,-2,-2,1.665
334,-1,-2,0,-2,-3,-2,-1,-1,1.67
335,-1,0,1,-1,-5,-5,-1,-3,1.675
336,-1,0,-5,-2,1,0,0,0,1.68
337,1,-1,2,5,6,3,2,-1,1.685
338,-1,-1,3,1,0,0,1,-1,1.69
339,-2,1,-4,-1,-6,0,-1,-1,1.695
340,1,0,5,-1,6,-1,-1,-1,1.7
341,0,0,-6,-4,-1,-2,-2,-1,1.705
342,1,1,0,2,0,2,1,1,1.71
343,0,-2,5,-1,3,-2,0,-1,1.715
344,-2,-2,-14,0,-8,-2,-2,-2,1.72
345,0,1,7,2,9,5,1,0,1.725
346,-1,1,-1,-3,-7,-2,-2,-3,1.73
347,-3,-4,-5,1,-1,-1,-1,1,1.735
348,-1,-2,0,0,-1,0,-2,-1,1.74
349,0,1,2,-3,-2,-2,-3,1,1.745
350,0,-2,-5,-4,-5,-2,-1,-1,1.75
351,0,2,3,0,1,0,0,-1,1.7550000000000001
352,-1,0,0,0,-2,-1,0,-2,1.76
353,-1,1,0,0,-1,-5,-1,-3,1.7650000000000001
354,-2,-1,0,-1,-4,4,0,1,1.77
355,0,0,-2,-4,-2,-2,0,-1,1.7750000000000001
356,-2,-1,-2,-1,-1,2,-1,1,1.78
357,-2,-2,4,0,2,-3,-2,0,1.7850000000000001
358,-1,-1,3,4,9,2,1,-1,1.79
359,-2,0,-4,-5,-4,-1,-1,-2,1.795
360,0,0,-1,0,3,0,-1,0,1.8
361,0,-1,2,0,-2,0,1,-2,1.805
362,-2,-2,0,-2,-2,-3,-2,-1,1.81
363,0,0,-1,1,5,0,1,-1,1.815
364,-2,-1,-4,-5,-3,-3,-1,0,1.82
365,0,0,1,-3,-3,0,-1,-1,1.825
366,0,-1,-2,0,4,-1,-1,-1,1.83
367,-1,-1,0,-2,-5,0,-1,2,1.835
368,0,0,3,4,2,-1,0,-1,1.84
369,-1,1,-4,-2,-2,1,0,0,1.845
370,0,-6,-15,-2,-7,-2,-2,-2,1.85
371,0,0,-7,3,13,3,-1,0,1.855
372,0,0,9,1,-1,0,1,-1,1.86
373,-1,-3,-10,-1,-1,0,0,0,1.865
374,-2,0,1,-1,-5,-2,0,-2,1.87
375,0,-1,0,-1,5,-1,0,-1,1.875
376,1,-2,-3,-2,-1,-2,-2,-1,1.8800000000000001
377,1,0,-3,-1,-3,2,-1,0,1.885
378,0,2,2,2,3,-1,-1,1,1.8900000000000001
379,-1,-1,-3,0,-4,-3,-1,-1,1.895
380,-2,2,1,-3,-5,-1,-1,-2,1.9000000000000001
381,2,-1,1,-3,11,3,-1,0,1.905
382,-1,0,0,0,-6,-2,0,0,1.9100000000000001
383,0,1,5,0,-2,-1,-2,0,1.915
384,-1,-1,-6,-2,-5,0,-1,-1,1.92
385,-1,-2,0,-1,-8,-4,-1,-1,1.925
386,-2,0,-1,-1,7,1,-1,-2,1.93
387,-1,-1,0,1,1,2,0,-1,1.935
388,-1,-2,-1,-5,-4,-2,-1,0,1.94
389,-1,-2,-1,1,3,-1,0,-1,1.945
390,-2,-1,2,0,-4,-3,-2,-1,1.95
391,0,0,2,-2,-1,1,1,0,1.955
392,-1,0,-2,1,1,0,0,0,1.96
393,-2,0,2,0,-1,-1,-1,0,1.965
394,0,0,-5,-3,-2,0,1,-2,1.97
395,-1,-1,-3,0,-2,-3,1,-1,1.975
396,0,-1,2,0,1,0,0,1,1.98
397,-3,0,-1,1,-3,-1,-3,-1,1.985
398,0,-1,0,-6,4,1,-1,0,1.99
399,-1,-2,-6,0,-5,-3,-1,-1,1.995
400,0,-1,-4,0,-2,-1,0,-1,2.0
401,-1,-1,1,1,-1,-3,-1,-2,2.005
402,1,2,3,-3,-2,0,0,0,2.0100000000000002
403,-1,-1,-3,0,-7,-2,0,-2,2.015
404,-1,-3,-5,-1,1,-2,-1,-2,2.02
405,0,-2,0,0,-1,2,0,-1,2.025
406,1,-1,1,-3,3,-1,-2,-1,2.0300000000000002
407,0,0,2,-2,0,-1,-1,-1,2.035
408,-1,0,-1,-3,-1,0,-2,-1,2.04
409,-1,-2,-3,-1,-4,-1,0,-2,2.045
410,-1,-1,-1,2,0,1,1,-2,2.05
411,0,1,1,0,1,2,-1,1,2.055
412,-1,-1,-2,0,3,1,1,-2,2.06
413,-2,-2,3,-3,-1,-1,-1,-2,2.065
414,-2,-1,-3,-1,-4,-2,-1,0,2.07
415,0,-2,-1,3,0,-1,-1,-2,2.075
416,-1,0,1,-5,-2,-1,-1,0,2.08
417,0,0,-2,-3,-1,-3,0,0,2.085
418,-2,-2,-2,2,-1,-3,-2,-1,2.09
419,-2,0,1,-2,6,5,0,1,2.095
420,0,-2,2,2,1,0,-1,-1,2.1
421,-1,0,0,0,-1,0,-1,-1,2.105
422,-2,0,-2,-1,-4,-2,-1,-1,2.11
423,-1,-1,0,-2,-2,-2,0,-1,2.115
424,-2,-2,-2,0,1,-1,-1,-1,2.12
425,-1,-1,-1,1,-2,0,0,-1,2.125
426,1,1,4,-1,1,-1,-1,0,2.13
427,-1,-3,-15,-3,-4,2,1,-2,2.1350000000000002
428,-1,0,-1,0,-1,0,0,0,2.14
429,0,0,1,0,0,-1,-2,-2,2.145
430,-1,-2,-2,-2,4,2,-2,-2,2.15
431,-1,1,2,-2,-7,-4,-2,-2,2.1550000000000002
432,0,0,-2,-2,0,0,-2,0,2.16
433,-2,1,0,-1,4,-1,-2,-1,2.165
434,0,-3,-1,-3,-5,-1,-1,-1,2.17
435,-1,-2,5,0,-2,-2,-2,-1,2.1750000000000003
436,1,-1,-2,-1,0,-2,0,-1,2.18
437,-1,0,0,-2,-1,-2,-1,0,2.185
438,0,-1,-1,-1,-3,-1,0,-2,2.19
439,-1,-2,1,-1,0,-1,0,-2,2.195
440,-1,0,-2,-1,-2,0,1,1,2.2
441,-1,-1,-3,-4,-13,-5,1,0,2.205
442,-1,0,-1,4,22,4,1,1,2.21
443,-2,-2,-1,-2,5,0,-1,-2,2.215
444,-1,1,2,-1,-3,0,-1,-2,2.22
445,-1,-2,-7,1,-4,-1,-1,1,2.225
446,-2,-3,-1,1,-7,-3,-1,0,2.23
447,0,0,-3,2,1,0,-1,1,2.235
448,-2,-3,0,0,0,-2,-2,-1,2.24
449,0,0,0,-1,2,1,0,0,2.245
450,-1,2,10,-1,-5,-1,-1,0,2.25
451,-1,-4,-15,0,-2,-3,0,-2,2.255
452,1,0,-7,-3,0,-2,-1,0,2.2600000000000002
453,-1,-4,0,0,2,0,-2,0,2.265
454,-2,2,-2,0,-2,-2,-1,-1,2.27
455,0,-1,4,-3,-3,-2,-1,-1,2.275
456,-2,-1,2,-1,-8,-2,-2,-2,2.2800000000000002
457,0,-2,1,3,8,3,2,1,2.285
458,2,-1,-7,-3,1,-2,0,0,2.29
459,-1,-1,7,2,2,0,-1,-1,2.295
460,0,-1,-2,0,5,1,1,-2,2.3000000000000003
461,-1,0,1,-2,-3,-1,1,0,2.305
462,-1,-3,-1,-3,-7,-1,0,0,2.31
463,0,-3,-2,-1,1,-2,-2,-1,2.315
464,-1,-2,-2,-1,-2,-1,-2,0,2.32
465,-2,-1,2,-1,0,-2,-3,-2,2.325
466,-1,0,2,-2,-5,0,-1,-1,2.33
467,-1,-1,-8,-2,-4,-1,0,-1,2.335
468,0,0,4,0,2,-3,0,0,2.34
469,0,-1,-3,-2,-2,-1,0,-1,2.345
470,-1,-1,3,3,-1,-1,0,-1,2.35
471,-2,0,2,-5,-6,-2,-2,0,2.355
472,-1,-1,-7,0,2,1,1,0,2.36
473,-1,-5,-3,-2,-1,-1,0,-1,2.365
474,0,0,1,2,0,-2,0,-2,2.37
475,-1,-1,2,1,1,0,0,-1,2.375
476,-2,1,-3,0,-2,-1,1,-1,2.38
477,1,-2,0,-3,3,-1,-1,-1,2.3850000000000002
478,-2,-1,-3,-1,1,0,0,0,2.39
479,0,-2,3,0,-6,-4,-1,-1,2.395
480,-1,-4,-1,-1,2,1,-1,-1,2.4
481,-1,1,2,-4,-4,-2,-1,-1,2.4050000000000002
482,0,-1,-4,3,5,1,-1,-2,2.41
483,1,1,2,-2,-6,-3,-1,1,2.415
484,-1,1,0,-3,-5,-1,-2,0,2.42
485,-2,0,-1,0,-2,-1,0,0,2.4250000000000003
486,0,-1,-3,-4,-5,-3,0,-1,2.43
487,-1,1,3,0,2,0,-1,0,2.435
488,1,-1,2,0,-3,-2,-2,-2,2.44
489,0,-3,-6,-3,6,3,0,0,2.445
490,-3,1,-2,-1,-6,-2,-1,-1,2.45
491,0,-2,1,0,4,1,-1,-1,2.455
492,0,-2,-2,-3,-6,-2,-2,-2,2.46
493,-1,0,0,0,2,-1,-1,-2,2.465
494,0,-3,-4,-3,3,2,0,-1,2.47
495,0,0,3,0,-3,-2,-1,1,2.475
496,-3,1,0,-1,-2,-1,-1,0,2.48
497,1,0,0,0,-2,-2,-2,-2,2.485
498,0,0,0,-4,-1,1,0,-1,2.49
499,0,-2,1,-1,-2,-1,-1,-1,2.495
500,0,-1,-8,-1,6,0,-1,-1,2.5
501,-1,1,-1,6,-5,-3,1,0,2.505
502,-1,2,1,-1,4,1,-1,-1,2.5100000000000002
503,-1,0,-5,-3,1,-2,-2,-1,2.515
504,-3,-1,7,0,0,-1,-1,0,2.52
505,1,0,2,-2,3,1,-1,-2,2.525
506,-1,-4,-6,-1,-1,0,-1,1,2.5300000000000002
507,-2,-1,0,0,-1,-2,-1,-3,2.535
508,0,0,-1,1,2,2,0,-1,2.54
509,-3,0,-1,-1,-1,-2,-3,-1,2.545
510,-1,0,-1,-1,-4,-1,-1,0,2.5500000000000003
511,0,0,0,0,0,0,0,0,2.555
512,0,-6,-6,-3,3,-2,-1,-2,2.56
513,1,1,8,1,-7,-1,-1,-1,2.565
514,-2,-3,-5,-4,6,1,0,1,2.57
515,0,1,-2,-2,-6,-2,0,1,2.575
516,0,1,3,0,-2,1,0,0,2.58
517,0,0,-2,-4,-2,-1,0,0,2.585
518,-1,-4,-5,1,-3,-2,-1,-2,2.59
519,-1,-1,0,-4,-4,0,1,1,2.595
520,-1,-1,1,-3,-3,-1,0,-1,2.6
521,0,-1,-2,1,0,-1,0,-1,2.605
522,-1,0,2,2,-7,-3,-1,-1,2.61
523,-1,-2,-8,-1,3,1,0,-1,2.615
524,0,0,4,1,-3,-3,-1,0,2.62
525,-2,-2,-3,0,-3,0,-1,0,2.625
526,1,1,5,0,-1,-2,-2,-1,2.63
527,0,-1,-8,-1,1,2,-1,0,2.6350000000000002
528,-1,-2,0,-2,-2,0,-1,-1,2.64
529,0,1,-1,0,-2,-1,-1,-2,2.645
530,-1,-2,-1,-3,4,1,-1,0,2.65
531,-1,0,1,1,-6,-1,-1,-1,2.6550000000000002
532,0,3,-4,-1,0,2,2,1,2.66
533,-1,-4,-2,0,-4,-2,-1,-1,2.665
534,-2,-2,2,-1,3,1,-1,-2,2.67
535,-2,-3,-2,-1,0,-3,-1,-2,2.6750000000000003
536,0,-3,-1,-2,-6,-1,-1,-1,2.68
537,-1,0,4,0,8,3,0,1,2.685
538,0,-2,-12,-1,-1,-3,-2,0,2.69
539,-1,-1,2,-3,-5,0,-1,0,2.695
540,-1,0,1,-1,1,-3,-4,-2,2.7
541,1,-1,0,-2,-1,-1,1,-2,2.705
542,-1,2,5,-3,-5,-4,-1,-1,2.71
543,0,-5,-1,2,1,1,0,-2,2.715
544,-1,-1,1,1,1,-1,-2,0,2.72
545,-2,-2,-3,-2,-4,-3,-1,-1,2.725
546,-1,0,3,1,2,5,0,-1,2.73
547,-1,3,0,-2,-2,-3,-1,-1,2.735
548,0,1,2,2,3,1,0,0,2.74
549,-3,-5,-9,-3,0,-2,-2,-1,2.745
550,-1,0,-1,2,-5,0,-1,-2,2.75
551,-1,-1,2,1,6,0,0,-1,2.755
552,-1,0,-4,-5,-4,-1,-1,-2,2.7600000000000002
553,0,2,2,-1,4,0,-1,0,2.765
554,0,-3,5,-1,-3,-2,-2,1,2.77
555,-1,-4,-15,-3,-1,-1,-1,-1,2.775
556,-1,1,-1,5,3,-1,1,-1,2.7800000000000002
557,-1,-2,-4,-2,-8,-2,-1,1,2.785
558,-2,1,3,0,10,0,1,-2,2.79
559,0,-1,4,1,-4,0,-1,1,2.795
560,0,-1,-3,-4,-5,-3,-1,-1,2.8000000000000003
561,-1,-1,0,0,-1,-1,-2,-1,2.805
562,0,-2,0,-1,3,0,0,0,2.81
563,1,1,0,2,5,2,-1,-1,2.815
564,-1,-1,1,-2,2,-2,0,-1,2.82
565,1,-1,-1,1,1,5,3,-1,2.825
566,-2,-1,-4,-2,-4,-3,1,-2,2.83
567,-1,0,5,-2,0,-3,1,-1,2.835
568,-1,-3,-8,-2,-1,-3,-2,-1,2.84
569,0,0,-3,-2,0,-2,-2,-2,2.845
570,0,1,-2,-2,-4,-1,-2,0,2.85
571,-2,-2,-3,-1,3,1,-1,0,2.855
572,-1,0,8,3,-2,-1,1,-1,2.86
573,0,-2,-7,0,0,-1,-1,-2,2.865
574,-2,-4,0,-1,-6,-3,-1,-1,2.87
575,-2,0,0,-2,-6,-3,-1,-1,2.875
576,-1,-3,0,-3,-4,1,0,1,2.88
577,-3,-2,-3,0,2,0,1,0,2.8850000000000002
578,-1,-2,-3,-3,-4,-4,-1,-1,2.89
579,-1,1,3,1,-5,-1,-2,-2,2.895
580,-4,-2,-3,-2,7,1,-1,-1,2.9
581,-1,-2,-5,-2,-2,-2,-3,-1,2.9050000000000002
582,1,-1,-4,-3,-7,-1,0,0,2.91
583,-1,0,2,0,5,0,1,-1,2.915
584,0,-2,-1,2,1,0,1,-1,2.92
585,-1,1,1,-1,-3,-3,1,0,2.9250000000000003
586,-2,0,-5,-2,2,1,1,0,2.93
587,0,-1,0,0,-4,-2,-2,-2,2.935
588,-1,0,-2,0,-4,-2,-3,-1,2.94
589,-1,-2,-2,0,4,1,0,-2,2.945
590,-1,-1,1,-1,-3,-2,-2,-1,2.95
591,-1,-1,1,0,2,1,-1,-1,2.955
592,0,-2,-5,-1,-2,-2,-1,-1,2.96
593,-2,-1,3,-1,-6,-1,-1,0,2.965
594,0,-1,-8,-1,-2,-1,-1,-2,2.97
595,-1,-1,-3,-3,-2,-2,-2,0,2.975
596,1,-1,2,1,-1,1,0,0,2.98
597,0,-1,6,-1,-3,-1,-2,-2,2.985
598,-1,0,-3,0,3,-2,-1,-2,2.99
599,-2,-3,-1,-2,0,-1,-1,0,2.995
600,-1,-1,-4,-3,-3,-1,-1,-1,3.0
601,-1,-1,4,5,6,2,1,0,3.005
602,-1,-2,1,0,-3,-1,-1,-2,3.0100000000000002
603,-1,1,-2,-1,0,-1,-1,-2,3.015
604,-1,-1,-2,-2,-3,-2,-2,-1,3.02
605,0,0,-3,-2,0,-1,0,0,3.025
606,0,0,1,2,2,-1,0,0,3.0300000000000002
607,0,-2,-7,-6,-5,-1,0,-1,3.035
608,-2,0,1,2,2,-1,-1,-1,3.04
609,-1,0,2,-3,-2,-2,-3,-1,3.045
610,0,0,-6,3,2,0,-1,0,3.0500000000000003
611,0,-1,0,0,2,-1,0,-1,3.055
612,1,1,1,-1,-4,-2,0,0,3.06
613,-3,-3,-5,-3,-2,-2,0,-1,3.065
614,-1,-2,-2,-2,-1,0,0,0,3.0700000000000003
615,1,0,5,1,-3,-3,0,1,3.075
616,0,-2,-2,1,0,0,0,-1,3.08
617,0,-1,-1,-1,1,-2,-1,1,3.085
618,0,1,4,-1,-3,0,-1,-1,3.09
619,-2,-2,-4,-2,-2,-3,-1,-2,3.095
620,0,-1,0,-3,1,0,-1,-1,3.1
621,0,-1,-1,2,2,-1,-1,-2,3.105
622,-1,0,4,0,-3,-2,-1,0,3.11
623,0,0,-2,2,2,2,1,0,3.115
624,-2,0,-1,1,-1,-1,-1,0,3.12
625,-1,-1,3,-2,-5,-3,-1,-1,3.125
626,-1,1,-1,0,1,1,0,0,3.13
627,0,-1,-5,-1,-1,0,-2,-2,3.1350000000000002
628,-3,-1,-2,-2,-3,-1,-1,-2,3.14
629,-1,1,-2,-1,0,0,-2,-1,3.145
630,0,-2,0,-1,-2,-3,0,-2,3.15
631,0,-2,0,-1,-4,0,-1,0,3.1550000000000002
632,-1,1,-1,-2,-3,-1,0,-1,3.16
633,0,-1,-1,0,1,2,2,2,3.165
634,-2,-2,-2,-2,3,2,2,1,3.17
635,-3,0,2,0,-1,1,2,3,3.1750000000000003
636,1,1,2,-1,1,1,0,0,3.18
637,3,1,0,2,-5,-1,0,-1,3.185
638,1,1,0,-2,-6,-1,-2,0,3.19
639,-2,0,-1,0,9,2,0,-1,3.1950000000000003
640,-1,-1,1,0,0,0,-1,0,3.2
641,-2,0,-2,-2,-3,-2,0,-2,3.205
642,-1,-2,0,-2,-2,1,0,-1,3.21
643,2,-1,0,-1,-1,-2,-1,-2,3.215
644,0,-3,0,-4,-3,-2,-2,0,3.22
645,-1,-1,-7,3,3,1,-2,0,3.225
646,-1,0,0,-1,-1,1,-1,-2,3.23
647,0,-1,0,-1,-1,-1,0,0,3.235
648,1,-2,-2,0,1,1,0,-1,3.24
649,-1,0,-1,-2,-4,-1,-1,-3,3.245
650,-1,-1,2,-2,-7,-3,-1,0,3.25
651,-2,-3,-8,0,5,3,0,-2,3.255
652,-2,1,4,-1,-1,0,2,-1,3.2600000000000002
653,-3,-1,0,1,-1,-1,0,-1,3.265
654,-2,-1,0,-1,1,-2,-1,-2,3.27
655,0,0,1,0,-1,0,-2,0,3.275
656,-1,-2,-4,0,1,-1,-2,0,3.2800000000000002
657,0,0,1,0,-5,-2,-1,-1,3.285
658,-1,-1,-3,-1,10,4,-1,1,3.29
659,-1,-1,3,0,-4,-2,-1,0,3.295
660,0,-1,-5,-1,-3,-3,0,0,3.3000000000000003
661,0,-2,-1,-3,0,1,1,-1,3.305
662,-1,-2,-2,0,-5,-3,-1,-1,3.31
663,-2,-1,0,-1,-1,0,0,-3,3.315
664,-2,-1,3,2,0,-2,0,-1,3.3200000000000003
665,0,-1,-2,-4,-3,-2,0,0,3.325
666,-1,-2,-1,1,7,0,1,0,3.33
667,0,-1,-3,-3,-8,-3,-2,1,3.335
668,-1,-1,-1,0,-1,-2,-3,-2,3.34
669,-2,0,1,-3,0,0,-3,-1,3.345
670,0,-2,-5,0,-2,-2,-1,0,3.35
671,-1,-1,0,-1,-5,-3,-1,0,3.355
672,0,-2,-1,-1,3,0,-1,0,3.36
673,0,1,0,-1,-1,0,-1,0,3.365
674,0,-1,1,-1,-6,-2,0,-2,3.37
675,-1,-1,0,-2,-1,-2,-1,-2,3.375
676,1,-1,-1,1,2,2,1,0,3.38
677,-1,0,-1,1,2,-1,-2,-2,3.3850000000000002
678,-1,0,0,1,0,0,-3,0,3.39
679,0,-1,0,-2,-1,0,0,0,3.395
680,-3,-2,-3,0,0,0,0,-1,3.4
681,0,0,-1,-1,-3,-1,-1,0,3.4050000000000002
682,-1,-1,0,-2,-6,-3,1,-1,3.41
683,0,-1,0,0,8,0,-1,0,3.415
684,-2,0,-2,-4,-5,0,0,0,3.42
685,-2,-2,-1,0,2,-2,-1,-1,3.4250000000000003
686,0,-1,2,2,-8,3,1,-2,3.43
687,0,-1,-1,-1,7,2,0,-2,3.435
688,-1,0,1,0,3,-2,-2,-1,3.44
689,-2,0,1,-2,-7,-2,-2,-1,3.4450000000000003
690,0,-1,-2,0,-1,-4,-2,0,3.45
691,-2,2,0,-3,4,1,-1,-1,3.455
692,0,-1,-2,0,-3,-1,-1,-1,3.46
693,-1,-2,-4,-2,3,1,-1,-2,3.465
694,0,1,0,2,5,1,-1,-1,3.47
695,0,-1,-1,0,-6,-3,-1,-1,3.475
696,0,-1,1,-1,-5,-2,-1,0,3.48
697,0,-2,0,-1,4,1,-1,-1,3.485
698,-1,0,-2,-1,-3,-1,0,1,3.49
699,-1,-2,-3,-1,-3,0,-2,0,3.495
700,-2,-1,0,-1,0,1,-1,-1,3.5
701,-1,1,1,-2,-2,-2,0,-1,3.505
702,0,-1,-1,1,3,1,-2,-2,3.5100000000000002
703,-1,0,-2,1,2,1,-1,0,3.515
704,-2,-2,-2,-1,-2,-4,-3,-2,3.52
705,-1,-1,1,2,3,0,-1,2,3.525
706,0,-1,-3,-3,-2,-4,-2,-1,3.5300000000000002
707,-1,0,-5,-3,-2,-2,-1,-1,3.535
708,1,-1,1,0,0,-2,-1,-1,3.54
709,0,0,0,-2,-8,-3,-1,0,3.545
710,-1,1,1,1,1,0,-1,-1,3.5500000000000003
711,0,-2,-3,-2,-5,-1,-2,-1,3.555
712,-1,-2,-2,-2,6,2,1,-1,3.56
713,-1,-2,-4,-1,-4,-1,-1,-1,3.565
714,-1,0,0,-2,-1,-2,-1,1,3.5700000000000003
715,-1,-1,0,-1,-1,-2,-1,0,3.575
716,-1,-1,0,-2,-1,-1,-1,0,3.58
717,-1,-1,-1,-1,-1,0,-1,-1,3.585
718,-2,-1,-3,1,4,-1,1,-1,3.59
719,-1,-1,1,0,-2,0,-1,-2,3.595
720,-1,-2,-2,0,-4,2,-1,-1,3.6
721,-1,-1,0,0,-2,-3,-2,-1,3.605
722,0,-1,0,-4,-1,-3,-1,-1,3.61
723,-1,-2,-2,-3,-9,-5,-2,-2,3.615
724,-1,-1,-1,-1,8,3,0,-1,3.62
725,-2,-2,-2,0,3,1,0,0,3.625
726,-1,-1,0,-1,-3,-1,-2,-1,3.63
727,0,0,0,1,-1,-1,-1,-1,3.6350000000000002
728,0,0,-1,-1,-7,-2,-1,-2,3.64
729,-3,-1,-1,0,3,-1,-2,-2,3.645
730,-1,-2,1,-3,5,-1,-1,-1,3.65
731,-1,-3,-8,0,-3,-1,0,0,3.6550000000000002
732,2,0,3,-2,-6,-1,0,0,3.66
733,2,-2,2,-1,-2,0,0,1,3.665
734,0,-1,-5,-2,-2,0,1,-1,3.67
735,-1,-1,1,1,7,1,0,0,3.6750000000000003
736,-3,-1,-1,-1,-2,-3,1,-1,3.68
737,-2,-2,-1,0,-3,-2,-1,-1,3.685
738,-2,-1,0,-2,1,-1,-3,-2,3.69
739,-1,-2,0,-4,-4,0,-2,-1,3.6950000000000003
740,-3,0,-3,2,0,-2,-1,-2,3.7
741,1,1,0,1,6,3,1,-1,3.705
742,-2,0,-3,-2,-3,-2,0,1,3.71
743,0,0,-1,0,-4,0,0,0,3.715
744,0,-2,1,-1,-2,-2,-1,-2,3.72
745,0,-1,0,-1,-1,-1,-3,-2,3.725
746,-1,-1,-3,0,-3,-2,-4,-1,3.73
747,0,0,1,1,2,-1,-1,0,3.735
748,-1,-1,-4,-4,-1,1,-1,1,3.74
749,0,-2,-1,-1,6,1,2,0,3.745
750,0,-1,0,-1,-2,0,0,-1,3.75
751,-1,0,-2,-1,-1,-2,0,-1,3.755
752,-2,-2,-1,1,-3,-2,0,0,3.7600000000000002
753,0,0,-1,-1,0,-2,-1,-1,3.765
754,0,-2,-2,-3,-6,-2,-1,0,3.77
755,0,-2,2,1,1,-1,-1,0,3.775
756,0,-1,-3,0,-1,-1,-1,0,3.7800000000000002
757,0,0,-3,-2,-1,-1,-1,0,3.785
758,0,0,0,-1,-3,0,0,-1,3.79
759,-1,-1,-1,0,-1,-2,-1,-3,3.795
760,0,1,-2,3,6,1,0,-3,3.8000000000000003
761,-1,-2,0,1,-3,-3,-1,-1,3.805
762,-1,0,0,-2,-1,-2,-1,-1,3.81
763,-1,0,0,-1,-1,-3,-2,0,3.815
764,-1,-1,1,-2,-1,-1,-2,0,3.8200000000000003
765,-1,0,-2,-1,-4,-3,-2,-3,3.825
766,0,-1,-2,1,-1,1,0,-2,3.83
767,-2,-1,-1,-2,-5,-3,-1,1,3.835
768,0,0,-1,-2,6,1,0,-1,3.84
769,-1,-1,-1,0,-5,-2,0,-1,3.845
770,-1,-1,0,1,4,2,0,0,3.85
771,0,0,0,1,-1,-1,0,-1,3.855
772,-2,-1,0,-1,-1,0,0,0,3.86
773,-1,0,-3,-1,-3,-2,1,0,3.865
774,-1,-1,-1,0,-3,0,-2,-2,3.87
775,0,0,0,0,2,-2,-2,-1,3.875
776,-2,-1,3,1,-3,-3,-2,-2,3.88
777,-1,0,-4,-3,-3,-2,-1,-1,3.8850000000000002
778,-1,-1,2,-1,-2,0,-1,1,3.89
779,0,-1,-7,-4,-1,-1,-1,-1,3.895
780,1,0,-2,-2,-2,2,1,0,3.9
781,-1,-3,-1,-1,-1,-1,-1,-1,3.9050000000000002
782,-1,0,-2,-1,-5,-3,-2,0,3.91
783,-1,-1,2,1,2,1,-2,-1,3.915
784,1,1,-2,0,2,2,-1,0,3.92
785,1,0,-2,-3,-1,0,0,0,3.9250000000000003
786,-1,0,-1,0,0,-1,-1,-1,3.93
787,-1,-2,0,-3,-4,-1,-1,0,3.935
788,-1,-3,0,-2,-4,-3,-1,0,3.94
789,-1,-1,2,0,2,3,0,0,3.9450000000000003
790,0,-1,0,0,-1,-1,1,0,3.95
791,-2,0,0,-1,-3,1,0,0,3.955
792,-2,-1,-3,0,-4,-1,-1,1,3.96
793,-2,-1,-1,-1,-3,-2,-1,0,3.9650000000000003
794,-1,1,-1,1,0,-2,0,-1,3.97
795,-2,-2,-1,0,4,0,0,-3,3.975
796,0,-2,1,-1,-5,-4,-1,-3,3.98
797,-1,-2,-2,-3,3,-1,-2,0,3.985
798,-1,-1,2,0,-2,-2,1,-2,3.99
799,1,0,0,-1,-1,0,-1,-2,3.995
800,-2,-1,-1,-4,-4,-3,-2,-1,4.0
801,-1,0,-1,-1,2,0,0,-1,4.005
802,1,0,-1,-1,2,4,0,-1,4.01
803,0,0,1,2,2,-1,-1,-1,4.015
804,-1,-2,0,0,5,0,-3,-1,4.0200000000000005
805,-1,-1,-2,0,-5,-1,-1,0,4.025
806,-2,-3,-1,0,0,1,0,-1,4.03
807,-1,-1,-2,-1,-2,-2,0,0,4.035
808,-2,0,-2,0,-3,-1,0,1,4.04
809,0,-1,0,0,-1,-2,-1,-2,4.045
810,0,-1,0,0,0,-1,1,1,4.05
811,-1,0,0,0,-3,-1,0,0,4.055
812,-1,-1,-2,-1,-1,-1,0,0,4.0600000000000005
813,0,-2,-1,0,-2,0,-3,-2,4.065
814,-2,-1,-2,2,6,-1,-1,0,4.07
815,1,0,0,-1,2,3,1,-1,4.075
816,-1,0,-3,-1,-2,1,-1,-1,4.08
817,-1,0,0,1,-4,-1,-2,0,4.085
818,-1,-2,-1,-1,-4,-2,-3,-2,4.09
819,-2,0,-2,-3,-6,-2,0,-1,4.095
820,1,0,1,1,3,0,0,-1,4.1
821,-1,-1,-2,0,-3,-4,-1,-1,4.105
822,-1,-1,-1,-2,3,-1,-1,0,4.11
823,-1,-3,-2,-1,2,1,0,1,4.115
824,0,0,-1,-2,-8,-3,0,-1,4.12
825,-2,1,-2,2,7,2,0,0,4.125
826,0,0,1,-1,-1,-2,-2,0,4.13
827,-2,-2,-2,1,1,2,0,0,4.135
828,1,-2,-1,0,0,-1,-1,0,4.14
829,0,0,-1,0,-1,-1,0,0,4.1450000000000005
830,-1,0,-1,-4,-4,-1,-1,1,4.15
831,1,-1,-2,-1,1,-2,-2,-1,4.155
832,-2,-1,2,0,-1,0,-1,-1,4.16
833,-1,0,1,-1,-1,0,-1,-2,4.165
834,1,-2,-3,0,-3,1,1,-1,4.17
835,-1,-3,-1,-3,-2,-1,-1,0,4.175
836,-2,-2,-1,-4,-4,-2,0,0,4.18
837,0,-1,1,-2,-1,-1,-1,-1,4.1850000000000005
838,-1,-1,-2,0,2,3,-1,-1,4.19
839,0,1,0,0,-2,-1,-2,-2,4.195
840,-2,-1,-3,-1,-1,-1,0,-2,4.2
841,0,0,1,0,-4,-2,-2,1,4.205
842,1,-1,-1,-1,-3,-3,-1,-1,4.21
843,0,-1,3,-1,-4,-2,-1,-1,4.215
844,0,-1,1,2,5,1,0,0,4.22
845,-3,-2,-3,-2,-3,-1,0,-1,4.225
846,-2,0,-1,-1,1,-1,0,0,4.23
847,-2,0,0,-1,1,-1,-1,-1,4.235
848,0,-1,-1,0,-1,-1,0,-2,4.24
849,-2,-1,-2,0,1,1,-1,-1,4.245
850,0,-3,-2,-1,-2,-2,-1,0,4.25
851,-2,0,-1,0,-1,-2,0,0,4.255
852,-1,1,-1,-1,-1,1,-2,-1,4.26
853,0,-1,1,0,2,1,0,-1,4.265
854,-2,1,-1,-2,-5,-1,-1,-1,4.2700000000000005
855,-2,0,0,-1,-2,0,-2,-1,4.275
856,0,1,2,1,-2,-1,-1,0,4.28
857,-2,-3,-4,-5,-2,-2,-2,-1,4.285
858,0,-1,2,4,-2,-1,0,0,4.29
859,0,-2,-5,-3,-5,-2,0,0,4.295
860,-1,-1,1,3,10,1,-1,1,4.3
861,-1,-1,-1,-1,-4,-1,-1,0,4.305
862,-2,-2,2,-2,2,2,-1,-1,4.3100000000000005
863,-2,-1,-3,-1,-3,-2,-1,-1,4.315
864,-1,-3,-2,-2,-3,-1,-2,-3,4.32
865,0,-1,-2,-1,-2,-1,0,-1,4.325
866,0,-1,-2,-2,-1,0,1,-2,4.33
867,-1,-1,-3,-1,0,1,-2,0,4.335
868,-1,-1,4,-3,-4,-2,-1,0,4.34
869,-1,-1,-1,1,3,2,0,-1,4.345
870,0,0,-2,0,0,-2,-2,-2,4.3500000000000005
871,0,-1,0,0,-3,-2,-1,-1,4.355
872,1,-1,-4,-1,3,0,1,0,4.36
873,-2,0,2,-2,-1,-1,-2,-1,4.365
874,-1,-1,-1,-2,-2,-1,0,-2,4.37
875,0,-2,-1,-1,-1,0,-2,0,4.375
876,-3,-1,-3,-1,-3,-2,-1,-1,4.38
877,0,-1,1,-1,-2,-1,1,1,4.385
878,-1,-1,1,0,-2,-3,0,-1,4.39
879,-1,-1,1,0,1,0,0,-1,4.3950000000000005
880,0,-1,-4,-3,-2,-2,-1,-1,4.4
881,0,1,-2,1,3,2,0,-1,4.405
882,-2,-1,-2,-2,-1,0,1,1,4.41
883,-1,-1,3,-2,-7,-4,-1,-2,4.415
884,-2,-1,-5,2,12,11,3,0,4.42
885,0,-2,-2,-1,-2,-5,-2,-2,4.425
886,1,-2,-1,-2,-4,-1,0,-1,4.43
887,1,0,1,2,1,1,0,1,4.4350000000000005
888,-1,-1,0,0,-5,-3,-1,-3,4.44
889,0,-1,-1,-1,-2,0,-1,1,4.445
890,-1,0,-2,-2,-4,0,-1,0,4.45
891,-2,-1,-2,0,4,-2,-1,-2,4.455
892,-1,0,2,0,-5,-1,-1,1,4.46
893,-1,-2,-2,-2,-1,0,-1,-1,4.465
894,-1,0,-1,1,1,-2,-1,-1,4.47
895,-1,0,-2,-1,0,1,2,-1,4.4750000000000005
896,0,-1,0,-2,-3,-2,0,-2,4.48
897,-2,-1,0,0,-1,-2,0,-1,4.485
898,-2,-2,-2,0,-1,-1,-3,0,4.49
899,-1,-2,-2,0,0,0,0,0,4.495
900,-1,-2,0,-4,-2,-2,-2,-1,4.5
901,-2,-1,-2,-1,-4,1,-2,0,4.505
902,-3,-1,-1,-1,1,-1,-2,-2,4.51
903,-1,0,-2,1,-2,-1,0,-1,4.515
904,0,0,1,1,-2,1,1,-2,4.5200000000000005
905,0,-1,-4,0,-3,-4,-2,-2,4.525
906,1,0,-1,-2,3,-1,-2,-1,4.53
907,0,1,1,0,-2,-1,-1,-2,4.535
908,0,-2,-6,-2,-6,-5,0,0,4.54
909,-2,0,-2,-2,5,0,0,0,4.545
910,-2,-1,-2,-1,-7,-1,2,0,4.55
911,-2,0,1,-1,5,2,-1,-1,4.555
912,0,-2,0,-2,0,-2,-3,-1,4.5600000000000005
913,-1,-1,-1,-1,-2,0,-1,-2,4.565
914,-2,-1,-1,-1,-2,-2,-1,-2,4.57
915,-1,-2,-1,-1,0,0,-1,0,4.575
916,-1,0,1,-2,-3,1,-1,-1,4.58
917,0,-2,-2,-2,-2,-2,0,-2,4.585
918,1,-2,2,-2,-1,-2,-1,-2,4.59
919,1,0,-4,-3,-1,0,1,-1,4.595
920,-1,-1,3,3,1,0,-1,0,4.6000000000000005
921,-2,-1,2,-2,-1,0,-3,-1,4.605
922,-2,0,-1,0,8,2,0,-1,4.61
923,-2,-2,-1,-1,0,-2,-2,-3,4.615
924,0,0,-2,-2,-3,-1,0,-2,4.62
925,-1,0,-1,0,-2,-1,1,-1,4.625
926,-1,-2,-1,-2,-2,0,-1,-1,4.63
927,0,-1,1,0,1,-2,0,0,4.635
928,-1,1,-2,0,-2,1,2,0,4.64
929,1,-2,3,-1,1,0,0,-1,4.6450000000000005
930,0,-1,-1,-2,-5,-1,0,0,4.65
931,-2,-1,0,-1,-3,0,-3,-1,4.655
932,-1,0,1,-2,1,-3,-1,-2,4.66
933,0,-2,-3,-1,-3,0,0,-2,4.665
934,-1,-2,0,0,2,1,0,0,4.67
935,0,-3,-2,-2,3,2,0,-1,4.675
936,-1,-1,-1,0,-3,-3,-2,-1,4.68
937,0,0,-1,-2,-4,-3,0,-1,4.6850000000000005
938,-1,-1,3,2,6,1,0,0,4.69
939,-1,1,0,2,-5,-2,0,-2,4.695
940,-1,-2,-3,-2,-2,-1,-2,-2,4.7
941,-1,0,1,-1,-1,0,-1,-1,4.705
942,-1,0,-2,0,-4,-1,-3,-1,4.71
943,0,0,-5,-1,-2,-1,0,1,4.715
944,1,-3,-2,-1,0,0,0,-2,4.72
945,-1,-1,0,-1,0,-1,0,-2,4.7250000000000005
946,-1,-1,-2,0,-2,-1,0,0,4.73
947,0,-1,0,-1,3,0,-1,-1,4.735
948,-2,0,1,0,-2,-2,-1,-1,4.74
949,-1,-2,-2,-2,-2,-2,-1,-1,4.745
950,-1,0,-1,0,0,2,0,0,4.75
951,-2,-1,0,-2,-1,-2,-1,-2,4.755
952,1,-1,0,-1,0,-1,-3,0,4.76
953,-1,-1,-2,-2,0,1,-1,-1,4.765
954,0,0,-2,0,2,-2,0,-1,4.7700000000000005
955,0,-2,0,2,4,3,1,1,4.775
956,-3,-1,1,-1,1,-2,-1,0,4.78
957,0,-1,-6,0,-4,-2,-1,0,4.785
958,-2,-2,0,-1,-4,-3,-1,0,4.79
959,-2,0,-2,0,2,-1,0,-1,4.795
960,-1,-1,-5,0,-4,-1,0,0,4.8
961,1,-1,0,1,8,1,0,1,4.805
962,0,-1,-1,0,-4,-3,-2,-1,4.8100000000000005
963,1,0,-2,-3,-4,-3,-1,-2,4.815
964,0,-1,-7,-2,-1,-1,0,1,4.82
965,0,-1,1,-3,-4,-2,-2,0,4.825
966,0,-2,-1,1,6,1,-1,-2,4.83
967,-2,-1,1,0,0,0,-2,0,4.835
968,-1,-1,0,1,-2,0,0,-3,4.84
969,0,0,-1,0,-2,-1,0,-1,4.845
970,0,0,-1,0,6,0,-1,-1,4.8500000000000005
971,-2,-1,0,-1,-6,-4,-1,-1,4.855
972,-1,0,0,-1,2,1,-1,-1,4.86
973,0,-2,-3,0,-1,-1,0,0,4.865
974,-1,2,0,-2,-6,-3,0,-2,4.87
975,0,0,1,-3,-1,-1,1,-1,4.875
976,-2,-2,-2,0,-1,-3,-1,-1,4.88
977,-1,1,2,-2,-1,-2,-2,-1,4.885
978,0,-1,0,-1,-1,1,-2,-1,4.89
979,-1,-1,-5,1,-3,-3,-1,-1,4.8950000000000005
980,0,0,0,-2,1,0,2,1,4.9
981,-1,0,2,1,2,0,0,0,4.905
982,-1,-2,-3,-1,-2,0,-1,-3,4.91
983,1,1,2,-3,-2,-1,1,-1,4.915
984,2,-2,1,1,-3,0,0,0,4.92
985,-3,0,0,0,-1,-1,-1,-1,4.925
986,-2,0,-4,-3,-7,-4,-1,-1,4.93
987,0,-1,2,-1,10,2,0,0,4.9350000000000005
988,0,0,-5,-2,1,1,-2,0,4.94
989,1,-1,0,0,-3,-1,-1,-1,4.945
990,-2,2,0,-2,1,-3,-1,0,4.95
991,0,0,0,0,-3,-3,-1,-1,4.955
992,-1,-1,1,0,6,1,1,0,4.96
993,1,-2,-1,1,-1,-2,1,-1,4.965
994,-1,-2,-3,-1,-2,1,1,0,4.97
995,-2,-2,-2,0,-2,-1,-1,0,4.9750000000000005
996,-2,-1,0,-1,0,-1,0,-1,4.98
997,-1,-2,-2,0,0,-1,0,0,4.985
998,1,-1,0,-2,-3,-2,-1,-1,4.99
999,-1,1,-2,-2,-1,-2,-2,-1,4.995
1000,-1,-1,0,-3,-1,-1,0,-1,5.0
1001,-1,-1,0,0,-1,-1,0,0,5.005
1002,0,-1,0,-1,-2,0,0,0,5.01
1003,-1,-1,-4,-2,-6,0,-2,-1,5.015
1004,0,-1,-2,-2,1,-1,-1,-1,5.0200000000000005
1005,-3,0,0,1,0,0,-1,-1,5.025
1006,0,0,0,-1,-3,-2,-2,-1,5.03
1007,0,-2,1,0,2,0,-1,-1,5.035
1008,-2,0,1,0,-5,-3,-1,-3,5.04
1009,0,-2,-3,-2,-1,-1,-2,-2,5.045
1010,-1,-1,-1,2,3,-2,0,0,5.05
1011,-1,-1,-2,-1,-4,0,-1,0,5.055
1012,-1,1,-1,-3,-6,-2,-2,1,5.0600000000000005
1013,-3,-2,-3,0,0,0,-1,0,5.065
1014,0,0,-1,-1,3,-1,0,0,5.07
1015,-2,0,-2,0,-2,-1,-2,-1,5.075
1016,-2,-3,1,-1,1,-1,0,-1,5.08
1017,0,0,0,-2,-1,1,0,-1,5.085
1018,0,0,-1,2,-2,-2,-2,-2,5.09
1019,-1,-1,-1,-2,0,-1,-1,0,5.095
1020,-1,0,-4,-1,0,1,-3,-1,5.1000000000000005
1021,-1,0,-2,-1,3,0,-2,-1,5.105
1022,-1,-3,0,-2,-2,1,-2,-1,5.11
1023,-1,0,-1,0,-1,-2,-1,0,5.115
1024,0,-1,0,0,-3,-2,-2,0,5.12
1025,1,0,-1,-2,-1,-2,1,-1,5.125
1026,-2,-2,-2,-3,-1,2,-2,1,5.13
1027,0,-1,2,0,-2,-1,0,-2,5.135
1028,-1,1,1,0,-4,-4,0,-2,5.14
1029,-1,0,2,1,4,2,-1,0,5.1450000000000005
1030,0,0,0,-1,1,0,0,0,5.15
1031,0,0,-2,-2,-1,-1,0,0,5.155
1032,-1,-1,-4,-3,0,-2,0,0,5.16
1033,-2,0,0,2,-3,-2,-1,0,5.165
1034,-1,0,-1,-7,-3,-1,1,0,5.17
1035,1,1,-1,0,-2,-1,-2,-1,5.175
1036,-2,0,1,0,-2,0,0,0,5.18
1037,1,-1,0,0,1,2,-1,0,5.1850000000000005
1038,-2,-1,-2,-1,-2,-1,0,-1,5.19
1039,0,-1,-2,-2,-1,1,-1,-1,5.195
1040,1,-1,-1,-1,-5,-2,0,-2,5.2
1041,0,-1,-2,-1,1,-1,-3,-1,5.205
1042,-1,-1,3,1,-2,-2,-2,0,5.21
1043,1,-2,-1,0,4,2,3,0,5.215
1044,-1,0,-2,-1,3,1,0,0,5.22
1045,0,0,0,-1,-4,-2,1,0,5.2250000000000005
1046,-1,-2,-1,-1,1,-1,0,-3,5.23
1047,-2,-1,-4,-2,-4,-2,0,-1,5.235
1048,0,-1,-1,-1,-1,2,0,-1,5.24
1049,-1,0,-2,0,-1,-1,1,-1,5.245
1050,1,-1,-1,-1,-1,-1,-2,0,5.25
1051,1,-3,1,-1,-2,0,-1,-2,5.255
1052,0,-2,-1,0,-2,0,-2,1,5.26
1053,-2,-1,-3,-3,-2,-3,0,-2,5.265
1054,0,-1,-1,0,2,2,-1,-1,5.2700000000000005
1055,-2,-1,0,0,-2,0,-1,1,5.275
1056,-2,0,-2,-2,2,1,0,-2,5.28
1057,-1,-2,1,0,-5,-2,-1,-1,5.285
1058,-1,-1,0,-2,2,0,1,0,5.29
1059,0,-1,-4,0,-7,-2,1,0,5.295
1060,-1,-1,2,0,-1,-2,0,-2,5.3
1061,0,0,0,-2,-1,0,0,-1,5.305
1062,0,-1,0,0,-1,-1,-2,-2,5.3100000000000005
1063,0,-1,0,0,-1,-3,-3,-1,5.315
1064,-1,-2,-2,-1,1,-2,-1,-2,5.32
1065,-2,1,-1,-1,0,2,0,2,5.325
1066,0,0,1,0,-2,-1,1,-1,5.33
1067,0,-1,0,1,0,-2,0,0,5.335
1068,-1,-2,-1,0,2,-1,-3,-1,5.34
1069,-1,-2,-1,-3,-5,-1,-2,-1,5.345
1070,-1,0,-1,1,-4,-2,0,0,5.3500000000000005
1071,0,-1,-1,-1,4,1,0,0,5.355
1072,-2,-2,0,-2,-4,0,0,-1,5.36
1073,-1,-2,-3,-1,-2,-2,-2,-3,5.365
1074,-2,0,-3,0,3,1,0,0,5.37
1075,0,0,1,-2,-6,-2,-2,-2,5.375
1076,1,-1,-2,2,3,3,0,0,5.38
1077,-2,-1,-1,0,-3,0,0,-1,5.385
1078,0,-2,-2,0,-1,0,-1,-1,5.39
1079,-3,0,2,-1,-2,1,1,0,5.3950000000000005
1080,-3,-1,-6,-2,-1,-1,0,-1,5.4
1081,-1,0,2,0,-2,-3,0,-4,5.405
1082,-2,-1,0,1,-1,1,-1,-1,5.41
1083,1,-1,-2,0,1,1,0,-2,5.415
1084,0,-1,-1,1,-1,-2,0,0,5.42
1085,0,-1,3,-1,0,-3,-1,-1,5.425
1086,-1,-1,-5,-4,-3,-2,-2,0,5.43
1087,1,0,-1,-2,0,-1,-1,-1,5.4350000000000005
1088,0,1,-1,-3,-2,-1,0,-2,5.44
1089,1,-1,-3,-1,0,0,-2,0,5.445
1090,0,-1,0,-2,-1,-3,-2,-1,5.45
1091,-2,-1,-2,-1,1,0,-1,-1,5.455
1092,-1,-1,4,2,-3,-1,-2,0,5.46
1093,1,0,-3,0,-2,-1,-1,-1,5.465
1094,-2,-1,0,1,0,-1,0,-1,5.47
1095,-2,0,-1,0,1,0,-2,-2,5.4750000000000005
1096,-1,-1,-1,0,-1,0,-1,-2,5.48
1097,-1,-2,-2,-2,-1,-1,-1,-3,5.485
1098,-2,0,-2,-2,-1,-3,-2,-1,5.49
1099,-1,-1,2,3,9,5,1,-1,5.495
1100,0,-1,-1,-3,-5,-3,-1,-3,5.5
1101,-1,-1,2,-2,1,0,0,0,5.505
1102,0,-3,-5,-2,-5,0,0,0,5.51
1103,-2,0,-4,-2,-6,-3,-1,-3,5.515
1104,-1,1,3,0,0,-1,-1,0,5.5200000000000005
1105,-2,-1,-3,-3,2,1,0,0,5.525
1106,-1,0,6,2,0,-1,-1,-1,5.53
1107,-1,-1,-6,0,-4,-2,-1,-1,5.535
1108,-1,-1,-2,-1,3,2,-2,0,5.54
1109,-2,0,-2,-1,-7,-2,-1,-1,5.545
1110,1,0,-2,-2,1,0,1,-1,5.55
1111,-1,-1,1,-1,1,-1,0,-1,5.555
1112,0,-3,-1,-1,-3,-2,1,1,5.5600000000000005
1113,-1,-1,-2,0,4,0,-1,-1,5.565
1114,-1,-1,0,0,-1,-2,-1,-1,5.57
1115,1,-2,-1,-3,-2,-2,0,0,5.575
1116,-1,-1,-4,-1,-3,-2,-1,-1,5.58
1117,-1,-1,-1,0,3,-1,-1,-1,5.585
1118,-2,1,1,1,-2,-1,0,-1,5.59
1119,-2,-1,-1,-1,1,0,0,0,5.595
1120,0,-2,0,-2,-1,0,0,-2,5.6000000000000005
1121,0,-2,1,-1,-2,1,-1,0,5.605
1122,-1,-1,-5,-3,-7,-3,-1,-1,5.61
1123,-1,-1,3,0,-1,-2,-1,-2,5.615
1124,0,0,1,2,0,0,-1,-3,5.62
1125,0,-3,-3,-3,-2,-3,-2,-1,5.625
1126,0,0,0,0,-2,-1,-2,-1,5.63
1127,-1,0,1,0,0,-2,-1,1,5.635
1128,0,-2,-5,-2,-4,-1,0,-1,5.64
1129,-1,1,0,-1,2,1,-1,0,5.6450000000000005
1130,-1,-2,1,-1,3,0,0,-2,5.65
1131,2,-1,-4,-6,-6,0,-2,-2,5.655
1132,-1,0,3,0,2,0,0,-2,5.66
1133,-1,-1,0,-2,-2,-1,-2,-1,5.665
1134,-1,-1,-3,-1,1,1,1,-3,5.67
1135,-2,-1,-1,2,-2,-2,0,-1,5.675
1136,0,0,0,-1,2,0,-2,1,5.68
1137,-1,0,0,-2,-2,-1,-1,0,5.6850000000000005
1138,-2,0,0,0,-4,-1,1,0,5.69
1139,0,0,2,0,3,-1,1,0,5.695
1140,-2,0,-1,0,3,1,-1,0,5.7
1141,-1,-1,1,1,-1,-1,-2,1,5.705
1142,0,-3,-2,-2,4,0,-1,0,5.71
1143,-2,-2,1,1,-1,-1,0,0,5.715
1144,-2,-1,1,0,-6,-2,1,0,5.72
1145,0,-1,-7,-3,-1,-1,0,-1,5.7250000000000005
1146,-2,-2,0,0,4,0,0,0,5.73
1147,-1,1,-1,-2,0,-2,0,-1,5.735
1148,1,0,-1,-2,-1,0,-1,-2,5.74
1149,-1,-1,0,-1,-3,-2,0,-2,5.745
1150,0,1,0,-1,-5,-3,-2,-2,5.75
1151,-2,-1,-1,1,5,0,-2,-1,5.755
1152,-1,1,-4,-1,-3,-2,-1,-2,5.76
1153,-1,0,0,1,-4,-1,-1,0,5.765
1154,0,0,-1,-2,4,1,1,1,5.7700000000000005
1155,-1,-1,-1,-1,2,-1,-2,-2,5.775
1156,0,-2,-3,-4,3,0,0,0,5.78
1157,-1,-1,2,2,-1,0,0,-1,5.785
1158,1,-1,-1,-2,-4,-2,-1,1,5.79
1159,-1,-2,-4,-2,0,-1,-2,0,5.795
1160,-2,-2,2,-1,-1,-1,1,-1,5.8
1161,-1,-1,-4,0,1,0,0,0,5.805
1162,0,-1,-2,-2,-1,0,-2,-2,5.8100000000000005
1163,0,-1,-1,-1,-5,-3,-1,-1,5.815
1164,-1,-1,-1,0,1,-1,-2,-1,5.82
1165,0,-1,3,0,0,0,0,-2,5.825
1166,-1,-1,-5,0,-5,-3,-3,-2,5.83
1167,1,-1,-2,-4,-3,1,0,1,5.835
1168,-3,-1,-1,1,-1,0,1,-1,5.84
1169,-1,2,0,-2,-4,-2,-1,-1,5.845
1170,0,0,0,2,-1,-3,-2,0,5.8500000000000005
1171,-1,-1,-1,0,1,-2,0,-3,5.855
1172,0,-2,0,-2,-4,-2,-1,1,5.86
1173,0,-2,0,2,5,1,0,1,5.865
1174,0,0,-5,-4,-2,-2,0,0,5.87
1175,-2,-2,0,-1,-6,-1,-1,-1,5.875
1176,0,1,0,-2,2,1,-1,-3,5.88
1177,-2,-3,-3,-2,1,-2,-1,-2,5.885
1178,-1,-1,1,-1,2,0,0,0,5.89
1179,0,-1,0,-1,2,-1,0,0,5.8950000000000005
1180,-2,-1,-4,1,0,-1,-1,0,5.9
1181,-2,-1,0,0,-1,-1,0,1,5.905
1182,-1,-1,0,1,0,1,0,-1,5.91
1183,-1,-1,-2,-2,-3,-2,-2,-1,5.915
1184,0,-2,4,-1,-2,-1,-2,0,5.92
1185,-1,-1,-6,-4,1,-1,-2,-1,5.925
1186,-1,1,4,1,-2,2,0,-1,5.93
1187,-2,0,-2,-2,2,0,-3,-1,5.9350000000000005
1188,-1,-1,0,-2,0,-1,-1,0,5.94
1189,0,-1,-3,-3,-4,-1,-1,0,5.945
1190,-2,0,3,0,0,-3,0,-1,5.95
1191,-1,-1,-2,-2,-4,-1,-1,-2,5.955
1192,1,1,-2,1,8,1,0,-1,5.96
1193,-2,-2,1,0,-4,-1,0,-3,5.965
1194,-2,-2,-2,-2,-3,-1,0,-1,5.97
1195,-2,0,3,2,4,1,0,-1,5.9750000000000005
1196,-1,-2,-3,-2,-7,-2,-1,0,5.98
1197,0,-1,2,1,-3,0,-2,0,5.985
1198,0,-2,-2,0,-1,1,-1,0,5.99
1199,-1,-1,-1,1,-5,-2,1,-1,5.995
1200,0,-1,0,-2,-3,-2,-2,-1,6.0
1201,0,0,-4,0,0,-1,1,-1,6.005
1202,-1,-1,0,-1,0,0,-1,0,6.01
1203,-1,-1,-2,-1,-2,0,-1,1,6.015000000000001
1204,0,-1,0,1,-4,0,-1,1,6.0200000000000005
1205,-1,-2,-1,0,2,0,-1,0,6.025
1206,0,-1,-2,-2,-2,-2,-1,-2,6.03
1207,0,-4,-5,-2,3,0,0,-1,6.035
1208,0,-1,-1,-2,0,-1,-1,-2,6.04
1209,-2,-1,0,-2,-1,0,-1,-1,6.045
1210,1,0,1,1,0,2,1,0,6.05
1211,-1,-2,-1,-4,-7,-1,-1,-2,6.055
1212,-1,-1,0,0,-1,-2,-2,-1,6.0600000000000005
1213,-1,0,-2,0,1,0,-1,-1,6.065
1214,0,0,-1,0,0,0,-3,0,6.07
1215,-1,0,-1,-1,-3,0,-1,-2,6.075
1216,0,1,-4,-1,3,2,0,0,6.08
1217,0,0,4,1,2,0,0,-1,6.085
1218,-1,-2,-4,-2,-5,-3,0,-1,6.09
1219,0,0,2,0,4,-2,-1,0,6.095
1220,-1,-2,0,-1,2,-1,0,-1,6.1000000000000005
1221,-2,-1,-2,0,-3,-1,-1,-2,6.105
1222,-2,-2,1,-1,0,-2,-1,-2,6.11
1223,-1,-1,1,1,-2,-2,1,0,6.115
1224,1,-2,0,-2,-4,-3,-1,-1,6.12
1225,-2,-2,-4,-1,2,-1,-1,1,6.125
1226,-1,0,-4,-1,4,-1,-1,-1,6.13
1227,-2,1,2,-1,-2,0,-2,0,6.135
1228,-1,-2,-2,0,1,-1,-1,-1,6.140000000000001
1229,0,0,-1,-1,-2,-1,-1,-1,6.1450000000000005
1230,-2,-2,-2,-1,2,1,0,-1,6.15
1231,-1,0,1,0,0,-1,0,-2,6.155
1232,-1,-1,-1,-1,-1,-2,-2,-2,6.16
1233,0,-1,-1,-2,-7,-3,-2,0,6.165
1234,1,-1,-2,-1,0,-2,1,0,6.17
1235,0,-1,-3,-1,-4,-1,-1,0,6.175
1236,-1,-1,-1,0,0,0,-2,-1,6.18
1237,1,-2,-4,-2,-2,-1,-2,0,6.1850000000000005
1238,-1,0,0,-1,-6,-2,-1,-1,6.19
1239,1,0,0,0,4,0,-1,-1,6.195
1240,-1,-1,0,-1,-3,-1,0,1,6.2
1241,-1,-1,-2,-2,-5,-3,0,-1,6.205
1242,-2,-1,1,1,3,1,-1,0,6.21
1243,-1,-1,-2,-1,0,-2,-1,-1,6.215
1244,-2,0,-1,0,0,2,-1,0,6.22
1245,-1,0,1,-1,0,-1,-1,-1,6.2250000000000005
1246,0,-1,-2,1,-1,-2,-1,-1,6.23
1247,0,-2,-2,-1,-5,0,0,0,6.235
1248,0,-1,1,0,1,-2,0,0,6.24
1249,-1,-1,0,-2,0,-1,-1,-1,6.245
1250,-1,-2,0,-1,-2,0,-1,-2,6.25
1251,-1,-2,-2,-1,-1,0,1,-2,6.255
1252,0,1,2,1,0,0,0,-1,6.26
1253,1,-1,-3,-1,-1,0,0,-1,6.265000000000001
1254,0,-2,-2,-4,0,-1,-1,-2,6.2700000000000005
1255,-1,-2,-1,-3,-7,-3,-2,-1,6.275
1256,-1,1,-1,2,4,3,1,0,6.28
1257,0,0,2,-2,-1,-2,0,-1,6.285
1258,-1,-1,-1,1,5,-1,1,0,6.29
1259,0,-1,-2,-2,-2,0,-1,-1,6.295
1260,0,-1,-3,-1,-3,-5,-2,-1,6.3
1261,-1,1,0,0,3,0,0,0,6.305
1262,0,0,-1,0,-1,-1,-1,-2,6.3100000000000005
1263,-3,-1,-2,-1,1,1,-2,-2,6.315
1264,-1,-1,1,-1,-2,-2,-2,-1,6.32
1265,0,-1,1,0,0,1,0,0,6.325
1266,-1,-1,1,0,-9,-4,-1,-2,6.33
1267,-1,0,0,-1,13,5,2,2,6.335
1268,0,-1,1,0,0,2,0,-1,6.34
1269,-1,-1,-3,-3,-2,-2,-1,-1,6.345
1270,0,0,2,1,0,-1,-1,0,6.3500000000000005
1271,0,-2,0,0,-1,-2,-1,1,6.355
1272,-2,-1,-3,-1,-6,-3,-1,-1,6.36
1273,0,-1,1,0,-1,1,-1,-2,6.365
1274,-1,-1,-2,-2,0,-2,-1,1,6.37
1275,0,0,-5,0,-2,-1,-2,-2,6.375
1276,0,-1,0,-3,-1,-2,-1,0,6.38
1277,-1,-1,-1,0,-2,-1,-1,0,6.385
1278,-1,1,3,-1,3,0,-1,0,6.390000000000001
1279,-1,0,-5,-1,-3,-2,-1,-1,6.3950000000000005
1280,1,-1,0,-1,-1,-2,-2,-1,6.4
1281,0,-2,0,0,-1,-2,-2,0,6.405
1282,-1,-1,-1,-3,0,1,-1,0,6.41
1283,0,-1,1,-1,-5,-1,-2,-2,6.415
1284,-1,-2,-1,-1,0,0,-1,-1,6.42
1285,1,1,2,0,-2,0,0,-1,6.425
1286,0,-1,-1,2,-1,1,0,0,6.43
1287,-1,-1,1,-2,-6,-2,0,0,6.4350000000000005
1288,-2,-2,-3,-1,2,0,-1,-2,6.44
1289,0,1,-1,1,6,2,0,0,6.445
1290,-1,-1,-2,-1,-4,-3,-1,-3,6.45
1291,-1,0,2,-1,6,1,0,1,6.455
1292,0,0,-1,-2,-3,-4,-1,-1,6.46
1293,-1,-1,1,2,-1,1,2,-1,6.465
1294,0,-1,-1,-4,8,2,1,1,6.47
1295,-1,0,-2,0,-2,-3,-1,-2,6.4750000000000005
1296,-1,-1,0,-2,-2,-2,0,-2,6.48
1297,0,-1,-2,-2,-2,-1,-1,-3,6.485
1298,0,-1,-2,-1,-2,0,-1,0,6.49
1299,-1,-2,1,1,-5,-5,-2,-1,6.495
1300,0,0,-3,0,0,0,0,-1,6.5
1301,0,-2,-2,-1,-3,0,-1,0,6.505
1302,0,1,-1,0,-2,1,-2,-2,6.51
1303,-1,0,-2,0,-1,-2,-1,-1,6.515000000000001
1304,-2,0,0,1,0,2,-1,0,6.5200000000000005
1305,-2,-1,3,0,2,-2,-2,1,6.525
1306,-1,0,-6,-1,1,-1,-1,-1,6.53
1307,0,-1,-1,-1,-4,0,1,0,6.535
1308,0,1,0,-1,0,-1,-1,0,6.54
1309,-2,-2,-2,-4,-3,-1,-2,-1,6.545
1310,-2,-1,1,1,-1,-1,-3,-1,6.55
1311,-1,-2,-2,-3,1,-1,-2,-3,6.555
1312,0,-2,-1,1,0,1,1,-1,6.5600000000000005
1313,-3,-1,-4,-4,-4,-4,0,-1,6.565
1314,-1,0,2,-1,-3,0,-2,0,6.57
1315,-1,0,0,-1,2,0,0,-1,6.575
1316,-1,-1,0,-2,-4,-2,-1,-2,6.58
1317,0,0,1,1,-1,-2,-1,-1,6.585
1318,-2,-2,0,-1,-4,-1,0,0,6.59
1319,-2,0,0,0,5,1,1,0,6.595
1320,-1,1,-4,1,-4,-1,0,0,6.6000000000000005
1321,0,1,-1,0,5,0,-2,-3,6.605
1322,-2,1,0,-1,-2,-2,-1,0,6.61
1323,0,-1,2,-1,-1,-2,-3,0,6.615
1324,-1,-1,-3,-1,-3,-1,-1,0,6.62
1325,-1,-1,-2,-2,0,0,-2,0,6.625
1326,-1,0,2,1,0,-1,0,-2,6.63
1327,0,0,-4,1,-2,-2,-1,-1,6.635
1328,-2,-1,-1,-2,3,0,-1,-2,6.640000000000001
1329,0,-2,-1,-1,-3,-1,-1,-1,6.6450000000000005
1330,0,0,-1,-3,-2,-2,-1,-2,6.65
1331,0,-2,1,-1,-2,-2,-1,-1,6.655
1332,-1,1,0,0,0,3,0,0,6.66
1333,-2,1,-2,1,6,0,1,-1,6.665
1334,1,0,0,-2,-4,-1,0,-2,6.67
1335,-1,-2,-1,0,-1,-3,-3,-2,6.675
1336,-1,-1,1,-3,0,0,-1,0,6.68
1337,-2,-2,-3,2,-4,-4,1,0,6.6850000000000005
1338,-1,-2,0,-1,7,2,1,0,6.69
1339,-1,-1,-1,-1,-2,-1,0,-1,6.695
1340,1,0,1,0,-1,-2,-3,0,6.7
1341,0,0,0,-1,-1,-1,-1,0,6.705
1342,-3,0,-3,-1,-2,-2,-1,0,6.71
1343,1,-3,-1,-1,0,1,-1,-2,6.715
1344,-2,-2,-3,-1,0,-3,0,-1,6.72
1345,0,-2,0,-1,-5,-1,-2,-3,6.7250000000000005
1346,0,-2,-3,-1,2,1,-1,-1,6.73
1347,-1,1,-1,0,0,0,-1,-1,6.735
1348,-6,0,-1,-3,-3,-2,-2,-12,6.74
1349,5,0,-2,2,8,2,2,20,6.745
1350,0,-1,-1,-1,-8,-6,-2,1,6.75
1351,0,0,-4,-1,4,1,0,1,6.755
1352,1,0,-1,0,-2,-2,-1,3,6.76
1353,-2,-1,0,-5,-6,1,1,-6,6.765000000000001
1354,-2,-2,0,2,4,2,1,-1,6.7700000000000005
1355,-1,-1,-1,-1,-2,-3,-2,1,6.775
1356,0,-1,2,2,1,1,1,-2,6.78
1357,-3,-1,1,-3,-2,-1,-2,-6,6.785
1358,1,-1,-2,-1,-3,-1,-2,0,6.79
1359,0,-2,-2,0,-1,-1,-1,-4,6.795
1360,0,0,-4,1,0,1,-2,0,6.8
1361,-1,0,3,2,-1,-3,-1,-3,6.805
1362,-2,0,-4,-2,-2,0,0,-1,6.8100000000000005
1363,-1,0,1,-1,0,1,1,0,6.815
1364,0,-1,-2,-2,1,0,0,1,6.82
1365,-1,-2,-3,-3,-2,0,-1,-2,6.825
1366,0,-1,-1,-2,-2,-2,-1,-1,6.83
1367,-1,-1,0,-2,-1,1,1,1,6.835
1368,0,-1,1,-1,1,-2,0,1,6.84
1369,-1,-1,0,-1,-2,0,-1,-4,6.845
1370,1,-1,-1,-1,-6,-2,0,-2,6.8500000000000005
1371,-1,-1,-1,1,4,2,-1,0,6.855
1372,-1,1,-1,0,-3,-1,-1,2,6.86
1373,-2,-2,-3,1,3,0,-1,0,6.865
1374,-1,-1,0,0,-3,-1,0,-2,6.87
1375,-1,0,-1,1,6,1,-1,-1,6.875
1376,-1,-1,1,-2,2,5,1,0,6.88
1377,0,0,-1,-1,-4,-2,-4,-2,6.885
1378,1,0,2,0,3,2,0,0,6.890000000000001
1379,1,-1,-1,0,-5,-2,-3,-2,6.8950000000000005
1380,1,-1,0,0,-3,-1,0,0,6.9
1381,-1,-1,-1,-1,1,0,1,-2,6.905
1382,-1,-1,1,1,1,0,0,-1,6.91
1383,-1,-1,3,-1,-4,-3,-1,-1,6.915
1384,-1,0,-2,1,-2,0,-2,-1,6.92
1385,0,0,1,-2,-1,-1,-1,-2,6.925
1386,-1,-2,-2,2,0,-3,0,0,6.93
1387,-1,-1,-2,-2,-5,-1,1,1,6.9350000000000005
1388,-1,-1,-1,-3,0,-1,-1,-1,6.94
1389,-2,0,0,-1,0,-1,-1,-2,6.945
1390,-1,0,-2,1,2,-1,-2,1,6.95
1391,0,-1,0,-1,-4,-3,-1,-3,6.955
1392,-1,-2,0,-3,-1,-3,-2,-1,6.96
1393,-1,-1,-1,0,-3,-2,0,0,6.965
1394,-1,-2,-2,-1,0,1,1,1,6.97
1395,-2,0,0,-1,-2,-1,0,1,6.9750000000000005
1396,-1,0,0,-1,-2,-2,0,-2,6.98
1397,-1,0,0,2,1,0,1,-3,6.985
1398,0,0,-2,-1,6,5,-1,0,6.99
1399,0,-3,-1,0,-3,0,-1,-1,6.995
1400,0,0,0,-2,2,-1,-2,-2,7.0
1401,0,0,-1,-2,-6,-4,-2,-1,7.005
1402,-1,0,0,-1,-1,-2,-1,-2,7.01
1403,-1,-2,-1,-2,0,0,-1,-1,7.015000000000001
1404,-1,-2,0,1,0,1,0,-1,7.0200000000000005
1405,-1,-1,0,-1,-2,-3,-1,0,7.025
1406,-1,-3,-1,-2,0,-1,-1,-2,7.03
1407,1,0,-2,-1,-2,1,1,0,7.035
1408,-1,-1,0,1,-5,-3,-1,0,7.04
1409,-2,-2,0,-3,4,-1,-2,0,7.045
1410,-2,0,-6,0,-5,-3,-1,-2,7.05
1411,-1,0,-1,-1,-1,0,0,-1,7.055
1412,-1,1,-2,-2,1,-1,-1,-1,7.0600000000000005
1413,-1,-1,-3,0,0,2,-1,0,7.065
1414,-2,-3,1,-1,4,0,0,-1,7.07
1415,-1,-2,-4,-2,-5,-2,-1,-2,7.075
1416,0,-2,-2,1,0,1,-1,0,7.08
1417,-1,-1,1,0,-1,-1,-2,-1,7.085
1418,-2,0,1,-3,-3,0,-1,-1,7.09
1419,-1,-1,0,-1,-4,-1,-1,-1,7.095
1420,-1,-1,-1,0,6,4,1,-1,7.1000000000000005
1421,0,-1,-2,0,-3,-1,-1,-1,7.105
1422,1,-1,-1,0,0,1,-1,0,7.11
1423,-1,1,1,1,1,1,0,0,7.115
1424,-2,-1,0,-1,-4,-2,-1,-1,7.12
1425,-1,-1,-5,-3,2,0,-3,-2,7.125
1426,-1,0,4,-1,-3,-2,-1,-2,7.13
1427,-2,-2,-8,-1,5,0,-2,-1,7.135
1428,-2,-1,1,-1,-6,-1,0,-1,7.140000000000001
1429,-1,-1,0,-1,3,2,0,0,7.1450000000000005
1430,-1,-1,-2,1,-5,-3,0,-1,7.15
1431,0,-2,-3,-4,2,-1,-2,-1,7.155
1432,-1,0,2,-1,-2,-2,-1,0,7.16
1433,0,-1,3,-1,-7,-2,0,-2,7.165
1434,-1,0,-4,0,9,4,-1,-1,7.17
1435,-1,-1,2,1,-7,-2,-1,-2,7.175
1436,0,-2,-5,-2,4,-2,-2,-1,7.18
1437,0,0,0,-1,1,2,-1,-1,7.1850000000000005
1438,1,0,3,1,-5,0,0,0,7.19
1439,0,-1,-6,0,1,-2,-1,0,7.195
1440,-1,-2,3,-1,-4,-2,-1,-1,7.2
1441,-2,-1,2,0,0,-2,-2,-2,7.205
1442,0,-2,-2,-2,-4,0,-1,0,7.21
1443,-1,-1,2,0,5,0,1,-1,7.215
1444,-2,0,-3,-1,-3,-2,-1,-1,7.22
1445,0,-1,1,2,2,1,1,1,7.2250000000000005
1446,-2,-1,0,-2,-3,-4,0,0,7.23
1447,-1,-1,0,-1,3,-1,-1,0,7.235
1448,0,-1,0,1,1,2,0,-1,7.24
1449,-1,-1,-2,0,0,0,0,1,7.245
1450,-1,0,-3,-1,-5,-2,-2,-1,7.25
1451,0,0,0,1,5,-1,0,-2,7.255
1452,0,-1,-4,-3,4,-2,-1,-1,7.26
1453,0,1,2,3,-1,2,0,0,7.265000000000001
1454,-1,-3,-4,-5,-3,-2,-1,-2,7.2700000000000005
1455,-1,0,8,2,-2,1,-1,0,7.275
1456,-1,0,-11,2,0,1,-1,-1,7.28
1457,-1,-1,0,-1,1,-5,-1,-1,7.285
1458,0,1,7,5,3,2,2,0,7.29
1459,0,-5,-2,-6,-8,-2,-2,-2,7.295
1460,0,-3,-11,-3,2,-2,-1,-2,7.3
1461,0,3,0,1,2,0,0,1,7.305
1462,2,0,0,-2,-12,-1,-2,1,7.3100000000000005
1463,-1,-1,19,6,0,-2,0,-1,7.315
1464,1,13,-11,1,-3,-4,-2,0,7.32
1465,2,-3,8,1,-7,2,1,-1,7.325
1466,0,6,-14,-11,0,0,-2,-2,7.33
1467,2,4,-14,-9,-5,2,-1,1,7.335
1468,-4,-12,-11,-1,2,1,1,0,7.34
1469,-2,-3,0,0,3,-1,-1,-1,7.345
1470,1,9,-9,-6,-7,-3,-3,-1,7.3500000000000005
1471,0,-31,26,16,16,8,7,5,7.355
1472,0,7,18,0,-6,0,-1,-1,7.36
1473,-2,0,-7,1,-1,5,0,-1,7.365
1474,4,4,6,-11,-15,-5,-1,0,7.37
1475,1,11,7,5,14,5,-1,-1,7.375
1476,1,10,-3,11,2,-2,-2,-2,7.38
1477,-2,-19,26,10,-1,-5,-1,1,7.385
1478,-5,13,-72,-16,-5,-7,-3,-4,7.390000000000001
1479,0,-6,-37,-9,-3,4,-3,-3,7.3950000000000005
1480,1,-44,20,-11,-11,-4,3,3,7.4
1481,-1,4,-52,-5,15,11,2,0,7.405
1482,-12,-25,11,9,17,1,-1,-3,7.41
1483,10,8,-23,-10,-26,-14,-1,0,7.415
1484,-15,-12,1,-5,8,7,-4,-5,7.42
1485,2,43,-1,-25,-14,-17,-5,-4,7.425
1486,7,-37,36,38,50,25,5,3,7.43
1487,-19,15,-8,13,-7,6,2,-2,7.4350000000000005
1488,13,21,35,-20,-15,-4,2,4,7.44
1489,1,-20,11,8,-11,-4,-2,2,7.445
1490,2,-36,-14,-16,-17,-12,-1,-1,7.45
1491,-13,1,8,-21,8,-12,-8,-9,7.455
1492,5,53,17,-2,36,20,4,2,7.46
1493,16,-15,-2,3,-32,1,5,9,7.465
1494,-9,18,67,24,-33,-12,-8,-9,7.47
1495,5,-2,13,1,65,25,9,8,7.4750000000000005
1496,-2,-47,4,-10,-11,-8,3,-3,7.48
1497,-11,48,-32,-28,-63,-6,2,13,7.485
1498,-6,-10,-12,3,74,-5,-13,-15,7.49
1499,-24,-48,12,-1,-20,-7,-3,-3,7.495
1500,63,58,-17,20,8,-11,-4,2,7.5
1501,-72,-8,54,31,20,-5,-2,-5,7.505
1502,39,-5,-14,-4,-27,43,26,22,7.51
1503,-12,-3,-7,-19,-19,-24,-14,-18,7.515000000000001
1504,-25,32,23,45,49,8,-5,-19,7.5200000000000005
1505,43,-10,-72,-27,-1,-35,-9,3,7.525
1506,-23,34,59,-16,-27,-4,2,-1,7.53
1507,55,61,-54,-20,-27,-1,1,8,7.535
1508,-80,-40,50,38,65,81,19,1,7.54
1509,102,46,30,-6,-22,1,4,27,7.545
1510,-98,-39,-52,38,-9,-20,-5,-25,7.55
1511,66,24,-10,-14,2,17,6,-7,7.555
1512,-3,19,18,-14,-44,-54,-18,-8,7.5600000000000005
1513,-7,-72,-41,7,22,47,14,11,7.565
1514,42,4,-27,-36,8,-25,-8,24,7.57
1515,15,36,75,9,-19,10,6,6,7.575
1516,6,6,-13,37,-22,-36,-12,2,7.58
1517,-46,-44,46,12,25,21,14,24,7.585
1518,12,56,-17,-12,-51,-41,-26,-36,7.59
1519,-36,44,-11,-19,-61,-20,-18,-34,7.595
1520,59,-74,-32,-12,5,15,20,28,7.6000000000000005
1521,-51,68,13,10,18,0,-10,-27,7.605
1522,-10,-89,-36,8,18,-12,-4,-21,7.61
1523,-17,-51,-18,-24,-59,-5,10,35,7.615
1524,22,-15,-5,-17,-43,-21,-14,-7,7.62
1525,9,-9,32,-16,-21,7,10,19,7.625
1526,3,21,11,29,19,7,5,-7,7.63
1527,21,20,-27,-58,9,-13,-17,-2,7.635
1528,-22,-8,-1,26,-3,-6,4,35,7.640000000000001
1529,-45,-36,-61,-27,2,3,-8,-48,7.6450000000000005
1530,28,20,-39,-18,-84,-46,-20,-12,7.65
1531,-29,-31,48,31,51,1,3,-5,7.655
1532,-2,19,-26,-38,26,9,5,12,7.66
1533,92,44,13,-7,-10,-1,2,24,7.665
1534,36,21,61,32,60,37,19,27,7.67
1535,-24,-5,-13,27,46,25,4,-4,7.675
1536,-75,-26,-89,-57,-32,-31,-26,-59,7.68
1537,31,-49,-25,9,37,-20,-10,-9,7.6850000000000005
1538,-26,5,-15,-10,42,18,13,16,7.69
1539,16,10,41,18,-5,-6,-2,7,7.695
1540,6,79,10,14,17,39,12,11,7.7
1541,72,39,-7,-43,-11,-13,-6,19,7.705
1542,-111,-24,16,9,-60,-6,-2,-9,7.71
1543,19,69,-25,30,44,-8,-2,-23,7.715
1544,14,-42,-14,-18,-54,5,3,-10,7.72
1545,-27,1,31,24,68,18,-7,-28,7.7250000000000005
1546,48,27,4,-25,-55,-14,1,20,7.73
1547,-47,-42,-26,12,47,-8,-9,-13,7.735
1548,24,12,-55,-43,-81,-44,-11,-6,7.74
1549,9,-8,-18,16,-9,-3,6,11,7.745
1550,0,71,-31,-10,27,32,9,-10,7.75
1551,4,-36,2,0,-24,-14,-1,14,7.755
1552,79,-14,46,34,-27,-30,-2,19,7.76
1553,-78,62,-5,-26,-61,6,6,-4,7.765000000000001
1554,0,-36,39,9,19,21,3,-38,7.7700000000000005
1555,3,3,40,18,43,39,8,1,7.775
1556,-36,-18,-49,6,-2,-22,-13,-34,7.78
1557,84,16,40,-3,-15,-9,4,37,7.785
1558,-19,8,55,25,-46,-28,-5,13,7.79
1559,39,34,-37,-27,-75,16,8,8,7.795
1560,-68,-89,-35,-3,27,22,1,-23,7.8
1561,-2,-63,27,29,4,-6,-8,-20,7.805000000000001
1562,4,38,12,-16,-2,8,9,29,7.8100000000000005
1563,26,-4,-1,12,-25,-26,-15,-3,7.815
1564,-22,67,47,9,43,9,10,25,7.82
1565,-16,19,-6,-59,-112,-34,-16,-23,7.825
1566,3,-62,24,12,26,21,0,-2,7.83
1567,-2,-23,-7,22,6,-11,-2,-4,7.835
1568,21,50,69,18,6,3,-1,9,7.84
1569,-28,17,7,7,-48,-4,9,-2,7.845
1570,-19,11,-63,-36,40,8,-16,-34,7.8500000000000005
1571,-46,-38,29,-1,-22,26,5,16,7.855
1572,55,26,75,30,99,18,-5,-11,7.86
1573,-11,-12,50,33,-36,-9,-6,-2,7.865
1574,52,20,71,11,43,17,10,21,7.87
1575,-74,-20,-44,2,-29,-29,-3,-18,7.875
1576,60,-70,-19,-32,-47,34,9,12,7.88
1577,-35,79,-18,20,52,2,-5,-12,7.885
1578,26,-6,0,15,-9,-7,-1,9,7.890000000000001
1579,4,-14,20,14,52,-1,8,13,7.8950000000000005
1580,-28,-22,20,-21,-77,-19,-4,-5,7.9
1581,-41,4,-56,24,45,14,-13,-30,7.905
1582,24,-52,-57,-4,-53,-10,-7,-10,7.91
1583,-10,18,42,-7,-34,-20,5,25,7.915
1584,-34,-100,-49,-19,-30,-11,-12,-39,7.92
1585,89,94,98,12,77,43,23,30,7.925
1586,-76,-70,-61,-15,-60,-34,-23,-29,7.930000000000001
1587,84,-36,-3,-12,-14,48,28,47,7.9350000000000005
1588,-29,123,-6,1,8,-32,-12,-5,7.94
1589,-53,-115,58,0,-31,-10,-13,-38,7.945
1590,40,92,69,3,5,33,18,33,7.95
1591,43,-18,14,1,-55,-35,-7,20,7.955
1592,-35,66,-1,14,53,16,11,-10,7.96
1593,-1,-70,-72,-25,-90,-34,-11,-16,7.965
1594,45,-35,-26,-25,-21,2,7,16,7.97
1595,-18,28,16,-16,9,-23,-14,-18,7.9750000000000005
1596,34,-28,-10,-29,-7,18,7,18,7.98
1597,-69,-51,-12,27,68,17,-5,-14,7.985
1598,69,-36,-20,-20,-59,-13,5,31,7.99
1599,-102,57,-41,1,40,22,-2,-41,7.995
1600,37,26,4,0,-23,-7,-5,7,8.0
1601,38,-7,28,-1,27,-1,6,43,8.005
1602,-37,-40,11,-18,-24,-45,-22,-10,8.01
1603,37,-13,-28,55,17,30,6,-20,8.015
1604,-14,51,27,10,28,7,9,12,8.02
1605,13,-41,-23,-3,78,15,4,5,8.025
1606,15,57,69,10,48,-28,-7,-1,8.03
1607,63,0,-16,-28,-20,1,0,16,8.035
1608,-1,26,35,52,25,18,14,6,8.040000000000001
1609,2,44,46,5,31,15,13,25,8.045
1610,-28,51,-63,-11,84,53,6,-29,8.05
1611,-44,-24,-61,-44,-24,-52,-32,-55,8.055
1612,-2,-49,-38,-31,-48,-26,-19,-13,8.06
1613,-5,-8,11,12,-39,2,9,24,8.065
1614,-27,20,58,-10,-6,-31,-14,-24,8.07
1615,46,58,33,41,80,32,17,15,8.075
1616,-20,-52,-26,-7,-45,24,0,0,8.08
1617,-17,-50,-102,-22,-28,-31,-19,-42,8.085
1618,-9,14,-1,-4,-7,-7,-7,-13,8.09
1619,47,56,24,6,-111,-46,-5,26,8.095
1620,-33,-55,-3,29,66,64,20,11,8.1
1621,57,35,-17,-23,-40,-6,-1,13,8.105
1622,-18,-9,-18,25,-42,-26,-12,-23,8.11
1623,-41,-39,-33,12,21,34,-2,-18,8.115
1624,47,-1,-4,-19,-2,14,14,20,8.120000000000001
1625,-119,-42,-46,-24,-13,-24,-14,-25,8.125
1626,49,11,67,60,30,45,27,24,8.13
1627,30,-7,48,5,-17,-13,-4,-2,8.135
1628,72,20,-6,17,17,-16,-1,30,8.14
1629,-42,-7,-5,3,-1,21,13,-21,8.145
1630,64,-23,29,-24,-93,-22,1,26,8.15
1631,-52,-4,32,9,24,24,10,-12,8.155
1632,35,68,-3,-32,-32,-33,-3,43,8.16
1633,-38,-1,12,50,41,46,-2,-50,8.165000000000001
1634,17,3,-37,-28,-6,8,0,10,8.17
1635,-66,-102,-36,1,-50,-24,-6,-8,8.175
1636,30,0,-36,-44,-84,-45,-17,-6,8.18
1637,23,14,-13,10,57,-10,-2,11,8.185
1638,-19,42,-8,16,21,39,12,-3,8.19
1639,22,58,71,18,97,36,9,2,8.195
1640,-27,23,11,89,34,47,10,-13,8.2
1641,18,-20,-19,-84,-65,-30,-14,-6,8.205
1642,23,9,-98,-8,35,2,-4,1,8.21
1643,20,13,0,-57,-39,-41,-14,7,8.215
1644,-39,37,-5,-5,74,18,-3,-31,8.22
1645,25,-7,19,-3,-68,-36,-18,-7,8.225
1646,-29,4,33,23,40,46,11,-4,8.23
1647,22,5,-19,-22,0,7,1,6,8.235
1648,-6,-3,22,-18,-11,0,-2,-12,8.24
1649,69,9,73,30,34,16,16,27,8.245000000000001
1650,-58,-51,-70,-25,11,-14,-3,-19,8.25
1651,-21,-19,4,26,25,9,-6,-9,8.255
1652,-20,-36,-18,-18,10,8,2,-5,8.26
1653,28,60,-21,3,-26,-21,-5,-6,8.265
1654,17,27,43,2,15,17,5,23,8.27
1655,3,-42,-18,-20,0,-10,-2,5,8.275
1656,-9,28,16,-3,-13,-26,-6,11,8.28
1657,-30,-36,-37,3,15,6,-6,-42,8.285
1658,-14,7,-11,-13,-17,-27,-9,4,8.290000000000001
1659,8,1,-23,12,35,0,0,19,8.295
1660,7,-18,20,-5,-27,-17,3,6,8.3
1661,-8,34,19,15,8,4,3,3,8.305
1662,-9,-49,-33,-8,2,-7,-4,0,8.31
1663,4,8,-28,-19,-32,-16,-4,-7,8.315
1664,-10,-16,3,2,-5,-7,-6,-13,8.32
1665,9,6,23,7,23,9,5,16,8.325
1666,4,3,-1,-8,-10,-6,-3,-5,8.33
1667,1,4,10,2,-24,-4,-2,0,8.335
1668,-16,-17,-29,-7,-6,-9,-5,-15,8.34
1669,8,8,-5,2,0,10,7,14,8.345
1670,-2,-13,14,4,1,-8,-2,6,8.35
1671,-13,1,-3,-5,1,6,0,-11,8.355
1672,-4,-2,30,7,6,-1,-1,0,8.36
1673,8,0,-3,1,2,-3,2,9,8.365
1674,-2,1,1,-3,3,1,-1,-3,8.370000000000001
1675,2,8,22,3,-7,0,1,-2,8.375
1676,3,-9,17,-4,-10,-10,-4,-4,8.38
1677,4,-2,9,-3,-8,-5,-3,5,8.385
1678,-7,-4,27,3,4,1,-1,-2,8.39
1679,-1,-2,32,-7,-12,2,-1,2,8.395
1680,-2,-5,42,2,-2,-6,-4,2,8.4
1681,-4,-2,41,-1,6,0,-2,5,8.405
1682,1,0,95,2,-2,-1,-3,14,8.41
1683,2,1,54,-1,-10,-5,-4,6,8.415000000000001
1684,-2,-9,29,1,0,-1,-4,-4,8.42
1685,0,-3,-31,-2,2,0,-5,-4,8.425
1686,1,-1,-35,-1,-3,-5,-1,-12,8.43
1687,-1,-1,-28,1,-7,-4,0,-8,8.435
1688,-5,-5,-44,-2,-2,-2,-4,-9,8.44
1689,3,1,51,0,-3,2,2,-2,8.445
1690,0,3,14,3,0,-3,-1,-3,8.45
1691,-4,2,-37,-3,0,1,1,-6,8.455
1692,0,-5,-59,1,3,-1,0,-3,8.46
1693,2,3,-54,-2,1,0,3,3,8.465
1694,-2,-1,-32,-2,-2,-2,-1,-1,8.47
1695,1,2,30,-1,-3,1,1,-1,8.475
1696,0,0,-5,0,6,1,0,-1,8.48
1697,0,1,-41,-1,0,-1,2,2,8.485
1698,-1,-2,-63,-5,9,1,0,0,8.49
1699,0,-1,-84,-3,-5,0,2,-1,8.495000000000001
1700,-1,-3,-49,2,-6,-3,0,1,8.5
1701,0,0,-36,-2,2,1,1,1,8.505
1702,1,2,-5,5,4,2,2,0,8.51
1703,0,2,-21,-5,-1,0,0,-1,8.515
1704,0,-2,-10,1,0,0,0,0,8.52
1705,-1,2,2,0,-1,0,0,1,8.525
1706,0,1,-2,-3,-8,-5,0,-1,8.53
1707,-1,-1,38,3,-1,-2,-1,-1,8.535
1708,-2,-3,21,-2,-1,0,0,-1,8.540000000000001
1709,0,-2,13,-1,0,1,0,0,8.545
1710,-1,-1,12,1,-2,-3,-1,0,8.55
1711,0,0,7,1,-1,-2,0,-1,8.555
1712,0,-3,4,-3,-2,1,0,-1,8.56
1713,0,1,-4,-4,-1,-2,0,0,8.565
1714,-1,0,5,1,0,-1,0,-2,8.57
1715,-1,-1,3,1,0,1,0,-1,8.575000000000001
1716,-1,-1,11,-2,-3,-3,0,-2,8.58
1717,0,0,-1,1,2,1,1,0,8.585
1718,-1,0,3,0,-5,-1,-3,-1,8.59
1719,-1,-1,-9,0,-3,1,0,-1,8.595
1720,0,0,5,4,2,0,0,0,8.6
1721,-1,0,-1,-5,0,-1,-1,0,8.605
1722,-2,-1,-2,1,2,-1,0,-1,8.61
1723,0,-2,-2,-1,-6,-3,-2,0,8.615
1724,-1,-2,7,-3,-2,-2,0,0,8.620000000000001
1725,-2,-1,7,-1,-9,-3,0,-2,8.625
1726,0,-1,2,0,0,-1,0,-1,8.63
1727,-1,-2,-1,-1,-5,-1,-1,0,8.635
1728,0,-1,-3,-3,10,2,-1,-1,8.64
1729,0,0,-12,-1,0,-2,-4,-1,8.645
1730,-2,0,-5,-1,2,1,-1,-2,8.65
1731,-1,1,0,-1,-2,-3,-1,-2,8.655
1732,-1,-2,-3,-2,-3,-2,-2,-1,8.66
1733,1,0,1,2,0,0,-1,1,8.665000000000001
1734,0,0,0,-2,-4,-1,-1,-1,8.67
1735,-2,-1,-1,3,9,1,1,-1,8.675
1736,0,1,-2,-2,-7,-3,-2,0,8.68
1737,0,-1,1,0,8,2,1,0,8.685
1738,1,-1,-6,1,-8,-3,-2,-1,8.69
1739,-2,0,-3,-3,0,-3,-2,0,8.695
1740,0,0,2,-1,-2,-1,-2,-1,8.700000000000001
1741,-1,-1,3,-1,1,-2,0,0,8.705
1742,-1,-2,1,-1,-7,1,-1,-1,8.71
1743,0,0,2,-3,6,0,-1,-1,8.715
1744,-1,-2,2,0,-10,-4,-1,-2,8.72
1745,-1,-2,3,1,11,4,1,0,8.725
1746,0,-1,7,2,3,-1,-2,-1,8.73
1747,1,-1,6,-2,0,0,-1,1,8.735
1748,-1,-1,9,0,-5,0,-1,-2,8.74
1749,-1,-2,-4,-5,-2,0,-1,0,8.745000000000001
1750,0,-2,-2,1,-1,-3,1,-2,8.75
1751,-2,-1,-3,2,-2,0,-1,-2,8.755
1752,1,-1,-4,-1,7,1,-1,0,8.76
1753,-1,-1,1,2,-7,-2,-2,0,8.765
1754,-2,-1,-8,-2,1,-3,-1,0,8.77
1755,-1,0,-2,-3,-3,-1,-1,-1,8.775
1756,-1,-2,-3,0,-2,1,1,-2,8.78
1757,0,1,-4,-1,-5,-3,0,-2,8.785
1758,-1,-2,0,-2,-1,0,0,0,8.790000000000001
1759,0,0,0,2,-1,1,-1,0,8.795
1760,-1,1,-7,-1,1,-1,-1,1,8.8
1761,1,-1,-1,1,0,-1,-2,-2,8.805
1762,-1,1,0,-1,-2,0,-2,-2,8.81
1763,1,-1,-3,-1,-1,-1,0,-1,8.815
1764,-2,-1,2,0,-3,0,0,-1,8.82
1765,-1,-1,-2,-1,-6,-2,-1,0,8.825000000000001
1766,-3,-1,5,0,6,0,-1,0,8.83
1767,-1,-3,-13,-1,0,-1,0,0,8.835
1768,0,-1,2,-1,-9,-7,-3,-2,8.84
1769,0,-1,-2,-2,3,1,1,0,8.845
1770,0,0,2,0,-4,-1,0,-1,8.85
1771,-1,1,0,-1,-2,-2,-2,1,8.855
1772,-1,-1,-3,2,2,-1,1,0,8.86
1773,-2,0,-1,-2,-3,-2,-2,-2,8.865
1774,0,-1,0,-2,1,-2,1,0,8.870000000000001
1775,-2,0,3,3,1,0,-1,0,8.875
1776,-1,0,1,-5,-4,1,0,-1,8.88
1777,-2,0,1,0,-3,-2,0,-1,8.885
1778,-2,-2,1,-1,-5,-1,-2,-1,8.89
1779,-2,-2,0,0,1,1,-1,-1,8.895
1780,0,0,1,0,-1,-2,0,-1,8.9
1781,0,-1,2,0,1,1,0,-1,8.905
1782,-2,-1,-4,-1,-4,-2,-2,-2,8.91
1783,-1,-1,2,0,-3,-2,-1,-2,8.915000000000001
1784,-2,-2,-11,-4,-8,0,-1,0,8.92
1785,-2,0,0,0,6,0,-2,-1,8.925
1786,0,-1,1,-1,-2,-1,1,0,8.93
1787,-1,0,-1,-1,4,1,-1,0,8.935
1788,-1,0,3,-1,-2,-1,0,1,8.94
1789,0,-2,-3,-1,-6,-2,0,-1,8.945
1790,0,-2,-2,-2,-1,-1,-2,-2,8.950000000000001
1791,-1,-2,2,-4,0,0,0,-3,8.955
1792,-2,-1,1,-1,0,-1,1,-1,8.96
1793,-2,-2,-3,0,-3,-3,-1,-1,8.965
1794,0,0,5,0,3,3,1,-1,8.97
1795,1,-1,0,0,-1,-1,0,-1,8.975
1796,-1,0,1,1,1,0,0,-1,8.98
1797,-2,-1,-1,0,-2,0,-2,-1,8.985
1798,-1,1,-3,-1,-4,-2,0,0,8.99
1799,1,1,0,-1,-1,0,-1,0,8.995000000000001
1800,-1,-1,0,0,0,-2,-1,0,9.0
1801,-2,-2,1,-1,0,-1,0,-2,9.005
1802,-1,-1,-1,1,-2,0,-2,-1,9.01
1803,-1,-2,0,-2,-2,0,-2,-1,9.015
1804,0,-1,-2,-1,2,0,-1,0,9.02
1805,-1,-2,1,-1,-3,-3,-1,0,9.025
1806,-1,0,1,1,1,1,-1,-1,9.03
1807,0,0,-2,-4,0,-2,-1,-1,9.035
1808,0,0,1,-2,-3,-2,0,-1,9.040000000000001
1809,-2,0,0,-2,0,0,-1,1,9.045
1810,0,-2,-2,-1,2,1,0,0,9.05
1811,-1,-1,1,1,1,0,-1,0,9.055
1812,-1,-1,-1,-1,-1,-1,0,-2,9.06
1813,-1,0,3,0,-3,-1,-1,-2,9.065
1814,-1,0,-4,-2,0,-2,-2,-1,9.07
1815,-1,0,-2,2,2,0,-1,0,9.075000000000001
1816,-1,-1,0,0,3,-2,-2,-3,9.08
1817,-1,0,0,-2,-8,2,1,0,9.085
1818,-2,-1,0,-1,-2,0,-1,-1,9.09
1819,-2,-1,1,-1,-2,0,1,-1,9.095
1820,-1,0,-1,0,2,-1,-1,-1,9.1
1821,1,0,-3,0,5,1,-2,-1,9.105
1822,-1,1,-1,-2,-2,-3,-2,0,9.11
1823,0,-2,-1,-2,-5,-3,0,-1,9.115
1824,-2,-2,1,3,3,-2,-1,-1,9.120000000000001
1825,-1,-1,-1,-1,-5,-1,0,0,9.125
1826,1,0,-3,-1,0,0,1,-2,9.13
1827,-1,-1,-2,-1,1,-2,-1,-1,9.135
1828,-1,-1,0,0,2,-1,0,-1,9.14
1829,-1,0,-1,-2,0,2,0,-1,9.145
1830,-1,-1,2,3,-5,-4,0,0,9.15
1831,0,-1,-6,-2,4,1,-1,0,9.155
1832,0,-1,0,-3,1,1,-1,0,9.16
1833,-2,-1,-1,-2,-3,-3,0,0,9.165000000000001
1834,0,-1,0,-3,2,-1,-1,-2,9.17
1835,-1,-2,0,-1,-1,-3,0,0,9.175
1836,-1,0,-1,-1,-4,-1,0,-2,9.18
1837,0,-1,1,1,4,0,0,0,9.185
1838,0,-2,-3,-4,-7,-3,-3,-1,9.19
1839,0,0,-2,-1,4,0,-2,-1,9.195
1840,1,-1,0,0,0,1,0,0,9.200000000000001
1841,-1,-1,-1,-1,0,0,-1,-3,9.205
1842,-2,-1,0,0,-2,0,0,0,9.21
1843,-1,-1,0,-2,-3,-1,-1,-1,9.215
1844,-2,-1,-3,0,2,2,-2,-1,9.22
1845,-2,0,-2,-1,0,-1,-1,-1,9.225
1846,-1,-1,2,2,5,1,-2,-1,9.23
1847,-2,-1,-1,-2,-6,1,-1,1,9.235
1848,-2,-1,1,-2,-5,-4,-3,-1,9.24
1849,0,-2,-4,1,-4,1,0,0,9.245000000000001
1850,-3,0,1,3,17,6,0,1,9.25
1851,-1,0,-3,2,-8,-2,-1,1,9.255
1852,-2,-2,-2,-2,-2,-2,0,0,9.26
1853,0,-2,-2,-3,3,-1,-1,0,9.265
1854,-1,-1,-3,-1,-4,-4,-1,-2,9.27
1855,-1,-1,2,-1,-4,1,-2,-2,9.275
1856,-1,-2,-4,2,3,1,1,0,9.28
1857,-1,0,2,0,-1,-1,-2,-1,9.285
1858,0,-1,-1,0,-1,-2,-1,-1,9.290000000000001
1859,0,0,-1,-3,0,-1,0,-1,9.295
1860,-1,0,1,-1,-1,0,0,-1,9.3
1861,1,0,0,-2,-5,-2,-1,-2,9.305
1862,0,0,0,-2,-3,-1,-3,-2,9.31
1863,-1,-2,-3,1,0,0,-1,0,9.315
1864,-1,0,-3,-2,-3,1,0,1,9.32
1865,-1,-1,-2,0,5,0,-2,0,9.325000000000001
1866,0,0,-1,-3,-6,-1,-1,-1,9.33
1867,-1,-2,0,-1,-3,-4,-1,0,9.335
1868,-1,0,2,2,2,0,-1,0,9.34
1869,0,-2,-1,4,7,3,1,-1,9.345
1870,-2,-4,0,-4,0,4,1,0,9.35
1871,0,-2,-1,-1,-4,-3,-1,0,9.355
1872,1,0,1,-2,2,-4,-1,-1,9.36
1873,0,1,0,-2,-4,-3,-1,-1,9.365
1874,-1,0,-3,1,-6,0,-1,-1,9.370000000000001
1875,0,2,2,-1,-2,-2,0,-1,9.375
1876,0,-2,-4,-2,-3,3,-1,0,9.38
1877,-1,-1,1,0,-1,-3,-1,-1,9.385
1878,0,-1,-2,-2,-3,-3,0,0,9.39
1879,-2,0,0,-2,-3,0,-1,-2,9.395
1880,0,-1,0,0,-4,-3,-1,-2,9.4
1881,-2,-1,3,-2,-1,0,0,-1,9.405
1882,-1,0,-4,-2,1,-1,1,-1,9.41
1883,0,-1,2,2,8,1,-1,0,9.415000000000001
1884,-1,-2,-2,-3,-1,1,1,-1,9.42
1885,-1,-1,-1,-1,-3,-3,-1,1,9.425
1886,1,0,1,1,0,0,-1,0,9.43
1887,0,1,-4,-1,-1,0,-2,-2,9.435
1888,-1,0,1,0,-3,-1,0,-1,9.44
1889,-3,0,-3,-1,2,-1,-1,-1,9.445
1890,-1,-3,-1,-3,-8,0,1,-1,9.450000000000001
1891,0,0,0,1,-3,-1,0,-3,9.455
1892,-1,1,0,0,0,-1,-1,-1,9.46
1893,0,-2,-2,-6,-2,-2,-1,-1,9.465
1894,-2,1,0,0,2,-3,-2,-1,9.47
1895,-1,-2,1,-1,2,0,1,-1,9.475
1896,1,-2,2,0,-2,0,-1,0,9.48
1897,-1,-2,-5,2,-12,-4,-3,-3,9.485
1898,1,0,4,-1,9,1,0,0,9.49
1899,-2,-2,-7,-2,3,-1,-1,0,9.495000000000001
1900,-1,-1,1,0,-1,-2,-1,-1,9.5
1901,1,-2,-1,-1,4,1,0,0,9.505
1902,-2,-1,0,-1,-6,-2,-1,-2,9.51
1903,-1,-1,1,0,-1,0,0,-2,9.515
1904,0,0,-2,-4,-7,-5,-1,-2,9.52
1905,0,1,-1,0,3,4,1,0,9.525
1906,-1,-2,-2,-3,-1,-4,-1,1,9.53
1907,-1,-2,-1,2,-5,-2,-2,-1,9.535
1908,0,0,-1,0,-2,-1,-2,0,9.540000000000001
1909,1,-1,0,-3,-1,-4,-1,-1,9.545
1910,-1,1,1,2,1,2,-1,-2,9.55
1911,-1,-1,-3,-3,-5,1,-2,-1,9.555
1912,-1,-1,2,2,7,1,-1,-3,9.56
1913,-1,1,-2,-2,-7,0,0,0,9.565
1914,0,-1,-3,1,1,-2,-2,0,9.57
1915,-2,-1,0,1,-1,-1,0,1,9.575000000000001
1916,0,-1,1,-1,-5,-1,-2,-3,9.58
1917,0,0,-1,1,6,1,0,-1,9.585
1918,-1,0,1,0,-4,-3,-2,-1,9.59
1919,0,-2,-3,-4,-2,-2,0,-1,9.595
1920,0,1,-1,0,-2,-1,-1,0,9.6
1921,0,-2,-2,-1,-6,-3,-2,-2,9.605
1922,-1,-1,0,-1,-2,0,-1,-2,9.61
1923,-1,1,3,-1,0,1,-1,-1,9.615
1924,0,0,-5,-2,-4,0,1,0,9.620000000000001
1925,-1,-2,0,1,8,0,-1,-1,9.625
1926,-1,-2,-2,-1,0,-2,-2,-2,9.63
1927,0,-2,-1,-1,2,1,-1,-1,9.635
1928,0,-1,-1,-3,0,1,-3,1,9.64
1929,-1,1,1,-1,1,1,-1,1,9.645
1930,1,0,-3,-2,-5,-2,-1,-2,9.65
1931,-1,-1,0,0,3,1,0,-1,9.655
1932,-1,-3,-1,0,-2,-3,-1,-2,9.66
1933,-2,-2,-3,0,-9,-1,1,0,9.665000000000001
1934,-1,-1,-2,0,2,2,1,1,9.67
1935,-1,-1,0,-2,-4,-3,0,0,9.675
1936,-2,-1,1,-1,-2,0,-2,-2,9.68
1937,-2,0,0,-2,2,-2,-1,-2,9.685
1938,-1,-1,-3,2,-2,-3,-2,-2,9.69
1939,0,-1,0,-3,1,-3,-1,-2,9.695
1940,0,0,-2,0,8,3,1,0,9.700000000000001
1941,0,0,-1,-2,-1,0,-2,0,9.705
1942,-1,-3,-1,-2,1,-1,0,1,9.71
1943,-1,0,1,1,-1,-2,-1,-1,9.715
1944,-1,-1,-1,-2,-7,-3,-1,-2,9.72
1945,-1,-2,-1,0,6,-1,0,-1,9.725
1946,0,-2,-2,-3,-2,2,-1,0,9.73
1947,-1,-3,-1,-1,-7,-3,-2,-2,9.735
1948,-1,-2,1,-1,9,2,-1,0,9.74
1949,-1,-3,-3,0,-4,-1,-2,-1,9.745000000000001
1950,0,-1,3,2,3,-2,1,-2,9.75
1951,-1,0,0,-2,-3,-2,-2,0,9.755
1952,-1,1,-3,3,9,1,1,-3,9.76
1953,0,0,0,-1,-5,-1,-1,0,9.765
1954,-1,0,-1,-1,2,-1,-1,-2,9.77
1955,1,0,0,-2,-2,-1,-1,-1,9.775
1956,-2,-2,-1,-2,-2,-2,0,-1,9.78
1957,0,1,1,2,4,-1,0,0,9.785
1958,0,-1,-2,-3,-12,-1,-1,-1,9.790000000000001
1959,-1,0,-1,2,6,4,1,-2,9.795
1960,-2,-1,-1,-3,-3,-3,-2,1,9.8
1961,0,-1,-5,0,-5,-3,-1,-2,9.805
1962,-1,-1,1,-1,2,1,-1,-1,9.81
1963,-2,-1,-2,1,4,-1,-1,0,9.815
1964,0,-1,-2,-1,-5,-1,-1,0,9.82
1965,-1,-1,0,0,-4,-3,-2,0,9.825000000000001
1966,0,0,-1,0,-5,-1,-1,0,9.83
1967,-3,-1,-1,-2,2,-1,0,-1,9.835
1968,0,0,0,-1,-3,-1,0,0,9.84
1969,0,1,0,-3,-5,-1,-2,-1,9.845
1970,0,-1,-2,-2,9,2,-1,1,9.85
1971,1,-1,-2,-2,0,1,0,0,9.855
1972,-1,0,1,1,-4,-3,0,0,9.86
1973,-1,0,0,-1,2,2,0,-1,9.865
1974,-2,-1,-2,1,0,-3,-1,-1,9.870000000000001
1975,0,0,-2,-3,-5,0,-1,-1,9.875
1976,-1,1,-3,2,9,1,0,-2,9.88
1977,0,-2,0,-1,-2,-3,0,0,9.885
1978,-1,0,1,-1,-2,-2,-3,0,9.89
1979,0,-1,-2,1,0,-3,-2,-1,9.895
1980,0,1,0,-2,1,-1,-1,0,9.9
1981,0,1,2,-1,0,0,-2,0,9.905
1982,0,0,-3,-1,-3,0,1,-1,9.91
1983,-1,-3,-3,0,-1,-2,-2,-2,9.915000000000001
1984,0,-2,-1,-3,-3,0,-1,-1,9.92
1985,0,-1,-1,-2,1,0,0,0,9.925
1986,-2,-1,0,1,9,-3,-2,0,9.93
1987,-1,-1,1,-1,-14,-2,0,-1,9.935
1988,-1,0,0,0,-1,0,0,0,9.94
1989,-1,-2,-1,-3,-3,-2,-2,-1,9.945
1990,0,-1,0,1,4,1,-1,-2,9.950000000000001
1991,-2,-1,1,1,1,-3,-1,0,9.955
1992,-1,-1,-1,1,-3,-1,-1,-1,9.96
1993,-2,-1,0,-1,-4,-1,1,-1,9.965
1994,0,0,-1,-3,2,-2,-1,-1,9.97
1995,-1,0,-2,3,-4,0,0,0,9.975
1996,-1,-1,-2,-5,5,0,0,1,9.98
1997,0,-1,-1,1,2,4,0,0,9.985
1998,-1,-1,0,-2,-5,-2,-1,-2,9.99
1999,-1,0,-1,-2,-5,-1,-1,-1,9.995000000000001
2000,-1,-2,-1,1,4,-1,0,-1,10.0
2001,-2,-1,-2,1,-1,-2,0,-3,10.005
2002,-1,-2,0,-2,-2,1,-1,0,10.01
2003,0,0,0,0,-4,-4,0,0,10.015
2004,0,-1,-1,-2,-3,0,-2,0,10.02
2005,1,-2,-2,-1,-1,-3,-2,-1,10.025
2006,-1,-1,1,3,0,-1,0,-1,10.03
2007,0,-2,0,-2,0,0,-1,-1,10.035
2008,0,1,1,1,0,2,-1,-2,10.040000000000001
2009,-1,-1,-1,-1,-1,0,-1,1,10.045
2010,0,-2,-1,-1,-4,-4,-1,0,10.05
2011,1,-1,-3,-1,3,3,0,2,10.055
2012,-1,-1,-1,-1,2,-1,-2,-1,10.06
2013,0,0,-1,1,0,0,1,1,10.065
2014,0,-1,-2,-2,-1,1,0,-1,10.07
2015,0,-1,-1,1,2,-1,-1,0,10.075000000000001
2016,0,-5,-1,-1,-6,-1,-2,-1,10.08
2017,1,-1,-2,-1,0,-1,-1,-3,10.085
2018,-1,-1,-1,-3,-3,-2,-1,-1,10.09
2019,1,1,-2,-2,1,0,0,-2,10.095
2020,0,-1,1,-2,-8,-3,0,-1,10.1
2021,-1,0,-1,0,1,-2,-1,1,10.105
2022,-3,0,0,0,-5,-2,-2,0,10.11
2023,-2,0,0,-2,1,-2,0,-1,10.115
2024,-2,0,-2,1,-2,-1,-1,0,10.120000000000001
2025,-1,0,3,1,4,2,0,1,10.125
2026,-1,1,-3,-1,-7,-2,0,-1,10.13
2027,0,-1,1,0,3,0,0,-1,10.135
2028,-1,-2,-1,-1,-4,0,-1,-2,10.14
2029,-1,-1,-3,-2,-3,-2,0,-1,10.145
2030,-1,1,2,-1,3,1,-2,-1,10.15
2031,-2,-3,-5,-3,0,-2,-3,-1,10.155
2032,-1,0,-1,-3,-4,-2,-2,-1,10.16
2033,0,-1,-2,0,9,1,-2,-1,10.165000000000001
2034,1,-1,1,2,-3,-3,-2,-2,10.17
2035,0,-1,-1,0,0,2,-1,0,10.175
2036,0,1,1,-1,-4,-5,-1,0,10.18
2037,-2,-1,-3,-1,-8,0,0,-3,10.185
2038,-1,-1,-1,0,8,2,1,0,10.19
2039,-2,0,0,1,0,0,-2,0,10.195
2040,-1,1,-2,0,-1,-1,0,0,10.200000000000001
2041,-2,-1,-1,-4,-8,-3,-1,-2,10.205
2042,0,0,-1,3,0,1,1,1,10.21
2043,0,-1,0,-2,4,0,-1,-1,10.215
2044,-2,-1,-1,0,0,0,-1,0,10.22
2045,-2,-1,-1,-1,7,2,-1,-1,10.225
2046,-1,-2,-1,-1,-4,1,-1,-1,10.23
2047,-2,-1,0,0,-2,-1,-1,-2,10.235
2048,0,-1,-1,-1,-4,-1,-1,-2,10.24
2049,-2,0,-1,-1,6,0,-1,-1,10.245000000000001
2050,-1,-1,-1,-2,-3,-2,0,-1,10.25
2051,-1,0,-3,-1,-3,-2,0,-1,10.255
2052,0,-2,0,2,-4,-2,-1,-4,10.26
2053,0,0,-2,-3,-3,0,0,1,10.265
2054,-3,-2,0,-1,3,0,-3,-3,10.27
2055,-1,-1,2,-1,1,-1,-1,0,10.275
2056,-1,-1,-1,-1,1,1,-1,-1,10.28
2057,-1,0,2,1,-6,-2,-2,-1,10.285
2058,-1,-2,-3,-3,-4,-3,0,-1,10.290000000000001
2059,0,0,-1,0,-2,-1,0,-1,10.295
2060,0,-2,-1,-1,5,1,0,1,10.3
2061,-2,-3,-1,0,-3,-2,-2,1,10.305
2062,-1,-2,-1,1,-2,-1,-1,-2,10.31
2063,-1,-2,-2,-3,-4,0,0,-3,10.315
2064,-1,0,1,-3,-1,-1,-1,0,10.32
2065,0,1,-1,-1,-1,-3,-1,-2,10.325000000000001
2066,-2,1,-1,1,-2,-4,-1,1,10.33
2067,-1,-2,-2,-2,3,0,-1,-1,10.335
2068,-1,0,-2,1,-4,-2,-1,-2,10.34
2069,-1,1,0,2,3,1,-1,-2,10.345
2070,0,-1,0,-1,-2,-1,-1,-2,10.35
2071,0,0,0,-1,-4,-2,-1,-1,10.355
2072,0,-2,-2,-2,1,0,1,-1,10.36
2073,-1,-2,-1,-3,-5,-3,0,-1,10.365
2074,0,-1,0,3,5,2,1,1,10.370000000000001
2075,-1,-1,-2,0,1,-2,0,-2,10.375
2076,-2,0,-1,-5,-7,0,-1,-1,10.38
2077,0,-1,0,1,-3,-1,0,1,10.385
2078,-1,-2,-3,-3,4,1,0,-1,10.39
2079,-1,-1,0,-1,-2,-2,-2,-1,10.395
2080,0,-1,-1,1,4,0,-1,3,10.4
2081,0,-2,1,-2,-5,-2,-3,-2,10.405
2082,0,0,-1,-2,0,-1,-2,0,10.41
2083,-2,0,0,2,7,3,0,0,10.415000000000001
2084,-1,-1,-1,0,-9,-2,0,0,10.42
2085,-1,-2,-2,-1,6,1,0,-1,10.425
2086,-1,-1,-2,-2,5,0,-2,-2,10.43
2087,0,0,-1,-3,-6,-3,-2,0,10.435
2088,0,1,-1,1,6,-1,1,-1,10.44
2089,0,0,0,1,-2,-1,-1,1,10.445
2090,-2,-1,-1,0,-2,0,0,0,10.450000000000001
2091,-2,0,-1,-2,-3,0,0,-2,10.455
2092,1,-2,-2,-1,0,0,-1,-2,10.46
2093,0,-1,-1,-1,-5,-4,-1,0,10.465
2094,-1,0,-1,2,-5,1,0,0,10.47
2095,1,0,-1,0,2,-1,0,0,10.475
2096,-2,-1,0,-1,0,-1,0,-1,10.48
2097,-1,-1,0,0,1,0,0,0,10.485
2098,-1,0,-3,-2,-2,-4,-2,-1,10.49
2099,0,-1,-2,0,-2,-1,0,1,10.495000000000001
2100,0,0,-1,-1,0,-1,-1,0,10.5
2101,-1,-2,-1,-5,0,0,-1,0,10.505
2102,-1,0,-1,-2,-5,1,0,-1,10.51
2103,-1,-1,0,1,-6,-3,-2,0,10.515
2104,-1,-1,-2,-2,6,1,-1,0,10.52
2105,-1,1,-2,2,1,0,0,-1,10.525
2106,0,-1,-2,-2,-3,-3,0,0,10.53
2107,-1,1,0,0,0,-1,0,-2,10.535
2108,0,-2,-3,0,-4,-3,-1,-2,10.540000000000001
2109,-1,0,1,-2,-4,-1,-1,-1,10.545
2110,-1,-1,1,-1,-2,-1,-1,-1,10.55
2111,-3,0,0,0,1,0,-2,1,10.555
2112,0,0,1,-1,-3,0,-1,0,10.56
2113,-1,-2,-3,-4,-1,-1,-1,0,10.565
2114,0,1,1,0,-4,-2,-1,-1,10.57
2115,-1,-2,-2,-1,-2,1,0,0,10.575000000000001
2116,-1,-2,0,-1,0,-2,-2,-1,10.58
2117,0,0,-2,-1,-3,0,1,-3,10.585
2118,0,-1,0,0,-3,-2,-1,-2,10.59
2119,-1,-2,-3,-3,7,3,0,-1,10.595
2120,-1,-2,0,-1,-1,0,-1,0,10.6
2121,-2,-2,2,2,-5,-1,-1,2,10.605
2122,0,-2,-2,-1,1,0,-2,1,10.61
2123,0,0,-2,0,2,1,-2,0,10.615
2124,0,-1,2,0,0,0,0,-1,10.620000000000001
2125,-1,1,-6,-2,-2,3,-1,-1,10.625
2126,0,-1,1,0,2,-1,-2,-1,10.63
2127,-1,-1,-2,-1,0,-1,0,-1,10.635
2128,1,0,1,0,-4,-1,-1,-1,10.64
2129,-1,-2,-3,1,-4,-2,-2,-1,10.645
2130,-1,-1,0,1,4,1,0,0,10.65
2131,1,0,-2,-1,-4,-2,-1,-2,10.655
2132,-2,1,-3,0,-4,0,-1,0,10.66
2133,1,-1,-3,-1,2,1,0,-1,10.665000000000001
2134,-1,0,-2,-2,-3,-2,-1,-1,10.67
2135,1,0,1,-1,0,-1,1,0,10.675
2136,0,0,-2,-1,2,0,0,0,10.68
2137,0,-1,1,0,0,0,0,0,10.685
2138,-1,-2,1,0,-2,1,0,-1,10.69
2139,-1,-2,-4,-1,1,-2,-1,-2,10.695
2140,-1,2,3,0,-2,1,0,0,10.700000000000001
2141,0,-1,-1,0,0,-3,0,0,10.705
2142,-1,-2,-2,-7,-10,-2,0,-1,10.71
2143,-1,-1,0,2,11,2,1,1,10.715
2144,0,-1,-2,0,2,-2,-2,-3,10.72
2145,-2,0,-1,-2,4,-3,-2,0,10.725
2146,-1,0,1,-1,-8,0,0,-1,10.73
2147,1,-1,1,1,-7,-3,-2,-2,10.735
2148,-1,-1,-1,-1,-2,-2,0,-1,10.74
2149,1,0,1,-1,3,0,1,-1,10.745000000000001
2150,0,0,1,-1,0,-3,-4,-1,10.75
2151,-1,-1,-4,-1,-6,-2,-2,-1,10.755
2152,-1,-1,-2,1,-1,2,-1,0,10.76
2153,-1,0,-2,-1,5,0,-1,-1,10.765
2154,-1,-1,-1,2,6,1,0,0,10.77
2155,-1,0,0,-1,-8,-2,-1,1,10.775
2156,-2,-1,-1,-2,5,-1,0,0,10.78
2157,2,-1,1,1,-7,-4,-1,-1,10.785
2158,-1,-2,-6,2,10,6,0,-1,10.790000000000001
2159,-1,-1,3,-4,-5,0,0,-1,10.795
2160,0,-2,1,-1,-3,-4,-1,-1,10.8
2161,-3,-1,2,1,0,-1,0,-1,10.805
2162,0,0,0,2,-1,-3,0,-2,10.81
2163,1,-3,-2,-2,-2,-1,-2,-1,10.815
2164,-1,0,-2,-1,2,0,0,-1,10.82
2165,-1,-2,0,-2,-3,0,-3,-1,10.825000000000001
2166,-1,0,0,1,3,0,-3,0,10.83
2167,-1,-2,-2,-1,-3,-2,-2,0,10.835
2168,0,0,0,-3,-3,0,1,-1,10.84
2169,-1,2,2,-1,4,0,-1,0,10.845
2170,0,-1,-4,0,-5,-3,1,0,10.85
2171,-1,1,1,-1,1,-1,-1,-1,10.855
2172,0,-3,0,1,2,-1,0,-1,10.86
2173,0,-1,-5,-1,-5,-1,-1,-1,10.865
2174,-1,-2,0,-3,-3,-1,-1,0,10.870000000000001
2175,-1,0,0,-1,-7,-3,-1,-1,10.875
2176,-1,0,-3,0,-2,-2,-2,-2,10.88
2177,-1,-1,1,-1,-2,0,0,-2,10.885
2178,-1,-1,-1,-2,-1,-1,-1,-1,10.89
2179,-1,-1,1,3,7,-1,0,-1,10.895
2180,-2,-1,-5,-4,-8,0,-1,0,10.9
2181,-2,0,3,0,-3,0,-1,-1,10.905
2182,-1,0,-3,-3,-4,-1,-1,0,10.91
2183,0,-3,2,-3,3,-2,0,-2,10.915000000000001
2184,-1,1,-3,1,0,-2,-2,0,10.92
2185,-1,0,-4,-2,0,-1,0,0,10.925
2186,1,-2,0,0,4,0,-1,0,10.93
2187,-1,0,0,-1,-3,2,1,-1,10.935
2188,0,0,-1,1,6,-1,-1,0,10.94
2189,0,-2,-1,-2,1,0,-2,0,10.945
2190,0,-2,0,3,2,-1,-1,-2,10.950000000000001
2191,-1,-1,-2,-1,-7,-1,-1,-1,10.955
2192,0,-1,-1,0,4,-1,1,-1,10.96
2193,-2,-1,2,0,-5,-3,0,-1,10.965
2194,-1,-2,-5,-2,1,-2,0,0,10.97
2195,-1,-2,0,-1,-5,2,-1,1,10.975
2196,-1,0,3,-1,2,-1,-1,0,10.98
2197,-1,-3,-5,-2,-2,-2,0,-1,10.985
2198,-1,0,1,0,-7,-1,0,-2,10.99
2199,-2,0,-4,0,3,-1,-2,0,10.995000000000001
2200,0,-1,-1,1,-6,1,-1,1,11.0
2201,1,-1,-1,1,0,-2,-2,0,11.005
2202,2,1,0,-2,0,-1,0,-1,11.01
2203,-1,0,-4,-1,-4,-3,0,-1,11.015
2204,0,-1,0,-1,6,1,0,-1,11.02
2205,0,-1,-2,-1,0,-1,1,-1,11.025
2206,-1,1,0,-2,-5,-1,-2,-2,11.03
2207,-1,-2,1,-2,0,2,0,-2,11.035
2208,1,-1,-1,1,-6,-3,-1,-1,11.040000000000001
2209,-1,0,-2,-4,2,1,2,-1,11.045
2210,-2,-1,1,-1,-1,-1,-1,-2,11.05
2211,-1,-1,-2,-2,1,0,-2,-2,11.055
2212,-2,-1,1,1,-2,1,-3,-3,11.06
2213,1,-2,-1,0,-1,-2,-2,1,11.065
2214,-2,0,-2,-1,-1,0,1,-1,11.07
2215,0,-1,-1,0,2,-2,0,-1,11.075000000000001
2216,-1,-2,-3,0,-3,0,0,-1,11.08
2217,-2,0,1,-1,-8,-1,-1,-2,11.085
2218,-1,-1,-1,0,16,5,-1,-2,11.09
2219,0,0,-1,-2,-8,-4,-1,0,11.095
2220,-1,1,0,0,-2,-2,-1,0,11.1
2221,0,0,1,-1,6,-1,-2,-1,11.105
2222,-1,-3,0,0,-3,-1,-2,-1,11.11
2223,-1,0,3,-2,1,1,-1,-2,11.115
2224,-1,-3,-5,-4,-1,0,-1,-2,11.120000000000001
2225,-1,0,0,-2,-4,-2,-1,-1,11.125
2226,0,-2,-2,-1,-5,-1,-2,0,11.13
2227,0,-1,-1,-1,4,0,0,-1,11.135
2228,-1,-1,1,-3,-9,-4,-2,0,11.14
2229,0,-3,-2,0,5,-1,-1,-1,11.145
2230,0,0,-1,0,0,-4,-1,1,11.15
2231,-1,0,-1,-2,-1,2,0,0,11.155
2232,-1,0,0,-1,-1,-1,-1,0,11.16
2233,-1,-2,-1,0,2,1,-1,0,11.165000000000001
2234,-2,-2,3,1,-3,-1,0,-2,11.17
2235,-1,-1,-1,1,-5,-3,0,0,11.175
2236,-2,-1,-2,2,17,0,0,-2,11.18
2237,0,-1,2,-1,-7,1,0,-1,11.185
2238,-2,0,-9,-4,-3,-2,0,0,11.19
2239,1,-2,1,2,0,-1,-2,-2,11.195
2240,0,0,-1,-4,-4,-2,-2,1,11.200000000000001
2241,0,-2,1,1,-6,-2,-3,-2,11.205
2242,-2,-1,-1,-1,3,2,0,-1,11.21
2243,-2,-2,-1,1,3,-1,0,-1,11.215
2244,-1,-1,-1,0,-3,-1,-1,-2,11.22
2245,-2,0,-1,-1,-3,-2,-1,0,11.225
2246,0,0,0,-3,-5,-2,-2,0,11.23
2247,0,-1,-1,-1,0,-1,-1,-1,11.235
2248,0,-2,1,0,1,-1,-2,-1,11.24
2249,1,0,-2,0,1,0,0,-1,11.245000000000001
2250,1,-1,4,0,-6,-3,-1,-1,11.25
2251,0,-3,-10,-2,-1,-1,-1,0,11.255
2252,-1,-2,-1,-2,-3,-1,0,-1,11.26
2253,-1,-1,-2,2,-3,0,0,0,11.265
2254,-1,-2,2,-3,2,-1,-2,0,11.27
2255,0,1,-1,1,-3,0,0,-1,11.275
2256,-1,-1,-2,-3,2,0,0,-1,11.28
2257,-2,-1,0,3,-4,-1,0,-1,11.285
2258,-1,-1,-2,0,-1,0,-2,-2,11.290000000000001
2259,-2,0,1,1,-2,-2,-2,0,11.295
2260,1,-1,-3,0,0,4,3,0,11.3
2261,0,-2,-1,-3,3,-2,0,-1,11.305
2262,-2,0,1,2,-3,-2,-1,-2,11.31
2263,-3,-3,-4,-1,2,1,-2,-2,11.315
2264,0,-1,1,0,-7,-3,-2,-1,11.32
2265,-1,0,-1,-2,3,2,-2,-1,11.325000000000001
2266,-2,-2,-2,-3,-1,-2,0,0,11.33
2267,-1,0,2,-2,-4,-3,-2,-1,11.335
2268,-2,-2,-3,-2,-7,-3,-1,-1,11.34
2269,0,-1,-2,-2,3,-1,-1,-1,11.345
2270,0,-1,-1,0,3,0,-1,0,11.35
2271,-2,0,1,-2,-6,2,-1,-1,11.355
2272,1,-3,-2,0,2,1,-1,-1,11.36
2273,-2,-1,0,0,1,-1,-2,0,11.365
2274,0,0,-6,-2,-2,0,0,0,11.370000000000001
2275,0,0,0,-2,3,-1,1,0,11.375
2276,-1,1,-1,-3,-1,-1,-2,-1,11.38
2277,0,0,-2,-2,-4,-2,-1,-3,11.385
2278,-1,0,-1,2,-3,3,-1,0,11.39
2279,-1,-2,-3,-2,5,0,-1,0,11.395
2280,-1,-1,0,1,-1,-2,-1,0,11.4
2281,0,-1,1,0,1,0,0,-2,11.405
2282,-1,-1,0,-2,-5,-2,0,-1,11.41
2283,0,0,-1,1,-15,-6,-1,0,11.415000000000001
2284,0,1,1,4,27,6,1,0,11.42
2285,-1,0,-2,-2,1,-1,-1,0,11.425
2286,-1,-3,-1,-2,-4,-1,-1,-1,11.43
2287,0,0,3,-2,4,0,-1,-1,11.435
2288,0,1,0,-3,-8,-3,-1,-1,11.44
2289,1,-2,2,2,-4,-2,-1,0,11.445
2290,0,2,0,-2,3,2,2,1,11.450000000000001
2291,0,1,-5,-5,2,-2,0,-1,11.455
2292,-2,-3,0,3,-9,3,1,-1,11.46
2293,-3,-17,0,6,1,2,1,1,11.465
2294,0,11,-1,-3,-4,-1,-2,-3,11.47
2295,0,2,4,2,5,1,-1,0,11.475
2296,0,0,-6,-5,-11,-2,0,0,11.48
2297,2,26,5,0,-1,-1,-2,-3,11.485
2298,-1,-2,-24,-8,-6,-7,-4,-3,11.49
2299,-3,5,-6,-2,-3,3,-1,-1,11.495000000000001
2300,-6,-21,-8,1,8,-4,-2,-2,11.5
2301,-7,-20,-10,-12,-4,0,-1,-1,11.505
2302,-2,1,10,14,9,-6,-4,-4,11.51
2303,6,20,23,11,-3,4,3,1,11.515
2304,-3,-17,-10,-15,-20,-5,-3,-2,11.52
2305,2,23,12,2,-4,-7,-3,0,11.525
2306,0,-1,-10,-2,-40,-19,-6,-3,11.53
2307,-7,-4,-1,-6,25,11,-1,0,11.535
2308,3,2,3,10,-6,-13,-1,0,11.540000000000001
2309,1,5,39,12,2,-3,1,0,11.545
2310,0,0,8,7,12,1,2,1,11.55
2311,-4,-19,7,-3,-30,-6,1,-2,11.555
2312,5,31,-17,-11,-7,-1,-1,1,11.56
2313,13,17,-14,14,42,2,-1,4,11.565
2314,-6,26,10,-23,0,14,4,1,11.57
2315,-3,-31,14,26,-15,-20,-9,-7,11.575000000000001
2316,-11,-8,16,8,44,29,9,0,11.58
2317,-2,4,-16,-25,-44,-20,-8,-3,11.585
2318,25,19,10,-5,52,36,12,11,11.59
2319,-15,-50,-53,-21,-11,-9,-6,-7,11.595
2320,4,40,39,31,8,-7,-2,-1,11.6
2321,-16,-30,-52,-22,-26,7,2,-4,11.605
2322,-1,29,17,10,10,-14,-4,-6,11.61
2323,-19,-21,-22,-10,-17,1,-8,-7,11.615
2324,7,-32,-43,-9,-46,-29,-12,-7,11.620000000000001
2325,-4,-13,71,8,-1,8,4,1,11.625
2326,12,0,-24,14,0,17,8,20,11.63
2327,31,21,53,-26,12,-17,-3,-5,11.635
2328,-14,-36,29,41,54,47,15,7,11.64
2329,13,81,5,8,5,-1,-3,-4,11.645
2330,6,-101,-20,-9,-27,-26,-9,-1,11.65
2331,-5,41,-8,-33,22,12,3,6,11.655
2332,10,22,-25,-7,-1,8,-1,-5,11.66
2333,19,0,23,28,9,-9,0,2,11.665000000000001
2334,-4,13,50,22,95,70,24,9,11.67
2335,-36,-18,-57,-17,4,-3,5,23,11.675
2336,19,37,1,-29,-13,-33,-12,-6,11.68
2337,6,-38,-72,-8,-11,2,1,2,11.685
2338,-4,-25,4,1,-18,19,2,0,11.69
2339,26,13,42,8,58,27,12,12,11.695
2340,-15,18,-10,-23,-69,-24,-9,-11,11.700000000000001
2341,14,-48,-45,3,83,25,4,-1,11.705
2342,-6,-35,-22,-4,-27,-25,-6,-4,11.71
2343,-9,3,27,17,-26,-23,-4,-7,11.715
2344,2,-27,-1,19,5,3,-1,-3,11.72
2345,15,8,-54,-24,-50,2,-2,5,11.725
2346,-57,-17,-51,-33,-16,-38,-15,-32,11.73
2347,22,-5,23,44,70,42,10,2,11.735
2348,30,24,20,-26,34,-5,-2,5,11.74
2349,-44,4,25,5,-39,-17,0,13,11.745000000000001
2350,23,7,-35,15,39,19,-2,0,11.75
2351,38,42,5,3,-93,-33,-13,-4,11.755
2352,-41,-12,-2,13,2,5,5,-1,11.76
2353,-24,-18,-16,-27,84,27,-2,-5,11.765
2354,10,1,0,-3,-58,-11,-6,-14,11.77
2355,-5,31,13,4,29,10,9,4,11.775
2356,23,-70,17,23,23,7,3,5,11.78
2357,-39,18,-25,-11,-53,-16,-5,-16,11.785
2358,11,-9,18,-10,-67,-20,-10,0,11.790000000000001
2359,67,62,-5,1,19,2,1,28,11.795
2360,-72,-24,-10,33,12,-36,-6,-23,11.8
2361,-40,-69,7,-13,-46,-17,-13,-25,11.805
2362,39,30,-34,-13,-39,-14,2,7,11.81
2363,-33,-42,-37,1,-2,0,-2,4,11.815
2364,2,7,28,-21,-34,-3,-3,-2,11.82
2365,50,42,31,14,-22,-6,8,16,11.825000000000001
2366,-43,-21,8,7,-23,-8,-4,-3,11.83
2367,0,-38,-70,-14,-38,-12,-14,-38,11.835
2368,11,56,10,-13,21,38,11,14,11.84
2369,-6,6,37,17,62,7,0,-8,11.845
2370,11,-59,-9,-14,2,9,18,38,11.85
2371,-33,42,50,19,16,31,14,3,11.855
2372,13,3,-36,5,28,11,-2,-4,11.86
2373,38,-3,-31,-9,68,37,7,7,11.865
2374,-53,-15,-13,5,-64,-39,-19,-11,11.870000000000001
2375,4,4,41,4,2,40,20,11,11.875
2376,70,58,-38,-17,0,9,10,24,11.88
2377,-20,-24,-17,0,-21,-24,-2,10,11.885
2378,-49,52,-49,6,19,-26,-18,-17,11.89
2379,-33,-41,26,-25,-26,-6,1,-14,11.895
2380,6,54,39,-21,4,-13,-1,1,11.9
2381,-8,-27,74,22,42,34,3,2,11.905
2382,13,15,-33,3,45,12,-3,-15,11.91
2383,73,-37,15,30,-24,-28,-5,-1,11.915000000000001
2384,-41,-48,-35,-6,16,17,5,-7,11.92
2385,17,-6,33,-23,-54,-13,-5,2,11.925
2386,-46,49,99,19,90,-5,-7,-8,11.93
2387,19,-53,-20,0,1,29,9,11,11.935
2388,57,8,-21,2,62,23,4,20,11.94
2389,-35,-61,-8,29,-41,-1,10,-4,11.945
2390,41,-21,16,-22,8,13,-8,-29,11.950000000000001
2391,-41,10,42,58,10,9,-3,-16,11.955
2392,-39,-24,24,-2,-15,-21,-10,-2,11.96
2393,48,58,32,-1,-9,-2,4,12,11.965
2394,10,-6,0,-18,-46,-23,7,12,11.97
2395,-24,26,20,-21,-19,-24,-10,15,11.975
2396,27,14,18,-4,-69,-1,-1,-20,11.98
2397,-36,-52,-85,-36,-24,-31,-15,-4,11.985
2398,-19,37,45,-8,-76,-15,0,-22,11.99
2399,48,39,-41,-15,17,-40,-15,13,11.995000000000001
2400,-50,-30,-13,26,6,19,17,0,12.0
2401,43,15,-48,-47,-61,-37,-19,-15,12.005
2402,20,32,42,24,89,30,16,31,12.01
2403,-79,-43,-36,6,-38,-36,-16,-34,12.015
2404,-4,-17,30,20,-40,-25,-9,1,12.02
2405,25,20,66,16,-32,10,10,15,12.025
2406,-27,-62,-113,-41,-23,-24,-15,-3,12.030000000000001
2407,41,107,-18,-17,39,-16,-7,1,12.035
2408,-56,12,-1,-7,15,-9,-13,-4,12.040000000000001
2409,-31,-30,-25,-6,-43,-42,-12,-28,12.045
2410,55,74,30,14,27,17,9,20,12.05
2411,-15,-47,7,-28,-81,-12,-2,-6,12.055
2412,40,57,-31,-5,30,37,-2,-17,12.06
2413,48,48,-23,13,21,4,6,17,12.065
2414,-61,-8,-2,18,51,40,16,6,12.07
2415,48,-14,-3,-1,33,-26,-12,7,12.075000000000001
2416,-13,8,33,-16,-25,14,4,-27,12.08
2417,-9,112,14,-19,49,-12,-14,10,12.085
2418,0,-109,-49,16,-1,21,5,-1,12.09
2419,-24,8,22,-25,-33,15,4,-25,12.095
2420,43,-8,10,23,63,6,4,41,12.1
2421,18,25,-7,22,25,18,12,28,12.105
2422,-33,-32,33,-7,-27,-9,-9,-46,12.11
2423,4,-24,-49,3,17,-2,-1,-16,12.115
2424,23,33,-28,-33,-59,-36,-9,-4,12.120000000000001
2425,-18,-68,10,7,-18,9,1,-10,12.125
2426,111,75,29,-6,-8,21,22,62,12.13
2427,-93,-54,-70,37,-8,21,0,2,12.135
2428,-17,-17,18,-7,-17,-16,-10,-21,12.14
2429,-20,-54,-17,8,-12,-17,4,9,12.145
2430,-26,49,13,-17,-82,-42,-22,-35,12.15
2431,15,-43,37,17,25,33,17,4,12.155000000000001
2432,-26,-13,-51,-10,-82,-36,-16,4,12.16
2433,52,46,12,-21,-13,7,-6,-4,12.165000000000001
2434,7,31,-27,37,45,43,17,19,12.17
2435,17,47,55,-12,46,-8,-5,-4,12.175
2436,-103,-33,-56,-21,-25,-18,-2,-15,12.18
2437,-12,19,-26,-17,-15,-10,-12,-50,12.185
2438,42,22,2,-8,-2,-40,-15,11,12.19
2439,50,-1,3,33,29,44,16,21,12.195
2440,-13,-78,16,15,85,56,16,3,12.200000000000001
2441,13,108,42,6,41,0,-7,15,12.205
2442,67,61,-65,-9,-4,-36,-4,3,12.21
2443,-51,-42,-16,-32,-63,1,-7,-5,12.215
2444,7,50,-37,-25,-87,-36,-15,-44,12.22
2445,-41,-41,-1,57,109,104,16,-27,12.225
2446,-8,-63,101,32,15,6,2,-1,12.23
2447,51,58,32,15,-28,-19,-4,27,12.235
2448,41,-5,-36,-18,-43,7,13,26,12.24
2449,-30,-23,27,25,-24,-27,-7,-16,12.245000000000001
2450,-22,-16,-14,-59,-90,3,-3,-13,12.25
2451,22,-25,-77,-9,-61,-34,-15,18,12.255
2452,-60,-6,95,0,17,16,1,-12,12.26
2453,36,-42,8,18,-84,-30,8,30,12.265
2454,-50,-54,50,32,33,17,-4,-42,12.27
2455,-79,47,12,-14,-48,-14,-1,-22,12.275
2456,88,50,4,7,25,15,-3,10,12.280000000000001
2457,-19,-73,2,-29,-41,-18,1,8,12.285
2458,46,22,40,29,2,18,12,34,12.290000000000001
2459,-77,-84,-28,-3,-18,-7,-5,-11,12.295
2460,47,-6,0,23,16,0,9,19,12.3
2461,-1,52,-15,-29,66,23,3,-17,12.305
2462,-19,16,23,18,16,13,-6,-21,12.31
2463,49,27,0,-54,-4,-24,0,14,12.315
2464,-4,-64,9,12,-46,-6,-5,13,12.32
2465,12,79,-7,-1,-13,-2,7,14,12.325000000000001
2466,-63,-75,0,-12,-31,-10,-6,-13,12.33
2467,23,-3,-41,22,78,45,13,-1,12.335
2468,22,21,24,11,1,-21,1,18,12.34
2469,26,-46,-48,-17,10,7,-8,-3,12.345
2470,-14,51,7,-15,-24,-26,-11,-14,12.35
2471,-25,44,32,4,-1,15,6,-2,12.355
2472,0,-25,31,12,2,-15,-6,-1,12.36
2473,-44,39,-21,10,7,17,-4,-30,12.365
2474,-25,17,-10,-15,7,0,2,1,12.370000000000001
2475,68,-49,-48,-11,-2,-1,-11,-17,12.375
2476,-8,49,30,-39,-122,-74,-14,-5,12.38
2477,16,-24,60,12,88,74,18,19,12.385
2478,-18,-59,-103,-41,-49,-19,-16,-15,12.39
2479,127,113,109,7,83,43,23,72,12.395
2480,-76,-82,-75,-3,80,27,-15,-74,12.4
2481,-128,13,-42,-2,8,-30,-20,-70,12.405000000000001
2482,74,-42,12,-7,-87,-37,-4,0,12.41
2483,-6,46,-11,15,33,0,-2,-3,12.415000000000001
2484,125,-2,-18,-28,-27,-12,9,69,12.42
2485,-68,21,51,1,-76,-22,-2,0,12.425
2486,45,75,10,19,65,19,-1,-16,12.43
2487,0,-59,-9,-12,-49,-32,-4,-13,12.435
2488,-53,-45,-11,4,34,11,0,11,12.44
2489,21,28,71,0,-82,-57,-24,-14,12.445
2490,50,-55,-56,-13,-35,23,17,33,12.450000000000001
2491,-104,0,-7,10,-23,20,-7,-27,12.455
2492,59,4,-33,9,-4,29,6,-10,12.46
2493,4,-86,-54,-36,42,3,6,19,12.465
2494,-8,23,-51,14,-13,-20,-7,14,12.47
2495,56,9,35,-21,25,-15,2,7,12.475
2496,-56,15,33,2,-29,13,-3,5,12.48
2497,37,31,-20,16,12,44,17,36,12.485
2498,49,8,34,15,29,16,10,5,12.49
2499,-55,-43,-9,-10,-21,-25,-16,-55,12.495000000000001
2500,54,48,-10,-17,-31,-23,-4,14,12.5
2501,0,45,8,10,-46,-19,-1,-2,12.505
2502,-17,17,13,40,90,39,8,12,12.51
2503,37,-6,-17,-17,-51,-38,-13,-5,12.515
2504,-60,31,33,0,69,21,4,-27,12.52
2505,52,-48,-35,22,27,10,7,39,12.525
2506,-81,-29,-18,-17,-35,-34,-25,-54,12.530000000000001
2507,9,41,14,18,-23,-5,12,29,12.535
2508,-5,-17,-2,37,68,55,21,22,12.540000000000001
2509,33,-20,-23,-49,29,23,3,5,12.545
2510,-19,9,-28,-1,30,-12,-8,-8,12.55
2511,-24,11,46,-26,-68,-12,-8,-23,12.555
2512,17,-14,13,41,79,33,9,8,12.56
2513,7,9,24,0,-8,-17,-1,2,12.565
2514,-9,8,48,16,15,3,6,23,12.57
2515,-7,-9,-37,-7,14,3,-6,-16,12.575000000000001
2516,-6,-27,-21,-3,-39,-21,-6,-2,12.58
2517,-9,-3,15,4,-14,-15,-7,-25,12.585
2518,-3,24,14,-10,2,5,2,2,12.59
2519,-25,-49,-8,12,-10,-5,-3,-21,12.595
2520,15,16,7,-20,-20,-17,-3,22,12.6
2521,-5,-23,-19,0,-8,-14,-5,-6,12.605
2522,22,7,23,-6,0,5,5,18,12.61
2523,-20,6,-3,14,28,13,6,2,12.615
2524,-9,3,-1,-4,-10,-12,-6,-17,12.620000000000001
2525,11,-1,23,11,14,6,3,4,12.625
2526,-7,-8,6,-9,-11,-5,0,1,12.63
2527,6,4,78,18,20,19,3,8,12.635
2528,-8,9,87,-5,-13,-9,-2,-11,12.64
2529,1,0,77,1,-15,-8,-1,3,12.645
2530,-2,0,37,-6,-3,-1,-3,-3,12.65
2531,-2,-2,-30,-1,12,2,0,4,12.655000000000001
2532,-1,8,-17,2,-9,-9,-6,-6,12.66
2533,-2,-7,-2,-9,-2,0,-6,-4,12.665000000000001
2534,-1,-12,-22,-8,0,3,-1,7,12.67
2535,-1,-2,16,2,9,7,-4,7,12.675
2536,-7,5,61,-2,-10,-5,-5,-1,12.68
2537,4,-5,57,2,-4,-5,-5,5,12.685
2538,-3,-4,-22,-6,-6,-2,-4,3,12.69
2539,-3,5,-91,-4,-3,-4,-1,12,12.695
2540,-1,5,-123,1,-4,-4,-3,-1,12.700000000000001
2541,1,-2,-111,2,1,-1,0,-3,12.705
2542,2,-3,-61,-5,-2,1,4,-2,12.71
2543,-3,2,-51,3,6,3,3,-8,12.715
2544,-1,4,-21,-1,-2,-3,1,-13,12.72
2545,0,0,15,0,0,-1,1,-6,12.725
2546,0,0,95,-2,1,1,3,-4,12.73
2547,0,0,24,-1,2,1,1,-1,12.735
2548,-2,1,-14,-1,-3,0,2,-3,12.74
2549,-1,2,-10,-3,-5,-4,1,-1,12.745000000000001
2550,1,-3,-20,-1,0,0,1,1,12.75
2551,0,-1,-24,3,2,1,1,0,12.755
2552,0,3,-35,-5,-2,0,2,-1,12.76
2553,0,0,-59,6,2,0,0,1,12.765
2554,0,-2,-4,0,0,0,1,-1,12.77
2555,1,2,16,-5,2,1,4,2,12.775
2556,-1,0,49,-2,-2,-1,1,-2,12.780000000000001
2557,0,-1,47,1,0,0,2,0,12.785
2558,-1,0,45,-1,1,-2,0,2,12.790000000000001
2559,-1,1,4,0,0,0,2,0,12.795
2560,-2,2,15,2,-3,0,2,-1,12.8
2561,0,0,9,-2,-2,0,1,-1,12.805
2562,0,0,-6,-1,0,-2,1,0,12.81
2563,0,0,-20,-2,-1,0,0,1,12.815
2564,-1,1,-5,-1,-1,1,-1,1,12.82
2565,-1,0,-11,0,-1,-2,-1,1,12.825000000000001
2566,0,0,-11,-2,-1,0,0,0,12.83
2567,0,0,13,-1,0,-2,-2,-1,12.835
2568,1,1,2,0,-2,1,0,-2,12.84
2569,1,-2,-2,0,-2,-1,-1,0,12.845
2570,-1,0,-22,-1,-1,1,-1,-1,12.85
2571,0,0,13,2,1,-1,0,0,12.855
2572,-1,-1,-14,-4,0,-3,-1,0,12.86
2573,-2,1,5,5,0,-2,0,-1,12.865
2574,-1,-4,17,-9,-3,0,0,0,12.870000000000001
2575,0,0,7,0,1,0,0,-1,12.875
2576,-1,-1,-7,0,-1,-2,-2,-2,12.88
2577,0,0,-20,-2,0,-2,-2,-2,12.885
2578,0,0,-28,3,-2,-2,0,1,12.89
2579,-1,-2,-22,0,1,1,1,-1,12.895
2580,0,-1,-11,-2,-2,-2,-3,-1,12.9
2581,-2,-1,-18,-4,-2,-2,-3,-2,12.905000000000001
2582,-2,-2,-20,1,-1,0,-2,-1,12.91
2583,-1,0,-8,-1,0,-3,-2,-2,12.915000000000001
2584,-1,-1,0,0,-1,-1,-1,-2,12.92
2585,-1,-2,-3,-1,-1,-1,0,0,12.925
2586,0,-1,-7,-2,-2,-2,-1,0,12.93
2587,1,0,2,1,-1,-1,0,0,12.935
2588,0,-1,-2,-2,-1,0,-1,0,12.94
2589,1,0,-6,-1,0,0,0,-2,12.945
2590,-1,-2,-13,-1,-2,0,0,-2,12.950000000000001
2591,-1,-1,-6,-1,-2,0,-1,0,12.955
2592,-1,-2,3,0,-1,-2,-1,-1,12.96
2593,0,-2,-1,0,0,-1,-1,0,12.965
2594,0,-1,-2,0,1,0,0,0,12.97
2595,-1,-2,0,-1,-1,1,0,-1,12.975
2596,-2,0,0,1,-1,0,-1,-2,12.98
2597,0,-2,-3,-2,0,0,-2,0,12.985
2598,-1,1,2,0,0,-3,0,-1,12.99
2599,0,0,-5,-3,-1,0,-2,0,12.995000000000001
2600,-2,-1,4,1,-1,-2,0,0,13.0
2601,-3,-2,2,-1,-2,-2,-1,0,13.005
2602,-2,-1,0,-1,0,-1,-1,-2,13.01
2603,-1,0,4,-2,-1,-1,1,-1,13.015
2604,0,-1,2,-1,0,-2,-1,-3,13.02
2605,-2,-1,1,-1,-2,1,-1,0,13.025
2606,0,-2,2,0,-3,0,-1,-1,13.030000000000001
2607,0,-1,4,0,-1,0,-1,-2,13.035
2608,-1,-2,2,-1,0,-1,0,-1,13.040000000000001
2609,-1,-1,-2,-2,-1,-1,-1,-1,13.045
2610,0,0,0,-1,-2,0,-1,0,13.05
2611,-2,-1,3,1,0,-2,-1,-1,13.055
2612,-1,-3,2,-1,-1,-1,-2,2,13.06
2613,-1,-1,0,-2,-2,-2,0,-1,13.065
2614,-1,-1,0,-1,-1,-3,-2,0,13.07
2615,0,-1,5,-1,-2,-2,-1,0,13.075000000000001
2616,1,-1,2,-1,-2,0,0,-1,13.08
2617,0,-1,1,0,1,0,-1,-2,13.085
2618,0,-1,6,0,0,0,0,-2,13.09
2619,-2,-1,4,-1,-2,-3,0,0,13.095
2620,-2,1,0,0,-2,-1,-2,-1,13.1
2621,-1,0,3,-2,0,-2,0,0,13.105
2622,-3,-2,-1,-3,-1,-1,-1,0,13.11
2623,1,0,12,0,1,0,0,0,13.115
2624,-2,-3,-6,-1,-5,-2,0,-2,13.120000000000001
2625,-1,0,3,0,1,1,0,0,13.125
2626,-1,0,-1,-2,-1,-2,-2,-1,13.13
2627,-1,-1,1,1,-2,-1,-2,0,13.135
2628,0,1,1,-1,0,-2,0,-1,13.14
2629,0,-2,-1,1,-1,-1,0,-2,13.145
2630,0,-2,1,-1,-1,2,0,0,13.15
2631,0,-2,-4,-1,-1,0,-2,-1,13.155000000000001
2632,1,-1,-1,-1,1,-1,-2,-2,13.16
2633,-2,-1,-4,-2,-5,-3,-2,-1,13.165000000000001
2634,0,2,1,0,5,1,0,-1,13.17
2635,-1,-1,-3,0,6,-1,-1,-1,13.175
2636,-1,0,4,-1,-6,-3,-3,-1,13.18
2637,-1,0,-5,-1,4,2,0,-1,13.185
2638,-2,-1,-1,0,-6,-1,0,-2,13.19
2639,-3,0,-4,0,0,-1,-2,-2,13.195
2640,-1,-1,2,-2,-3,-2,-1,0,13.200000000000001
2641,0,-2,4,3,-1,-1,-2,0,13.205
2642,0,-1,-3,-1,-1,0,-2,1,13.21
2643,0,-3,-4,-3,-1,-1,-2,0,13.215
2644,-1,-2,3,0,1,2,-1,0,13.22
2645,-1,-2,-5,-5,-6,-3,-1,0,13.225
2646,-1,-1,1,-1,-2,0,-1,-1,13.23
2647,0,0,0,-2,-2,0,0,-1,13.235
2648,0,0,0,-1,1,-1,0,0,13.24
2649,0,-1,4,0,3,-2,0,1,13.245000000000001
2650,0,-1,0,0,1,-1,-1,-2,13.25
2651,0,0,-2,-1,-2,0,-1,-2,13.255
2652,-2,-1,-2,-1,2,0,0,0,13.26
2653,-2,0,2,0,-1,-1,-1,0,13.265
2654,-1,-2,-4,-4,-5,-6,-1,1,13.27
2655,0,-1,2,1,0,3,0,-1,13.275
2656,1,1,-3,-1,1,1,-1,-2,13.280000000000001
2657,-2,-1,1,-1,-1,-2,-1,1,13.285
2658,-1,0,0,0,-4,-1,-2,-2,13.290000000000001
2659,-1,-2,-2,-2,3,-2,0,-1,13.295
2660,0,-2,-1,-1,-2,-1,0,-1,13.3
2661,-1,-1,1,1,-2,0,-1,-1,13.305
2662,0,-1,1,-1,-1,0,-2,-1,13.31
2663,0,-1,-1,-1,-4,-3,-2,-1,13.315
2664,-2,0,0,-2,-3,-1,-1,-2,13.32
2665,-1,-1,-2,-3,-2,-1,-2,-3,13.325000000000001
2666,0,-3,0,2,-4,-3,1,-2,13.33
2667,0,0,-1,0,3,5,1,3,13.335
2668,0,-1,-2,-1,-1,-1,-1,-2,13.34
2669,-1,1,-1,-3,-4,-3,-1,-2,13.345
2670,-1,0,3,2,1,-1,-1,-1,13.35
2671,-1,-2,-4,-5,-7,-2,-1,-2,13.355
2672,0,0,1,-1,0,0,-2,0,13.36
2673,0,-2,-7,2,-2,0,0,0,13.365
2674,-1,1,-3,-4,0,-1,-2,-1,13.370000000000001
2675,-2,2,0,0,1,-2,-1,-1,13.375
2676,-1,0,2,0,0,0,0,-1,13.38
2677,-1,-1,2,0,3,-1,0,-1,13.385
2678,0,1,-1,-1,1,-1,0,0,13.39
2679,-2,-1,-3,-1,0,1,1,-1,13.395
2680,-2,-2,-2,0,0,0,0,0,13.4
2681,0,-1,0,-1,-2,-2,-1,-2,13.405000000000001
2682,0,-1,-1,0,2,0,0,-2,13.41
2683,0,-3,1,0,-3,-2,-1,0,13.415000000000001
2684,0,-1,-2,0,-1,-2,-2,0,13.42
2685,-1,-2,0,0,-4,-2,-1,-1,13.425
2686,0,-2,-1,0,4,5,1,0,13.43
2687,0,0,0,0,-5,-5,-3,-2,13.435
2688,-1,-2,-1,-1,-2,0,-1,-2,13.44
2689,1,0,-1,-2,-1,-1,0,0,13.445
2690,-1,1,0,-3,-3,-2,-2,-2,13.450000000000001
2691,0,0,0,1,-3,-3,-1,-1,13.455
2692,-1,0,-1,-1,-1,1,-1,-1,13.46
2693,-1,-1,-1,-3,6,1,0,-3,13.465
2694,0,-3,-2,-1,-2,-3,-1,0,13.47
2695,0,0,-1,0,1,1,-1,-2,13.475
2696,-1,1,-1,-1,0,-2,0,-1,13.48
2697,0,-2,1,1,-2,0,1,-1,13.485
2698,-2,-2,0,1,3,1,-1,-1,13.49
2699,-3,-2,-3,-2,1,-3,0,-1,13.495000000000001
2700,-1,-1,1,-2,-5,-3,-3,-1,13.5
2701,1,-1,-1,3,4,3,0,-1,13.505
2702,0,-2,-3,-1,-2,-3,0,-1,13.51
2703,0,0,-1,0,-1,0,1,-1,13.515
2704,0,-1,-2,-1,-1,-1,2,1,13.52
2705,-1,1,0,-1,-2,-1,-2,-1,13.525
2706,1,-1,-1,-3,-6,0,-2,0,13.530000000000001
2707,-1,0,-1,-2,5,-1,-3,-2,13.535
2708,-1,-1,1,0,-3,-1,-1,0,13.540000000000001
2709,-2,-1,-2,0,-2,0,-2,-1,13.545
2710,-1,0,0,0,-3,-1,1,0,13.55
2711,-1,-2,-1,-3,1,-2,-1,0,13.555
2712,0,-2,-2,-1,1,-2,-1,1,13.56
2713,-1,0,-1,-1,-4,-2,-2,0,13.565
2714,0,1,-1,0,7,1,-1,-2,13.57
2715,-1,-2,0,1,-1,-1,1,1,13.575000000000001
2716,-2,-2,3,0,-1,-1,-1,-1,13.58
2717,-3,-2,-1,-1,4,0,-1,1,13.585
2718,-1,1,-1,0,-2,-3,-1,-1,13.59
2719,0,0,0,-1,-3,0,-2,0,13.595
2720,1,1,-1,1,1,1,0,-1,13.6
2721,1,-2,0,-1,-3,-2,-1,0,13.605
2722,0,0,0,-1,-1,-2,-1,-1,13.61
2723,-1,-2,-2,0,-1,-2,-1,-2,13.615
2724,-1,-2,-2,-4,0,-1,-1,0,13.620000000000001
2725,0,-1,0,-1,-3,-1,-1,0,13.625
2726,0,0,-1,0,-1,2,-2,0,13.63
2727,1,0,-1,1,-2,0,0,0,13.635
2728,0,0,-3,-1,-3,-2,-1,-2,13.64
2729,-2,-1,1,-1,4,-2,-2,-2,13.645
2730,-1,-2,-1,-1,0,-1,0,-1,13.65
2731,-1,0,-1,-2,-2,0,0,0,13.655000000000001
2732,-1,1,-1,-1,-1,0,-1,0,13.66
2733,-1,1,4,-2,-3,0,-1,0,13.665000000000001
2734,-1,-2,-6,-2,-3,-4,-2,-1,13.67
2735,-1,0,0,0,1,0,0,0,13.675
2736,0,-1,-2,1,-2,0,-1,-1,13.68
2737,-2,0,1,-1,-1,-1,0,-1,13.685
2738,-2,-1,0,-1,0,-1,-1,-1,13.69
2739,0,-2,1,1,-2,-2,0,-1,13.695
2740,0,-1,-2,-5,-1,-2,-1,-1,13.700000000000001
2741,0,-2,-1,1,0,-1,0,-1,13.705
2742,0,0,1,-2,-3,0,-1,-1,13.71
2743,0,-1,-4,-3,-2,-2,-2,-2,13.715
2744,0,-1,2,0,1,2,0,1,13.72
2745,0,-2,-2,-2,0,1,-1,-1,13.725
2746,0,-2,-2,0,0,-1,0,0,13.73
2747,-1,-2,0,-1,-4,-2,-2,-2,13.735
2748,-2,0,-1,2,4,0,-2,-1,13.74
2749,0,-1,-2,-2,-3,-3,-2,-1,13.745000000000001
2750,-2,-1,-1,0,0,0,0,-2,13.75
2751,-1,0,-2,-1,-2,-2,-1,0,13.755
2752,0,-1,-4,-2,-1,-1,-2,-1,13.76
2753,-1,0,-1,-2,1,-1,-1,0,13.765
2754,-1,0,-4,-1,-1,-2,-1,-3,13.77
2755,-1,-1,-1,0,0,3,0,-3,13.775
2756,-3,-1,-1,-1,1,-3,-1,0,13.780000000000001
2757,0,1,-2,-1,0,0,1,-1,13.785
2758,0,-2,3,-1,-1,-1,0,-1,13.790000000000001
2759,0,-2,-1,-2,-4,-3,0,-1,13.795
2760,0,-1,-1,2,3,1,0,0,13.8
2761,0,0,-1,1,-2,0,-1,-2,13.805
2762,-2,-1,0,0,0,0,-1,2,13.81
2763,-1,0,-1,0,-1,-1,-1,0,13.815
2764,-1,1,-1,-3,-3,1,-1,-2,13.82
2765,-2,-2,0,1,10,2,-2,0,13.825000000000001
2766,-1,-1,-1,-2,-2,-3,-2,-2,13.83
2767,1,-2,0,0,5,2,0,0,13.835
2768,-1,-2,-1,-1,-4,-2,-1,-1,13.84
2769,0,-2,-2,-1,-3,-3,0,0,13.845
2770,-1,1,1,0,-1,0,0,0,13.85
2771,0,1,-1,-1,-1,-1,-1,-2,13.855
2772,0,-2,2,-2,0,-2,0,-2,13.86
2773,1,-1,-1,-1,-5,-2,-1,-1,13.865
2774,0,0,-1,-1,0,1,1,-1,13.870000000000001
2775,-3,-3,0,-1,-1,-1,-1,-1,13.875
2776,0,0,1,1,1,0,0,-1,13.88
2777,0,-1,-2,-1,-1,2,-2,-1,13.885
2778,0,0,-1,0,-2,-1,-1,-2,13.89
2779,0,0,-2,-2,-2,1,0,0,13.895
2780,0,0,-1,0,1,-1,-2,0,13.9
2781,-3,-1,-2,-2,-1,-2,-1,-1,13.905000000000001
2782,0,-3,-1,0,0,0,-2,-1,13.91
2783,1,-1,-2,1,2,-1,-1,0,13.915000000000001
2784,0,-1,-1,0,-1,-2,0,-2,13.92
2785,0,0,-1,-2,-3,-2,1,-2,13.925
2786,-3,-2,-1,-2,-4,-5,-1,0,13.93
2787,-1,-1,1,-1,-3,-1,-1,-1,13.935
2788,0,-1,-2,0,-4,-1,0,0,13.94
2789,-1,-1,0,-1,-1,0,-1,-2,13.945
2790,0,0,-1,0,-1,-1,0,1,13.950000000000001
2791,-2,1,1,0,-1,-2,-2,-1,13.955
2792,-1,0,-1,0,-1,-2,-1,0,13.96
2793,0,-1,-2,0,-3,-4,-1,0,13.965
2794,-1,-2,1,0,0,0,1,-1,13.97
2795,-1,-2,0,-1,0,0,-1,0,13.975
2796,-1,-2,-2,-2,0,0,-1,-1,13.98
2797,0,-2,0,-1,-2,-2,-1,0,13.985
2798,0,-2,-1,-1,2,-1,0,-1,13.99
2799,1,-1,-2,-1,0,-1,0,-1,13.995000000000001
2800,-1,-1,0,-2,-5,-2,0,-1,14.0
2801,-1,0,-1,0,2,1,1,0,14.005
2802,0,-1,0,0,-1,0,-2,-1,14.01
2803,-1,-2,-1,0,1,-1,-1,0,14.015
2804,-2,-1,0,-2,-6,-1,0,1,14.02
2805,0,-1,-1,2,6,1,-1,-1,14.025
2806,-1,-1,-2,-1,0,-1,0,-2,14.030000000000001
2807,0,-1,-1,-2,0,1,-1,-2,14.035
2808,1,-1,-3,0,3,-1,-1,-1,14.040000000000001
2809,0,-1,-2,-1,-4,-1,-2,0,14.045
2810,0,1,-2,-2,1,-2,-1,0,14.05
2811,-2,-1,-4,-2,-2,0,1,0,14.055
2812,-1,-1,1,0,-4,-1,0,0,14.06
2813,-1,-3,-5,-3,1,0,-1,-2,14.065
2814,0,-1,2,2,2,-1,1,-2,14.07
2815,0,0,-1,-3,-4,-3,-1,0,14.075000000000001
2816,-1,0,0,0,1,0,-1,-1,14.08
2817,-3,0,0,0,-3,-2,-1,-1,14.085
2818,-1,1,0,0,2,2,-1,0,14.09
2819,0,-2,1,-1,-3,-2,0,0,14.095
2820,-2,-2,1,0,5,1,-1,0,14.1
2821,1,0,0,-1,-4,-3,-1,0,14.105
2822,1,0,-1,-2,-7,-1,0,-1,14.11
2823,-1,-2,-3,-2,1,-2,-1,-1,14.115
2824,0,0,-2,1,2,2,0,0,14.120000000000001
2825,0,-1,-1,-1,-2,-1,0,-1,14.125
2826,0,-1,-1,-2,1,-1,-1,-1,14.13
2827,-1,0,-1,0,0,0,-2,-3,14.135
2828,-1,0,-1,-2,-2,-2,-4,-2,14.14
2829,0,0,0,0,4,1,0,0,14.145
2830,-3,-1,0,-2,-2,0,-2,0,14.15
2831,1,1,-1,1,5,-1,0,-2,14.155000000000001
2832,-1,-1,-3,-1,0,-2,1,-2,14.16
2833,0,-2,2,-1,-4,-2,0,-1,14.165000000000001
2834,0,0,-1,-1,-2,-3,-1,-1,14.17
2835,-1,-1,-1,0,0,0,1,-1,14.175
2836,0,-3,0,-3,-3,-1,-2,-1,14.18
2837,-1,-1,-2,-1,-3,-1,-1,0,14.185
2838,0,0,-1,-3,-2,-3,0,-2,14.19
2839,-1,-1,0,-1,7,4,0,-1,14.195
2840,0,-2,1,1,-1,-1,0,-1,14.200000000000001
2841,0,0,0,-2,-3,-1,0,-1,14.205
2842,-1,-2,-2,1,-1,0,-2,0,14.21
2843,-1,0,2,-1,-4,-2,-1,-1,14.215
2844,-2,-1,-1,-3,-3,-2,-2,1,14.22
2845,-2,-2,-3,2,2,2,-1,1,14.225
2846,0,-2,-1,0,-3,-1,-2,-1,14.23
2847,-1,-1,0,0,-2,-3,-1,-1,14.235
2848,1,1,1,1,6,2,1,0,14.24
2849,0,0,-3,0,-3,-3,0,1,14.245000000000001
2850,-1,-2,-2,0,0,0,0,0,14.25
2851,-2,-2,-2,-1,-5,0,-1,0,14.255
2852,1,0,0,-1,3,0,-2,0,14.26
2853,0,0,-1,-1,-1,-1,-1,-1,14.265
2854,-3,1,-1,1,-2,3,-1,1,14.27
2855,0,1,1,0,1,-1,-2,-1,14.275
2856,-3,-2,-4,0,-3,-2,-1,-2,14.280000000000001
2857,0,0,-2,-1,-2,-2,0,-2,14.285
2858,-2,-1,0,1,1,-1,1,0,14.290000000000001
2859,-2,-1,-1,0,2,1,0,-1,14.295
2860,-2,-1,-1,-1,-3,-2,-3,-3,14.3
2861,-2,-2,1,-1,-1,-2,-2,0,14.305
2862,2,-1,-3,-2,-2,0,0,-1,14.31
2863,-1,-2,0,-1,-1,-1,-2,0,14.315
2864,0,-1,0,-3,-2,-2,1,0,14.32
2865,-1,-2,-2,-3,1,-4,-2,-1,14.325000000000001
2866,-3,-2,0,1,0,4,1,-1,14.33
2867,0,0,-2,-2,-3,-3,-3,0,14.335
2868,1,0,-2,-1,-3,1,0,-1,14.34
2869,0,-1,1,-2,-2,-2,-3,0,14.345
2870,-2,0,-1,-1,-3,-5,-2,0,14.35
2871,-1,-2,1,0,-2,1,0,-1,14.355
2872,-2,-1,-3,-2,-4,0,2,0,14.36
2873,-2,0,0,1,1,0,1,-1,14.365
2874,0,-1,-2,-1,0,-1,1,-1,14.370000000000001
2875,-1,0,-1,-2,-4,-1,-1,-1,14.375
2876,-1,-1,-1,-2,-4,-2,-3,-1,14.38
2877,-1,-1,0,-1,-1,2,1,-1,14.385
2878,0,0,-1,-2,1,-1,-2,-1,14.39
2879,1,0,0,0,-5,-3,-2,-1,14.395
2880,-1,-1,-2,0,6,2,1,-1,14.4
2881,0,-1,-1,0,-1,0,0,-2,14.405000000000001
2882,-1,-2,0,-3,1,-1,0,0,14.41
2883,-1,-3,-2,-2,0,0,0,0,14.415000000000001
2884,0,1,0,1,-5,-3,-1,-2,14.42
2885,0,-1,-1,-2,-4,0,-1,0,14.425
2886,0,0,1,-2,1,-1,0,0,14.43
2887,0,-3,-1,1,2,-1,0,-1,14.435
2888,-1,0,0,-3,0,-3,0,-1,14.44
2889,-1,-2,0,-3,-6,-5,-1,-2,14.445
2890,1,-1,-3,-1,-1,2,0,-1,14.450000000000001
2891,-1,-1,-2,0,-4,-1,-1,-1,14.455
2892,1,-2,1,-1,-2,0,1,0,14.46
2893,-2,-3,-2,0,9,-1,1,-1,14.465
2894,-1,0,0,-3,-3,-3,-2,-2,14.47
2895,0,-1,0,-1,-2,-2,2,1,14.475
2896,-1,-2,-2,-1,-4,-2,-2,-1,14.48
2897,1,1,1,0,1,1,-2,-1,14.485
2898,-2,-2,-2,1,-3,-5,-2,-2,14.49
2899,0,1,3,0,2,2,1,-1,14.495000000000001
2900,0,-2,-8,-1,1,-1,-1,1,14.5
2901,-1,0,0,-1,-1,0,2,0,14.505
2902,0,0,1,-1,-2,-1,0,-1,14.51
2903,-1,0,-1,0,-5,-3,-2,-2,14.515
2904,-2,-2,1,0,3,0,-1,-1,14.52
2905,0,-1,0,-1,-3,-1,-2,-2,14.525
2906,0,0,0,2,0,0,-2,-1,14.530000000000001
2907,-2,1,-2,-1,-1,-1,0,0,14.535
2908,-1,1,1,0,-3,0,0,-1,14.540000000000001
2909,-1,0,-5,-1,0,0,0,0,14.545
2910,1,0,0,1,5,2,0,0,14.55
2911,-1,0,-1,0,1,0,-2,-1,14.555
2912,0,0,0,0,-5,-3,-3,-2,14.56
2913,-2,0,0,0,-2,-1,-1,-1,14.565
2914,-1,-1,-1,-2,-2,-3,-3,-1,14.57
2915,-1,-1,-4,-1,-1,-2,-1,-1,14.575000000000001
2916,1,0,1,0,0,0,0,0,14.58
2917,-1,0,0,-2,-4,-1,1,-1,14.585
2918,-2,-2,-1,-1,-1,-1,-1,-1,14.59
2919,-1,-1,-1,2,1,-3,0,-1,14.595
2920,-3,-1,-1,-5,-3,-2,-2,-1,14.6
2921,-2,-2,-1,1,0,1,0,-2,14.605
2922,-2,-1,-1,0,-5,0,-1,-1,14.61
2923,0,-1,1,-1,6,1,-3,-2,14.615
2924,0,-3,-3,1,0,-1,1,0,14.620000000000001
2925,0,1,0,1,1,-1,-2,0,14.625
2926,-1,0,-1,-2,-2,-3,2,1,14.63
2927,0,0,-1,1,1,1,-1,0,14.635
2928,0,0,2,2,-1,0,0,-1,14.64
2929,1,-1,-2,-2,-3,-3,-3,1,14.645
2930,-1,-3,-1,0,-2,-1,-1,-3,14.65
2931,-1,0,-1,-4,-1,-1,-1,1,14.655000000000001
2932,-1,-2,-2,1,2,0,-1,-2,14.66
2933,-2,0,-1,0,-6,-3,-2,-1,14.665000000000001
2934,1,0,2,1,1,-1,-1,1,14.67
2935,1,-1,-2,-1,0,4,2,-1,14.675
2936,-2,-1,-2,-1,0,-1,0,-1,14.68
2937,-1,-2,3,-2,-1,-1,-1,-1,14.685
2938,2,-1,-1,-2,-2,-1,-2,0,14.69
2939,-2,-1,-3,0,-7,-5,-3,-1,14.695
2940,-1,-2,1,0,-2,0,-2,-1,14.700000000000001
2941,-1,1,0,2,3,-1,0,-2,14.705
2942,-2,-1,-1,-3,1,0,0,-2,14.71
2943,-1,0,-2,-1,-2,-1,1,0,14.715
2944,0,0,-1,-2,-5,-3,0,0,14.72
2945,0,-2,-1,-1,-1,0,-3,0,14.725
2946,-1,0,1,1,0,0,-1,-2,14.73
2947,-3,0,0,0,-3,-3,-2,-1,14.735
2948,0,0,0,-1,-1,1,0,-1,14.74
2949,0,-1,-1,1,2,0,-1,1,14.745000000000001
2950,-2,0,-2,-1,-2,-1,0,-1,14.75
2951,-2,-3,2,-3,-2,-2,-1,-1,14.755
2952,0,0,-2,-1,-4,-1,-1,1,14.76
2953,0,-1,0,-1,3,1,-1,-3,14.765
2954,0,-2,-4,0,1,1,0,0,14.77
2955,0,0,0,0,0,0,-2,-2,14.775
2956,0,-1,0,0,-1,-1,-1,-2,14.780000000000001
2957,-2,-2,-2,-1,-1,-1,-1,-2,14.785
2958,0,1,-3,-2,-6,-3,-2,0,14.790000000000001
2959,-2,-3,-3,-2,4,1,0,-2,14.795
2960,-1,0,1,-1,0,-1,1,-2,14.8
2961,-1,-1,-2,0,4,0,-1,-2,14.805
2962,1,-1,-1,-2,-3,-3,-2,-1,14.81
2963,-1,-2,-3,1,6,-2,-2,0,14.815
2964,1,1,-1,-3,-6,-1,-1,0,14.82
2965,-2,-2,1,-1,1,-2,0,-2,14.825000000000001
2966,-3,-1,-3,0,-1,-1,-1,-1,14.83
2967,-3,0,-1,-1,-2,-1,0,-1,14.835
2968,-2,-1,-1,2,3,0,0,-1,14.84
2969,-1,0,-1,-2,-3,0,0,0,14.845
2970,0,0,1,0,2,0,0,-2,14.85
2971,0,2,-1,-2,-1,1,-2,-1,14.855
2972,-2,-3,-1,-2,2,0,-2,-1,14.86
2973,0,-1,0,-1,-5,-2,-1,1,14.865
2974,0,-2,-1,0,-1,-1,-1,-3,14.870000000000001
2975,0,-1,-4,-2,0,-1,1,1,14.875
2976,-2,-1,1,0,1,-1,-1,0,14.88
2977,-1,-1,-1,-1,1,0,-3,-1,14.885
2978,0,-3,0,-3,1,0,0,-2,14.89
2979,0,1,0,0,-5,-1,-1,-1,14.895
2980,-1,-2,-3,-2,5,-1,0,-2,14.9
2981,0,-1,-2,-1,-4,-1,-1,-1,14.905000000000001
2982,1,2,1,-1,-1,0,-1,0,14.91
2983,0,-3,-1,1,-4,-2,-1,-1,14.915000000000001
2984,0,0,1,-1,0,0,0,0,14.92
2985,-1,-1,-2,0,-5,-2,0,-1,14.925
2986,-1,1,0,0,4,1,0,1,14.93
2987,-2,0,0,-2,-6,1,1,-1,14.935
2988,1,-2,-2,0,-3,-2,-2,-1,14.94
2989,0,-2,1,0,-5,1,-1,0,14.945
2990,-3,-2,-2,-1,1,-1,0,-1,14.950000000000001
2991,0,-3,4,0,5,3,0,-1,14.955
2992,-2,1,-2,-3,-6,0,0,-2,14.96
2993,-2,-1,-1,-1,-1,0,1,-1,14.965
2994,-3,-1,-2,0,-2,-2,-2,-2,14.97
2995,0,1,0,0,-3,-4,-2,0,14.975
2996,-1,0,-2,-2,0,1,0,-2,14.98
2997,1,-2,-2,-1,4,0,0,-1,14.985
2998,0,0,1,1,-4,-1,0,1,14.99
2999,1,-2,-4,-2,2,-1,-2,-1,14.995000000000001
3000,0,-2,-1,-3,-3,-1,-2,0,15.0
3001,-2,1,0,-1,-2,-3,0,-2,15.005
3002,0,-2,-1,0,0,-1,-1,-2,15.01
3003,0,0,-1,-1,-1,0,0,0,15.015
3004,-2,0,-2,0,0,-3,-2,0,15.02
3005,0,0,-2,-2,-2,-1,-1,-2,15.025
3006,-2,0,-1,-1,4,-1,0,0,15.030000000000001
3007,1,-2,0,-1,-1,1,1,-1,15.035
3008,0,0,-2,0,-2,-2,0,-2,15.040000000000001
3009,0,-1,1,0,0,-1,1,-1,15.045
3010,1,2,-3,-1,-2,-1,-1,-1,15.05
3011,-2,-2,-5,-1,-1,-4,-1,-1,15.055
3012,1,-1,2,2,-1,2,3,1,15.06
3013,1,-2,-5,-3,-2,0,-2,0,15.065
3014,-2,-1,-1,0,1,2,0,-2,15.07
3015,-2,0,1,-1,-2,-3,0,-1,15.075000000000001
3016,-1,-2,-1,-3,0,-1,-1,-1,15.08
3017,0,-2,0,0,-1,-1,-1,-1,15.085
3018,0,-1,0,0,-1,1,-1,-1,15.09
3019,-2,1,-2,-5,-4,1,0,-1,15.095
3020,1,-2,-1,-2,0,1,-1,-2,15.1
3021,0,-1,1,-1,0,0,-1,1,15.105
3022,1,-1,-1,-2,0,-2,-1,0,15.11
3023,-1,-1,1,0,-1,0,1,-2,15.115
3024,-1,1,-2,1,-1,-1,0,-2,15.120000000000001
3025,0,-1,-3,-3,2,-1,-1,0,15.125
3026,-1,0,2,-1,-3,-2,-1,-1,15.13
3027,0,0,-4,-1,1,-2,-2,0,15.135
3028,-1,-1,0,0,0,-1,-2,-2,15.14
3029,-1,-2,-2,-1,-2,-2,1,-2,15.145
3030,-2,0,-1,-1,-1,0,-1,-2,15.15
3031,0,-2,1,-2,2,0,-1,-1,15.155000000000001
3032,0,0,-3,-3,-1,-3,0,-1,15.16
3033,0,0,-1,2,0,-1,-1,0,15.165000000000001
3034,2,-1,1,-2,-1,-1,-1,0,15.17
3035,0,0,1,0,2,1,0,-2,15.175
3036,-1,-2,-4,0,-2,-3,-2,-2,15.18
3037,0,-1,-1,-2,0,-1,2,0,15.185
3038,-1,-2,-2,-1,3,4,1,0,15.19
3039,0,-1,-1,0,-4,-1,-2,-2,15.195
3040,1,-1,-1,-2,0,-2,0,0,15.200000000000001
3041,-1,0,0,0,-1,-4,0,-1,15.205
3042,0,-1,-1,-2,-1,1,1,-1,15.21
3043,-1,0,1,-2,-2,-2,-1,0,15.215
3044,0,-3,-3,1,3,2,1,0,15.22
3045,-2,0,0,-1,-3,-1,1,-1,15.225
3046,0,-2,1,-1,-3,-3,1,-1,15.23
3047,-1,-2,-1,1,0,-2,-2,-1,15.235
3048,-1,1,0,-3,2,0,0,-2,15.24
3049,0,0,0,1,4,1,-1,-1,15.245000000000001
3050,-1,-1,-1,1,-1,-2,-1,-1,15.25
3051,1,-1,-1,-2,-2,-1,-1,-1,15.255
3052,-1,-1,-2,2,4,0,-1,-1,15.26
3053,0,-1,0,-2,-2,1,0,-1,15.265
3054,0,1,-2,-1,-2,-2,0,0,15.27
3055,-1,-2,-2,-1,-1,-2,-1,-2,15.275
3056,-1,0,0,-2,-7,-1,-2,-1,15.280000000000001
3057,1,0,-3,-3,-3,0,-1,0,15.285
3058,0,-1,-1,0,1,-1,0,-1,15.290000000000001
3059,0,-1,1,0,-3,2,-1,1,15.295
3060,-1,-3,1,0,-2,0,0,-2,15.3
3061,-1,-1,-2,-2,1,-1,-2,-2,15.305
3062,0,-1,-4,-3,-6,-2,-2,-2,15.31
3063,-2,-1,0,-2,0,-4,-2,-2,15.315
3064,-1,-1,-1,0,4,1,1,-1,15.32
3065,-1,0,-1,0,-3,0,-3,-1,15.325000000000001
3066,-2,-1,0,-2,-1,-3,-1,-2,15.33
3067,-1,-1,-1,-1,-1,-1,-1,0,15.335
3068,-1,-1,0,0,0,0,1,0,15.34
3069,-1,-2,-2,2,-1,-2,-2,-1,15.345
3070,-1,-1,1,0,-1,1,0,-1,15.35
3071,-1,-1,-6,0,3,-2,2,2,15.355
3072,0,0,-2,-2,-2,-1,2,1,15.36
3073,-1,0,1,0,-3,-3,2,-1,15.365
3074,0,-1,-2,-1,1,1,-1,0,15.370000000000001
3075,-1,-1,-1,-1,-1,1,0,0,15.375
3076,-1,-1,1,-1,-7,-1,-2,-1,15.38
3077,-1,-1,-3,1,5,2,0,0,15.385
3078,0,0,-1,-1,-1,0,-1,1,15.39
3079,0,-1,1,-1,-1,-1,-2,-1,15.395
3080,0,0,0,-1,-2,-2,-3,-1,15.4
3081,-1,-2,-2,-1,1,-1,-2,0,15.405000000000001
3082,-1,0,-4,-2,-2,-2,-2,-1,15.41
3083,-1,1,1,1,1,1,0,-1,15.415000000000001
3084,-1,-2,-2,-1,-4,-3,0,-1,15.42
3085,-1,0,3,-2,3,0,-1,0,15.425
3086,-1,-1,-1,0,6,1,-2,-1,15.43
3087,0,1,0,1,-2,-1,-3,-3,15.435
3088,-1,-2,-2,0,1,-1,0,-1,15.44
3089,-1,-1,-1,-2,-3,-3,-1,-2,15.445
3090,1,-2,0,-3,-3,0,0,0,15.450000000000001
3091,-3,-2,1,1,0,-1,0,-1,15.455
3092,0,1,1,1,2,2,1,-2,15.46
3093,0,0,-3,-2,0,-1,1,0,15.465
3094,-2,-2,-2,-2,-2,-3,0,1,15.47
3095,-1,-2,-3,-4,-3,-1,-1,-1,15.475
3096,0,1,-3,1,-1,0,-1,0,15.48
3097,0,-3,-1,-1,-4,0,-2,0,15.485000000000001
3098,-2,-1,-1,-2,-2,-4,-3,-2,15.49
3099,-1,-2,2,3,2,-1,0,-1,15.495000000000001
3100,-2,0,2,0,1,-3,-3,-1,15.5
3101,0,0,-1,-2,1,-1,-1,-1,15.505
3102,1,0,0,-1,-2,-2,-2,0,15.51
3103,1,0,-3,-3,-2,0,-3,-1,15.515
3104,-1,0,1,-2,-3,-2,-1,-2,15.52
3105,-2,-2,1,-2,-3,-1,-1,-1,15.525
3106,0,1,1,4,5,3,1,2,15.530000000000001
3107,0,-1,-2,-4,-4,-1,-1,0,15.535
3108,0,0,0,-1,6,0,-1,0,15.540000000000001
3109,0,-1,-7,-1,-4,-3,-1,-1,15.545
3110,0,-2,-1,1,1,-2,-1,-1,15.55
3111,-1,-2,0,1,-2,0,1,0,15.555
3112,0,-1,-3,-1,-3,0,-1,0,15.56
3113,1,0,0,0,2,-1,0,-1,15.565
3114,-1,-3,3,0,-2,-1,-1,-2,15.57
3115,0,0,-2,-1,1,0,-1,0,15.575000000000001
3116,-3,-1,-4,-5,1,-1,0,0,15.58
3117,0,0,3,2,-5,-2,-1,1,15.585
3118,1,0,-3,-1,-2,0,2,-1,15.59
3119,-1,-1,-1,-3,-3,-2,-1,-2,15.595
3120,-2,-2,0,0,1,-2,-2,-2,15.6
3121,-1,1,1,2,-1,1,1,-1,15.605
3122,-1,-1,0,-2,0,-3,-1,-2,15.610000000000001
3123,0,-2,-2,-1,-2,0,0,0,15.615
3124,-1,-2,-1,-2,-1,2,0,0,15.620000000000001
3125,-3,-2,-4,-2,-9,-3,-2,0,15.625
3126,-3,-1,2,-1,8,2,-1,0,15.63
3127,-1,0,-2,0,0,-1,1,-1,15.635
3128,1,1,4,2,-2,-1,0,-1,15.64
3129,-1,-2,-3,-1,-1,0,0,-2,15.645
3130,0,-1,-3,-2,-5,-1,-1,-1,15.65
3131,-1,-1,1,-2,-2,0,-1,-1,15.655000000000001
3132,-1,-1,-2,-2,0,-1,-2,0,15.66
3133,-2,-1,1,-1,-1,-1,-1,0,15.665000000000001
3134,0,-2,-2,1,0,-1,-2,-2,15.67
3135,-1,0,-1,1,0,-3,-1,-1,15.675
3136,1,-1,-2,-1,0,1,-2,0,15.68
3137,1,-1,1,-1,0,-1,0,0,15.685
3138,-2,-1,0,-1,-3,-2,0,-1,15.69
3139,0,1,0,0,-2,-2,-1,-3,15.695
3140,-2,-2,-2,-1,-1,-1,0,1,15.700000000000001
3141,-1,-1,-1,-1,0,1,0,-1,15.705
3142,-2,-1,-2,-2,-2,0,0,-1,15.71
3143,-1,0,-5,-2,0,-2,-1,-1,15.715
3144,-1,-1,1,0,0,-2,0,-1,15.72
3145,0,0,-1,0,-2,0,0,-2,15.725
3146,0,-1,-2,-2,-1,-1,-1,0,15.73
3147,-4,-2,0,-2,-4,-1,-1,0,15.735000000000001
3148,0,-1,0,1,3,0,-1,-1,15.74
3149,-1,-1,-5,0,-2,-2,0,0,15.745000000000001
3150,-1,-2,3,2,7,4,2,-1,15.75
3151,-1,0,-2,-2,-3,-1,-1,-1,15.755
3152,0,-2,-3,-3,-1,-1,0,-2,15.76
3153,-1,0,5,1,2,1,-2,-2,15.765
3154,-1,1,-5,-2,-4,-4,-1,-1,15.77
3155,0,-1,0,2,1,-1,0,3,15.775
3156,0,-2,-5,-2,-6,-1,0,-1,15.780000000000001
3157,0,0,-1,-3,-1,0,-2,-1,15.785
3158,0,1,2,-1,-2,-2,-1,0,15.790000000000001
3159,-1,-1,0,-1,4,0,0,-1,15.795
3160,-1,-1,1,0,-7,-2,-1,-2,15.8
3161,1,0,0,1,2,1,1,0,15.805
3162,-3,1,-1,-1,4,-2,1,-2,15.81
3163,1,0,-3,-1,-3,-2,-1,-2,15.815
3164,-1,-1,-1,-1,3,0,-1,0,15.82
3165,-1,-4,-2,-5,-3,-4,-1,-1,15.825000000000001
3166,1,0,2,4,6,2,1,3,15.83
3167,-2,-7,-4,1,5,1,0,1,15.835
3168,-1,-6,0,0,-15,-5,-2,0,15.84
3169,0,3,8,0,17,8,0,-1,15.845
3170,-2,-2,-11,-4,-6,-7,-1,-1,15.85
3171,0,-2,-1,0,10,9,1,0,15.855
3172,0,6,2,-1,-11,1,0,0,15.860000000000001
3173,-1,-4,3,4,4,-9,-3,-1,15.865
3174,2,2,14,-2,-4,14,2,-1,15.870000000000001
3175,-2,-4,-14,-5,-17,-6,-4,-2,15.875
3176,-1,-7,-21,4,22,6,2,1,15.88
3177,1,-4,-4,-2,-1,-8,-2,-3,15.885
3178,-3,0,-18,-5,-14,-4,-4,-5,15.89
3179,1,1,8,1,-5,-1,-1,2,15.895
3180,8,16,8,-8,-10,1,0,0,15.9
3181,-13,1,-39,-13,-15,-11,-2,-3,15.905000000000001
3182,4,-10,12,8,12,-1,1,2,15.91
3183,3,13,1,1,1,10,2,1,15.915000000000001
3184,-7,-21,24,3,-15,-14,-3,0,15.92
3185,5,-1,7,10,22,17,6,5,15.925
3186,-1,16,-17,-6,-40,-30,-11,-5,15.93
3187,15,15,5,4,46,33,11,7,15.935
3188,-12,18,-28,-21,44,-13,-9,-8,15.94
3189,3,8,22,4,-34,19,8,3,15.945
3190,-6,-27,20,15,9,-3,-1,-2,15.950000000000001
3191,5,23,20,-13,-29,-13,-7,-4,15.955
3192,-2,-12,1,13,-23,-12,-2,-1,15.96
3193,-6,8,-10,5,46,-4,-4,-1,15.965
3194,5,-5,-33,-7,-8,24,9,11,15.97
3195,-7,8,7,-1,-23,-17,-2,-3,15.975
3196,-1,-3,-18,-6,19,5,-5,-9,15.98
3197,-18,28,1,-4,4,-5,-1,3,15.985000000000001
3198,5,-2,-7,-3,-18,-16,-10,-16,15.99
3199,-15,8,24,10,7,5,3,-2,15.995000000000001
3200,12,-68,-61,-29,-4,0,4,1,16.0
3201,25,-13,27,33,17,21,11,12,16.005
3202,-70,-16,-8,-7,45,11,-3,-23,16.01
3203,-4,-16,-17,-13,-30,-8,-3,-2,16.015
3204,35,22,48,3,-27,-16,-5,5,16.02
3205,8,5,-22,18,-5,5,3,12,16.025
3206,35,21,49,-17,-30,-31,-7,-1,16.03
3207,-39,2,-3,9,-7,-16,-11,-19,16.035
3208,19,11,21,13,14,4,4,6,16.04
3209,-26,-27,-56,-28,-46,-11,-3,-9,16.045
3210,-2,11,0,8,-70,-25,-5,3,16.05
3211,-6,24,-21,-5,-2,-8,-1,4,16.055
3212,53,13,19,-1,-29,-8,-5,-1,16.06
3213,-59,-26,-7,-8,23,25,0,-13,16.065
3214,17,-10,-37,-17,-11,-13,-3,-1,16.07
3215,22,-33,14,20,14,30,9,3,16.075
3216,-3,48,-20,-6,7,9,7,15,16.080000000000002
3217,12,-37,59,25,-14,-25,-10,-9,16.085
3218,22,23,32,-4,33,37,14,12,16.09
3219,7,-57,-28,-21,-16,-9,-3,3,16.095
3220,-33,-10,-14,-14,-6,-5,-11,-32,16.1
3221,19,14,39,1,-9,-16,-6,7,16.105
3222,-17,7,-26,9,56,4,1,2,16.11
3223,11,-22,21,-6,7,-6,-2,-25,16.115000000000002
3224,-19,23,-11,18,15,23,8,13,16.12
3225,-31,22,-14,-18,11,-20,-11,-21,16.125
3226,12,-28,-22,-3,-44,3,-3,3,16.13
3227,28,13,35,3,48,15,6,9,16.135
3228,-45,3,13,6,-16,-12,-5,-4,16.14
3229,70,25,-18,-17,-8,2,11,27,16.145
3230,-13,-18,-24,5,-34,-7,8,18,16.15
3231,-3,28,4,12,15,-2,-5,0,16.155
3232,-2,-53,8,-28,-41,-13,-11,-28,16.16
3233,16,48,-44,-19,-30,-12,-8,16,16.165
3234,-46,-38,-21,-4,-4,2,0,-36,16.17
3235,40,-26,-1,9,28,3,5,21,16.175
3236,-26,10,1,-2,16,-3,1,6,16.18
3237,29,-5,34,13,12,8,4,-6,16.185
3238,-7,11,7,-5,28,14,0,3,16.19
3239,-30,10,20,19,-9,-29,-14,-11,16.195
3240,61,-7,28,-2,-30,-14,6,39,16.2
3241,-105,-26,-22,-12,15,46,9,-7,16.205000000000002
3242,-16,26,12,-4,28,-12,-15,-22,16.21
3243,2,-21,5,13,2,-3,0,3,16.215
3244,2,-28,-17,-10,-7,-11,0,3,16.22
3245,-5,-1,-29,0,1,-24,-13,-16,16.225
3246,24,14,5,2,14,-7,7,20,16.23
3247,-11,15,-43,5,0,28,10,-5,16.235
3248,-43,15,25,11,78,39,8,-6,16.240000000000002
3249,-16,-53,1,-2,-29,-17,-7,-9,16.245
3250,33,30,38,-11,26,9,-5,-5,16.25
3251,10,7,-10,-5,4,-20,-12,14,16.255
3252,-31,10,38,38,84,45,14,9,16.26
3253,21,-14,-51,15,34,9,4,-6,16.265
3254,79,81,19,-4,-53,-15,-5,11,16.27
3255,-81,-91,6,-18,-10,23,12,-4,16.275
3256,1,44,26,17,-33,-9,-9,-49,16.28
3257,-6,18,-38,-47,19,-21,-14,-19,16.285
3258,43,-36,8,38,69,56,30,51,16.29
3259,51,45,-61,-33,-32,-17,1,15,16.295
3260,-96,-115,23,17,-45,-26,-32,-62,16.3
3261,4,53,44,11,13,9,-2,-17,16.305
3262,7,-16,10,7,-38,2,-3,-7,16.31
3263,31,28,7,-17,-20,-20,-5,11,16.315
3264,-15,4,-34,-15,-1,1,9,25,16.32
3265,32,-2,51,41,61,23,15,29,16.325
3266,-10,11,47,44,-15,-9,-12,-24,16.330000000000002
3267,11,-50,-67,-50,-14,-17,-7,-12,16.335
3268,-20,-10,-19,1,38,30,9,5,16.34
3269,55,-9,-28,-18,-67,-34,-6,9,16.345
3270,-78,-42,5,-15,74,36,11,-13,16.35
3271,-9,30,32,21,-25,-5,-11,-29,16.355
3272,8,25,-22,11,37,-11,-2,18,16.36
3273,64,67,31,-8,16,3,5,16,16.365000000000002
3274,-43,-51,-20,-25,-78,-22,-2,3,16.37
3275,-21,-33,-39,-2,56,30,9,1,16.375
3276,30,-19,-16,-14,-3,1,-1,16,16.38
3277,32,23,66,12,-5,3,10,31,16.385
3278,21,63,-33,-10,-3,-28,-7,19,16.39
3279,-44,-26,48,42,22,24,10,-12,16.395
3280,56,20,18,10,26,3,0,-11,16.4
3281,-120,-27,29,3,-37,-23,-13,-21,16.405
3282,23,-37,-28,-16,-18,-6,-7,-2,16.41
3283,3,49,14,0,19,4,-4,-11,16.415
3284,77,63,21,0,-39,-11,6,35,16.42
3285,-23,-7,39,-7,-8,-18,-4,10,16.425
3286,-37,-81,-33,-5,15,16,-5,-34,16.43
3287,-8,16,-30,-37,-80,-25,-1,7,16.435
3288,24,16,21,6,6,19,13,16,16.44
3289,46,16,-38,-29,-61,-15,-4,14,16.445
3290,-50,39,30,-1,8,-1,-9,-15,16.45
3291,-7,-11,-39,-13,34,-10,-7,-24,16.455000000000002
3292,-18,-41,-125,-21,-80,-24,-14,-7,16.46
3293,-8,-8,-1,18,-1,12,9,-7,16.465
3294,23,44,17,-1,2,3,10,25,16.47
3295,11,-15,26,13,-19,-10,-4,6,16.475
3296,-15,57,-55,-36,-11,16,3,-17,16.48
3297,18,-82,-56,-14,4,-2,-6,0,16.485
3298,-11,0,-38,-33,11,-14,-7,-24,16.490000000000002
3299,19,91,53,44,-17,7,0,11,16.495
3300,12,-50,7,-9,-9,-16,3,12,16.5
3301,-7,-29,19,7,22,-1,-9,-5,16.505
3302,3,28,-7,-2,-20,13,9,7,16.51
3303,24,-60,-15,5,-5,-11,0,16,16.515
3304,-38,-2,-15,-32,-16,-17,-12,-15,16.52
3305,-38,6,13,14,67,38,7,-32,16.525
3306,-17,-20,-4,3,-64,-26,-6,-10,16.53
3307,24,32,27,10,58,23,2,8,16.535
3308,-40,-8,40,5,-7,-5,-1,2,16.54
3309,45,39,-22,17,-19,-12,8,30,16.545
3310,-41,24,30,-3,-7,6,-3,8,16.55
3311,-4,-22,27,-18,-15,-9,-7,-23,16.555
3312,63,15,-8,-3,-18,-14,8,45,16.56
3313,-85,-96,-53,-13,-5,3,-24,-93,16.565
3314,43,40,38,31,60,2,2,17,16.57
3315,-7,4,-19,-21,-40,-15,-1,4,16.575
3316,31,-8,26,3,26,10,1,2,16.580000000000002
3317,8,35,18,11,-7,31,21,28,16.585
3318,44,-14,-46,-20,-23,-30,-13,-1,16.59
3319,-46,-60,11,-8,-5,8,2,-10,16.595
3320,46,30,22,33,19,15,8,8,16.6
3321,-58,-64,-9,-23,-68,-17,-6,-11,16.605
3322,51,67,35,4,47,33,19,40,16.61
3323,-89,0,-30,-17,-69,-29,-24,-60,16.615000000000002
3324,1,-53,6,34,63,25,8,-7,16.62
3325,71,67,22,14,-19,-13,2,8,16.625
3326,-35,48,-25,-13,5,-8,-6,-5,16.63
3327,37,6,-10,1,10,-8,-2,14,16.635
3328,-33,10,17,13,-13,24,12,-6,16.64
3329,-17,6,-9,-24,24,-11,-14,9,16.645
3330,22,-41,-28,6,-9,-11,-2,-14,16.65
3331,65,14,20,-4,27,16,13,40,16.655
3332,-57,60,-19,4,59,8,-7,-34,16.66
3333,-6,-22,31,12,5,-5,1,5,16.665
3334,41,-3,-1,29,4,24,10,24,16.67
3335,-14,-10,-22,-35,-40,-9,-3,-15,16.675
3336,-28,-74,-47,-4,-39,-13,-8,-16,16.68
3337,-5,32,8,-17,-3,-4,-2,-14,16.685
3338,-55,-82,-8,0,-23,-23,-12,-18,16.69
3339,36,35,2,26,-12,4,6,11,16.695
3340,31,68,36,-12,0,0,8,18,16.7
3341,-11,-83,-49,36,85,67,20,-5,16.705000000000002
3342,-22,-5,28,-4,-15,-20,-13,-21,16.71
3343,-17,-5,-8,-7,4,4,-3,4,16.715
3344,-17,-22,21,5,-61,-43,-7,-2,16.72
3345,29,57,-17,-18,-12,0,3,33,16.725
3346,19,-4,17,16,-25,18,12,-23,16.73
3347,-47,-32,8,-17,-19,-33,-17,-13,16.735
3348,-13,-20,13,-4,-8,-1,-11,-10,16.740000000000002
3349,20,26,-1,-26,-13,-26,-13,-3,16.745
3350,5,-24,-13,6,-14,-7,-4,9,16.75
3351,37,68,36,19,-10,-2,9,28,16.755
3352,-56,-32,-16,-35,-20,2,-8,-28,16.76
3353,-18,9,3,15,-43,-9,-5,-29,16.765
3354,-3,14,-6,-10,10,-3,4,15,16.77
3355,-4,13,7,16,-33,-5,-2,-17,16.775
3356,21,25,4,0,48,20,5,0,16.78
3357,1,-33,-10,20,-40,-6,0,-8,16.785
3358,-8,4,29,2,-2,-3,1,-2,16.79
3359,-6,-13,-11,15,42,22,9,6,16.795
3360,45,-4,7,1,-27,-23,-4,7,16.8
3361,-33,30,-10,-38,-18,-18,-9,-20,16.805
3362,8,-18,-22,24,43,25,4,2,16.81
3363,-19,-14,-28,14,44,11,6,13,16.815
3364,35,29,8,3,-16,-20,-5,26,16.82
3365,-42,31,-14,11,43,27,13,-3,16.825
3366,9,-22,10,-5,-30,-25,-16,-25,16.830000000000002
3367,9,10,19,-1,0,8,3,17,16.835
3368,7,18,-23,-5,-7,5,1,-4,16.84
3369,49,5,-4,-13,-51,-23,-1,29,16.845
3370,-13,-7,24,-9,-7,9,11,17,16.85
3371,-9,60,11,31,36,12,1,-19,16.855
3372,-4,-25,6,-9,-6,0,-5,-17,16.86
3373,13,-32,-38,2,-13,-19,-9,1,16.865000000000002
3374,-12,-16,-21,-23,1,-2,-2,-7,16.87
3375,31,-46,-46,-1,-7,7,4,22,16.875
3376,2,97,-17,14,50,16,7,16,16.88
3377,-1,-2,-26,-24,-27,-13,-7,-11,16.885
3378,-15,29,12,5,41,21,-3,5,16.89
3379,59,-18,14,17,4,3,12,38,16.895
3380,-72,11,-26,-15,-43,6,-12,-75,16.9
3381,-3,-62,-71,1,7,16,8,20,16.905
3382,-6,15,-61,-21,-30,-27,-14,-21,16.91
3383,0,-27,12,-25,-21,-16,-6,7,16.915
3384,32,39,56,7,40,2,10,33,16.92
3385,-23,-50,51,28,65,22,-3,-27,16.925
3386,12,-39,16,-3,-21,-12,2,15,16.93
3387,-13,3,12,-20,9,9,-2,-9,16.935
3388,12,-31,-9,-23,-62,-25,-12,-5,16.94
3389,-22,55,83,20,13,19,12,7,16.945
3390,13,-80,40,8,33,9,1,-4,16.95
3391,-34,-11,-3,0,-34,-11,-6,-19,16.955000000000002
3392,12,-42,0,-7,-15,-15,0,21,16.96
3393,48,83,56,54,73,27,10,16,16.965
3394,-20,19,-64,-30,32,-5,-8,-23,16.97
3395,-21,-62,-58,-26,-24,0,-8,-27,16.975
3396,22,-26,22,31,15,-3,1,14,16.98
3397,3,23,16,-36,-26,-22,-3,7,16.985
3398,-23,35,23,36,18,8,8,3,16.990000000000002
3399,22,7,2,20,50,34,9,0,16.995
3400,-22,-9,7,-2,-25,-14,1,14,17.0
3401,0,-12,-5,-24,1,7,-6,-14,17.005
3402,12,52,-9,-13,-26,-2,0,8,17.01
3403,1,-29,13,-2,-3,-11,1,11,17.015
3404,-6,-6,-20,-2,8,-1,-1,11,17.02
3405,19,4,3,3,-27,-10,-4,-3,17.025
3406,13,0,-18,-1,-21,-7,2,8,17.03
3407,-24,60,9,5,2,7,5,27,17.035
3408,-64,-37,-16,-16,-49,-19,-16,-42,17.04
3409,22,-39,-9,-7,67,10,-3,-21,17.045
3410,-7,17,-7,3,0,2,-3,7,17.05
3411,19,-8,21,-6,-38,-32,-8,-15,17.055
3412,14,23,17,-4,18,20,20,50,17.06
3413,2,-84,-29,20,2,9,8,13,17.065
3414,-19,21,-11,-2,-32,-2,-9,-33,17.07
3415,8,51,39,-26,49,10,-3,-5,17.075
3416,8,18,6,15,54,12,5,1,17.080000000000002
3417,56,51,28,7,-5,-2,11,37,17.085
3418,-18,-102,-22,-2,9,-3,-6,-9,17.09
3419,-39,18,5,13,-8,-7,-5,-16,17.095
3420,15,-16,-9,-13,1,4,-4,-27,17.1
3421,-22,21,-9,-28,-42,-21,-11,12,17.105
3422,47,49,22,11,6,-2,9,26,17.11
3423,-11,30,-75,-17,2,15,-2,-25,17.115000000000002
3424,-22,-44,-17,-13,25,-1,-2,-4,17.12
3425,6,2,-26,1,-6,-2,-4,-3,17.125
3426,2,-25,10,-12,-12,-21,-7,3,17.13
3427,8,51,52,57,90,26,9,6,17.135
3428,18,-19,-13,-2,-17,-6,-6,-6,17.14
3429,-35,2,15,-3,-32,-2,0,-7,17.145
