slno,emg1,emg2,emg3,emg4,emg5,emg6,emg7,emg8,Time
0,0,5,-10,4,3,1,0,1,0.0
1,-1,3,-2,-5,-3,0,0,0,0.005
2,-3,-8,-1,0,-1,0,0,-2,0.01
3,-1,-2,-3,-2,-2,0,1,-2,0.015
4,0,2,1,-2,-2,0,-1,-1,0.02
5,1,3,-3,-13,-4,-1,-2,-3,0.025
6,-3,-6,-1,10,2,1,0,-2,0.03
7,1,-3,1,-2,0,-2,-1,-2,0.035
8,-3,2,1,-1,-2,-1,-2,-1,0.04
9,1,3,-3,0,-1,-1,-2,1,0.045
10,0,-2,3,-1,0,1,-2,-1,0.05
11,1,-4,-3,-2,0,0,-1,1,0.055
12,-1,-1,4,8,1,-2,-2,-3,0.06
13,1,0,-1,2,2,0,0,-1,0.065
14,0,-6,-4,-3,-3,-2,-2,-1,0.07
15,1,-1,-1,-6,-5,0,0,-1,0.075
16,3,6,2,1,2,1,-1,0,0.08
17,-4,2,11,16,2,-1,0,-2,0.085
18,-1,-3,-17,-5,0,-3,0,-1,0.09
19,-3,-1,2,-7,-3,-2,-2,-3,0.095
20,-6,-1,-2,0,-1,-2,-1,-1,0.1
21,-2,-2,-4,-10,-4,-1,1,-1,0.105
22,4,2,10,22,7,-1,1,1,0.11
23,5,2,-1,1,-1,1,0,2,0.115
24,-1,-7,1,4,0,-1,-2,-1,0.12
25,-1,-6,-1,-3,-1,-1,0,-1,0.125
26,1,1,0,-2,-1,-3,0,-2,0.13
27,-2,3,4,-4,-2,-1,-2,0,0.135
28,1,-4,-1,3,5,0,0,-1,0.14
29,-3,-3,-9,2,1,2,-1,0,0.145
30,0,3,-3,-13,-4,0,-2,0,0.15
31,-1,2,0,5,0,-2,0,-1,0.155
32,0,-1,11,4,0,-2,1,1,0.16
33,-3,-5,-1,13,5,1,-1,0,0.165
34,1,4,2,1,1,-1,0,0,0.17
35,-1,1,-14,-14,-3,0,-1,0,0.17500000000000002
36,0,-4,1,-8,-6,-2,-1,-2,0.18
37,1,-4,4,-2,-1,-1,1,-1,0.185
38,-7,0,-3,3,1,-2,-1,-1,0.19
39,0,7,2,3,-1,-2,0,-2,0.195
40,0,-2,-4,-1,0,0,-2,1,0.2
41,0,-1,-4,-9,-2,-1,-3,0,0.20500000000000002
42,1,-1,-1,2,-2,-1,1,-1,0.21
43,2,0,1,2,1,-1,0,-1,0.215
44,-2,-5,-8,-2,-2,-2,0,-1,0.22
45,-3,-2,2,-6,-4,-1,-1,-1,0.225
46,0,-1,1,2,3,2,-1,1,0.23
47,-2,-1,-2,3,3,1,3,1,0.23500000000000001
48,0,0,2,-3,-3,-1,-1,0,0.24
49,1,-3,-7,0,-3,-4,-1,-2,0.245
50,-1,-4,-2,3,1,-2,-2,1,0.25
51,0,0,-1,-4,-2,0,-1,0,0.255
52,2,-1,4,-5,-3,2,-1,0,0.26
53,-3,-2,-9,6,-2,1,1,-2,0.265
54,-1,2,0,-3,-3,-2,0,0,0.27
55,1,-2,-3,0,0,-3,-1,-1,0.275
56,-8,-4,2,-13,-3,-2,-2,-1,0.28
57,2,2,0,0,-2,-2,0,-1,0.28500000000000003
58,-1,-2,-1,2,1,1,1,-3,0.29
59,-1,-3,-1,-3,-1,1,0,0,0.295
60,-2,-2,-6,2,-2,-1,-2,-1,0.3
61,0,0,4,-2,-1,0,1,1,0.305
62,1,0,-1,3,2,1,-1,-1,0.31
63,-1,-1,2,-4,-5,-3,-4,-3,0.315
64,0,0,-5,-1,0,-1,0,-1,0.32
65,-1,-2,1,-7,-2,-4,-3,2,0.325
66,-3,-2,2,7,3,0,0,0,0.33
67,1,-2,-4,-3,-3,0,-1,2,0.335
68,0,0,-2,2,0,-1,0,0,0.34
69,0,0,0,-4,0,-1,-2,-1,0.34500000000000003
70,-2,0,-8,-13,-5,-2,-3,-1,0.35000000000000003
71,-2,-4,-1,3,2,0,-2,-2,0.355
72,0,-3,-1,6,2,-2,-1,-1,0.36
73,4,2,1,4,3,0,1,1,0.365
74,0,0,3,-8,-5,-1,0,-2,0.37
75,-1,1,2,5,-1,-1,-1,-1,0.375
76,-2,0,-3,-3,-2,1,-2,-1,0.38
77,-2,-1,5,-1,-2,0,-2,-1,0.385
78,0,-1,-2,-1,0,-1,-1,2,0.39
79,-1,1,3,-9,-4,-3,-1,0,0.395
80,1,0,-6,4,2,0,0,0,0.4
81,-1,-1,-1,0,1,0,0,-1,0.405
82,-2,2,2,3,-1,-2,0,-2,0.41000000000000003
83,1,-2,-3,-8,-3,-2,-2,0,0.41500000000000004
84,-1,-4,-4,-9,-4,-3,0,-1,0.42
85,0,-1,3,-1,-3,-1,-2,-3,0.425
86,5,1,-7,1,1,2,0,2,0.43
87,-2,-3,4,3,2,-1,2,-4,0.435
88,1,2,-9,-4,1,1,0,1,0.44
89,0,1,4,1,-3,-1,-1,1,0.445
90,-1,-1,1,-9,-4,-3,-3,-2,0.45
91,1,1,3,7,2,-1,0,1,0.455
92,-1,-2,-3,2,-3,-2,-1,-1,0.46
93,-1,0,-4,-6,1,-2,-1,-1,0.465
94,0,-1,1,3,-1,0,-2,0,0.47000000000000003
95,-3,-1,-4,4,2,1,-1,-1,0.47500000000000003
96,-1,-1,4,-5,-3,-3,-2,-2,0.48
97,-3,0,-2,5,2,1,1,0,0.485
98,-2,-4,-4,-10,-5,-3,-1,-1,0.49
99,-1,-1,1,-8,-2,-1,-1,-1,0.495
100,0,-1,0,6,0,0,-1,0,0.5
101,-7,-5,5,0,2,-1,1,-1,0.505
102,-1,-1,-12,2,1,-2,0,-2,0.51
103,-1,-4,-5,-8,-4,-1,-2,-2,0.515
104,3,2,7,-3,1,0,-1,-1,0.52
105,-3,-3,-9,3,1,0,-1,-1,0.525
106,2,1,6,1,0,-1,-1,1,0.53
107,-3,0,-1,2,1,-2,-1,-1,0.535
108,-2,-1,4,-1,0,-2,2,0,0.54
109,2,-1,-1,-5,-3,0,-3,-2,0.545
110,-2,0,1,6,1,2,2,0,0.55
111,0,1,-4,-2,-1,-1,0,-1,0.555
112,3,1,3,0,0,0,-1,1,0.56
113,-2,1,-4,0,0,0,1,0,0.5650000000000001
114,0,2,5,3,0,-1,-1,-1,0.5700000000000001
115,2,-2,3,0,-1,0,0,-1,0.5750000000000001
116,0,-1,-4,7,4,1,1,0,0.58
117,-1,1,0,1,-1,-2,-1,-1,0.585
118,0,1,1,-5,-2,0,-2,-1,0.59
119,3,1,-1,-1,1,0,0,-1,0.595
120,-2,-4,-1,11,0,-1,-2,-2,0.6
121,-1,-1,1,-5,-2,0,-1,0,0.605
122,-3,-2,0,0,-3,0,-2,-1,0.61
123,-4,-5,-1,-5,1,-2,1,-1,0.615
124,-3,-2,1,-1,0,1,0,-1,0.62
125,2,1,4,0,0,-1,-1,-2,0.625
126,-2,-3,-5,-7,-3,-4,-2,-2,0.63
127,-4,0,-1,-3,-3,0,0,-2,0.635
128,-3,-1,-3,9,-1,-1,-1,-2,0.64
129,-1,-4,-5,1,2,-1,-1,-2,0.645
130,3,0,-3,-11,-5,-2,-1,-1,0.65
131,-6,-3,3,7,3,0,-1,1,0.655
132,-5,0,0,-2,1,0,0,-2,0.66
133,-1,0,-4,-6,-4,-1,0,0,0.665
134,1,2,0,-3,-1,-1,-2,-1,0.67
135,-14,-6,-9,-6,0,0,-3,-5,0.675
136,2,2,2,4,1,0,-2,-1,0.68
137,-1,0,1,-1,-4,-1,1,0,0.685
138,-5,-1,-1,4,0,0,0,0,0.6900000000000001
139,4,0,-3,-2,-3,-2,-1,2,0.6950000000000001
140,-1,-1,3,-10,-2,-1,-2,1,0.7000000000000001
141,-2,-1,-8,-4,-2,-2,0,-2,0.705
142,-2,-2,-2,7,2,1,0,-1,0.71
143,7,4,6,18,9,3,2,1,0.715
144,-1,-3,-3,-9,-3,-4,-1,-1,0.72
145,2,0,1,0,-1,-2,-3,-1,0.725
146,-1,-2,-5,-1,1,1,-1,-1,0.73
147,2,-3,-2,-5,-5,-2,-1,-1,0.735
148,-1,-1,-2,4,2,1,2,-2,0.74
149,3,3,0,3,1,2,1,0,0.745
150,3,3,3,4,3,-1,1,0,0.75
151,-2,0,-3,-3,-3,-2,-4,-2,0.755
152,0,2,-3,-3,-2,0,0,0,0.76
153,-1,-1,-2,-2,-1,0,-2,-2,0.765
154,0,-5,-1,-1,-3,-1,-1,-1,0.77
155,0,-8,-3,-2,-4,-1,1,0,0.775
156,1,-2,-1,-3,0,0,-2,2,0.78
157,-1,0,2,3,4,0,0,0,0.785
158,-5,5,-2,1,-3,-3,-3,-3,0.79
159,-1,10,-2,-3,-2,0,-2,0,0.795
160,0,3,-3,-3,0,0,-1,-1,0.8
161,1,0,4,4,2,-1,-1,-2,0.805
162,-2,-7,-3,-6,3,3,1,0,0.81
163,2,0,3,6,2,0,1,1,0.8150000000000001
164,-1,-2,-2,-1,-5,-3,-3,-3,0.8200000000000001
165,-2,-2,0,0,-3,-1,-1,0,0.8250000000000001
166,1,-7,2,-1,-4,-2,-1,-3,0.8300000000000001
167,-2,-7,3,-1,-3,-2,1,-1,0.835
168,-6,-6,2,-4,0,0,-1,-2,0.84
169,0,-5,-1,-5,-3,-1,0,0,0.845
170,-2,-3,0,3,0,-1,-1,-1,0.85
171,0,1,-3,0,-1,-3,-1,-1,0.855
172,3,-1,0,2,0,-1,1,2,0.86
173,-2,0,-5,-2,-2,0,1,0,0.865
174,-1,4,1,4,1,1,2,-1,0.87
175,0,1,-4,-2,0,1,-2,-2,0.875
176,-6,-4,-1,-2,-2,-2,-1,-1,0.88
177,-3,1,-1,-3,-3,-1,-1,-1,0.885
178,-4,-1,2,4,1,0,0,1,0.89
179,-2,-1,1,0,0,1,0,-1,0.895
180,0,-3,-3,-3,-3,-1,-2,-2,0.9
181,-5,0,2,-5,-2,-3,-3,-1,0.905
182,2,2,-1,4,0,-1,0,-1,0.91
183,0,-3,3,10,2,1,0,0,0.915
184,-1,-2,-6,-2,0,0,0,-1,0.92
185,-1,-3,1,1,0,-1,1,-1,0.925
186,3,1,-3,-20,-6,-2,-1,1,0.93
187,-4,-4,-4,12,3,-1,-2,1,0.935
188,2,3,6,1,-1,0,0,1,0.9400000000000001
189,4,-1,-6,10,2,-1,-2,1,0.9450000000000001
190,-8,-2,-2,-3,-1,-1,-1,-3,0.9500000000000001
191,1,-3,0,-4,-4,-1,-1,-1,0.9550000000000001
192,-1,1,-5,-11,-5,-1,-1,-1,0.96
193,-5,-3,0,-2,-4,-2,-3,0,0.965
194,1,3,4,1,-1,-3,-2,1,0.97
195,0,-1,-5,1,3,0,-1,0,0.975
196,1,2,0,3,3,1,1,2,0.98
197,0,-2,-1,-5,-1,-1,-1,-3,0.985
198,3,-1,0,1,1,1,-1,1,0.99
199,2,-4,1,-12,-7,-3,-2,-3,0.995
200,-2,-7,-14,2,2,0,-3,-1,1.0
201,3,1,0,0,-1,0,2,1,1.0050000000000001
202,-1,-5,-1,0,0,-1,-1,-1,1.01
203,3,1,2,-10,-3,-2,0,1,1.0150000000000001
204,-2,-3,2,4,1,-1,-1,-1,1.02
205,3,1,0,0,-1,0,1,1,1.025
206,1,3,-2,-1,-2,-2,0,-2,1.03
207,-2,1,0,-3,-2,-1,-1,0,1.035
208,-1,0,2,7,0,-1,-3,-1,1.04
209,1,3,-1,-4,-2,0,0,-1,1.045
210,3,1,3,3,-1,-1,-1,0,1.05
211,1,0,0,-3,0,0,0,-3,1.055
212,0,1,0,-4,-3,0,-2,-1,1.06
213,-3,2,0,-2,-1,0,-2,-2,1.065
214,-1,-2,0,-2,0,0,-2,1,1.07
215,-7,-7,-14,2,0,0,0,-1,1.075
216,0,-1,-4,1,1,-1,2,-1,1.08
217,2,2,0,-3,-4,-2,-2,-2,1.085
218,2,-1,0,9,4,0,2,0,1.09
219,-2,0,2,-7,-4,-3,-2,0,1.095
220,0,-1,-4,5,3,-1,0,2,1.1
221,1,-1,0,-4,-2,0,-2,0,1.105
222,1,5,-4,-4,-2,-1,-1,0,1.11
223,4,7,12,2,0,1,1,-2,1.115
224,4,-2,-12,4,1,2,2,1,1.12
225,4,4,4,7,2,1,0,1,1.125
226,-5,-2,-4,6,4,0,-1,-1,1.1300000000000001
227,-2,-1,1,0,-2,-2,-1,-1,1.135
228,-2,1,0,-12,-4,0,-1,0,1.1400000000000001
229,-1,-2,-5,-6,0,-1,-1,-1,1.145
230,0,-1,-2,-2,-3,-1,-1,0,1.1500000000000001
231,-2,-4,-11,-3,1,1,0,-2,1.155
232,3,4,7,0,-2,-1,1,0,1.16
233,-9,-8,-3,12,3,0,-2,-4,1.165
234,-4,-3,3,-1,-1,0,-1,0,1.17
235,-1,-3,-1,0,0,0,-3,0,1.175
236,0,-4,2,-6,-2,-3,-2,-2,1.18
237,0,-1,1,-2,0,0,0,1,1.185
238,0,-1,0,-10,-3,-2,1,1,1.19
239,-1,-2,3,16,5,0,-1,0,1.195
240,-3,-3,1,-1,-1,0,-1,-1,1.2
241,1,-3,-5,-2,-2,0,-1,-2,1.205
242,-2,-2,-1,0,-1,0,0,-1,1.21
243,4,0,10,-13,-5,-2,0,1,1.215
244,-1,-3,-16,6,2,0,0,0,1.22
245,-2,2,1,1,-1,0,-1,-1,1.225
246,-8,-5,-7,-4,-3,0,-2,-2,1.23
247,2,1,0,-2,-1,-1,0,-1,1.235
248,1,2,8,-3,-3,-2,-2,0,1.24
249,-3,-4,-1,-1,1,0,0,-1,1.245
250,4,2,5,8,2,-1,0,-1,1.25
251,-5,-5,-4,0,-1,-2,-1,-2,1.2550000000000001
252,-2,-2,1,1,1,1,-1,-2,1.26
253,-2,-1,-3,-2,-1,-2,-1,-2,1.2650000000000001
254,0,-3,-1,0,-2,-1,-2,-2,1.27
255,-3,-4,-2,-1,0,1,-2,-2,1.2750000000000001
256,2,2,4,4,-3,-3,-1,0,1.28
257,-2,0,0,-2,0,-1,0,0,1.285
258,1,2,2,2,-1,0,1,0,1.29
259,0,-1,-5,-5,-1,-1,-2,0,1.295
260,-3,-4,1,-1,-2,-2,-2,-2,1.3
261,3,2,4,5,4,1,-2,0,1.305
262,0,1,-2,2,0,0,-1,-1,1.31
263,1,1,-5,-3,-1,-1,1,0,1.315
264,-3,-1,4,-2,-2,1,0,-2,1.32
265,-5,-5,-3,1,-1,-1,0,-3,1.325
266,2,1,-1,-8,-2,-2,-1,-1,1.33
267,-4,-4,-1,14,1,0,-1,-1,1.335
268,3,3,7,-4,-2,-1,-1,0,1.34
269,-4,-3,-5,-10,-3,-1,-1,0,1.345
270,0,0,-2,21,2,0,0,0,1.35
271,3,-1,-8,-10,-1,-1,-1,1,1.355
272,-3,-1,0,13,3,-2,1,-2,1.36
273,2,2,3,-5,-5,-1,-1,2,1.365
274,3,6,3,-11,-3,-2,-3,-3,1.37
275,-1,1,1,2,0,1,0,2,1.375
276,-3,-1,-5,-8,-2,-1,0,-1,1.3800000000000001
277,-1,-2,-3,-6,-2,-2,-1,-2,1.385
278,-2,-3,-1,0,-1,0,0,-3,1.3900000000000001
279,1,-3,-3,-3,-3,-1,-2,-2,1.395
280,-3,0,-7,-8,1,1,1,0,1.4000000000000001
281,-2,0,2,4,-1,-4,-2,0,1.405
282,-2,-6,0,-1,0,-2,0,0,1.41
283,-2,-1,-1,-1,0,0,-1,-2,1.415
284,4,4,-4,-11,-1,1,-2,1,1.42
285,-2,2,-3,-5,-2,1,0,-2,1.425
286,-5,-5,-5,-1,2,-1,-1,1,1.43
287,-2,0,-2,6,1,-2,-2,-2,1.435
288,0,1,11,4,-1,-1,2,0,1.44
289,4,3,-15,7,2,1,2,0,1.445
290,-2,-5,-2,-14,-3,-1,-2,-2,1.45
291,-2,-2,5,6,0,1,1,0,1.455
292,-1,0,-1,-2,-2,-2,-2,-2,1.46
293,-1,-1,3,0,-2,0,-1,-2,1.465
294,-1,-3,2,2,0,0,0,0,1.47
295,2,0,0,-1,-2,-1,0,0,1.475
296,-1,0,-9,-6,-2,-1,-3,0,1.48
297,-3,-1,3,-2,-1,-2,-1,-2,1.485
298,1,-1,-2,3,1,0,1,-1,1.49
299,-1,-4,3,-6,-2,-2,-1,-1,1.495
300,-4,-3,-7,1,-1,0,-1,0,1.5
301,-1,-3,-3,-3,-1,0,-2,0,1.5050000000000001
302,-1,-4,1,7,1,-1,-1,2,1.51
303,-2,2,1,-9,-4,-3,-1,-3,1.5150000000000001
304,-2,-3,3,7,3,1,2,0,1.52
305,1,-1,1,-1,-1,0,0,0,1.5250000000000001
306,-2,-4,-1,0,-2,-1,-3,-1,1.53
307,1,0,2,-13,-4,-2,-2,0,1.5350000000000001
308,-5,-1,-8,2,-2,-2,0,-2,1.54
309,-3,0,3,3,-1,-2,0,-1,1.545
310,1,0,-5,0,-2,0,1,2,1.55
311,-6,-3,3,0,0,-1,-2,-1,1.555
312,2,0,-8,-15,-6,-4,-4,-3,1.56
313,1,-1,0,1,1,0,-2,-1,1.565
314,-4,-3,-4,-7,-4,-2,-2,-3,1.57
315,1,-3,-6,2,1,2,1,0,1.575
316,1,3,5,1,-1,-1,0,0,1.58
317,0,1,5,2,0,-3,-2,0,1.585
318,2,3,-5,-2,0,0,-1,-2,1.59
319,-6,-1,1,6,3,1,1,-2,1.595
320,0,0,1,0,1,-1,-1,-2,1.6
321,0,-2,-1,-1,-2,0,-1,1,1.605
322,4,-1,1,-5,-1,-1,0,0,1.61
323,1,-2,-4,2,-1,-1,0,0,1.615
324,1,-1,5,4,0,0,0,0,1.62
325,-1,-2,-1,-3,0,0,0,-1,1.625
326,-5,-3,-1,4,1,-1,-3,-4,1.6300000000000001
327,5,1,-1,-4,-3,0,0,1,1.635
328,0,0,0,-4,-2,-2,-1,-1,1.6400000000000001
329,0,-1,-1,9,5,1,0,1,1.645
330,-2,-3,-3,-3,-3,0,1,0,1.6500000000000001
331,-2,-2,-5,-6,-1,-1,1,-1,1.655
332,-2,0,1,7,-1,-1,-1,-1,1.6600000000000001
333,-1,-3,-2,-6,-4,-2,1,0,1.665
334,2,3,7,-1,1,-1,-1,-1,1.67
335,-4,-3,-5,1,-1,-2,-2,0,1.675
336,-1,-1,-3,-17,-4,-2,-2,0,1.68
337,-1,-3,0,3,-2,-2,-2,-2,1.685
338,0,0,-4,6,4,2,1,3,1.69
339,0,-1,2,6,-1,-2,1,0,1.695
340,1,-1,0,3,0,0,0,0,1.7
341,-3,-3,-1,-8,-2,-1,-1,-1,1.705
342,1,-3,4,-10,-5,0,0,0,1.71
343,-1,-5,2,-2,0,-1,-1,-1,1.715
344,-2,-5,-6,-4,-2,1,0,-2,1.72
345,4,4,-3,1,3,1,1,1,1.725
346,0,-2,-2,-2,-3,-1,0,0,1.73
347,0,2,-3,2,3,0,-1,-1,1.735
348,-4,-5,5,3,-1,-2,0,-1,1.74
349,1,3,0,-3,-3,0,0,-1,1.745
350,-1,5,-2,-1,0,-5,0,-1,1.75
351,1,-2,-1,-2,0,1,0,1,1.7550000000000001
352,-3,1,-2,-3,-1,-3,-1,-2,1.76
353,-1,-1,-2,0,-1,-1,-2,-1,1.7650000000000001
354,-3,0,2,3,1,2,0,1,1.77
355,-2,-2,1,-3,-3,-2,-1,-1,1.7750000000000001
356,0,-2,3,9,2,2,-1,0,1.78
357,-2,-4,0,12,1,0,0,0,1.7850000000000001
358,-1,0,-4,-2,-3,-1,-3,-1,1.79
359,-2,0,-1,-1,-1,-1,-2,-2,1.795
360,-1,-6,0,-2,0,0,0,0,1.8
361,3,4,0,-11,-5,-3,0,0,1.805
362,-1,4,5,11,5,-1,-1,-3,1.81
363,-4,-3,-5,-4,-1,0,-1,-1,1.815
364,0,-1,-2,0,0,0,-1,0,1.82
365,3,3,0,-4,-3,0,0,2,1.825
366,-2,3,-1,-4,-4,-3,-2,-2,1.83
367,-4,-4,-3,7,3,0,1,-1,1.835
368,-2,-1,1,-2,-3,0,-2,0,1.84
369,-2,-2,-1,-4,-2,-3,2,-2,1.845
370,-3,0,0,6,2,1,2,-1,1.85
371,2,1,0,-4,-2,-2,0,-1,1.855
372,-2,0,-2,1,-2,-1,0,-2,1.86
373,-3,-2,-2,-4,-1,1,-2,-1,1.865
374,-1,-3,-4,-4,-2,1,-2,1,1.87
375,2,-1,5,-4,-2,0,-2,0,1.875
376,1,1,-5,5,2,0,-1,1,1.8800000000000001
377,-5,0,-1,-7,-1,-2,-1,-3,1.885
378,2,2,6,3,0,-3,0,-2,1.8900000000000001
379,-2,-2,-15,-1,0,-1,0,-1,1.895
380,1,3,3,-1,-3,1,1,0,1.9000000000000001
381,1,1,-1,0,0,0,-1,-1,1.905
382,2,0,-3,-4,-1,-1,-2,0,1.9100000000000001
383,-1,0,3,-1,-1,1,-1,0,1.915
384,-2,-1,4,-3,-1,-2,0,-1,1.92
385,-4,-3,-6,1,1,-1,0,-2,1.925
386,-2,0,-2,-6,-1,-3,-3,-2,1.93
387,-1,-2,5,11,2,-1,-1,0,1.935
388,-1,0,-3,-10,-5,-3,-2,-3,1.94
389,-4,-2,1,10,5,1,0,-1,1.945
390,3,-1,-1,3,-2,-1,-2,0,1.95
391,-3,-2,-4,-10,-1,-1,-1,-1,1.955
392,-2,-5,-2,3,1,-1,0,-1,1.96
393,0,-2,-8,-13,-5,-1,-1,-1,1.965
394,0,1,6,-7,0,-1,-1,-1,1.97
395,0,-1,-8,20,4,2,-1,-1,1.975
396,2,0,1,-1,1,0,-1,0,1.98
397,0,0,-1,-2,0,0,0,0,1.985
398,-1,-2,-2,5,2,1,-1,1,1.99
399,-1,-1,4,-7,-3,-4,-1,-1,1.995
400,1,2,-1,4,2,-2,-1,0,2.0
401,0,-1,3,-4,-4,-3,-2,-2,2.005
402,-4,-2,-14,5,0,-1,1,-2,2.0100000000000002
403,1,0,-2,-14,-6,0,-1,-1,2.015
404,-8,-10,-5,3,1,0,0,-2,2.02
405,-1,-1,3,-9,-3,-1,-3,1,2.025
406,1,1,2,5,3,2,2,1,2.0300000000000002
407,0,-1,-1,4,0,-1,1,-1,2.035
408,3,2,2,-3,-2,1,1,1,2.04
409,0,2,2,3,1,0,0,-1,2.045
410,-1,-4,-5,-1,-2,-2,-4,-3,2.05
411,2,0,-1,-10,-3,-1,-1,2,2.055
412,-1,3,4,1,-2,0,0,0,2.06
413,-1,1,1,2,-1,-1,-2,0,2.065
414,-4,-1,-3,-18,-5,-1,0,-1,2.07
415,-1,-1,0,15,5,1,-1,0,2.075
416,-3,-4,-3,-3,-3,0,-1,0,2.08
417,-1,1,0,12,1,2,0,1,2.085
418,-2,-5,-1,-5,-3,-1,-2,-1,2.09
419,0,-2,3,-2,-1,-1,-1,-2,2.095
420,2,1,-1,-1,-1,-1,0,-1,2.1
421,-4,-4,-6,-4,0,0,-1,-3,2.105
422,0,-1,3,-1,-3,-2,0,0,2.11
423,-2,-1,4,-1,-1,0,0,0,2.115
424,-1,-3,-16,-1,-2,-2,-2,-1,2.12
425,2,3,2,1,3,1,0,-1,2.125
426,-1,-1,-1,1,-1,-1,-3,-1,2.13
427,0,2,2,-4,-1,-1,-1,-2,2.1350000000000002
428,0,-3,1,-2,-4,-2,-2,-2,2.14
429,2,4,-1,-4,-3,-2,0,-1,2.145
430,0,0,1,1,-1,0,1,1,2.15
431,-3,-1,-4,-8,-4,-1,-1,-1,2.1550000000000002
432,1,-1,-2,-7,-1,0,-1,0,2.16
433,0,0,0,3,0,-2,1,-1,2.165
434,-2,-1,0,-3,-1,0,0,-1,2.17
435,-2,-2,-7,2,1,-3,-1,-2,2.1750000000000003
436,0,0,2,-1,0,0,-1,0,2.18
437,-2,-4,1,0,-2,-2,0,-2,2.185
438,0,1,0,-2,-1,0,0,-1,2.19
439,0,-1,1,-1,-1,1,-1,0,2.195
440,-3,3,2,3,0,-1,-1,1,2.2
441,-1,0,0,3,0,-1,-2,1,2.205
442,-1,-1,0,0,0,-1,-2,0,2.21
443,2,-3,-1,-1,0,1,2,1,2.215
444,-3,1,-1,-6,-1,-1,0,-2,2.22
445,0,-1,1,6,-1,0,-3,-3,2.225
446,-1,-2,-5,-2,-2,-1,-1,-1,2.23
447,0,-2,1,1,-1,-2,-1,1,2.235
448,-1,-3,-6,-1,0,0,0,-3,2.24
449,3,0,-1,-3,-2,1,1,-1,2.245
450,-4,-2,-4,-4,-3,-3,-2,-4,2.25
451,2,2,2,-3,-2,-1,-1,-4,2.255
452,-1,1,3,7,2,0,1,-1,2.2600000000000002
453,1,-2,-3,-3,-1,-1,-1,-1,2.265
454,2,-2,1,4,1,-1,-1,0,2.27
455,-1,-3,1,-4,-3,-3,-2,-1,2.275
456,-5,-5,-2,-2,-1,-2,-1,-1,2.2800000000000002
457,-6,-6,-2,-3,-1,-2,0,0,2.285
458,-1,-9,-2,-7,-2,-1,0,-2,2.29
459,0,-4,1,12,5,2,0,1,2.295
460,3,1,2,1,0,-1,-1,-1,2.3000000000000003
461,1,4,-1,-4,-2,-1,-2,0,2.305
462,-1,3,3,4,1,1,1,0,2.31
463,2,-3,-1,-5,-1,0,0,1,2.315
464,0,-7,1,3,0,1,-1,0,2.32
465,0,-7,-5,-13,-5,-2,-1,-2,2.325
466,-3,-43,0,-1,-2,0,2,0,2.33
467,1,-6,3,27,6,1,0,-1,2.335
468,-1,8,1,4,0,1,1,-1,2.34
469,-3,20,-1,0,-1,-1,-1,-2,2.345
470,-3,23,-3,-6,-2,-1,0,-2,2.35
471,-3,6,-4,-12,-5,-3,-2,-2,2.355
472,-2,-2,-1,-4,-3,-2,-2,0,2.36
473,2,-7,0,5,-1,-1,1,-1,2.365
474,-8,-11,-1,0,-3,-2,-1,0,2.37
475,-1,-7,2,-3,-1,0,0,-1,2.375
476,0,-1,1,-1,1,-1,0,-1,2.38
477,3,-1,5,-5,-2,0,-1,1,2.3850000000000002
478,1,4,-7,11,5,1,-2,-1,2.39
479,0,-1,-3,-9,-4,-4,-1,0,2.395
480,0,0,0,-2,0,-1,-1,0,2.4
481,-2,-1,1,-5,-2,0,0,1,2.4050000000000002
482,2,8,4,12,4,0,1,1,2.41
483,-2,4,-5,-2,-1,0,-1,-2,2.415
484,3,4,0,-2,-1,-1,-1,1,2.42
485,-1,1,-1,2,3,-1,-2,2,2.4250000000000003
486,-2,3,0,-11,-5,-4,-2,-2,2.43
487,1,-3,-4,-11,-5,0,-1,-1,2.435
488,0,-12,4,7,2,0,-1,-1,2.44
489,-3,-3,-10,0,1,0,-1,-3,2.445
490,-1,5,-2,-2,-1,0,-2,-4,2.45
491,-4,5,-2,-10,-1,-3,-2,-3,2.455
492,-3,7,1,10,0,-1,0,-1,2.46
493,-1,1,0,1,0,-1,0,1,2.465
494,2,4,1,-5,-3,-2,-2,-2,2.47
495,-3,1,-5,-6,-2,-1,-1,0,2.475
496,-2,1,-5,-6,-1,-2,-1,-1,2.48
497,0,0,3,8,1,1,1,-1,2.485
498,0,-2,-3,-4,-2,-1,-1,0,2.49
499,1,0,4,3,1,0,0,1,2.495
500,-4,-2,-2,-7,0,-2,-1,-2,2.5
501,-2,1,4,2,2,-2,-2,-2,2.505
502,0,0,-14,-9,-2,-2,-1,-1,2.5100000000000002
503,0,0,2,3,0,0,-1,0,2.515
504,3,2,1,-6,-3,1,0,0,2.52
505,-1,-2,4,8,0,-2,0,-1,2.525
506,-1,-2,3,6,2,0,-1,0,2.5300000000000002
507,-3,-2,0,1,1,-1,0,-1,2.535
508,1,0,-4,-2,-1,-1,0,0,2.54
509,-8,-6,-5,-7,-3,0,-2,-1,2.545
510,1,-2,0,-3,0,0,-2,0,2.5500000000000003
511,-1,-5,0,0,-1,0,-1,1,2.555
512,4,0,-4,-1,-2,1,0,-1,2.56
513,-5,-8,-3,-2,-3,-1,1,-2,2.565
514,2,-10,-1,0,-1,0,0,-1,2.57
515,3,2,0,-1,-2,-1,-1,1,2.575
516,-1,3,0,-3,-2,-1,-1,0,2.58
517,3,-3,1,8,3,1,-2,-2,2.585
518,-2,1,1,-1,-1,-2,0,-2,2.59
519,2,2,1,-2,-2,0,-1,-2,2.595
520,-6,-3,-7,-2,-2,-1,-1,-2,2.6
521,1,3,-4,-2,1,0,0,-1,2.605
522,0,-3,1,4,-1,0,0,1,2.61
523,-3,-3,-1,1,-1,-2,-1,-2,2.615
524,4,4,2,-7,-2,0,0,-1,2.62
525,-10,-8,-5,-3,-1,0,-1,0,2.625
526,-2,-1,9,12,4,0,-1,0,2.63
527,0,-1,-3,5,-3,0,0,1,2.6350000000000002
528,-3,0,-2,0,-2,0,1,1,2.64
529,3,4,-3,-9,-3,-2,0,-1,2.645
530,0,-2,1,-8,-4,-3,-1,0,2.65
531,-3,-4,6,-3,-1,-2,-2,-2,2.6550000000000002
532,-2,-20,-1,7,1,-3,-2,-1,2.66
533,1,-4,-4,-2,-1,-1,-2,-1,2.665
534,-1,-1,-2,-1,1,2,1,0,2.67
535,-1,4,2,-2,1,-1,0,-1,2.6750000000000003
536,0,3,1,-2,-3,-2,0,-1,2.68
537,-2,2,1,-2,0,0,-2,-1,2.685
538,5,3,-2,0,-3,-1,-1,-1,2.69
539,-2,0,-6,1,1,0,0,-1,2.695
540,-2,2,-4,-3,0,0,-1,1,2.7
541,0,-5,0,5,-2,-1,-1,-1,2.705
542,1,3,-3,-3,-3,0,0,-2,2.71
543,-1,2,-4,-1,-2,-1,1,0,2.715
544,-1,-87,1,1,1,0,0,-1,2.72
545,4,-33,-3,-2,-1,0,2,2,2.725
546,-6,-21,-5,-8,-3,-1,-3,0,2.73
547,-1,-12,-5,4,1,-1,-2,-2,2.735
548,1,24,1,-4,-1,1,-3,-1,2.74
549,0,16,3,1,0,-2,-1,-1,2.745
550,-5,16,-1,5,0,0,1,0,2.75
551,2,33,5,1,0,-2,-2,-1,2.755
552,-2,34,-5,-1,-2,-1,0,-1,2.7600000000000002
553,2,17,3,4,1,-1,0,-1,2.765
554,-1,10,-1,-2,-2,-2,-3,0,2.77
555,2,2,-1,-3,-1,0,1,0,2.775
556,-2,14,1,-2,-1,-2,-1,-1,2.7800000000000002
557,-3,5,-2,-6,-1,0,-2,-1,2.785
558,-2,4,-4,-3,-1,-1,-2,-2,2.79
559,1,-6,1,6,2,-1,-1,-1,2.795
560,-2,3,-5,2,1,0,-3,-1,2.8000000000000003
561,-2,2,-3,-2,0,0,-2,-1,2.805
562,-1,-12,0,0,2,-1,0,0,2.81
563,1,-8,-1,-6,-3,1,0,0,2.815
564,3,6,4,2,1,-1,2,0,2.82
565,1,1,1,4,1,-1,-1,-1,2.825
566,2,-6,0,-3,-2,-1,-2,-3,2.83
567,-6,-10,-2,-1,0,0,-1,-1,2.835
568,1,0,-1,0,0,-1,-1,1,2.84
569,-2,-6,3,-2,-2,0,1,1,2.845
570,-2,-6,-10,-3,-2,-1,-1,-1,2.85
571,-2,-4,-3,-1,0,-2,-2,-1,2.855
572,-4,-4,-2,-4,-3,-2,-1,-1,2.86
573,-1,-8,-2,-4,0,0,-1,0,2.865
574,-1,-2,6,-1,1,0,0,0,2.87
575,-2,-7,-2,0,-4,0,-1,-3,2.875
576,-8,-5,2,1,0,1,-2,-2,2.88
577,-1,3,-2,6,1,-2,0,1,2.8850000000000002
578,-4,5,3,5,-1,-2,0,-2,2.89
579,-1,-5,-5,-10,-1,-1,1,0,2.895
580,1,3,3,-2,-2,0,1,0,2.9
581,0,-5,-1,1,0,0,-2,0,2.9050000000000002
582,1,0,1,2,3,1,0,0,2.91
583,2,5,-1,-3,-2,0,0,1,2.915
584,-8,-31,0,6,0,0,-2,-4,2.92
585,2,-24,6,-9,-7,-4,-1,0,2.9250000000000003
586,2,-39,-7,5,3,0,1,1,2.93
587,5,-7,5,1,0,-3,-2,0,2.935
588,1,18,-3,1,-2,-1,0,0,2.94
589,-1,-1,1,-2,-2,-1,-1,-1,2.945
590,-1,15,-2,-10,-4,-1,-3,0,2.95
591,-3,21,-2,-4,-1,0,-1,-1,2.955
592,1,33,5,16,2,-1,0,1,2.96
593,-3,20,-16,-3,0,-1,-3,-4,2.965
594,-1,15,6,4,-1,-1,1,-1,2.97
595,-2,8,-9,-5,1,-1,-2,-2,2.975
596,-1,1,-1,-8,-3,-2,-2,0,2.98
597,-1,2,1,-2,-2,0,-1,-1,2.985
598,-2,1,-5,-3,-1,-2,-1,-3,2.99
599,1,1,2,-1,-3,0,-1,-1,2.995
600,-1,-2,-4,0,3,0,1,-2,3.0
601,-1,3,-2,-1,-2,-1,0,-1,3.005
602,0,3,7,-2,-1,0,0,0,3.0100000000000002
603,-3,-5,-5,-7,-3,-1,-2,-2,3.015
604,4,3,-1,1,2,0,0,1,3.02
605,-1,2,-2,-5,-1,-2,0,-2,3.025
606,-1,1,-4,-3,-4,0,-2,-1,3.0300000000000002
607,-4,-6,6,11,3,0,-2,-1,3.035
608,4,1,-5,-14,-4,-3,-1,0,3.04
609,0,6,-1,-5,-2,-1,-2,0,3.045
610,2,3,3,8,1,-2,-2,0,3.0500000000000003
611,1,-2,-5,-5,-2,-1,-1,1,3.055
612,-1,0,2,-6,-2,0,0,-1,3.06
613,-2,-3,-9,-11,-3,-2,1,1,3.065
614,-4,-2,-2,4,2,0,1,-3,3.0700000000000003
615,-1,-1,1,2,-2,1,-1,-1,3.075
616,1,-5,-2,8,1,-2,-1,-2,3.08
617,2,1,4,4,3,1,1,1,3.085
618,-4,1,-3,-5,-1,0,0,0,3.09
619,-4,0,-1,-2,0,-2,0,0,3.095
620,2,-2,6,0,-1,-2,-1,1,3.1
621,3,5,5,0,2,1,0,1,3.105
622,0,6,-7,5,1,-1,-3,-1,3.11
623,-4,-2,3,3,-3,-2,-2,0,3.115
624,-3,1,0,-5,-4,-1,0,0,3.12
625,-1,-3,-2,-1,-1,-1,-2,-2,3.125
626,1,-6,-1,2,1,-1,0,1,3.13
627,1,-2,0,0,1,-2,-1,-4,3.1350000000000002
628,-4,-4,-2,-4,-3,-2,-3,-1,3.14
629,-3,-5,-1,1,0,-3,-2,-2,3.145
630,-1,-3,4,-1,-3,1,-1,0,3.15
631,-1,-5,-6,-4,-3,-2,-2,-3,3.1550000000000002
632,3,1,-1,2,1,2,-1,-2,3.16
633,-3,-2,-4,-1,-2,-1,-1,-1,3.165
634,1,-1,-3,-9,-2,-1,-2,0,3.17
635,4,-1,4,2,1,0,-1,2,3.1750000000000003
636,0,-4,1,-6,-4,0,1,0,3.18
637,-1,-4,-4,10,2,2,-1,1,3.185
638,-1,-2,-1,-6,-2,0,0,-1,3.19
639,-2,-5,-1,-5,-1,-1,1,-3,3.1950000000000003
640,-4,-3,-5,-6,-3,-2,0,-3,3.2
641,1,1,-2,4,-2,-4,0,-1,3.205
642,-2,-3,6,1,1,-2,-2,-1,3.21
643,1,0,-10,5,2,1,0,0,3.215
644,-2,-1,2,1,0,-1,-2,-1,3.22
645,3,2,5,-4,-1,-1,0,0,3.225
646,0,-1,2,7,1,-1,1,0,3.23
647,-2,-1,-3,-8,-5,-2,-1,-2,3.235
648,-1,0,0,-1,1,1,1,0,3.24
649,-8,-4,-4,-11,-2,-2,-1,-3,3.245
650,0,-2,-1,7,-1,0,-1,-1,3.25
651,-1,-1,0,3,-1,1,0,0,3.255
652,2,0,-6,-6,-5,-2,-1,0,3.2600000000000002
653,-1,0,1,2,2,0,-2,-2,3.265
654,1,-1,3,-8,-4,-1,-2,0,3.27
655,-3,-4,-9,-5,-1,-1,-2,-1,3.275
656,-1,-2,-2,4,3,0,0,-1,3.2800000000000002
657,-1,-1,-2,-5,-4,-3,-2,-1,3.285
658,-3,-4,-4,-8,-4,-2,-1,-2,3.29
659,-3,-3,0,5,-1,0,-2,-2,3.295
660,1,-1,-1,-7,-2,0,0,-1,3.3000000000000003
661,-1,-2,2,9,1,0,0,-1,3.305
662,-2,-1,-1,3,0,-2,-1,-2,3.31
663,2,-1,4,-3,-2,-2,1,0,3.315
664,-4,-3,-2,-1,-1,-1,0,-2,3.3200000000000003
665,2,-1,0,-1,0,-2,0,-1,3.325
666,1,-2,0,-1,0,-1,0,0,3.33
667,-1,0,1,-2,-2,-1,0,0,3.335
668,-2,-3,-2,1,0,-1,-1,-2,3.34
669,2,2,2,2,-1,2,0,0,3.345
670,-4,-3,-1,-2,-2,-2,-1,-1,3.35
671,-1,-1,0,-1,1,-1,-3,-1,3.355
672,-2,-1,-1,2,0,0,-2,0,3.36
673,1,0,0,-3,0,0,0,0,3.365
674,1,-1,-4,-4,-1,0,0,-2,3.37
675,-1,-1,1,-1,-1,-1,-1,1,3.375
676,0,-2,-4,-2,-3,0,-1,-1,3.38
677,0,1,1,3,-1,0,0,-2,3.3850000000000002
678,0,0,-6,-7,-3,-1,-1,-1,3.39
679,1,2,5,4,0,1,-1,-1,3.395
680,1,3,-4,-1,0,-1,-2,-1,3.4
681,-1,0,-1,-3,-1,-1,-2,0,3.4050000000000002
682,1,-1,-3,-3,-2,-1,-1,-2,3.41
683,2,1,1,1,1,1,0,1,3.415
684,-2,1,4,1,-1,-1,-1,-1,3.42
685,-6,-3,-2,-1,-2,-2,0,-1,3.4250000000000003
686,1,3,4,-12,-4,-4,-1,-1,3.43
687,-2,0,0,18,1,0,-1,-3,3.435
688,-2,-2,-5,7,5,1,0,-1,3.44
689,1,1,0,2,-1,1,-1,-1,3.4450000000000003
690,-1,-2,-1,4,1,0,-2,-1,3.45
691,-1,-4,-4,-15,-6,-4,-1,-1,3.455
692,-1,-3,-1,-15,-4,-1,0,1,3.46
693,-1,0,4,9,0,0,0,-1,3.465
694,-4,-4,-10,-2,-2,0,-2,-1,3.47
695,2,2,5,0,1,-1,0,1,3.475
696,2,0,-2,-1,-1,-1,0,-2,3.48
697,-2,-3,-10,-9,-1,-1,0,-1,3.485
698,-1,1,3,1,-2,-2,1,0,3.49
699,2,2,-2,-1,-1,-1,-1,1,3.495
700,-1,-3,2,2,-1,0,-2,-2,3.5
701,-1,1,0,-4,-3,-3,-2,-3,3.505
702,1,-1,-3,-1,0,0,0,1,3.5100000000000002
703,-5,-3,-1,-7,-4,-1,0,-1,3.515
704,-5,-5,-2,6,0,-2,0,-1,3.52
705,3,1,-3,-6,-2,-2,-2,0,3.525
706,-3,-4,4,7,4,0,-2,-2,3.5300000000000002
707,0,2,-11,-10,0,-1,-1,0,3.535
708,0,-1,2,0,-3,-1,-2,-1,3.54
709,2,-1,-1,-3,1,1,-1,1,3.545
710,-5,-6,1,3,-2,-1,0,-2,3.5500000000000003
711,0,-1,2,-4,-3,-1,-1,-2,3.555
712,-2,0,-1,2,-1,0,0,-1,3.56
713,-1,-1,-2,-1,0,-2,-2,-3,3.565
714,3,0,3,3,-1,-2,-1,-1,3.5700000000000003
715,-3,-5,-3,2,0,-2,0,-2,3.575
716,2,1,0,-7,-2,-2,-1,-1,3.58
717,-3,-4,-1,-4,0,0,0,0,3.585
718,-1,1,-5,-4,-1,2,0,-1,3.59
719,0,0,0,4,2,-1,0,-1,3.595
720,3,3,2,-1,-1,-1,0,1,3.6
721,1,-2,6,6,1,2,0,1,3.605
722,-2,-13,-7,-7,-2,-2,-1,-3,3.61
723,-1,-4,1,1,0,-1,1,-1,3.615
724,-1,-1,-1,-2,-1,0,-2,-1,3.62
725,-2,4,-2,-2,-2,-2,-1,-1,3.625
726,2,7,1,3,1,-1,0,2,3.63
727,-1,4,-1,-1,-2,0,1,-2,3.6350000000000002
728,-3,-4,0,4,2,1,-1,-2,3.64
729,-1,-3,-2,-3,-1,0,0,0,3.645
730,0,-8,0,-2,-1,0,0,1,3.65
731,-1,-11,1,-1,0,-1,-1,0,3.6550000000000002
732,1,-3,-2,0,-2,-1,0,0,3.66
733,-5,-3,-3,1,0,0,0,-2,3.665
734,1,3,1,-2,-1,-1,-1,-1,3.67
735,-3,-3,-3,-2,-1,0,-3,-2,3.6750000000000003
736,-3,-3,-1,-6,-2,-1,-2,-1,3.68
737,1,1,3,9,2,-2,-1,-1,3.685
738,-1,5,-11,-3,1,0,-2,0,3.69
739,-1,8,0,-4,-1,-2,-1,-2,3.6950000000000003
740,3,7,2,-3,-2,-1,0,2,3.7
741,-5,-2,-1,-4,-3,0,-2,-1,3.705
742,1,3,6,-2,0,2,0,-1,3.71
743,2,3,1,-6,-3,1,-1,-1,3.715
744,-1,2,-11,-8,-2,0,-1,-1,3.72
745,1,1,1,3,-2,-1,1,0,3.725
746,0,1,1,9,1,0,0,0,3.73
747,1,1,1,-4,-1,0,-1,1,3.735
748,-5,0,5,5,1,-3,-1,-1,3.74
749,-3,3,-9,-12,-2,-2,0,-2,3.745
750,-2,0,2,-4,-2,-2,1,0,3.75
751,-1,0,1,7,0,0,-2,-1,3.755
752,-1,2,-3,0,-1,0,-2,-1,3.7600000000000002
753,0,-2,-2,-2,0,0,0,-1,3.765
754,-2,-2,0,0,-1,-2,-3,-2,3.77
755,0,-1,4,0,-1,-1,2,-1,3.775
756,-2,-3,-8,5,1,0,0,-1,3.7800000000000002
757,-6,-6,-6,1,0,-2,-2,-2,3.785
758,0,-3,4,-5,-4,-1,-1,-1,3.79
759,-5,-5,-13,-3,2,2,-1,-2,3.795
760,-3,-6,-2,2,-1,0,-1,-3,3.8000000000000003
761,2,1,2,1,1,1,0,2,3.805
762,-1,-1,-2,5,1,0,-1,0,3.81
763,0,1,1,-9,-3,-3,1,0,3.815
764,-4,0,1,3,-1,-2,0,1,3.8200000000000003
765,-2,-2,-1,-4,-2,-1,0,-2,3.825
766,1,3,-3,-6,-4,-1,-3,0,3.83
767,-5,-5,3,15,-2,-1,-1,-1,3.835
768,-4,-2,-5,2,3,1,0,0,3.84
769,0,-3,1,2,-1,0,-2,-1,3.845
770,1,0,1,-5,-1,0,0,1,3.85
771,1,-2,-5,-9,-3,0,-2,0,3.855
772,2,0,4,-4,-4,-1,-1,0,3.86
773,1,-1,-3,0,-1,-1,-3,-2,3.865
774,-5,-2,-10,2,1,-1,-1,-2,3.87
775,-2,-3,-2,1,0,1,1,0,3.875
776,3,-1,3,2,1,-1,-1,0,3.88
777,5,2,6,-1,0,-1,0,0,3.8850000000000002
778,-2,-5,3,1,1,0,0,-2,3.89
779,0,0,-3,4,1,2,0,1,3.895
780,3,3,2,-1,0,0,0,-1,3.9
781,-1,-2,-4,-6,-3,-3,-1,-2,3.9050000000000002
782,-3,-4,-2,0,-2,-2,-1,-3,3.91
783,-1,-1,-3,1,2,-1,1,-2,3.915
784,0,1,1,-7,-3,-1,-1,-1,3.92
785,2,2,-1,9,2,2,0,1,3.9250000000000003
786,0,0,-1,-2,-4,-1,-1,0,3.93
787,0,3,0,-4,1,0,0,0,3.935
788,-2,-2,1,-8,-3,-1,1,-1,3.94
789,3,6,4,17,3,-1,-1,-1,3.9450000000000003
790,1,1,-4,-5,-2,0,1,0,3.95
791,2,1,0,1,-1,-1,-2,0,3.955
792,-2,0,-4,-1,0,-1,-1,-2,3.96
793,-2,-3,-4,-9,-2,1,-2,0,3.9650000000000003
794,-1,-2,0,-6,-1,0,-1,0,3.97
795,2,-1,-5,2,0,0,-1,1,3.975
796,-1,2,-4,2,0,0,0,-1,3.98
797,-3,-1,-1,-3,-3,0,0,-2,3.985
798,-2,2,1,-4,-1,-1,0,-2,3.99
799,-2,-4,-4,9,1,0,0,0,3.995
800,-2,-4,1,1,-1,0,0,-2,4.0
801,-2,-1,-5,-3,-1,-1,1,0,4.005
802,-3,0,1,-2,-1,-2,-2,-1,4.01
803,-9,-3,2,-3,-2,-1,-2,-3,4.015
804,-3,0,-5,3,1,0,0,-1,4.0200000000000005
805,-2,-2,1,-3,-2,-2,-1,-2,4.025
806,-1,-3,-1,3,-1,-3,-1,-1,4.03
807,4,1,3,0,-2,0,-1,0,4.035
808,-3,-1,0,-1,0,-1,-1,0,4.04
809,1,-1,1,-6,-2,-1,-1,0,4.045
810,-1,-3,-1,-3,-1,0,-2,0,4.05
811,1,-1,5,9,2,-1,0,-1,4.055
812,0,-1,-5,-1,1,1,0,0,4.0600000000000005
813,-2,1,-3,-2,-1,-1,-1,0,4.065
814,0,0,-2,-1,-3,0,1,-1,4.07
815,-5,-2,-3,-10,-5,-3,-4,-3,4.075
816,2,0,4,2,-2,0,-3,0,4.08
817,-3,-2,-1,-1,0,1,0,-2,4.085
818,-2,0,-2,3,1,-1,1,1,4.09
819,-3,-2,-1,-4,-2,-2,-1,-1,4.095
820,3,1,0,-6,-4,-2,-1,-2,4.1
821,-2,1,-1,5,0,-2,0,-1,4.105
822,-1,-1,0,3,3,0,1,0,4.11
823,2,0,-1,3,3,0,0,3,4.115
824,0,1,3,-6,-4,-2,-2,-1,4.12
825,1,-2,-3,-5,-2,-2,-2,1,4.125
826,0,0,1,15,1,-2,-1,-2,4.13
827,0,1,4,-5,0,-1,-1,1,4.135
828,-3,-2,-2,6,-2,-1,1,0,4.14
829,1,-2,5,-1,0,-1,-1,-1,4.1450000000000005
830,0,-3,-5,-12,-4,-1,-2,-2,4.15
831,-1,-1,-8,0,-1,-1,-1,-1,4.155
832,1,0,4,-4,1,0,1,-1,4.16
833,0,-3,-2,-4,-2,-2,-1,-2,4.165
834,2,2,4,2,-1,-2,0,0,4.17
835,2,-1,-1,-6,-3,-1,-1,-1,4.175
836,-3,-1,0,0,-1,-1,0,-1,4.18
837,1,2,-2,9,4,0,2,0,4.1850000000000005
838,-1,-1,-2,-6,0,0,-2,-2,4.19
839,0,2,-1,3,-1,1,0,-1,4.195
840,-1,-3,-3,3,0,-1,-2,0,4.2
841,-2,-4,1,6,1,-1,-1,-4,4.205
842,-3,-3,-4,-2,2,2,-1,0,4.21
843,-1,-1,-1,-7,-2,0,0,-1,4.215
844,-2,-1,-2,12,4,-1,-2,-4,4.22
845,1,-1,2,-2,-3,-2,-1,0,4.225
846,1,-3,-3,1,-1,-2,1,0,4.23
847,1,1,4,-7,-4,-3,-2,0,4.235
848,1,-3,-4,-2,5,2,-1,0,4.24
849,-8,-3,-3,5,0,-2,-2,-1,4.245
850,-1,5,6,7,0,-1,-3,1,4.25
851,-1,0,3,1,-1,1,-2,-1,4.255
852,-3,-1,-13,-14,-6,-3,0,-4,4.26
853,5,3,2,-5,-1,0,0,0,4.265
854,-1,2,-8,4,1,-2,0,-2,4.2700000000000005
855,-4,-3,-7,-8,-4,-2,-1,-3,4.275
856,2,1,8,20,3,0,-1,0,4.28
857,0,-5,-4,-6,-4,0,-1,0,4.285
858,3,-1,4,-3,-3,-1,-1,0,4.29
859,-2,-3,-6,-1,-1,0,0,-2,4.295
860,-1,0,1,-5,-3,-2,-1,-1,4.3
861,-5,-1,-4,-6,-2,0,-2,-3,4.305
862,-8,-4,2,-5,-4,-1,-3,-3,4.3100000000000005
863,2,-1,-7,9,4,1,0,-2,4.315
864,-1,2,5,-9,-3,0,-1,-1,4.32
865,-1,8,-8,10,3,-2,1,0,4.325
866,-2,0,2,-3,-1,-1,1,1,4.33
867,-3,0,-8,-11,-5,-4,-5,-2,4.335
868,1,0,-5,-4,0,-1,-1,0,4.34
869,2,-3,5,4,-1,0,-1,-1,4.345
870,0,5,0,-2,-3,-2,-1,-3,4.3500000000000005
871,-3,4,5,2,3,1,2,-1,4.355
872,2,15,2,-2,-2,0,0,1,4.36
873,0,7,-2,-6,-2,0,0,-1,4.365
874,-4,2,0,-3,-2,0,-1,-1,4.37
875,-2,4,3,1,-1,0,0,-3,4.375
876,-1,0,-4,-4,-1,0,-2,-1,4.38
877,1,-4,-3,-15,-3,0,0,0,4.385
878,0,-12,2,18,2,1,1,1,4.39
879,3,-5,5,-1,-2,-2,0,-1,4.3950000000000005
880,-4,-10,0,6,1,-2,0,-1,4.4
881,-3,2,-2,-4,0,-1,-2,0,4.405
882,1,-1,-1,-10,-3,-1,-2,-2,4.41
883,-1,1,-1,11,6,3,2,2,4.415
884,-1,8,1,1,-1,-1,0,-1,4.42
885,-2,12,1,-10,-6,-2,-2,-4,4.425
886,0,6,0,2,3,0,0,0,4.43
887,-1,-2,3,0,1,2,0,-1,4.4350000000000005
888,2,-11,-1,-4,-2,-1,1,0,4.44
889,-2,-11,-1,-3,-1,-2,-1,-1,4.445
890,-2,-7,-4,-6,-1,-1,0,-2,4.45
891,3,-2,1,3,-3,-3,-1,0,4.455
892,-5,-2,-3,-4,3,-1,-1,-2,4.46
893,-2,-3,0,-1,-2,0,1,-2,4.465
894,4,-2,2,-1,0,-1,-1,0,4.47
895,-2,-8,-11,-10,-5,-4,-2,-2,4.4750000000000005
896,-2,-6,-3,0,-3,-1,-1,-2,4.48
897,-2,-4,-3,6,1,0,-1,0,4.485
898,-1,-7,-6,-3,-2,0,0,-2,4.49
899,5,2,7,4,0,1,-1,-1,4.495
900,-9,-2,-4,-2,-3,-2,-3,-3,4.5
901,1,-3,-1,-1,2,1,-1,-2,4.505
902,-2,-1,-5,-5,-5,-2,-1,0,4.51
903,0,3,3,1,1,0,0,0,4.515
904,10,0,6,-5,-4,-1,2,1,4.5200000000000005
905,-6,-5,1,11,4,-1,-2,-1,4.525
906,-2,-6,-3,-6,-2,-2,-1,-1,4.53
907,-1,-1,0,4,1,-2,-3,-2,4.535
908,2,-1,1,4,0,0,-1,-1,4.54
909,-2,-5,0,0,-3,-1,0,0,4.545
910,0,-2,-2,-5,-2,1,0,2,4.55
911,-2,-3,7,0,-1,-1,0,0,4.555
912,1,3,-6,-3,1,0,-1,0,4.5600000000000005
913,2,4,2,0,0,0,0,0,4.565
914,-1,0,-3,7,2,0,1,-1,4.57
915,3,0,3,-3,-1,2,2,2,4.575
916,-9,-7,-3,-1,-3,-2,-1,-3,4.58
917,3,2,1,1,-1,-1,0,-1,4.585
918,1,-1,-1,1,1,0,-2,-1,4.59
919,-3,-6,-3,-3,-3,-3,-5,0,4.595
920,-5,-2,0,-1,0,1,-1,-1,4.6000000000000005
921,-1,-3,-12,-1,0,0,-1,-2,4.605
922,3,8,1,3,0,-1,1,-1,4.61
923,-1,5,1,-5,-4,-1,0,-2,4.615
924,4,3,3,10,3,0,-1,0,4.62
925,-5,-4,-3,-6,-4,-1,0,-2,4.625
926,-5,-5,-7,-7,-2,-2,-1,-1,4.63
927,3,-1,2,2,-1,-1,0,0,4.635
928,0,0,-8,-11,1,-1,-1,-1,4.64
929,1,8,12,10,4,-1,-1,-1,4.6450000000000005
930,-4,-2,-9,3,1,-1,1,-1,4.65
931,-2,-4,-7,-5,-2,1,0,0,4.655
932,-1,3,5,-6,-3,0,-1,0,4.66
933,7,-6,-4,5,1,0,-1,1,4.665
934,-12,-10,-11,-3,-2,-2,-3,-4,4.67
935,-2,-1,1,1,1,1,0,1,4.675
936,-13,-10,-7,-3,-4,0,-3,-3,4.68
937,-2,0,0,-7,-2,-2,-2,-1,4.6850000000000005
938,22,13,12,10,3,-1,1,7,4.69
939,-11,-5,-2,-6,-3,-3,-2,-6,4.695
940,7,12,8,-2,-4,-1,1,1,4.7
941,-7,6,-12,11,6,2,0,-3,4.705
942,2,3,11,2,1,0,1,2,4.71
943,-11,-5,-19,-6,-2,-1,-3,-7,4.715
944,8,3,12,6,0,-1,-1,3,4.72
945,-1,-4,6,-6,-1,-1,-1,-1,4.7250000000000005
946,5,11,7,1,-2,-2,0,1,4.73
947,7,9,-10,4,7,4,2,3,4.735
948,-15,-7,-18,-5,-6,-4,-3,-5,4.74
949,1,1,28,-8,-3,-1,-1,1,4.745
950,-6,-13,-29,-14,-3,-3,-3,-3,4.75
951,6,0,10,4,-3,-3,-1,1,4.755
952,7,2,-7,1,2,2,1,0,4.76
953,1,-5,-17,5,5,3,2,1,4.765
954,-4,-3,19,-5,-2,-4,-3,-4,4.7700000000000005
955,1,-4,-3,-3,-3,-1,1,1,4.775
956,9,-1,-1,1,1,0,2,0,4.78
957,3,-7,26,-4,-4,-2,-1,2,4.785
958,-16,-22,-35,1,-1,1,0,-4,4.79
959,-3,-2,9,-2,-4,-5,-3,-5,4.795
960,1,2,11,5,4,-1,0,0,4.8
961,8,13,2,-2,-2,-3,1,2,4.805
962,-3,4,-13,-3,0,0,-2,0,4.8100000000000005
963,1,-2,23,0,-1,0,0,0,4.815
964,-5,5,-27,-3,-1,0,0,-1,4.82
965,-2,2,-12,2,-3,0,-3,-2,4.825
966,1,7,43,6,3,1,1,3,4.83
967,2,-8,-50,-6,-1,-2,-1,-1,4.835
968,-11,-8,0,1,0,-2,-3,-5,4.84
969,-3,8,-18,-7,-4,0,-2,-1,4.845
970,8,12,-9,1,1,-1,-1,-3,4.8500000000000005
971,8,4,-8,0,0,0,0,3,4.855
972,1,-13,11,3,0,-3,-2,0,4.86
973,-5,-8,-30,-3,0,0,1,-2,4.865
974,-3,-17,41,3,-4,-1,-2,0,4.87
975,2,-13,5,-1,0,-3,-2,-5,4.875
976,6,-55,5,-2,-4,-2,0,-1,4.88
977,-3,-45,4,-2,1,-2,-1,-1,4.885
978,7,-5,-13,11,6,3,4,2,4.89
979,-12,15,18,5,-1,-1,-2,-4,4.8950000000000005
980,-2,41,-38,-6,-2,1,2,-2,4.9
981,-9,31,-1,-3,-2,-3,-1,-5,4.905
982,14,31,9,0,1,2,2,2,4.91
983,-14,12,-18,-11,-7,-3,-4,-5,4.915
984,16,28,63,11,6,3,1,7,4.92
985,3,-2,-16,1,0,0,0,-1,4.925
986,8,9,17,-7,-2,-2,0,0,4.93
987,-9,-19,0,-12,-4,-2,-3,-4,4.9350000000000005
988,0,5,-15,18,4,0,1,1,4.94
989,3,2,24,-4,-6,-1,-2,-2,4.945
990,-15,-33,-12,-2,-2,-2,-5,-5,4.95
991,13,13,2,-4,2,2,2,5,4.955
992,-1,-12,-2,-2,-1,-1,-3,-3,4.96
993,-11,-14,1,4,1,0,0,-2,4.965
994,2,-10,-18,-3,-3,-2,-2,0,4.97
995,-2,-2,22,-1,-2,0,-2,-1,4.9750000000000005
996,-6,0,-30,-2,1,-2,-2,-1,4.98
997,3,4,-1,6,-1,-2,-1,-1,4.985
998,-13,-8,-5,-16,-6,-3,-2,-3,4.99
999,5,18,3,6,3,0,2,-1,4.995
1000,-10,25,18,3,-4,-5,-4,-4,5.0
1001,4,1,-2,1,0,1,1,2,5.005
1002,-8,3,2,3,3,1,0,-1,5.01
1003,2,9,-5,-5,-3,-2,1,0,5.015
1004,-8,0,-22,1,1,1,-2,-3,5.0200000000000005
1005,7,-3,19,-11,-3,-3,0,4,5.025
1006,-6,-24,-8,-1,-4,-2,-3,-3,5.03
1007,7,18,24,7,1,-2,1,3,5.035
1008,-3,20,8,-13,-5,1,-1,0,5.04
1009,-2,49,-14,-4,-3,-2,-5,-4,5.045
1010,3,39,-2,6,6,2,1,2,5.05
1011,-4,-5,-1,10,1,-2,-2,-3,5.055
1012,9,-14,-11,-10,2,3,2,3,5.0600000000000005
1013,10,-42,19,7,-1,0,1,1,5.065
1014,-17,-24,-24,-13,-7,-4,-2,-4,5.07
1015,-8,-32,-1,11,5,2,-2,-2,5.075
1016,-1,2,28,-3,-4,-5,-3,-4,5.08
1017,11,0,-57,-18,-1,1,1,6,5.085
1018,-8,2,20,-9,-8,-6,-4,-4,5.09
1019,-16,4,-13,16,8,4,0,-1,5.095
1020,9,10,0,-6,0,2,1,0,5.1000000000000005
1021,-16,6,21,8,6,0,-1,-1,5.105
1022,31,10,-12,-7,-6,-2,-1,3,5.11
1023,-8,9,-4,-8,-7,-5,-1,-2,5.115
1024,-2,32,-2,6,3,0,1,1,5.12
1025,-12,20,-4,3,-1,-3,-4,-7,5.125
1026,3,10,7,3,0,1,3,4,5.13
1027,5,15,5,-2,-4,0,0,3,5.135
1028,-10,9,-5,-14,-9,-3,-3,-5,5.14
1029,-5,35,-17,14,8,2,1,0,5.1450000000000005
1030,-2,17,5,-5,2,1,1,0,5.15
1031,3,4,-2,2,1,0,-2,1,5.155
1032,0,-18,6,-2,-6,-4,0,1,5.16
1033,-5,-37,-3,-6,-8,-4,-4,-7,5.165
1034,1,-18,-15,2,5,1,0,-1,5.17
1035,17,-8,35,4,-2,2,1,4,5.175
1036,-14,3,-17,0,1,-1,-1,-2,5.18
1037,-5,-18,14,2,1,0,0,-3,5.1850000000000005
1038,5,-18,-4,-3,1,1,-1,2,5.19
1039,0,-1,-14,0,0,-1,-1,-2,5.195
1040,7,-18,16,-23,-9,-4,0,-1,5.2
1041,8,4,-1,0,-5,-2,0,2,5.205
1042,-11,-4,-20,11,8,2,-1,-2,5.21
1043,-1,10,11,-8,-4,-2,-2,-2,5.215
1044,-1,-3,-15,9,4,0,-2,-1,5.22
1045,-12,3,-4,-17,-10,-2,-2,-3,5.2250000000000005
1046,-4,0,18,-8,-7,-4,-3,-4,5.23
1047,2,10,-2,-1,3,0,0,0,5.235
1048,-1,9,-13,-2,-2,-1,1,-3,5.24
1049,7,2,9,-4,-1,-2,-1,1,5.245
1050,7,9,21,19,4,1,-1,2,5.25
1051,-13,-4,-25,-4,-1,-1,-1,-4,5.255
1052,-1,-17,0,9,4,0,-1,0,5.26
1053,8,-6,19,-3,-3,0,-1,1,5.265
1054,-4,-12,-20,-8,-1,0,0,-3,5.2700000000000005
1055,4,-13,-17,-11,-4,0,0,0,5.275
1056,-3,-10,15,5,0,0,-1,-2,5.28
1057,-6,-16,-9,4,1,2,1,-2,5.285
1058,3,11,5,-1,-5,-2,-1,0,5.29
1059,-5,-1,-11,-3,2,-1,-1,-1,5.295
1060,18,-5,-4,-8,-2,0,0,4,5.3
1061,-20,-11,1,7,2,-2,-5,-7,5.305
1062,-2,-8,0,-1,-3,-2,-1,1,5.3100000000000005
1063,-6,-4,-7,-1,-1,-1,0,-2,5.315
1064,2,7,3,-1,-1,-1,1,1,5.32
1065,4,-4,0,-7,-2,-3,-1,-1,5.325
1066,0,-4,-2,-3,-2,-2,-1,0,5.33
1067,4,-13,-4,-7,1,0,1,0,5.335
1068,7,-10,43,17,4,1,-1,2,5.34
1069,-6,-4,-77,-14,-3,-2,-2,-2,5.345
1070,5,9,8,-2,-4,-3,-1,-3,5.3500000000000005
1071,-9,-15,-6,-6,-4,1,-1,-1,5.355
1072,-12,11,7,3,2,1,1,-5,5.36
1073,10,5,41,15,4,2,2,4,5.365
1074,4,0,-38,-6,-2,-1,1,0,5.37
1075,15,-13,22,8,-1,-2,0,2,5.375
1076,-22,-1,-30,-8,-4,-3,-5,-5,5.38
1077,3,4,13,-2,0,1,0,1,5.385
1078,-10,3,-13,-1,-1,0,0,-1,5.39
1079,-1,-7,14,1,-1,-1,0,0,5.3950000000000005
1080,-5,-5,-35,-4,-1,0,2,1,5.4
1081,3,1,16,-3,0,1,-1,-2,5.405
1082,3,34,22,16,4,2,-3,-1,5.41
1083,-3,-17,-19,-3,-1,-1,-2,-3,5.415
1084,5,13,12,1,-1,-2,-1,-1,5.42
1085,-5,2,-13,-3,-2,-2,-1,-3,5.425
1086,-1,-5,18,2,-1,2,0,-1,5.43
1087,1,-15,-27,-5,3,1,-1,0,5.4350000000000005
1088,-1,13,-1,0,-4,-2,-3,-1,5.44
1089,9,-3,18,3,-1,-1,4,3,5.445
1090,-7,13,-16,0,2,2,-1,-1,5.45
1091,-8,4,4,-2,-2,-1,-1,-4,5.455
1092,2,-10,6,8,1,1,0,-2,5.46
1093,9,4,12,0,4,3,2,6,5.465
1094,7,16,-3,-1,-2,-3,3,1,5.47
1095,-4,7,-3,-3,-6,-6,-5,-6,5.4750000000000005
1096,-7,5,-8,-5,0,1,2,1,5.48
1097,-1,7,5,2,-5,-2,-2,-2,5.485
1098,-2,-9,1,3,1,-1,-1,-3,5.49
1099,6,14,-1,-1,-1,1,0,3,5.495
1100,0,6,9,-7,-3,-1,0,0,5.5
1101,1,-2,-8,2,1,-1,-2,-2,5.505
1102,-4,-5,2,-2,-1,0,-1,-2,5.51
1103,-17,25,-13,-3,0,-2,-9,-15,5.515
1104,9,-41,6,3,2,2,7,18,5.5200000000000005
1105,-1,-76,5,-3,-1,-3,-4,-16,5.525
1106,0,-47,-12,-6,-2,0,2,3,5.53
1107,-5,-42,21,4,-2,-1,-3,-2,5.535
1108,5,3,-10,-2,-1,-1,0,-2,5.54
1109,-5,8,-9,0,-1,-1,-4,8,5.545
1110,8,28,19,-3,-5,-4,-3,-4,5.55
1111,-11,4,-6,-2,-2,-3,-2,-5,5.555
1112,7,-91,20,3,3,1,2,2,5.5600000000000005
1113,-8,-114,-24,-4,-3,-3,2,3,5.565
1114,-5,-117,1,-1,0,-2,-3,-4,5.57
1115,18,-31,5,-1,-2,1,4,9,5.575
1116,-6,-34,-1,-1,-2,-2,-5,-6,5.58
1117,-8,-10,3,3,-3,-2,-4,-3,5.585
1118,-3,-31,12,-8,0,0,-2,-1,5.59
1119,5,14,18,1,0,1,4,6,5.595
1120,5,2,-22,3,-1,-2,-2,-3,5.6000000000000005
1121,3,25,12,0,-1,0,0,-1,5.605
1122,-7,0,5,-4,-4,-1,-2,-1,5.61
1123,0,21,0,1,-1,-1,2,3,5.615
1124,-3,68,-19,-1,-1,0,-4,-5,5.62
1125,-6,93,-10,8,5,2,1,0,5.625
1126,3,96,-2,-5,-3,-2,1,1,5.63
1127,1,69,-11,0,0,-1,2,1,5.635
1128,-6,54,-3,3,-3,-3,-2,-3,5.64
1129,-1,62,0,-8,-3,-1,-1,-2,5.6450000000000005
1130,-5,53,-5,6,2,1,-1,1,5.65
1131,7,26,1,-9,-4,-1,0,0,5.655
1132,-3,16,2,-6,-1,-2,-1,-3,5.66
1133,6,21,-10,-2,0,0,1,2,5.665
1134,-8,25,-10,-6,1,1,0,-1,5.67
1135,4,4,7,1,-1,-2,-2,0,5.675
1136,0,1,14,3,1,2,0,0,5.68
1137,-4,11,12,-3,-2,-1,-1,-1,5.6850000000000005
1138,-2,10,-17,-2,-1,0,-1,-1,5.69
1139,5,-1,-10,0,2,1,-1,2,5.695
1140,0,-2,56,9,2,0,-1,-1,5.7
1141,3,4,-12,-8,-7,-1,-2,1,5.705
1142,5,3,-9,7,8,1,0,2,5.71
1143,-12,-4,-14,-6,-3,0,0,-4,5.715
1144,0,-2,-23,3,3,-2,-2,-2,5.72
1145,10,1,25,8,6,4,3,4,5.7250000000000005
1146,3,4,8,-2,-7,-4,-1,0,5.73
1147,-2,-1,10,2,-1,-2,0,2,5.735
1148,-1,-3,-25,-16,-8,-3,-2,-5,5.74
1149,-7,1,-23,-6,-3,-4,-3,-4,5.745
1150,-1,3,-8,-1,-1,-1,-1,-3,5.75
1151,-5,-3,-13,-1,1,-1,-2,-3,5.755
1152,0,-3,-2,-5,-1,0,-2,2,5.76
1153,2,0,12,7,2,2,1,-1,5.765
1154,-3,2,2,1,0,0,-1,-3,5.7700000000000005
1155,0,-2,16,4,0,1,0,2,5.775
1156,-5,-2,-9,-10,-1,0,0,1,5.78
1157,7,8,42,3,-4,-1,-2,-2,5.785
1158,0,67,15,5,3,1,0,1,5.79
1159,3,117,9,5,0,0,0,-1,5.795
1160,0,101,-51,-5,-2,-1,0,-2,5.8
1161,-6,64,-13,-2,-4,-3,-1,-1,5.805
1162,0,12,-26,-19,-5,-3,0,1,5.8100000000000005
1163,1,-5,17,22,9,2,0,-2,5.815
1164,6,-18,-2,4,-1,0,0,1,5.82
1165,-7,-46,-9,-2,1,-1,-2,-1,5.825
1166,-4,-41,24,-1,-6,-3,-2,-3,5.83
1167,0,-38,-52,-14,-3,-2,0,-1,5.835
1168,-1,-26,16,-5,-4,-3,-3,-2,5.84
1169,1,-20,-6,6,5,1,2,1,5.845
1170,1,-9,2,-2,-2,-2,0,0,5.8500000000000005
1171,-1,-16,10,-1,-3,-1,-1,-3,5.855
1172,-2,5,3,6,1,-2,0,0,5.86
1173,-5,4,-23,-16,-4,-1,-2,-3,5.865
1174,7,9,10,16,5,2,2,2,5.87
1175,-9,-19,-9,-6,1,-2,-1,-3,5.875
1176,5,-9,0,2,-3,-1,0,-1,5.88
1177,-12,-9,-11,-2,-2,-4,-2,-3,5.885
1178,-2,-10,-13,-11,-5,-1,0,-2,5.89
1179,2,-2,14,12,4,2,0,1,5.8950000000000005
1180,2,-6,2,-4,3,3,0,1,5.9
1181,6,10,1,3,1,0,0,0,5.905
1182,-5,-3,1,-2,-4,-2,-1,-2,5.91
1183,-2,-11,4,-5,-7,-5,-3,-2,5.915
1184,1,-7,18,4,1,-2,1,-1,5.92
1185,-10,-15,-19,-6,-2,-1,0,-1,5.925
1186,-3,-2,3,0,-3,-2,-2,-1,5.93
1187,5,-4,9,-4,0,-2,0,1,5.9350000000000005
1188,-2,-8,5,5,2,2,2,1,5.94
1189,2,-7,-2,3,3,0,1,-1,5.945
1190,2,-6,-3,2,1,-1,-1,0,5.95
1191,-9,-20,9,-1,-1,-1,-1,-1,5.955
1192,-4,-13,-28,-3,-3,-1,-1,-1,5.96
1193,-4,-4,4,2,-1,-1,-2,-2,5.965
1194,-1,-3,-2,-2,-1,0,-2,-2,5.97
1195,8,7,8,0,-4,0,1,1,5.9750000000000005
1196,-6,-6,-1,-3,-2,-2,0,-2,5.98
1197,6,3,-10,-7,-5,-1,0,1,5.985
1198,1,-7,-7,1,4,2,0,1,5.99
1199,3,-9,-16,-18,-6,-3,1,-1,5.995
1200,-4,-11,10,5,-2,-2,-1,-2,6.0
1201,5,1,9,17,11,3,4,4,6.005
1202,-2,-4,4,7,-1,-2,0,1,6.01
1203,3,0,-4,-4,-4,-2,-2,1,6.015000000000001
1204,-6,-6,8,-6,-2,-1,-2,-2,6.0200000000000005
1205,3,6,4,-4,-3,-1,-3,-1,6.025
1206,-5,-5,-28,-9,0,1,1,0,6.03
1207,1,-15,16,4,0,0,0,-1,6.035
1208,-8,-24,0,-1,-5,-5,-4,-5,6.04
1209,4,0,-4,-5,-1,-1,0,-1,6.045
1210,-2,-1,-10,3,3,0,0,-1,6.05
1211,-1,6,-4,-2,-3,-2,0,-2,6.055
1212,2,6,5,3,2,1,0,1,6.0600000000000005
1213,-1,6,1,-6,-2,-2,-1,-1,6.065
1214,6,23,10,-4,-5,-3,0,0,6.07
1215,-1,8,-6,6,2,2,1,0,6.075
1216,3,1,15,-1,-1,0,-1,-1,6.08
1217,-5,-11,-16,-9,-5,-2,-2,-3,6.085
1218,-1,-14,-4,12,8,1,1,-1,6.09
1219,-1,2,0,18,7,0,-1,-2,6.095
1220,2,8,-9,-6,-1,-1,2,0,6.1000000000000005
1221,4,12,26,-7,-6,-2,-1,2,6.105
1222,-8,-10,-7,-8,-6,-4,-2,-5,6.11
1223,3,8,16,5,-2,-3,-2,0,6.115
1224,-5,1,-10,-6,-4,-1,-4,-2,6.12
1225,0,5,-10,-5,1,1,0,0,6.125
1226,-2,10,20,5,1,1,0,1,6.13
1227,-3,-6,-32,-8,-3,1,0,0,6.135
1228,2,-1,-4,16,2,-2,-3,-1,6.140000000000001
1229,-3,-17,14,11,3,1,0,1,6.1450000000000005
1230,-1,-15,-9,-6,0,-1,-1,0,6.15
1231,-2,-7,3,-9,-2,0,-2,-1,6.155
1232,3,-1,-7,-6,-2,-1,0,1,6.16
1233,-1,14,4,5,-2,-2,0,-1,6.165
1234,1,11,-2,-3,-2,1,-2,0,6.17
1235,-2,10,9,5,0,0,0,-1,6.175
1236,-1,9,2,5,0,0,0,-2,6.18
1237,-3,5,-18,-3,2,2,-2,-1,6.1850000000000005
1238,-3,-7,-32,-6,-5,-3,0,-1,6.19
1239,2,-17,26,-11,-5,-2,-1,0,6.195
1240,0,-14,2,4,0,-1,-1,0,6.2
1241,-2,-9,10,8,2,0,0,0,6.205
1242,1,6,4,-10,-5,-2,-1,-3,6.21
1243,-8,-3,-33,-10,-3,1,-1,-1,6.215
1244,2,28,10,3,1,0,0,0,6.22
1245,2,10,-2,6,4,-1,-1,0,6.2250000000000005
1246,-5,-5,9,-4,-3,-3,-2,-2,6.23
1247,2,-3,7,-3,-3,-2,0,0,6.235
1248,-1,-8,22,-7,-3,3,1,1,6.24
1249,-2,-2,-55,-6,-4,-2,-3,-1,6.245
1250,-5,-2,6,1,-1,-4,-3,-2,6.25
1251,3,6,-12,-6,-1,-1,1,1,6.255
1252,-8,-3,10,-1,0,-3,-2,-2,6.26
1253,2,-12,15,1,-2,-1,2,0,6.265000000000001
1254,-2,3,7,4,0,-1,-1,-1,6.2700000000000005
1255,1,0,2,6,0,-2,-1,-1,6.275
1256,-6,3,-6,0,0,0,0,-1,6.28
1257,-3,-4,-13,-9,-5,-1,-1,-1,6.285
1258,-3,11,-3,3,-3,-2,-1,-1,6.29
1259,7,38,-8,-2,4,2,0,1,6.295
1260,0,22,-14,5,0,0,-3,-1,6.3
1261,1,22,22,0,-2,0,-2,-4,6.305
1262,7,4,8,-11,-6,0,1,2,6.3100000000000005
1263,-8,-19,8,15,6,1,1,-1,6.315
1264,4,-4,-20,-1,0,1,-1,1,6.32
1265,1,1,18,1,-2,-2,0,-1,6.325
1266,4,-6,-3,15,10,4,2,2,6.33
1267,-1,-18,-3,-18,-7,-2,-2,1,6.335
1268,-2,-12,-1,3,1,0,-3,-3,6.34
1269,-4,-23,6,10,3,1,-1,0,6.345
1270,0,-24,-8,-12,-5,-1,-1,0,6.3500000000000005
1271,2,-10,-4,-3,-4,-2,-1,0,6.355
1272,-3,-7,12,-2,0,0,1,0,6.36
1273,-1,-15,-11,-14,-9,-1,-3,-2,6.365
1274,3,-8,0,-7,-2,-1,-1,-1,6.37
1275,-8,-14,4,20,7,1,-1,-4,6.375
1276,8,-12,-6,-11,-3,-1,0,2,6.38
1277,-4,-2,0,8,5,-2,-1,-2,6.385
1278,4,10,20,2,-4,-1,-2,-1,6.390000000000001
1279,0,-3,9,-5,-3,-1,-3,1,6.3950000000000005
1280,-7,-12,-13,-9,-4,-4,-4,-4,6.4
1281,1,-57,5,0,0,1,-1,-1,6.405
1282,-5,-44,-14,5,1,1,0,-1,6.41
1283,-4,-4,4,-1,-2,-1,0,-2,6.415
1284,9,39,4,8,1,-1,0,2,6.42
1285,-10,29,-21,-7,-4,-3,-2,-4,6.425
1286,5,21,15,4,0,-1,1,0,6.43
1287,-6,0,-11,3,-1,-2,-2,-4,6.4350000000000005
1288,-2,-6,-13,-9,-3,1,0,0,6.44
1289,8,16,28,-2,0,-1,1,1,6.445
1290,-6,9,-11,7,2,1,-1,-1,6.45
1291,-2,23,-2,-5,-3,-1,-1,0,6.455
1292,-5,0,-11,0,5,1,-1,-2,6.46
1293,4,-24,29,8,3,0,0,0,6.465
1294,-4,-29,-27,-5,1,1,0,-2,6.47
1295,-4,-1,1,-15,-9,-4,-2,-2,6.4750000000000005
1296,5,18,22,8,-2,-2,1,1,6.48
1297,0,24,-16,14,4,2,2,2,6.485
1298,1,8,10,10,5,1,1,-1,6.49
1299,-1,27,-10,0,2,1,0,1,6.495
1300,-3,14,0,-4,-5,-4,-1,-3,6.5
1301,-1,10,2,-9,-5,-2,-1,-1,6.505
1302,-2,18,-6,-7,-4,-3,-3,-2,6.51
1303,0,6,-6,-2,-2,-2,0,-2,6.515000000000001
1304,3,5,11,-3,-1,-1,0,-1,6.5200000000000005
1305,-3,-2,-7,-3,0,-2,-2,-1,6.525
1306,-1,-17,6,0,0,0,-1,0,6.53
1307,-3,-21,-5,-2,-3,-2,-1,-3,6.535
1308,2,-25,2,-2,-1,0,2,1,6.54
1309,0,-15,-11,-2,-1,2,0,-3,6.545
1310,-2,-4,13,-1,-4,0,-1,-1,6.55
1311,4,-17,-18,-6,-1,0,1,2,6.555
1312,-4,-17,-15,13,4,-1,-1,-2,6.5600000000000005
1313,3,-13,8,-4,0,2,-1,2,6.565
1314,-3,-9,6,-2,-3,-4,-1,-3,6.57
1315,3,-8,11,4,1,0,1,-1,6.575
1316,5,1,8,4,-5,-1,0,2,6.58
1317,-8,6,-30,-7,1,-3,-2,-4,6.585
1318,1,7,8,2,0,-3,-1,-1,6.59
1319,6,14,4,-14,-5,0,0,0,6.595
1320,0,13,-12,0,1,1,0,0,6.6000000000000005
1321,1,-13,5,3,-1,-2,-2,-1,6.605
1322,-2,-13,22,1,-1,1,1,0,6.61
1323,-1,-4,-9,1,0,1,-1,0,6.615
1324,-3,-9,-4,-13,-5,-4,-2,-3,6.62
1325,3,-17,8,0,-3,-1,-1,1,6.625
1326,0,2,4,0,-1,-3,-2,-2,6.63
1327,0,11,6,4,0,2,1,1,6.635
1328,-4,-4,-15,-3,2,1,0,-2,6.640000000000001
1329,8,-11,-12,-4,-1,-1,0,3,6.6450000000000005
1330,5,-12,7,-1,-2,1,-1,-1,6.65
1331,-5,-6,-10,-1,1,-2,-1,-1,6.655
1332,-1,-1,2,-13,-4,-1,-4,0,6.66
1333,-5,0,-3,9,3,1,1,-2,6.665
1334,3,-8,7,8,0,2,0,2,6.67
1335,-4,-5,7,3,1,-1,-2,-1,6.675
1336,-2,-6,-2,-1,-1,-2,0,1,6.68
1337,2,-6,8,-16,-6,-1,-1,0,6.6850000000000005
1338,-7,-14,-19,-3,1,-1,-1,-1,6.69
1339,1,-2,-17,4,4,0,1,-2,6.695
1340,-1,-19,13,-8,-3,-2,0,-2,6.7
1341,2,-9,15,9,-2,-1,-1,-1,6.705
1342,4,3,-6,-8,-6,-1,1,2,6.71
1343,-11,-3,2,9,2,-1,-3,-3,6.715
1344,-7,-8,-18,-6,-1,0,-2,-2,6.72
1345,1,3,3,-17,-3,0,-1,-1,6.7250000000000005
1346,-1,-6,-7,2,0,-2,1,0,6.73
1347,3,-3,-1,1,1,1,0,0,6.735
1348,3,5,21,13,0,-2,-1,0,6.74
1349,-5,7,-9,2,0,-1,-2,-1,6.745
1350,-3,8,-7,-4,3,0,0,0,6.75
1351,-7,-3,-9,-17,-10,-2,-3,-6,6.755
1352,-2,-3,4,-1,1,1,2,1,6.76
1353,-1,0,-9,0,0,-1,1,0,6.765000000000001
1354,-5,3,-1,3,1,-1,-2,-3,6.7700000000000005
1355,4,1,3,6,2,-1,-1,0,6.775
1356,6,2,-14,-8,-1,1,-1,0,6.78
1357,-6,5,7,4,-3,-3,-1,-3,6.785
1358,2,8,-14,-8,-3,-1,-2,-1,6.79
1359,2,3,0,0,-2,-2,-1,0,6.795
1360,-2,11,2,-4,-4,-4,-2,-3,6.8
1361,0,1,3,-1,1,0,-2,0,6.805
1362,2,1,5,22,6,1,1,1,6.8100000000000005
1363,4,8,10,-3,-4,-1,0,1,6.815
1364,-3,0,-7,2,2,1,1,0,6.82
1365,-1,-5,2,-4,-3,1,-1,-1,6.825
1366,-3,6,0,-15,-7,-5,-4,-3,6.83
1367,3,12,-5,17,5,1,0,0,6.835
1368,-3,-9,-3,-3,0,2,2,-2,6.84
1369,-3,-8,-7,6,-1,-2,0,-2,6.845
1370,2,-9,8,-4,-1,-2,-2,0,6.8500000000000005
1371,2,-17,-6,-8,-4,-3,0,0,6.855
1372,-2,-10,0,4,8,2,-1,1,6.86
1373,3,-6,-4,-18,-5,-4,0,-1,6.865
1374,-3,2,3,19,5,2,1,0,6.87
1375,-2,-9,10,4,-2,-1,0,0,6.875
1376,0,-2,8,-1,-2,-2,-2,0,6.88
1377,-1,-1,-17,-12,-2,0,-4,-2,6.885
1378,0,2,-1,-11,-3,-1,1,0,6.890000000000001
1379,3,6,7,10,1,-1,-1,0,6.8950000000000005
1380,-2,1,-3,8,3,1,2,0,6.9
1381,-6,-1,2,4,-1,-1,-1,-2,6.905
1382,0,-6,-9,-12,-3,-1,-1,-1,6.91
1383,-1,1,1,-1,-1,1,-1,-1,6.915
1384,-2,-1,6,5,-4,-1,-2,0,6.92
1385,-4,3,-10,-7,0,0,4,1,6.925
1386,-3,-5,-3,10,1,-1,-1,-2,6.93
1387,-7,-6,5,-5,2,-1,-1,-2,6.9350000000000005
1388,-1,-8,-4,-4,-3,0,-1,-2,6.94
1389,1,-1,-2,11,3,-1,-2,-1,6.945
1390,-1,-10,1,5,4,1,0,0,6.95
1391,2,-7,0,9,0,0,0,0,6.955
1392,-1,-4,6,-4,-2,-1,-1,-2,6.96
1393,0,-5,3,4,2,-1,2,-2,6.965
1394,-1,9,-7,-4,-1,-1,-1,0,6.97
1395,3,3,-1,-15,-4,-2,-3,-2,6.9750000000000005
1396,-3,0,1,-1,-5,-1,-1,-1,6.98
1397,6,2,0,-10,-5,-3,0,2,6.985
1398,-2,9,1,1,0,-1,0,1,6.99
1399,0,6,-5,6,5,1,1,2,6.995
1400,9,1,8,3,1,0,0,2,7.0
1401,-8,-8,-8,5,-2,-3,-3,-3,7.005
1402,2,-7,-1,-12,-4,-1,0,1,7.01
1403,-1,-6,3,-15,-5,-2,-2,0,7.015000000000001
1404,-2,-16,-2,3,-3,-2,-2,-4,7.0200000000000005
1405,6,-4,12,11,1,1,0,2,7.025
1406,-4,4,-6,1,2,-2,-1,-2,7.03
1407,-2,-8,-9,-12,-1,1,0,0,7.035
1408,-2,-12,0,-7,-6,-4,-2,-1,7.04
1409,-6,-7,-3,8,2,-2,-3,-4,7.045
1410,1,-2,9,-16,-7,-1,-1,0,7.05
1411,-2,1,1,29,9,4,1,1,7.055
1412,-3,1,-9,-16,3,0,0,1,7.0600000000000005
1413,-14,-12,-18,9,2,-2,-5,-8,7.065
1414,0,1,6,22,6,1,0,0,7.07
1415,0,-1,-4,-7,-6,-7,-6,-3,7.075
1416,2,0,8,-1,-2,1,0,0,7.08
1417,2,0,0,-17,-1,-1,-1,1,7.085
1418,1,1,-2,-7,-3,0,-1,-2,7.09
1419,-2,-9,9,0,-1,0,1,-1,7.095
1420,2,-7,-3,4,2,-1,0,1,7.1000000000000005
1421,2,1,3,-7,-3,0,1,0,7.105
1422,-1,-7,-8,-1,3,1,1,-1,7.11
1423,-1,1,2,3,-1,0,-2,-2,7.115
1424,-5,-16,-5,-13,-5,-4,-4,-3,7.12
1425,2,-2,8,-4,-3,0,0,2,7.125
1426,-6,-2,-4,22,6,1,-2,-2,7.13
1427,-3,1,4,-16,-7,-3,1,-3,7.135
1428,1,3,-8,34,12,2,2,0,7.140000000000001
1429,0,2,-7,-21,-5,-1,-1,-1,7.1450000000000005
1430,2,1,7,-4,-4,-1,-3,-2,7.15
1431,4,0,2,-11,-2,-1,1,1,7.155
1432,2,0,-12,-3,-1,1,-1,0,7.16
1433,-2,-4,3,5,-1,-3,-4,-4,7.165
1434,4,8,1,-3,-2,1,0,2,7.17
1435,-5,2,-6,-8,-5,-1,-2,-3,7.175
1436,1,4,3,-11,-4,-1,-1,0,7.18
1437,4,1,19,-7,1,2,0,2,7.1850000000000005
1438,-5,6,-14,49,8,-1,0,-3,7.19
1439,-2,-1,1,16,4,0,0,0,7.195
1440,0,-2,1,2,3,0,0,0,7.2
1441,1,-2,-7,-1,0,1,0,0,7.205
1442,11,2,1,-36,-7,0,-1,0,7.21
1443,-2,2,2,3,0,0,-2,-3,7.215
1444,0,-10,-10,-4,-3,1,2,-1,7.22
1445,2,0,11,23,10,5,4,1,7.2250000000000005
1446,-2,-3,10,-13,0,-1,-3,1,7.23
1447,2,2,-31,-12,-2,-4,-3,1,7.235
1448,-5,-4,20,4,-11,-6,-7,-6,7.24
1449,2,-4,-26,3,3,-2,-3,0,7.245
1450,-25,-10,-1,-8,-1,0,0,-4,7.25
1451,-4,1,-1,7,3,2,2,0,7.255
1452,-5,1,0,-18,-5,-3,-4,-4,7.26
1453,3,6,12,-10,-8,-2,-3,-2,7.265000000000001
1454,4,12,8,-26,-8,-2,-1,-1,7.2700000000000005
1455,1,9,-22,-23,1,-1,0,1,7.275
1456,-4,8,-11,57,13,5,4,1,7.28
1457,-2,16,6,2,-5,-1,1,-1,7.285
1458,-2,3,-19,-6,1,-3,-3,-6,7.29
1459,12,-2,2,-35,-11,-2,1,-3,7.295
1460,0,26,17,-15,-7,-3,-7,-3,7.3
1461,7,-3,-35,27,14,0,-3,2,7.305
1462,7,-16,18,23,-1,-3,-3,-1,7.3100000000000005
1463,-13,-7,0,11,8,8,8,1,7.315
1464,-8,-12,38,-28,-13,-7,-1,-4,7.32
1465,-5,-14,-60,31,7,-3,-8,-2,7.325
1466,-7,-5,-13,-56,-14,-6,-4,1,7.33
1467,2,-11,38,29,-4,-2,-3,-2,7.335
1468,17,-6,-20,-9,8,1,6,10,7.34
1469,7,-1,41,-38,-20,-2,1,-2,7.345
1470,4,0,-47,33,13,6,5,2,7.3500000000000005
1471,8,0,16,-28,-12,-5,-3,-2,7.355
1472,-10,1,-69,17,12,13,10,-2,7.36
1473,-3,-11,41,-5,-2,6,2,-4,7.365
1474,9,-1,-14,-80,-20,-12,-12,-4,7.37
1475,-16,-15,1,43,5,-7,-9,0,7.375
1476,-2,5,9,-12,-4,3,19,16,7.38
1477,1,-8,-30,7,3,3,6,1,7.385
1478,-16,3,18,-40,-12,-17,-27,-9,7.390000000000001
1479,-16,-6,22,46,5,6,1,-12,7.3950000000000005
1480,2,-5,-31,-22,1,1,-4,-2,7.4
1481,6,5,38,68,12,-11,-6,7,7.405
1482,13,2,72,-52,-14,19,40,21,7.41
1483,2,10,-84,-11,8,-6,-17,5,7.415
1484,-8,-7,57,24,1,14,21,-20,7.42
1485,13,5,-58,-27,-7,18,3,0,7.425
1486,17,-8,-45,-44,-7,-24,-2,4,7.43
1487,6,1,31,91,44,3,-17,-7,7.4350000000000005
1488,-36,-3,-21,-41,-22,-22,-9,3,7.44
1489,-16,-1,83,-128,-62,-4,12,-5,7.445
1490,14,-3,16,111,24,5,-24,-31,7.45
1491,-16,3,-89,-71,54,25,13,8,7.455
1492,4,-10,116,-93,-78,-61,-51,-29,7.46
1493,-14,1,-69,104,103,33,23,4,7.465
1494,-5,10,103,-25,-36,-10,22,31,7.47
1495,-11,5,78,-86,-45,4,-12,-7,7.4750000000000005
1496,39,-2,73,-23,6,22,26,-6,7.48
1497,-14,-9,-68,34,56,34,41,2,7.485
1498,-30,-12,34,90,35,-26,-50,28,7.49
1499,17,0,91,-80,-92,-48,-10,2,7.495
1500,-1,-2,-81,14,38,20,-10,-7,7.5
1501,-43,6,9,89,16,-12,-15,-33,7.505
1502,-44,-6,-104,3,13,39,45,-27,7.51
1503,14,6,39,-111,-23,-1,-8,5,7.515000000000001
1504,5,3,24,77,0,17,4,-15,7.5200000000000005
1505,13,-5,-58,-66,-1,-2,-8,-3,7.525
1506,17,-5,-74,115,26,12,15,20,7.53
1507,9,-5,53,68,-4,-21,-17,-20,7.535
1508,27,-14,-78,-42,9,2,45,44,7.54
1509,-3,-4,117,-35,-27,2,-14,14,7.545
1510,8,-2,20,-75,-31,-19,-28,5,7.55
1511,-18,-7,-82,106,56,67,101,14,7.555
1512,-20,-7,68,-31,2,-13,-87,-42,7.5600000000000005
1513,-21,-10,26,54,-28,-111,-103,8,7.565
1514,24,5,101,-86,-42,-6,-2,-34,7.57
1515,-13,6,-50,-41,-24,-15,-11,-39,7.575
1516,33,-3,-5,15,39,54,78,57,7.58
1517,-27,-5,61,-54,-16,32,45,22,7.585
1518,17,-6,1,55,-17,-4,-37,-35,7.59
1519,-62,-29,44,72,27,9,-2,9,7.595
1520,30,9,81,-26,-16,-39,-2,17,7.6000000000000005
1521,29,3,39,-105,-40,5,-8,-25,7.605
1522,-14,-2,-87,-73,24,23,14,21,7.61
1523,28,-1,-25,-76,-26,-39,-41,-2,7.615
1524,1,6,-28,87,35,32,35,10,7.62
1525,-28,0,-34,1,-5,4,45,-3,7.625
1526,-6,-5,40,-30,-21,-8,-32,-7,7.63
1527,-51,-8,-51,44,20,-24,-25,-15,7.635
1528,-19,1,73,-128,-69,-4,4,23,7.640000000000001
1529,57,13,-85,83,7,-13,9,29,7.6450000000000005
1530,-8,-3,-67,-87,11,37,33,8,7.65
1531,11,14,-17,57,10,23,42,-25,7.655
1532,-6,-4,20,47,-3,-46,-83,-4,7.66
1533,-1,16,32,-16,-46,-27,-12,8,7.665
1534,-4,5,-15,9,8,-2,-1,8,7.67
1535,27,-2,1,-3,15,10,-11,9,7.675
1536,-45,0,-41,-46,6,-9,-7,-37,7.68
1537,2,4,27,-120,-34,21,21,-6,7.6850000000000005
1538,-8,-7,19,-30,-17,-34,-22,0,7.69
1539,37,8,6,-21,41,34,30,9,7.695
1540,33,2,-34,-39,1,22,26,9,7.7
1541,-11,-2,-15,-80,-38,-31,-4,-11,7.705
1542,-5,0,32,13,26,17,-3,18,7.71
1543,-3,-8,45,36,-21,-35,-21,-34,7.715
1544,9,4,-60,-21,-5,-9,-11,-19,7.72
1545,6,4,56,94,17,5,6,7,7.7250000000000005
1546,-29,16,1,3,36,44,40,5,7.73
1547,39,11,0,-19,-12,-45,-13,48,7.735
1548,-33,-12,-86,108,45,41,27,-31,7.74
1549,9,5,42,-108,-44,-44,-65,-7,7.745
1550,9,3,-11,112,17,-10,2,-7,7.75
1551,-19,-10,59,-128,-55,-6,-14,0,7.755
1552,-5,-10,-57,-21,5,25,35,-13,7.76
1553,28,-3,-36,112,102,62,37,-12,7.765000000000001
1554,-3,-18,13,-20,-30,-48,-39,-11,7.7700000000000005
1555,-35,-9,-77,-5,21,46,54,10,7.775
1556,8,-4,73,99,2,-20,-30,27,7.78
1557,-5,-3,7,-77,-52,-50,-81,-42,7.785
1558,-2,-3,-94,50,47,-26,-19,37,7.79
1559,-20,7,104,-36,-16,-9,-33,-37,7.795
1560,-15,-3,100,-66,-32,52,78,-14,7.8
1561,17,-6,-110,-87,45,44,28,-12,7.805000000000001
1562,38,-1,66,86,-29,-55,-41,0,7.8100000000000005
1563,-65,-22,-9,-15,-1,35,61,73,7.815
1564,14,6,30,-85,-42,-83,-117,-46,7.82
1565,18,0,88,53,-41,-32,-25,7,7.825
1566,-2,-1,-109,-116,31,38,44,-30,7.83
1567,15,-10,9,-43,-6,24,33,-13,7.835
1568,-17,11,-86,127,119,22,-13,14,7.84
1569,20,4,-27,-115,-50,56,99,27,7.845
1570,23,5,95,72,43,-8,-55,-36,7.8500000000000005
1571,4,22,-36,45,-9,-29,-19,38,7.855
1572,24,-5,36,-111,-57,-20,-6,-15,7.86
1573,-54,-6,-107,-4,21,36,51,2,7.865
1574,4,-23,-66,20,37,9,-21,21,7.87
1575,3,8,73,-57,-47,-98,-95,-23,7.875
1576,29,0,-43,21,21,33,48,21,7.88
1577,-7,6,25,16,4,-14,-9,-7,7.885
1578,-9,3,49,-66,-51,46,86,0,7.890000000000001
1579,-2,-1,-55,43,28,31,7,-7,7.8950000000000005
1580,-8,-1,-15,-34,-11,-28,-36,-1,7.9
1581,-3,-9,76,43,21,16,5,1,7.905
1582,7,6,-55,-108,-32,-4,8,-2,7.91
1583,22,2,-64,92,4,-22,-37,-16,7.915
1584,-10,-4,61,49,32,19,27,16,7.92
1585,-8,1,43,80,32,-4,-18,4,7.925
1586,-10,9,-9,3,-4,-12,-1,0,7.930000000000001
1587,17,-2,10,-67,-17,2,1,-10,7.9350000000000005
1588,-24,-2,-37,-34,-31,-12,-5,4,7.94
1589,12,-3,39,4,-7,-13,-17,9,7.945
1590,-4,-2,35,-26,-26,-34,-4,-22,7.95
1591,7,-1,6,-6,11,69,5,-9,7.955
1592,10,4,6,7,-8,-2,26,57,7.96
1593,0,2,-22,-12,6,-37,-59,-39,7.965
1594,-1,5,29,8,-5,46,57,42,7.97
1595,14,1,17,2,16,4,4,-57,7.9750000000000005
1596,-10,-2,-13,6,-9,-18,-5,16,7.98
1597,-5,1,-13,-8,0,-7,-13,14,7.985
1598,3,-1,12,4,-8,-5,0,10,7.99
1599,2,2,10,5,-3,-9,2,7,7.995
1600,0,-4,-39,-16,-3,-1,-19,-9,8.0
1601,-8,1,-21,-9,-7,-10,3,-10,8.005
1602,-1,-3,17,0,-10,-7,-9,-12,8.01
1603,8,-3,10,-6,4,1,6,21,8.015
1604,-2,-3,-6,-4,-8,-9,-3,-18,8.02
1605,4,5,18,5,7,6,2,10,8.025
1606,-5,-1,2,2,-5,2,-3,-15,8.03
1607,5,-5,-17,-8,0,-2,3,-1,8.035
1608,-10,2,-14,-6,0,-4,-7,-6,8.040000000000001
1609,0,-3,-6,3,-1,1,-5,-5,8.045
1610,-1,0,15,-3,2,9,6,1,8.05
1611,3,-6,-9,-2,-1,-4,8,11,8.055
1612,-3,-4,18,1,-4,-6,-11,-7,8.06
1613,1,-2,-17,-7,2,4,1,4,8.065
1614,-4,1,9,0,-3,-1,3,-8,8.07
1615,2,1,-3,-15,-1,-1,1,10,8.075
1616,-4,2,4,16,0,-3,-7,-13,8.08
1617,6,-3,-12,-1,5,5,4,7,8.085
1618,-6,0,9,-4,-3,-2,1,-4,8.09
1619,2,1,6,6,0,-2,-1,1,8.095
1620,-2,-6,1,-15,-5,1,-3,-1,8.1
1621,-6,-5,10,-4,-7,-2,1,-3,8.105
1622,-2,1,18,20,6,0,-4,-5,8.11
1623,-1,-1,-10,-3,-1,-1,2,5,8.115
1624,5,-4,-6,-21,-7,-5,-1,-5,8.120000000000001
1625,-7,-1,-9,18,8,3,2,1,8.125
1626,-1,0,6,-8,-4,-2,-3,-7,8.13
1627,2,-4,13,7,2,0,0,5,8.135
1628,0,0,-1,-4,-4,-2,-3,-2,8.14
1629,-3,2,2,-4,-2,1,-3,-3,8.145
1630,0,1,7,-4,-3,1,0,0,8.15
1631,2,9,-1,-2,-1,0,2,2,8.155
1632,-1,-5,9,4,1,-2,-4,-2,8.16
1633,3,2,0,-4,0,1,-2,1,8.165000000000001
1634,-7,4,0,2,-2,0,0,-3,8.17
1635,0,2,1,-4,-2,-1,1,3,8.175
1636,-3,1,-3,2,2,0,-1,-3,8.18
1637,2,-2,4,-7,-2,-1,0,1,8.185
1638,0,-4,4,5,0,-1,1,1,8.19
1639,0,0,6,10,2,0,-1,-1,8.195
1640,-3,3,7,2,1,-2,-1,-1,8.2
1641,3,4,14,-5,-1,-1,2,1,8.205
1642,-2,1,32,-6,-1,0,0,-3,8.21
1643,2,-2,46,-2,-1,1,0,1,8.215
1644,-2,-2,62,2,-2,-1,-1,0,8.22
1645,-3,-3,43,-6,-4,-1,-2,0,8.225
1646,2,-3,-11,-7,-2,0,-3,-2,8.23
1647,0,5,-16,1,1,-2,0,-1,8.235
1648,-1,3,-20,-1,-1,0,0,-2,8.24
1649,0,1,-9,-1,-4,-1,1,-1,8.245000000000001
1650,-1,2,5,0,-3,0,-1,-1,8.25
1651,3,-3,2,-1,0,0,3,-1,8.255
1652,-1,3,19,-1,-2,0,0,-2,8.26
1653,-4,-2,-5,0,2,0,-1,-2,8.265
1654,1,2,-14,2,-2,-1,0,-2,8.27
1655,2,-5,-12,-8,-3,-3,-1,-1,8.275
1656,-4,2,-12,7,2,2,-2,-2,8.28
1657,2,0,0,-3,-1,-1,0,1,8.285
1658,0,-1,2,-6,-2,0,-1,0,8.290000000000001
1659,-2,1,-12,8,2,1,-1,0,8.295
1660,-1,-1,-9,-5,-5,-1,1,0,8.3
1661,0,-5,-38,4,2,-1,-2,-3,8.305
1662,-4,-34,-27,-6,-4,-3,-1,-2,8.31
1663,0,-89,-34,-11,-2,0,1,0,8.315
1664,-1,-23,-42,8,1,0,2,0,8.32
1665,2,-20,-20,1,-2,1,-1,-2,8.325
1666,0,-4,-21,1,0,0,-1,-2,8.33
1667,-1,-29,-18,2,5,-1,-2,0,8.335
1668,5,-20,-16,-8,-2,-3,-4,-1,8.34
1669,-9,-2,-16,0,-1,-2,-1,-1,8.345
1670,-1,12,-3,-3,-2,-2,0,-2,8.35
1671,-2,33,5,1,-2,0,0,-1,8.355
1672,5,17,-3,2,1,1,0,0,8.36
1673,1,35,2,-4,0,-2,1,0,8.365
1674,0,31,8,3,0,1,-1,-2,8.370000000000001
1675,-3,33,9,-6,-3,1,-2,-1,8.375
1676,-1,11,2,-1,-2,-2,0,1,8.38
1677,0,8,-4,1,1,-1,0,0,8.385
1678,-4,-6,-6,-6,-1,-1,-1,0,8.39
1679,4,11,-8,-1,-2,0,-1,1,8.395
1680,-5,-16,-4,-7,-2,-2,-2,-1,8.4
1681,0,-11,0,8,3,0,0,0,8.405
1682,5,-4,3,2,0,0,-1,0,8.41
1683,-2,3,-5,-13,-4,-2,1,1,8.415000000000001
1684,-7,6,0,22,7,2,1,0,8.42
1685,3,31,10,-6,-5,0,-1,-1,8.425
1686,0,24,11,1,0,-1,1,1,8.43
1687,-2,10,3,1,-1,-2,-1,-1,8.435
1688,0,-17,-1,-12,-2,-1,-1,-1,8.44
1689,0,-2,2,-2,0,1,-2,2,8.445
1690,3,4,6,2,-5,-3,-3,0,8.45
1691,-4,-2,-15,-2,5,1,-1,-2,8.455
1692,0,-14,-14,8,0,-1,-2,-2,8.46
1693,-4,-11,-1,6,0,0,-1,-1,8.465
1694,0,-3,-4,-6,-2,-2,0,-2,8.47
1695,-2,-5,1,2,-2,-3,-2,-1,8.475
1696,-2,-9,-6,-6,0,1,-2,-1,8.48
1697,3,-6,-6,-5,-2,0,1,-1,8.485
1698,-6,-4,-6,-3,-1,1,-1,-2,8.49
1699,-1,1,-2,2,-1,0,0,0,8.495000000000001
1700,-1,-7,-3,-4,-1,-2,-1,-2,8.5
1701,0,15,-1,-4,-3,-1,-1,0,8.505
1702,-6,2,-3,5,1,-2,-1,-1,8.51
1703,3,0,0,3,-1,-1,0,0,8.515
1704,-7,-12,0,-6,-3,-2,-2,-1,8.52
1705,1,-10,-1,-4,-3,-1,1,1,8.525
1706,2,7,0,1,0,0,0,0,8.53
1707,-2,11,3,3,1,1,-1,0,8.535
1708,-1,0,3,-11,-3,-1,-1,-2,8.540000000000001
1709,0,-5,2,4,2,0,-1,-2,8.545
1710,-1,6,3,4,-1,0,1,-1,8.55
1711,-1,-3,5,12,3,0,0,-1,8.555
1712,2,-1,3,0,-3,-2,-1,0,8.56
1713,-6,-12,2,-3,1,-2,0,-3,8.565
1714,1,0,2,-6,-2,-2,-2,0,8.57
1715,1,-5,5,-4,-4,-2,-1,0,8.575000000000001
1716,0,-7,-6,0,0,0,-1,0,8.58
1717,-2,-11,0,-4,-1,-1,0,0,8.585
1718,2,11,0,5,0,-1,-1,-1,8.59
1719,-1,-3,1,5,0,-2,-2,0,8.595
1720,1,-16,1,1,-2,-1,0,-1,8.6
1721,0,-68,0,5,-3,-2,-2,-1,8.605
1722,-4,-8,-3,-1,1,1,-2,2,8.61
1723,-2,0,2,-2,1,0,0,-1,8.615
1724,4,16,3,-5,0,1,2,1,8.620000000000001
1725,0,4,5,-2,-1,1,0,-1,8.625
1726,-4,9,-2,0,-4,-4,-1,-2,8.63
1727,-3,2,-10,4,6,3,-2,-1,8.635
1728,-1,-7,2,4,-1,-1,-1,1,8.64
1729,1,2,-4,-5,-1,-1,-1,1,8.645
1730,-3,4,3,1,-2,1,-1,-1,8.65
1731,1,10,2,-10,-5,-2,0,-1,8.655
1732,0,15,-3,-3,-1,0,0,-1,8.66
1733,-2,18,-1,0,-1,0,0,-3,8.665000000000001
1734,0,4,-2,-1,1,-1,-2,-2,8.67
1735,-4,2,-1,-2,-2,-2,1,-2,8.675
1736,-2,-6,-1,2,-2,0,-1,-1,8.68
1737,-4,11,-3,-4,-2,1,-2,-1,8.685
1738,2,2,2,-2,-1,-1,0,-1,8.69
1739,-1,7,-6,-5,-3,-2,0,-2,8.695
1740,1,4,3,2,-1,-1,0,0,8.700000000000001
1741,0,9,-3,0,0,-1,0,0,8.705
1742,-1,-4,-2,-3,0,0,1,-1,8.71
1743,-3,-1,5,-1,-3,-1,-3,-3,8.715
1744,-3,-4,-4,-4,-1,-2,-1,-1,8.72
1745,1,3,-2,4,0,1,-1,1,8.725
1746,-1,1,-1,-6,-1,-2,0,-2,8.73
1747,2,6,-2,1,1,-2,0,0,8.735
1748,-3,-9,-4,1,-1,-1,-2,-1,8.74
1749,-2,2,0,1,1,-1,0,0,8.745000000000001
1750,2,-5,1,-2,0,1,-1,-2,8.75
1751,5,-3,6,0,-1,-1,-1,-2,8.755
1752,-1,-5,-1,-17,-4,-3,-2,0,8.76
1753,-3,10,3,26,7,0,0,-1,8.765
1754,-2,-5,0,1,-1,1,0,0,8.77
1755,-1,1,-6,2,0,0,0,-1,8.775
1756,1,0,1,2,1,0,1,-2,8.78
1757,1,-2,-1,-13,-5,-2,-2,-1,8.785
1758,-1,-11,-1,4,0,-1,-1,-1,8.790000000000001
1759,0,3,-1,-2,-2,-2,-2,0,8.795
1760,0,-8,6,-1,1,0,-1,-1,8.8
1761,0,0,-14,-6,-3,0,-1,0,8.805
1762,-2,-2,-1,-1,-2,-1,-1,-1,8.81
1763,-4,-8,1,-3,-3,-2,1,0,8.815
1764,-2,-6,-1,3,0,-1,0,-2,8.82
1765,0,4,1,-1,-2,0,-2,-3,8.825000000000001
1766,-1,-1,-3,-1,0,-1,-1,-1,8.83
1767,3,0,3,-1,-2,1,-1,2,8.835
1768,-9,-1,-4,3,0,0,-1,-2,8.84
1769,2,-1,1,-12,-6,-2,-1,0,8.845
1770,-5,-10,-5,3,3,0,-1,1,8.85
1771,-1,2,1,8,0,0,0,-1,8.855
1772,1,-7,1,3,1,0,-1,0,8.86
1773,-2,2,2,-6,-1,-1,-1,-3,8.865
1774,1,10,0,-14,-4,-2,-1,-1,8.870000000000001
1775,0,-4,1,4,2,1,0,1,8.875
1776,-3,-4,0,11,1,0,-2,-2,8.88
1777,2,-5,2,-3,-3,-1,-1,-1,8.885
1778,-3,3,-1,3,-2,0,-1,-1,8.89
1779,-3,-12,-2,-7,-2,-2,-2,-1,8.895
1780,0,-9,-2,-7,-3,-2,-2,0,8.9
1781,1,-5,2,1,1,-1,-1,0,8.905
1782,0,-6,-2,1,-1,2,-1,0,8.91
1783,1,0,1,-3,-1,0,-1,0,8.915000000000001
1784,2,-2,-3,-6,-1,-1,-1,0,8.92
1785,-3,1,-1,9,3,-1,-1,-2,8.925
1786,-1,5,0,-4,-2,1,1,0,8.93
1787,-2,-2,-1,0,-1,-1,-1,-1,8.935
1788,3,-3,3,-1,-1,-1,0,0,8.94
1789,-6,0,-3,-4,-1,-2,-3,-2,8.945
1790,0,-5,-2,-4,-2,-1,-2,-1,8.950000000000001
1791,1,7,2,-2,-1,0,1,-1,8.955
1792,-3,2,-5,3,-4,-3,-1,-3,8.96
1793,2,-9,-4,-7,-1,0,1,1,8.965
1794,2,-1,10,19,8,2,0,0,8.97
1795,-2,-8,-11,-4,1,-1,-2,-2,8.975
1796,0,-5,-2,-6,-2,-2,1,-1,8.98
1797,1,-5,2,-5,-3,-2,0,1,8.985
1798,-2,-1,-2,4,1,-2,0,-2,8.99
1799,2,5,7,-4,-3,0,0,0,8.995000000000001
1800,-2,3,-4,0,1,0,-1,-2,9.0
1801,0,3,0,1,0,0,0,0,9.005
1802,2,6,-3,-5,-2,-2,-1,-1,9.01
1803,-3,4,-3,-1,0,1,-1,-1,9.015
1804,1,-2,2,1,0,1,-1,1,9.02
1805,0,1,-1,2,-1,-1,0,1,9.025
1806,-4,3,-2,-3,-3,-1,-2,-2,9.03
1807,-5,-2,-1,-1,-1,-3,-1,-1,9.035
1808,1,-4,-1,-4,-2,0,1,0,9.040000000000001
1809,0,6,2,0,0,1,1,0,9.045
1810,2,7,0,0,-1,0,-1,1,9.05
1811,1,0,-2,0,-3,-3,-1,-1,9.055
1812,1,5,3,1,1,-3,0,-1,9.06
1813,-4,4,-1,4,-1,-2,-1,-2,9.065
1814,-4,5,-9,-11,-3,-2,-2,-3,9.07
1815,-1,6,1,1,-1,1,-1,0,9.075000000000001
1816,1,3,2,-1,0,2,-1,1,9.08
1817,1,0,2,6,1,0,-2,0,9.085
1818,2,6,0,-3,-1,-1,-1,0,9.09
1819,-5,-11,-3,-5,-2,-1,-1,-2,9.095
1820,1,-5,-4,-4,-2,-3,0,0,9.1
1821,-3,-4,-2,-3,-2,0,-1,-2,9.105
1822,-4,1,-3,3,0,-2,0,-2,9.11
1823,1,1,-3,-4,-1,-2,0,-1,9.115
1824,-1,-6,-2,1,-1,-2,0,0,9.120000000000001
1825,1,-6,-3,-3,1,-1,-1,1,9.125
1826,-2,-7,2,-1,-1,1,1,2,9.13
1827,0,-7,-2,-1,-1,1,0,1,9.135
1828,-1,-4,7,-2,-2,-1,-1,-1,9.14
1829,1,-9,-1,3,1,0,0,1,9.145
1830,-1,-11,-3,1,-2,-1,-2,0,9.15
1831,-1,-7,1,0,2,1,0,-2,9.155
1832,0,-12,0,0,-2,0,0,0,9.16
1833,1,-9,-6,-4,-3,-1,-1,0,9.165000000000001
1834,-1,-6,1,5,1,-2,1,-1,9.17
1835,-1,-12,-1,-2,-2,-1,-2,-2,9.175
1836,-2,-6,-3,0,0,0,-3,-2,9.18
1837,0,0,-1,-7,-2,-1,0,-1,9.185
1838,1,0,-2,-4,0,-1,0,-1,9.19
1839,-6,-10,-3,-4,-1,-1,-1,-2,9.195
1840,-1,2,3,2,-1,0,1,-1,9.200000000000001
1841,-1,0,5,11,4,0,0,-1,9.205
1842,3,-15,0,-1,-3,-3,-1,0,9.21
1843,-1,-3,1,6,-1,-3,-1,-1,9.215
1844,1,-4,-4,-4,-2,0,-2,0,9.22
1845,-1,-4,-1,-1,-2,-1,-1,-2,9.225
1846,2,4,1,-2,1,0,0,0,9.23
1847,-1,-9,0,-1,-1,-2,-1,0,9.235
1848,-3,-13,-5,-9,-2,-1,0,-1,9.24
1849,-2,-3,1,3,-1,-1,-2,0,9.245000000000001
1850,2,8,-1,3,0,1,-1,0,9.25
1851,-3,1,-4,-2,-2,-1,-1,-1,9.255
1852,-3,2,-8,-12,-2,-1,-2,0,9.26
1853,3,4,10,8,1,-1,-1,1,9.265
1854,-8,-6,-18,-1,1,-2,0,-1,9.27
1855,-1,1,1,1,-1,0,-2,0,9.275
1856,0,-2,2,4,1,1,0,0,9.28
1857,2,1,-1,-7,-4,2,0,0,9.285
1858,-2,3,-5,-2,-2,-1,-1,-2,9.290000000000001
1859,3,3,1,-4,0,1,0,1,9.295
1860,0,-7,1,4,1,-1,-2,-1,9.3
1861,-6,-3,-1,-6,-2,-1,-1,-3,9.305
1862,2,4,7,5,0,1,-1,1,9.31
1863,-2,0,-3,1,-1,-1,0,-1,9.315
1864,-2,-4,0,0,-2,-2,-1,-1,9.32
1865,-3,1,-4,-1,-1,-1,-2,-1,9.325000000000001
1866,1,-3,4,-2,-1,1,-1,1,9.33
1867,-4,-5,-3,-2,-1,0,-1,0,9.335
1868,-6,-8,-4,-3,-1,-2,-3,-3,9.34
1869,-2,4,-4,2,-2,-2,0,-1,9.345
1870,2,-1,3,-3,-1,-2,0,-2,9.35
1871,2,-3,-4,-1,1,-2,0,1,9.355
1872,3,9,0,5,0,0,0,1,9.36
1873,-2,-1,-5,-4,-1,-2,-3,-1,9.365
1874,-1,5,2,-8,-3,0,-1,-1,9.370000000000001
1875,1,4,8,11,1,0,0,1,9.375
1876,1,1,-11,0,-2,-1,-2,-2,9.38
1877,-2,10,-4,-6,-2,-1,-1,-1,9.385
1878,-1,5,2,-1,0,-2,-2,0,9.39
1879,-1,4,1,-5,-1,-1,1,-2,9.395
1880,-5,4,2,6,3,2,0,-1,9.4
1881,0,2,-1,-2,-3,0,-1,-1,9.405
1882,1,2,-2,0,1,0,0,-2,9.41
1883,2,3,2,-2,-3,0,-1,0,9.415000000000001
1884,2,-1,2,-3,-3,-3,-1,-1,9.42
1885,-2,2,-1,-2,2,0,0,-2,9.425
1886,-1,8,1,14,1,0,1,-2,9.43
1887,0,-4,1,-14,-5,-4,-1,-1,9.435
1888,2,-1,2,15,3,1,0,0,9.44
1889,0,1,-5,-5,-1,-1,-1,0,9.445
1890,-1,-3,-3,-5,-3,-1,-1,0,9.450000000000001
1891,-4,-8,-6,-5,-1,-2,-1,-3,9.455
1892,0,-4,8,-8,-4,-1,0,-1,9.46
1893,-1,1,0,5,1,-2,-1,-2,9.465
1894,0,3,-3,-2,-1,1,-1,0,9.47
1895,2,1,0,4,-1,2,0,1,9.475
1896,0,-3,-1,-3,-2,-1,-2,0,9.48
1897,-2,-3,-2,-3,-2,-1,-1,-1,9.485
1898,-4,0,-1,-1,0,-1,-1,-2,9.49
1899,-3,-5,-3,2,0,0,-3,-1,9.495000000000001
1900,-2,-5,-3,0,0,0,-1,-1,9.5
1901,2,-3,3,3,1,0,-1,0,9.505
1902,-1,-7,2,-4,-2,-1,-1,-1,9.51
1903,-3,-5,0,-2,-2,-1,0,0,9.515
1904,-6,-6,-3,-1,-4,-4,-2,-3,9.52
1905,0,-6,-7,-8,-2,-3,-1,0,9.525
1906,2,4,4,12,3,1,-1,1,9.53
1907,1,-5,-5,3,1,1,0,0,9.535
1908,2,-4,2,-3,0,0,1,0,9.540000000000001
1909,-1,3,2,-4,-4,-2,0,-3,9.545
1910,-2,-4,-6,-21,-8,-2,-1,-3,9.55
1911,1,-2,1,37,12,3,-1,-1,9.555
1912,-2,-1,-2,-1,-1,-1,0,-2,9.56
1913,-5,-4,0,2,1,1,-1,-2,9.565
1914,0,1,1,-3,0,0,0,0,9.57
1915,-1,-5,-1,-13,-6,-2,-4,-1,9.575000000000001
1916,-1,-13,-4,-4,-1,-1,-1,1,9.58
1917,2,-1,1,0,-1,0,0,-1,9.585
1918,-1,-3,0,-2,0,0,0,0,9.59
1919,0,-8,-1,-5,-3,-2,0,-2,9.595
1920,-2,-8,-1,-3,1,-2,0,-2,9.6
1921,-2,3,3,5,0,0,-1,-1,9.605
1922,-3,-6,-7,6,2,-1,0,-1,9.61
1923,0,-3,0,-3,-1,-1,0,1,9.615
1924,4,-1,1,1,-1,1,-1,1,9.620000000000001
1925,7,6,4,8,2,0,0,1,9.625
1926,-2,-2,2,0,-1,-2,0,-2,9.63
1927,-3,-3,-7,0,-1,0,0,-1,9.635
1928,-2,-1,-3,-8,-2,-2,0,-1,9.64
1929,-2,-4,-2,-4,0,0,-1,-2,9.645
1930,2,4,2,2,-2,0,0,-1,9.65
1931,2,-2,2,1,-1,-1,2,0,9.655
1932,-1,-5,-2,2,0,-1,-2,0,9.66
1933,1,-2,-3,-2,-2,-3,0,0,9.665000000000001
1934,-2,4,-1,-6,0,-1,-1,1,9.67
1935,-2,-10,1,-6,-3,-2,-2,-1,9.675
1936,0,-9,2,3,4,1,-1,0,9.68
1937,-5,-8,-7,0,-3,0,-1,-3,9.685
1938,0,-1,0,11,4,0,0,-2,9.69
1939,-1,-4,2,0,0,-2,0,0,9.695
1940,2,-2,7,1,-1,-2,-1,0,9.700000000000001
1941,2,-4,6,-8,-2,-2,0,1,9.705
1942,-4,-4,-8,-5,-2,-2,-2,-1,9.71
1943,-1,1,0,-3,-1,-1,-1,-1,9.715
1944,-1,-6,-3,6,1,-1,-1,-2,9.72
1945,-3,-9,0,0,1,-1,-2,-1,9.725
1946,3,-2,1,-5,-4,-3,-2,0,9.73
1947,-4,-13,-4,3,1,0,0,0,9.735
1948,-3,-1,-2,-5,-3,-2,-1,-2,9.74
1949,-1,3,-1,-1,-1,-1,-1,-2,9.745000000000001
1950,-1,1,0,0,-1,0,0,0,9.75
1951,4,-3,-2,-9,-2,-2,-1,0,9.755
1952,-1,1,0,3,0,-1,1,1,9.76
1953,-1,1,-2,-3,-1,-2,-1,0,9.765
1954,3,3,1,-1,0,-2,-1,0,9.77
1955,-6,5,-4,-3,-2,0,-2,-4,9.775
1956,-4,1,-3,0,-1,1,0,-1,9.78
1957,0,-2,-2,-2,-1,0,-2,-4,9.785
1958,-1,5,2,-3,0,-1,0,-1,9.790000000000001
1959,1,7,-1,9,-1,-1,-1,2,9.795
1960,3,2,-1,-3,-3,-1,-2,2,9.8
1961,-1,12,-2,-1,1,2,1,1,9.805
1962,-4,-3,-4,6,1,-1,-1,-1,9.81
1963,-4,-9,-2,-1,-1,-1,-1,-1,9.815
1964,1,0,2,-1,-4,-1,1,-1,9.82
1965,-1,1,0,-4,-2,-2,-2,1,9.825000000000001
1966,-3,-7,-8,3,1,-2,0,-3,9.83
1967,4,-1,1,-1,0,0,0,1,9.835
1968,-1,-7,0,-2,0,-2,-2,-3,9.84
1969,-3,-5,-1,-1,-3,-2,1,1,9.845
1970,0,4,2,-4,-1,-1,1,2,9.85
1971,2,-1,2,-1,-1,-2,0,0,9.855
1972,-1,1,-3,-4,-2,1,0,-1,9.86
1973,2,3,2,4,0,0,-1,-1,9.865
1974,-2,-2,-2,-5,-2,-1,-2,-2,9.870000000000001
1975,1,-3,1,2,-1,-1,0,-2,9.875
1976,-4,-3,-4,-3,-2,-1,-2,-1,9.88
1977,-2,-4,-2,-4,0,-1,1,-2,9.885
1978,-2,-1,1,13,-1,-1,-3,-1,9.89
1979,1,-1,-1,-3,-3,-2,-1,0,9.895
1980,-2,-8,0,2,2,1,0,-1,9.9
1981,0,5,-5,-1,0,-1,-1,-2,9.905
1982,1,3,1,-9,-3,-3,0,0,9.91
1983,0,-6,3,-4,-1,-3,-1,-2,9.915000000000001
1984,0,2,-4,-3,-1,0,2,1,9.92
1985,2,-3,1,14,4,0,-1,-1,9.925
1986,0,-2,-1,0,-2,1,0,-1,9.93
1987,-1,2,-1,-3,-2,0,0,0,9.935
1988,2,-6,3,-3,1,-1,0,1,9.94
1989,1,-4,9,-18,-6,-3,-2,-1,9.945
1990,-5,-9,-18,28,5,1,1,-2,9.950000000000001
1991,-2,-8,-1,-2,-1,0,-2,1,9.955
1992,-5,-5,-6,-1,0,-1,-1,-2,9.96
1993,-3,-12,-8,-3,0,1,0,1,9.965
1994,1,-4,5,-12,-4,-4,-1,-1,9.97
1995,0,-4,-3,-6,-1,1,-2,1,9.975
1996,1,-11,0,8,-1,0,-5,0,9.98
1997,-2,-2,0,1,-2,0,0,-1,9.985
1998,-2,0,1,-9,-2,-1,-1,0,9.99
1999,-3,-5,-5,-2,-1,-3,-1,-2,9.995000000000001
2000,2,1,1,-5,-2,-2,1,-1,10.0
2001,1,-6,-1,3,0,-1,0,0,10.005
2002,1,1,1,-2,-2,-1,-2,0,10.01
2003,-2,-6,1,-1,-1,-2,-1,-2,10.015
2004,-2,-8,-3,-2,-1,0,-1,-1,10.02
2005,-3,2,-4,-9,-2,0,-1,-1,10.025
2006,2,1,5,-4,-3,0,1,1,10.03
2007,-1,-9,-5,-4,0,-1,1,-1,10.035
2008,-3,-9,-3,4,-2,-1,-1,-1,10.040000000000001
2009,3,1,3,2,3,0,-1,1,10.045
2010,-3,-8,5,-6,-1,0,-1,-1,10.05
2011,-2,-6,0,-4,-3,0,0,-1,10.055
2012,1,-5,-6,2,-1,-1,0,-1,10.06
2013,1,2,-1,1,-2,1,3,-1,10.065
2014,0,-5,-5,-17,-3,-3,-2,-1,10.07
2015,-2,-10,2,18,2,-1,0,-1,10.075000000000001
2016,-1,-8,-2,-4,0,-1,-1,-1,10.08
2017,-5,-12,0,4,-1,-1,-3,-1,10.085
2018,0,3,-3,-3,-2,1,-1,-2,10.09
2019,-1,-8,4,-1,1,1,-1,0,10.095
2020,1,-3,-1,-6,-2,-1,-1,-1,10.1
2021,0,-7,-1,1,0,-1,1,0,10.105
2022,-4,2,-6,3,1,0,-1,0,10.11
2023,2,-5,-3,-6,-3,0,1,-1,10.115
2024,1,5,0,-3,-2,1,4,0,10.120000000000001
2025,-1,5,0,13,1,-2,-4,-2,10.125
2026,3,7,3,2,0,-1,0,0,10.13
2027,2,10,-7,-3,-4,-2,-3,-1,10.135
2028,2,-2,0,-3,-1,-3,-1,0,10.14
2029,-6,1,-6,-8,-3,0,-1,-3,10.145
2030,-2,16,2,8,2,0,-3,0,10.15
2031,-3,10,-2,6,1,0,-1,-2,10.155
2032,0,5,3,-4,-3,-2,0,0,10.16
2033,2,8,7,-2,-4,-2,0,1,10.165000000000001
2034,-5,7,-9,2,1,-2,-1,-1,10.17
2035,0,-9,1,-8,1,0,0,2,10.175
2036,0,-4,-3,2,0,-1,-2,0,10.18
2037,-1,-3,0,-7,-1,0,1,-2,10.185
2038,1,-24,12,18,0,-1,-1,1,10.19
2039,1,-5,-16,-11,-2,-1,-1,-1,10.195
2040,-1,-5,-2,-1,0,-1,-1,-2,10.200000000000001
2041,-6,-11,-5,-5,-1,-2,-3,-2,10.205
2042,1,9,-2,-16,-2,1,0,0,10.21
2043,0,0,4,8,-2,-2,-1,-2,10.215
2044,3,-4,3,9,3,1,-1,-1,10.22
2045,2,-2,-5,0,-2,-1,-1,-1,10.225
2046,-3,-4,1,-4,-3,-3,-1,-1,10.23
2047,-1,-1,4,4,0,-1,-1,-1,10.235
2048,-1,-9,-1,-4,-1,-3,0,0,10.24
2049,2,2,0,7,0,1,-1,1,10.245000000000001
2050,-3,-14,-4,-5,-1,-2,-1,-3,10.25
2051,1,-6,3,-3,-3,-1,-1,0,10.255
2052,-2,-6,-5,-4,-2,0,-1,-2,10.26
2053,0,3,-3,-5,-2,-2,-1,-1,10.265
2054,4,1,2,1,0,-1,-1,2,10.27
2055,-1,-7,-5,2,4,0,0,-1,10.275
2056,-3,-2,6,-2,-2,-2,-2,-2,10.28
2057,2,-6,-10,-5,-2,-1,1,-2,10.285
2058,0,3,-4,-10,-3,1,0,-1,10.290000000000001
2059,-6,-6,12,18,0,0,-2,-1,10.295
2060,1,-4,-9,-3,1,0,0,2,10.3
2061,-1,-1,3,2,0,-1,1,0,10.305
2062,-1,-8,-2,10,5,-1,-2,-1,10.31
2063,-1,-7,-2,-11,-2,-1,-1,0,10.315
2064,-2,0,10,13,-1,-1,-1,-1,10.32
2065,-2,-2,-4,-1,-2,-1,-2,-2,10.325000000000001
2066,-1,2,-3,-4,-1,0,-1,0,10.33
2067,0,-7,-1,-11,0,0,1,-1,10.335
2068,-1,-7,-3,1,0,0,-1,-1,10.34
2069,0,-7,0,-1,-2,-1,-1,1,10.345
2070,2,3,6,1,0,0,1,0,10.35
2071,-1,-6,-2,0,0,0,1,-1,10.355
2072,-3,-8,-6,-7,-1,0,-1,-1,10.36
2073,-2,-1,0,0,-2,-1,0,0,10.365
2074,-1,7,0,1,0,0,1,-1,10.370000000000001
2075,4,-5,0,-3,-1,-1,1,2,10.375
2076,-4,-1,-4,-12,-3,-2,-1,-2,10.38
2077,-5,-1,-1,-1,-1,-1,-2,-1,10.385
2078,0,1,-2,13,1,-2,-2,1,10.39
2079,0,-3,7,4,-1,-1,-2,-1,10.395
2080,0,-11,-17,-8,1,0,-3,0,10.4
2081,1,0,2,0,0,1,0,0,10.405
2082,-1,-1,-2,-14,-6,-1,1,-2,10.41
2083,0,-3,1,4,0,-1,-1,-1,10.415000000000001
2084,-1,3,6,-2,-4,-1,-1,1,10.42
2085,0,-2,-3,-4,3,1,-1,-1,10.425
2086,-1,-8,-1,7,1,-1,-1,-2,10.43
2087,1,-3,-3,-3,-1,0,-2,1,10.435
2088,1,1,2,3,-1,1,0,-1,10.44
2089,2,-2,3,-2,-2,-1,0,0,10.445
2090,0,0,-4,3,-1,-2,0,0,10.450000000000001
2091,-3,4,-5,-4,-2,-3,-3,-2,10.455
2092,-1,0,0,2,-1,-3,1,-1,10.46
2093,1,3,1,-1,-1,-2,-2,-2,10.465
2094,-4,-3,-2,-9,-2,-1,-3,-2,10.47
2095,0,-10,3,7,-1,0,0,-1,10.475
2096,1,5,-5,1,0,0,1,-2,10.48
2097,1,-6,2,5,-1,-2,2,1,10.485
2098,-5,-6,-1,-8,-4,-3,0,-3,10.49
2099,2,6,-5,-12,0,-1,2,-1,10.495000000000001
2100,-1,5,6,4,-3,0,-2,-1,10.5
2101,-1,-1,-2,2,5,1,-1,0,10.505
2102,0,5,-8,6,-1,-3,-1,0,10.51
2103,1,4,2,2,-1,-1,-3,0,10.515
2104,-3,-4,4,-2,-1,0,-1,-1,10.52
2105,-1,8,0,-1,-1,-1,-2,-1,10.525
2106,1,4,3,-6,-2,1,1,-1,10.53
2107,-2,1,-4,3,2,-1,1,-2,10.535
2108,0,3,-1,-3,0,1,-1,0,10.540000000000001
2109,-6,3,-2,0,-2,-1,-1,-1,10.545
2110,-1,4,2,-1,-1,1,0,-1,10.55
2111,-1,2,-6,-9,-4,0,0,0,10.555
2112,-2,-3,1,1,1,-1,-3,-1,10.56
2113,0,-4,-4,4,-1,-2,1,-1,10.565
2114,0,2,0,-1,-2,0,0,1,10.57
2115,0,1,-7,-4,-2,1,2,-1,10.575000000000001
2116,-3,-4,1,3,2,-3,-1,-2,10.58
2117,0,2,-1,-2,-1,-1,0,0,10.585
2118,1,1,3,-3,-1,1,-1,0,10.59
2119,1,-8,6,7,3,-1,-1,-1,10.595
2120,2,5,-6,-1,-1,1,0,0,10.6
2121,-4,-7,0,-12,-4,-2,-2,-4,10.605
2122,-6,-2,-6,5,3,1,1,0,10.61
2123,0,1,2,-6,-3,-1,-2,0,10.615
2124,0,0,-1,0,0,0,0,1,10.620000000000001
2125,-2,-3,2,-3,-3,-1,-2,-2,10.625
2126,1,-2,-1,-8,-3,-2,-3,0,10.63
2127,-4,-9,-2,-2,0,0,-2,-2,10.635
2128,1,-2,-1,0,-3,-1,1,-1,10.64
2129,2,0,-2,-2,-1,0,0,0,10.645
2130,0,0,-1,0,0,-1,-1,-1,10.65
2131,0,-12,1,-1,0,0,1,-1,10.655
2132,1,-5,-1,-4,-1,-3,-2,-2,10.66
2133,1,2,6,9,1,0,0,0,10.665000000000001
2134,2,-6,-8,1,0,-1,0,0,10.67
2135,-2,-2,1,2,-2,-3,-1,-1,10.675
2136,-2,-2,-5,1,2,0,0,0,10.68
2137,0,-5,-1,-1,-1,-1,1,0,10.685
2138,-2,-11,5,-3,-2,-1,0,-1,10.69
2139,0,0,-5,-9,-3,1,-1,-1,10.695
2140,0,-4,5,5,-2,-3,-3,-1,10.700000000000001
2141,-3,-6,-2,-2,0,0,-1,-2,10.705
2142,0,5,-3,6,1,-1,0,3,10.71
2143,-7,-17,-1,-6,-3,-1,-1,-4,10.715
2144,-1,-7,-1,-1,-2,-1,-1,-1,10.72
2145,0,2,-2,-7,0,0,0,0,10.725
2146,1,-4,6,2,-2,-1,-2,-3,10.73
2147,1,-6,-4,-2,-3,-1,-2,-2,10.735
2148,-1,3,1,-4,-1,0,0,1,10.74
2149,-5,-10,-3,7,0,-2,-1,-2,10.745000000000001
2150,3,-9,-4,-4,1,-1,-1,-1,10.75
2151,0,-4,3,1,-2,-1,0,1,10.755
2152,-3,-9,-1,4,-2,-1,-1,-3,10.76
2153,2,-5,-2,-5,1,0,0,0,10.765
2154,0,0,-1,-3,-2,-1,-1,-2,10.77
2155,-3,-7,8,7,0,-2,-1,-1,10.775
2156,-3,-7,-8,7,3,2,1,0,10.78
2157,7,1,-1,-4,-4,0,0,1,10.785
2158,1,-2,0,0,1,2,-1,-1,10.790000000000001
2159,1,-9,-5,-14,-5,-4,-1,-1,10.795
2160,0,-5,1,-3,-2,-2,-2,-1,10.8
2161,1,-3,0,4,1,-1,-3,-1,10.805
2162,-2,-14,-6,-10,-5,-2,-2,-3,10.81
2163,4,-5,5,16,3,1,1,2,10.815
2164,-3,-4,-5,3,3,1,0,-1,10.82
2165,0,-4,-8,1,-3,-1,-1,2,10.825000000000001
2166,-2,7,1,-4,-3,0,-1,-1,10.83
2167,-3,-1,-1,-6,-4,-2,1,1,10.835
2168,-2,8,4,11,3,0,-1,0,10.84
2169,2,30,4,4,2,0,0,-1,10.845
2170,0,12,-2,-4,-1,0,-2,0,10.85
2171,-2,-1,-3,4,0,-1,-3,-3,10.855
2172,-3,-9,5,-14,-5,-4,0,-2,10.86
2173,-4,-14,2,12,4,1,-1,-1,10.865
2174,-1,2,-2,-1,-1,0,1,0,10.870000000000001
2175,1,-7,-2,-2,-2,1,0,-2,10.875
2176,-1,-2,-1,1,-2,0,-1,0,10.88
2177,-1,4,3,-4,-1,-4,-1,-2,10.885
2178,3,8,-2,9,2,-2,0,1,10.89
2179,1,7,-1,-3,-2,-2,-1,-1,10.895
2180,1,8,0,-5,-2,-1,0,-1,10.9
2181,-6,0,-6,-7,-3,1,1,-1,10.905
2182,-4,1,14,7,-3,-2,-2,-2,10.91
2183,-2,0,-9,4,5,0,0,0,10.915000000000001
2184,1,0,-5,11,1,-1,-2,-2,10.92
2185,0,1,-1,-1,-4,-2,-2,-2,10.925
2186,0,-2,-3,-8,-1,-1,1,-1,10.93
2187,-3,-7,-3,-14,-3,-1,0,0,10.935
2188,-1,1,-1,0,1,0,-1,-1,10.94
2189,0,2,6,1,-3,-1,0,1,10.945
2190,-2,1,-1,-3,-4,-1,-1,-3,10.950000000000001
2191,-2,-5,1,-4,1,-1,-1,0,10.955
2192,0,1,-5,-6,-1,2,-2,-1,10.96
2193,0,-14,5,-3,-2,-2,-1,-3,10.965
2194,-2,-12,-10,-11,-2,-2,-2,-1,10.97
2195,0,5,5,11,0,0,-1,-1,10.975
2196,-1,-1,3,-4,1,0,0,1,10.98
2197,1,6,9,9,0,0,0,-2,10.985
2198,-3,10,-15,-7,-2,-2,-1,-2,10.99
2199,-2,-7,3,-1,5,1,1,0,10.995000000000001
2200,-1,-4,3,-5,-3,-3,0,-2,11.0
2201,-1,-6,-10,-3,-1,2,0,-1,11.005
2202,-1,-9,6,11,2,-1,0,-1,11.01
2203,2,-1,0,-3,-6,0,-1,0,11.015
2204,1,-12,3,-8,0,-1,-1,-1,11.02
2205,-3,-7,-2,-19,-4,-1,-2,-2,11.025
2206,1,-4,-8,19,8,5,3,0,11.03
2207,-9,-6,-5,6,-2,0,-2,-3,11.035
2208,2,-3,1,-5,-6,-3,-1,3,11.040000000000001
2209,0,-2,-8,-1,0,0,0,-2,11.045
2210,3,-11,8,-13,-3,1,2,2,11.05
2211,6,-9,-10,4,3,-2,-1,0,11.055
2212,2,-4,-5,-7,0,-1,0,1,11.06
2213,-1,-6,-3,0,-1,-3,-2,1,11.065
2214,-5,3,0,-4,-4,-2,-1,-1,11.07
2215,-1,-4,0,-2,-2,0,0,-3,11.075000000000001
2216,3,-3,9,-3,-3,-2,0,-2,11.08
2217,-5,7,-5,-3,-1,0,0,0,11.085
2218,0,-6,5,7,1,1,0,0,11.09
2219,1,-1,3,-5,-2,-1,0,0,11.095
2220,-2,1,-3,-3,-2,-1,-1,-3,11.1
2221,6,-6,0,1,3,4,5,-1,11.105
2222,-2,-17,0,-17,-3,0,-2,1,11.11
2223,-1,-5,3,23,1,-10,-10,-2,11.115
2224,-2,2,-7,2,-1,-4,-3,0,11.120000000000001
2225,1,-1,4,-2,-1,0,-1,0,11.125
2226,-6,1,-11,-8,-4,-4,-2,-2,11.13
2227,3,-6,-1,-3,0,5,7,5,11.135
2228,-4,-8,-8,-13,-4,0,-1,-2,11.14
2229,-7,1,8,30,5,-3,-4,-5,11.145
2230,-1,1,-2,-12,-4,0,0,0,11.15
2231,-5,-6,12,7,3,1,0,0,11.155
2232,-2,6,-19,-20,-5,1,0,-2,11.16
2233,8,-10,10,30,5,0,0,2,11.165000000000001
2234,-8,-12,-29,-18,-2,-2,-4,-3,11.17
2235,2,1,2,18,2,0,-1,1,11.175
2236,-6,-6,4,-2,3,2,2,-1,11.18
2237,0,0,7,-10,-6,-3,-2,-2,11.185
2238,2,2,9,-1,-3,-3,-3,-1,11.19
2239,-5,-9,-32,-38,-5,2,0,-3,11.195
2240,8,2,15,21,1,0,1,3,11.200000000000001
2241,4,0,-26,-3,0,-2,-2,1,11.205
2242,-4,4,19,5,-3,0,0,-2,11.21
2243,0,2,2,1,4,4,3,0,11.215
2244,5,-2,-1,9,2,-2,-3,-2,11.22
2245,-5,0,8,-7,-8,-2,0,-3,11.225
2246,5,-7,-9,-20,-1,-2,-1,1,11.23
2247,1,-6,15,20,1,0,-1,0,11.235
2248,-8,0,1,7,4,-3,-6,-5,11.24
2249,-8,0,-8,-16,-7,-4,-3,-5,11.245000000000001
2250,1,7,-4,26,7,-1,-2,-1,11.25
2251,-3,1,8,-12,-10,-5,-3,-2,11.255
2252,-3,-9,-3,23,13,3,2,-4,11.26
2253,1,0,16,-22,-3,1,0,1,11.265
2254,-4,5,-13,-17,-2,4,3,1,11.27
2255,11,5,4,-7,-9,-3,-2,3,11.275
2256,-4,7,-9,15,10,1,-3,-2,11.28
2257,-3,18,-3,-33,-12,-8,-4,2,11.285
2258,5,5,21,26,4,7,9,2,11.290000000000001
2259,-1,12,-19,-25,2,1,-3,1,11.295
2260,3,8,10,-7,-4,-6,-1,5,11.3
2261,-5,-6,2,25,5,3,0,-7,11.305
2262,1,10,19,-22,-9,-4,-1,-2,11.31
2263,8,-10,4,26,5,3,11,2,11.315
2264,-8,-3,-24,4,-3,-3,-12,-4,11.32
2265,0,-12,-4,-11,-3,-9,-4,1,11.325000000000001
2266,4,-11,26,4,-6,-2,-4,-4,11.33
2267,-13,-10,-27,-9,0,-6,-5,-8,11.335
2268,5,-12,8,-9,7,14,15,10,11.34
2269,1,4,-10,-16,-3,3,8,1,11.345
2270,-1,10,-16,-27,-8,-7,-9,-2,11.35
2271,0,-6,-3,8,-3,-7,-6,-1,11.355
2272,6,-1,5,24,-6,-6,-7,-1,11.36
2273,-4,-2,-3,-8,4,8,6,-2,11.365
2274,3,-27,12,36,11,15,18,5,11.370000000000001
2275,4,-25,1,17,-1,-12,-18,0,11.375
2276,-2,-10,8,-43,-4,-7,0,0,11.38
2277,7,17,-27,-17,-5,-3,-6,-2,11.385
2278,12,10,7,57,5,-4,-7,-1,11.39
2279,-14,19,-6,-52,-11,9,3,-8,11.395
2280,-3,-14,1,37,-3,0,-2,-8,11.4
2281,-3,-2,5,-7,10,10,11,-1,11.405
2282,2,7,-27,-6,9,7,8,-3,11.41
2283,2,106,-43,16,5,13,6,10,11.415000000000001
2284,16,127,8,-10,-9,-24,-20,2,11.42
2285,-13,39,15,-73,-33,-18,-8,-7,11.425
2286,-14,3,5,77,17,-3,-12,-13,11.43
2287,-10,-50,17,2,3,-1,5,2,11.435
2288,-5,-34,22,-5,2,6,-2,-7,11.44
2289,-23,-41,-28,40,7,9,4,-4,11.445
2290,11,-44,-36,-14,6,4,14,16,11.450000000000001
2291,9,-37,31,-39,-22,-39,-31,-6,11.455
2292,17,-18,6,-103,-22,7,10,11,11.46
2293,-11,-23,-18,113,39,19,6,-7,11.465
2294,7,-17,71,-20,-11,-8,-8,-4,11.47
2295,9,-1,-83,-48,0,5,1,-6,11.475
2296,1,-14,17,-6,8,0,-2,5,11.48
2297,-15,-14,51,-23,-31,-17,-6,-11,11.485
2298,3,9,16,34,14,9,4,13,11.49
2299,7,-5,24,18,3,6,20,12,11.495000000000001
2300,-7,-12,23,-32,-6,14,3,-15,11.5
2301,-1,4,-41,-11,12,7,5,-6,11.505
2302,26,10,-58,50,15,-30,-42,-7,11.51
2303,-22,-13,72,-48,-45,-38,-24,6,11.515
2304,-51,-5,-81,14,1,5,3,-9,11.52
2305,22,-4,71,-114,-26,18,36,11,11.525
2306,-15,7,-108,52,49,9,-16,-4,11.53
2307,9,3,56,-67,0,-6,-8,-6,11.535
2308,-20,-8,42,-1,-36,-53,-30,-7,11.540000000000001
2309,48,13,-28,57,12,-10,-19,23,11.545
2310,2,6,46,31,-7,20,18,-15,11.55
2311,-16,-9,-93,-9,13,10,15,-5,11.555
2312,-18,8,0,36,27,35,36,28,11.56
2313,-21,6,93,-67,-38,-18,-15,-19,11.565
2314,-6,-4,-45,15,14,17,1,3,11.57
2315,24,3,-19,-13,10,-16,-9,17,11.575000000000001
2316,15,0,93,3,-21,-12,-23,-40,11.58
2317,26,-13,-128,93,53,16,26,54,11.585
2318,-44,2,127,-128,-60,8,15,-17,11.59
2319,25,7,-18,21,7,23,30,14,11.595
2320,-33,-7,-82,100,69,15,-22,-12,11.6
2321,-14,0,61,-106,-43,-50,-43,-10,11.605
2322,-7,2,-7,12,19,27,32,36,11.61
2323,-18,-3,99,-42,-80,-60,-75,-74,11.615
2324,54,9,-57,93,80,62,63,31,11.620000000000001
2325,-30,2,2,-96,-14,-10,-19,0,11.625
2326,-10,1,-75,-90,-9,-8,4,0,11.63
2327,-14,-2,127,-75,-44,-3,19,26,11.635
2328,-13,-7,-107,39,44,-24,-59,-15,11.64
2329,14,-9,9,-26,19,18,10,3,11.645
2330,-10,-1,87,-122,-67,-38,-24,-35,11.65
2331,9,-3,-103,106,42,32,57,13,11.655
2332,4,-6,116,-128,-97,-23,-20,-16,11.66
2333,-6,13,-113,127,107,44,22,10,11.665000000000001
2334,26,-7,119,-124,-43,-6,3,1,11.67
2335,-41,1,45,43,-5,18,13,17,11.675
2336,-4,-1,-82,-128,-30,7,43,35,11.68
2337,7,-4,77,-36,-19,-3,-21,-16,11.685
2338,17,1,-8,-84,-53,-98,-88,-18,11.69
2339,-3,-9,-14,52,67,58,35,-31,11.695
2340,-27,-6,32,-92,-23,-26,-27,-7,11.700000000000001
2341,16,-5,-7,93,16,27,38,41,11.705
2342,1,-3,53,71,6,-13,2,-21,11.71
2343,4,6,-100,-74,11,-20,-49,10,11.715
2344,8,-1,127,-4,-47,21,49,28,11.72
2345,16,-8,-128,-15,27,28,12,-32,11.725
2346,-29,3,19,18,-6,-5,6,9,11.73
2347,26,-7,79,15,5,12,-3,19,11.735
2348,13,6,22,-59,-17,-44,-66,-49,11.74
2349,-21,5,110,-89,-38,3,28,51,11.745000000000001
2350,23,-14,-128,127,38,11,24,-33,11.75
2351,-18,-1,42,-128,-44,14,-12,-12,11.755
2352,-53,11,-12,127,42,-29,-14,11,11.76
2353,1,-7,2,-94,-30,-50,-41,-9,11.765
2354,9,-5,37,-128,0,68,66,2,11.77
2355,30,-1,-3,55,21,3,-9,-13,11.775
2356,37,1,-22,-33,-8,24,37,3,11.78
2357,29,-6,104,29,-14,-1,-26,-35,11.785
2358,-26,8,-128,38,48,-42,-43,19,11.790000000000001
2359,-12,10,-32,-32,17,28,27,19,11.795
2360,10,-7,37,-87,-41,-22,8,-6,11.8
2361,3,6,13,96,42,53,42,5,11.805
2362,44,8,99,-94,-37,-12,-24,25,11.81
2363,-27,-7,-128,103,57,5,15,-9,11.815
2364,13,-4,47,18,-7,24,7,13,11.82
2365,-1,5,54,-60,-38,-110,-95,-58,11.825000000000001
2366,-23,-14,77,68,-2,26,26,34,11.83
2367,6,1,-90,-93,-14,-21,-29,-28,11.835
2368,3,-8,57,-35,5,42,62,19,11.84
2369,-31,4,-105,30,21,34,14,-15,11.845
2370,-19,-12,45,120,46,1,-2,0,11.85
2371,-4,9,101,-96,-33,9,43,9,11.855
2372,5,0,-2,-96,-27,-49,-79,-52,11.86
2373,-11,6,-98,25,17,4,15,40,11.865
2374,-20,2,-99,-128,-40,-55,-61,-9,11.870000000000001
2375,13,-9,127,85,8,34,42,0,11.875
2376,11,-7,-107,117,85,37,32,23,11.88
2377,8,1,103,1,-22,-1,-2,-8,11.885
2378,-17,-9,20,-18,-1,29,37,0,11.89
2379,-1,-7,25,-78,-18,-3,-4,0,11.895
2380,14,0,-47,70,18,16,6,10,11.9
2381,18,-1,-37,-23,5,8,29,20,11.905
2382,-6,-1,-81,27,9,-23,-21,16,11.91
2383,2,11,59,-59,-4,-25,-26,-23,11.915000000000001
2384,10,0,89,-84,-91,-40,-46,-29,11.92
2385,5,-1,-51,-16,72,46,36,30,11.925
2386,-3,3,118,-10,-16,20,37,7,11.93
2387,-9,0,-128,8,19,4,15,9,11.935
2388,14,3,67,-128,-34,5,19,36,11.94
2389,-3,3,-65,53,4,-12,-26,-25,11.945
2390,-23,-1,9,-17,-1,1,-7,-29,11.950000000000001
2391,58,2,68,-59,-38,13,19,4,11.955
2392,-30,0,-111,127,112,-13,-11,-8,11.96
2393,-60,-3,118,-128,-75,-63,-45,-21,11.965
2394,28,-3,-70,12,33,34,17,13,11.97
2395,-12,5,61,-83,-38,-16,-34,-9,11.975
2396,-7,-5,-76,82,43,12,20,10,11.98
2397,-7,-8,49,43,-26,-15,-35,-44,11.985
2398,1,1,-77,-21,-11,-9,6,5,11.99
2399,-13,0,-15,127,50,27,26,17,11.995000000000001
2400,-11,-5,74,-93,-43,-22,-31,-22,12.0
2401,16,-9,9,-28,-47,2,24,8,12.005
2402,-15,4,-51,66,61,15,18,-1,12.01
2403,25,-2,20,-4,28,8,-17,20,12.015
2404,-14,9,3,-52,-24,-37,-18,2,12.02
2405,1,-4,31,-57,-2,31,25,-14,12.025
2406,2,4,34,-53,-17,26,22,-7,12.030000000000001
2407,-9,-6,-23,42,-12,-59,-49,22,12.035
2408,-1,8,-4,10,10,18,26,-5,12.040000000000001
2409,11,-8,10,-11,-1,-2,-18,-1,12.045
2410,-5,-3,2,-49,-22,-25,-27,-21,12.05
2411,-25,-9,-6,34,16,-8,-36,-67,12.055
2412,30,4,62,-12,-25,21,29,44,12.06
2413,-5,-1,-126,23,11,-10,-6,7,12.065
2414,28,-4,38,52,20,16,10,7,12.07
2415,-4,-5,-38,-73,-17,-2,1,-1,12.075000000000001
2416,-31,2,-83,88,47,21,15,-21,12.08
2417,0,-5,35,-76,-15,-43,-26,9,12.085
2418,4,2,79,-23,-30,-6,-6,-11,12.09
2419,-11,-1,38,70,15,-8,-10,-14,12.095
2420,16,-5,44,-69,-30,-5,-2,4,12.1
2421,-14,-1,13,30,21,63,64,5,12.105
2422,-14,-2,-57,83,33,-50,-79,-21,12.11
2423,1,-5,8,-63,-33,8,39,44,12.115
2424,-18,-1,-23,11,18,-4,-41,-30,12.120000000000001
2425,4,7,63,-65,-58,-68,-36,-9,12.125
2426,-2,8,-8,-67,-10,27,21,7,12.13
2427,-11,-8,-28,53,15,0,-1,-10,12.135
2428,19,4,9,-14,10,36,35,11,12.14
2429,7,0,-43,-64,-13,26,15,-2,12.145
2430,5,-4,-53,102,77,21,28,8,12.15
2431,-5,-5,41,120,42,10,-7,11,12.155000000000001
2432,-21,-1,16,-55,-41,-56,-47,-24,12.16
2433,5,-5,29,20,16,-29,-41,-19,12.165000000000001
2434,-4,-5,105,-120,-66,-4,-1,14,12.17
2435,-9,3,-124,12,65,-5,-4,-6,12.175
2436,4,-2,53,-32,-6,16,23,9,12.18
2437,-2,-1,70,2,1,-8,-5,8,12.185
2438,5,-2,-9,-101,-30,11,18,4,12.19
2439,8,-8,37,-27,-16,11,11,-10,12.195
2440,5,4,18,31,7,13,4,-3,12.200000000000001
2441,0,4,-30,44,24,25,18,12,12.205
2442,12,-9,6,1,-18,-30,-22,-2,12.21
2443,-8,-4,-1,-25,-21,-5,6,6,12.215
2444,10,0,-40,25,14,2,-4,4,12.22
2445,2,4,13,10,-2,1,5,1,12.225
2446,-2,0,-3,25,10,7,-2,-6,12.23
2447,7,-4,37,-20,-20,-11,-10,1,12.235
2448,-1,0,-41,-22,-2,4,12,3,12.24
2449,6,-2,50,-57,-11,14,7,4,12.245000000000001
2450,3,0,-30,58,38,7,5,4,12.25
2451,0,-1,20,-47,-14,-7,-1,-1,12.255
2452,-1,3,-10,6,3,3,1,2,12.26
2453,-3,-1,-32,-11,-5,-7,-6,-4,12.265
2454,3,-2,-1,6,-1,-1,-1,0,12.27
2455,1,3,14,-21,-13,-3,-3,-6,12.275
2456,4,-5,-14,-14,-5,-5,-3,3,12.280000000000001
2457,-9,2,-7,43,10,0,-1,1,12.285
2458,-1,-10,7,-24,-11,3,4,-1,12.290000000000001
2459,-4,0,-13,2,-3,-4,-4,-2,12.295
2460,3,-3,15,-14,-11,-8,-4,-3,12.3
2461,3,1,-14,26,11,4,6,0,12.305
2462,1,-2,17,-5,-2,7,5,1,12.31
2463,2,6,7,-16,-12,-16,-6,0,12.315
2464,-6,-3,-16,5,2,4,-3,-4,12.32
2465,-1,-1,9,20,4,7,6,1,12.325000000000001
2466,-5,-1,-5,-16,-7,-1,-4,-3,12.33
2467,2,-7,4,-4,1,-2,-6,1,12.335
2468,4,-2,-1,-8,-3,-3,0,1,12.34
2469,-11,6,-14,13,1,-5,-4,-6,12.345
2470,1,0,24,-12,-10,-4,-2,-2,12.35
2471,3,-2,19,-5,-3,-2,-1,-3,12.355
2472,-7,0,-42,-1,-1,-1,0,-2,12.36
2473,1,-5,25,2,-2,1,-3,-2,12.365
2474,0,-6,-7,-5,0,-1,0,0,12.370000000000001
2475,-2,-2,-3,-5,-3,0,0,1,12.375
2476,0,-4,6,2,0,-1,0,-1,12.38
2477,1,1,-6,6,2,1,0,0,12.385
2478,-10,-9,-4,-10,-6,-4,-2,-3,12.39
2479,-2,-3,-10,-2,-3,1,0,-1,12.395
2480,-1,2,9,2,1,0,-1,-3,12.4
2481,-2,2,-5,5,0,-1,-1,-1,12.405000000000001
2482,4,-10,8,-1,-1,0,0,-2,12.41
2483,-2,-4,-8,-5,0,0,0,-2,12.415000000000001
2484,4,4,10,3,2,-1,0,1,12.42
2485,-6,0,2,6,2,0,0,-2,12.425
2486,-1,-4,-4,-5,-2,-3,-3,0,12.43
2487,3,-2,14,7,2,1,-1,1,12.435
2488,-5,-2,-29,-8,-4,-3,-4,-4,12.44
2489,3,-3,7,6,1,0,0,2,12.445
2490,3,-2,-1,-5,-4,-3,-2,1,12.450000000000001
2491,-4,-3,-5,-5,-1,0,-2,0,12.455
2492,1,-3,23,3,0,-2,-1,0,12.46
2493,0,-3,-19,-1,0,0,-1,0,12.465
2494,-2,1,-4,-2,-4,0,0,-1,12.47
2495,-7,4,-2,-3,-2,0,-2,-2,12.475
2496,0,1,12,0,-1,0,0,0,12.48
2497,4,-2,-10,0,0,-2,0,-1,12.485
2498,2,-3,2,2,2,-1,2,2,12.49
2499,-1,-3,-6,-6,-4,-2,-2,-3,12.495000000000001
2500,-3,-2,-2,-4,-1,-1,-2,1,12.5
2501,-2,0,2,4,1,0,-1,0,12.505
2502,3,-7,0,-2,0,-1,0,-1,12.51
2503,1,4,-9,-2,-1,0,-1,0,12.515
2504,0,-2,-1,2,0,-1,-2,-1,12.52
2505,1,-1,7,1,-2,0,1,-1,12.525
2506,-2,-4,0,-4,-1,-1,-1,-2,12.530000000000001
2507,-4,4,-11,-3,-1,-1,0,-2,12.535
2508,-2,-5,9,0,-1,-2,0,0,12.540000000000001
2509,2,-2,0,1,2,0,0,3,12.545
2510,2,-5,15,-2,-3,-2,0,-1,12.55
2511,-3,-43,-21,-6,-1,0,0,-1,12.555
2512,-1,-62,0,-3,-2,0,-2,-1,12.56
2513,-2,-23,4,2,-1,-2,0,0,12.565
2514,1,-34,-3,0,1,1,0,1,12.57
2515,1,-49,11,2,1,-1,-1,1,12.575000000000001
2516,2,-25,10,-3,-1,-1,0,-1,12.58
2517,-1,-13,-3,-5,-1,-1,-3,-3,12.585
2518,-4,7,0,-1,-2,0,-1,-1,12.59
2519,-1,30,3,0,0,0,-1,-1,12.595
2520,-3,19,-3,-3,0,0,1,-2,12.6
2521,0,22,7,-1,-1,-1,-1,0,12.605
2522,2,21,-7,-5,-2,-2,-2,-2,12.61
2523,0,19,4,-5,-2,-2,-2,-1,12.615
2524,-2,34,7,1,0,1,0,0,12.620000000000001
2525,-4,26,4,1,0,-1,0,-1,12.625
2526,-2,3,6,-1,1,-1,1,-1,12.63
2527,7,20,0,-3,-2,-1,-1,1,12.635
2528,0,30,-3,2,2,-1,-2,0,12.64
2529,2,26,-4,-2,-1,-1,-1,-1,12.645
2530,-3,10,1,8,0,-1,-1,-1,12.65
2531,-1,49,12,-1,0,-2,-2,-3,12.655000000000001
2532,1,63,5,2,1,0,0,0,12.66
2533,-3,-2,1,-4,-2,-1,0,-2,12.665000000000001
2534,3,-17,-9,-1,0,1,-1,3,12.67
2535,-4,-25,-12,2,0,1,-3,-2,12.675
2536,-4,5,-6,-5,-1,-2,-1,-2,12.68
2537,2,2,-5,7,1,1,1,0,12.685
2538,2,36,10,-1,0,-1,0,0,12.69
2539,-4,2,5,-2,0,-1,0,-1,12.695
2540,-2,17,22,2,-1,-1,-1,-2,12.700000000000001
2541,-4,23,9,-2,-2,-4,-4,-1,12.705
2542,-4,2,-6,-4,0,-1,-1,-1,12.71
2543,2,4,-14,0,-1,-1,1,-2,12.715
2544,-1,10,-10,-5,-4,-1,1,1,12.72
2545,3,77,-7,2,1,1,0,0,12.725
2546,-1,10,-11,-1,-3,-2,0,-1,12.73
2547,1,-20,-11,2,0,0,0,-1,12.735
2548,-2,-69,-19,-2,-2,-3,-1,-2,12.74
2549,2,-43,-13,5,0,0,0,0,12.745000000000001
2550,-4,-9,-9,-3,-1,-2,-1,-2,12.75
2551,0,28,-5,0,-1,0,1,-1,12.755
2552,-1,-22,-5,3,-3,0,-2,0,12.76
2553,0,-35,-9,-2,1,-1,-2,2,12.765
2554,2,0,-5,0,-2,-1,-1,-1,12.77
2555,1,-25,-8,5,-2,-1,-2,0,12.775
2556,-5,-24,-11,-5,-1,0,-1,-1,12.780000000000001
2557,0,-81,-5,1,1,1,1,0,12.785
2558,-3,-45,-5,-2,1,1,-1,0,12.790000000000001
2559,-1,-23,6,1,-2,-2,1,1,12.795
2560,1,-18,4,0,0,-2,-2,-1,12.8
2561,-2,3,2,-3,-2,-1,1,-2,12.805
2562,-1,-50,0,2,-1,0,1,1,12.81
2563,0,-40,-4,-6,0,2,1,-1,12.815
2564,1,-46,-5,-3,-2,0,-1,-1,12.82
2565,-2,-31,-4,-3,-3,-2,-3,-3,12.825000000000001
2566,-1,-20,-1,4,-1,0,0,0,12.83
2567,0,21,1,-2,0,0,0,1,12.835
2568,-2,-39,-2,-2,-2,-2,-2,-2,12.84
2569,-1,-13,6,-5,-3,-1,-1,0,12.845
2570,-1,5,8,-7,-2,-2,-2,-2,12.85
2571,0,-1,5,1,0,-1,1,-1,12.855
2572,-5,20,-2,3,-3,-1,-1,-2,12.86
2573,1,25,-7,0,0,0,-1,1,12.865
2574,-2,23,-12,-4,0,-1,0,-1,12.870000000000001
2575,1,-23,0,-3,-1,0,-1,0,12.875
2576,0,-9,-2,3,1,0,1,-1,12.88
2577,0,-2,-2,-1,-4,-3,-1,-2,12.885
2578,-2,-56,4,3,2,1,-2,0,12.89
2579,-1,-24,3,-3,1,-3,-2,-1,12.895
2580,1,8,-3,-1,-1,0,1,-1,12.9
2581,-1,16,0,-5,-1,0,0,-1,12.905000000000001
2582,2,56,3,0,-1,0,0,0,12.91
2583,-5,20,-5,0,-2,-2,-1,-1,12.915000000000001
2584,0,40,3,1,0,0,0,1,12.92
2585,0,42,-2,1,0,-1,1,0,12.925
2586,-1,35,-6,-3,-2,-1,0,-2,12.93
2587,-4,6,-1,-2,-1,-1,-1,-2,12.935
2588,3,21,4,2,1,1,0,1,12.94
2589,3,9,-3,2,0,0,1,0,12.945
2590,-1,-9,0,1,-1,-1,-1,-2,12.950000000000001
2591,-1,1,-1,1,1,1,0,0,12.955
2592,0,2,1,-2,-4,-2,-1,-3,12.96
2593,-3,-13,5,-3,-2,-2,-2,-3,12.965
2594,1,-32,0,-2,1,1,0,0,12.97
2595,1,-52,1,3,0,-1,0,1,12.975
2596,-1,-18,-3,-5,0,0,1,1,12.98
2597,0,0,-1,3,0,0,0,1,12.985
2598,0,18,2,1,1,-2,-1,-2,12.99
2599,-1,7,1,-6,-4,0,0,-1,12.995000000000001
2600,-1,0,-5,9,6,1,1,-1,13.0
2601,-2,0,0,-3,-1,-2,0,-2,13.005
2602,7,0,5,-3,-2,-2,1,1,13.01
2603,-8,9,-1,-10,-2,-1,-2,0,13.015
2604,3,4,4,14,2,-1,-3,-1,13.02
2605,-4,-5,-3,0,1,1,-1,-3,13.025
2606,2,-4,5,5,2,1,1,0,13.030000000000001
2607,1,2,-1,0,1,-3,-1,-1,13.035
2608,1,-6,-1,-11,-4,-1,-1,1,13.040000000000001
2609,1,-7,-2,0,1,0,-1,1,13.045
2610,-3,-7,-3,-3,-4,-1,-1,-1,13.05
2611,-1,5,-4,0,-1,-2,0,-2,13.055
2612,-4,0,0,-2,-1,-1,-2,-1,13.06
2613,-1,-11,0,1,-1,0,1,-1,13.065
2614,-2,-10,-2,-4,-3,-2,-1,-2,13.07
2615,2,2,-2,4,-1,0,-2,-2,13.075000000000001
2616,0,-4,0,-2,-1,-2,0,-1,13.08
2617,0,-5,0,-6,0,0,-3,-1,13.085
2618,0,-6,-1,4,1,0,-2,0,13.09
2619,-1,-3,1,4,0,0,-1,-1,13.095
2620,2,-4,-2,1,0,0,0,0,13.1
2621,-6,-6,-2,-6,-1,-1,-2,0,13.105
2622,-1,1,-4,-4,-1,1,-2,-1,13.11
2623,1,1,2,1,-1,0,1,-1,13.115
2624,-1,-3,-3,-2,0,-1,-1,-1,13.120000000000001
2625,0,-3,2,1,0,-2,-2,-2,13.125
2626,-2,0,-4,-7,-2,-2,0,-2,13.13
2627,-2,-1,1,0,-1,0,-1,1,13.135
2628,-3,7,-11,-3,-2,0,0,-1,13.14
2629,2,3,1,5,0,1,-1,0,13.145
2630,-3,8,2,0,-2,-2,-1,0,13.15
2631,2,8,3,-3,-2,-1,0,1,13.155000000000001
2632,-5,9,1,-2,-2,-2,-3,-1,13.16
2633,2,4,0,-1,1,0,0,1,13.165000000000001
2634,-1,5,1,-1,-1,-1,0,0,13.17
2635,-1,13,-4,1,1,0,-2,-2,13.175
2636,2,14,4,0,0,0,-2,0,13.18
2637,-5,5,-2,-3,-3,-2,-2,-1,13.185
2638,-2,7,2,2,1,1,-1,0,13.19
2639,0,11,-1,0,-1,-1,0,-1,13.195
2640,0,-20,4,-4,-4,-1,-1,0,13.200000000000001
2641,1,1,-2,3,0,-2,0,-2,13.205
2642,0,6,0,-6,-4,-1,-2,-1,13.21
2643,-2,17,-2,3,1,1,-1,-3,13.215
2644,-1,6,0,3,0,0,-1,1,13.22
2645,-1,-4,1,-5,-2,-1,0,0,13.225
2646,0,-14,0,11,3,-1,0,0,13.23
2647,0,9,-4,0,1,0,0,1,13.235
2648,-1,1,2,-1,-2,-1,-1,-2,13.24
2649,-1,5,1,-3,1,-2,-1,0,13.245000000000001
2650,-7,-1,-6,-9,-3,-2,0,-3,13.25
2651,-2,2,1,5,2,0,0,2,13.255
2652,1,10,0,-1,-1,-1,1,-1,13.26
2653,0,-7,-1,1,-1,1,-2,1,13.265
2654,-1,-7,-2,-5,-2,-1,-3,0,13.27
2655,0,-16,0,-4,-3,0,-2,-1,13.275
2656,-5,-16,-3,0,-1,-1,-2,-1,13.280000000000001
2657,-1,-1,0,-3,-1,-1,2,-1,13.285
2658,0,-6,1,5,1,-1,0,0,13.290000000000001
2659,0,-13,-1,-4,-2,-2,-1,-1,13.295
2660,0,0,-2,-2,0,-1,0,-1,13.3
2661,0,3,3,1,-2,0,-1,0,13.305
2662,1,0,-8,-1,-1,0,1,-3,13.31
2663,-1,-5,-1,2,0,-1,0,-1,13.315
2664,-1,-11,-2,-6,-4,-2,0,-3,13.32
2665,0,-5,-2,-3,-1,-1,-1,-1,13.325000000000001
2666,4,-10,4,2,0,0,-1,1,13.33
2667,-5,-6,-6,-7,0,2,-1,0,13.335
2668,1,-2,4,8,4,0,-1,0,13.34
2669,1,-6,0,-1,-3,-1,0,0,13.345
2670,-4,0,-2,2,0,0,-1,0,13.35
2671,1,-9,1,0,1,-1,0,-1,13.355
2672,0,6,0,-5,-3,0,0,0,13.36
2673,0,8,-3,-2,0,0,-2,-1,13.365
2674,-2,3,-3,-3,-1,-1,-2,2,13.370000000000001
2675,-3,-5,-1,4,1,-1,-2,-1,13.375
2676,-3,-2,1,0,-2,-3,-1,-1,13.38
2677,2,1,-2,-3,-3,-2,-2,-2,13.385
2678,-4,-13,-4,-6,-1,-1,1,-1,13.39
2679,1,-8,0,-10,-3,-1,-1,0,13.395
2680,-2,-1,-3,-2,-1,-1,-2,-2,13.4
2681,-4,-7,-2,5,2,1,2,-1,13.405000000000001
2682,1,-5,-2,-4,-3,-2,-1,0,13.41
2683,-3,-3,1,6,2,1,1,1,13.415000000000001
2684,-2,1,-4,-7,0,-1,-1,-3,13.42
2685,-1,-2,-2,-4,0,-1,0,0,13.425
2686,0,1,0,1,0,0,0,1,13.43
2687,-1,2,0,-3,-2,-2,-1,0,13.435
2688,2,-1,2,4,1,0,0,2,13.44
2689,-2,-7,1,2,-1,-1,-3,-2,13.445
2690,1,2,-1,-5,-1,-1,-1,-2,13.450000000000001
2691,1,-1,-9,1,1,-2,-1,0,13.455
2692,-4,-4,-2,-3,-1,0,0,-2,13.46
2693,0,-2,-3,-4,-2,-2,-3,0,13.465
2694,-2,-5,9,14,4,1,0,0,13.47
2695,-2,5,9,-5,-3,-1,1,-1,13.475
2696,-2,-1,-14,13,6,1,0,0,13.48
2697,-2,-6,-4,-21,-5,-1,-1,0,13.485
2698,-2,1,6,4,-4,-2,0,-1,13.49
2699,0,5,3,-2,4,0,0,-2,13.495000000000001
2700,-1,23,-12,7,0,-1,0,-2,13.5
2701,0,5,-1,5,4,1,2,0,13.505
2702,0,7,9,-14,-6,-2,-3,-1,13.51
2703,4,-2,-7,-8,-3,-1,0,0,13.515
2704,-1,1,5,4,0,0,1,2,13.52
2705,-2,29,-1,2,0,-1,-1,-2,13.525
2706,-4,21,-8,-1,1,-1,-1,-1,13.530000000000001
2707,0,12,2,4,-3,0,-3,1,13.535
2708,1,13,-4,-12,-4,0,-1,-1,13.540000000000001
2709,-5,8,-7,12,1,-1,-2,-1,13.545
2710,2,11,-3,0,2,0,1,0,13.55
2711,-1,48,-2,2,-1,-1,-2,-2,13.555
2712,1,46,3,-12,-5,-2,-1,-1,13.56
2713,0,59,6,5,2,1,0,-2,13.565
2714,-1,107,-3,-3,-2,1,0,-2,13.57
2715,2,16,-1,2,-2,-1,-1,0,13.575000000000001
2716,2,-34,4,0,-2,0,-1,0,13.58
2717,-2,-62,5,3,0,0,2,-2,13.585
2718,1,-83,-3,-4,0,-1,-1,0,13.59
2719,-4,-58,-1,-3,-1,-1,0,1,13.595
2720,-3,-47,5,5,1,-2,-1,0,13.6
2721,0,-26,-4,-4,-3,-2,0,1,13.605
2722,-1,-43,-1,-1,0,-1,0,-1,13.61
2723,-2,-17,-2,3,-1,0,0,-2,13.615
2724,0,-24,4,-3,-4,0,0,-1,13.620000000000001
2725,-2,-12,3,5,3,0,-2,-1,13.625
2726,-2,-37,-8,1,0,-2,-2,0,13.63
2727,-1,-9,-3,-9,-5,-1,-2,-1,13.635
2728,-4,-9,1,-1,0,0,-2,-1,13.64
2729,3,0,0,3,-1,1,0,1,13.645
2730,-1,-8,9,-8,-4,-3,-2,-2,13.65
2731,0,-9,-6,11,3,-2,0,0,13.655000000000001
2732,1,1,-1,0,-1,-1,0,0,13.66
2733,-1,5,-3,-11,-3,-3,-1,-1,13.665000000000001
2734,0,-19,-1,3,2,0,-1,0,13.67
2735,-2,3,2,-7,-2,-3,-2,-2,13.675
2736,2,1,4,-3,0,0,0,-1,13.68
2737,-3,-9,-4,0,-2,-1,0,0,13.685
2738,0,-16,-5,-3,0,0,1,-2,13.69
2739,1,4,-4,-9,-2,1,0,0,13.695
2740,-2,-7,-6,17,3,-1,-2,-1,13.700000000000001
2741,1,-5,-5,-4,-1,-1,-1,0,13.705
2742,1,-9,-1,0,-1,-1,-1,0,13.71
2743,-1,0,0,-4,-1,-2,-1,-1,13.715
2744,-1,0,1,-7,-2,-1,-1,-2,13.72
2745,0,-7,1,-1,-1,-2,0,0,13.725
2746,0,-13,1,1,-2,-2,0,-1,13.73
2747,2,-2,-3,-4,4,0,2,1,13.735
2748,-4,-7,4,7,1,0,-1,0,13.74
2749,-4,-7,0,1,0,0,-1,-2,13.745000000000001
2750,1,0,-3,-1,-1,0,0,0,13.75
2751,-3,-4,3,3,0,0,-2,-1,13.755
2752,1,0,-3,-9,-2,-1,0,-1,13.76
2753,1,-1,10,-4,-2,-1,-2,0,13.765
2754,-5,-12,-16,5,4,1,-2,-1,13.77
2755,-1,-5,1,8,1,0,-2,-1,13.775
2756,-3,0,-3,-8,-1,-1,-1,-2,13.780000000000001
2757,2,-8,-4,-9,-4,-2,-2,-1,13.785
2758,2,-4,12,13,2,1,0,-1,13.790000000000001
2759,-5,3,1,-4,-3,-2,-1,-1,13.795
2760,2,-5,-4,7,3,-1,3,2,13.8
2761,0,-6,0,-3,0,-1,0,-3,13.805
2762,-2,-18,-4,1,-3,-2,-2,0,13.81
2763,0,-7,0,5,1,-1,-1,-2,13.815
2764,1,-2,1,-10,-3,-1,-2,-1,13.82
2765,-4,-3,-1,7,-1,-1,0,0,13.825000000000001
2766,0,-2,-5,-5,-1,1,0,1,13.83
2767,-3,-2,-2,-11,-4,-2,1,-1,13.835
2768,0,-3,-1,-3,-3,-1,-1,0,13.84
2769,2,-7,0,7,2,-1,-1,0,13.845
2770,-1,4,-3,-4,0,-2,0,-4,13.85
2771,2,-5,2,3,1,-1,-1,1,13.855
2772,-8,-9,-4,-12,-3,-3,0,-2,13.86
2773,1,-1,-6,-5,-1,1,-1,0,13.865
2774,0,-23,5,2,-1,0,0,0,13.870000000000001
2775,-3,1,-4,-3,-2,-2,-1,-2,13.875
2776,0,-6,3,0,-1,-2,0,-1,13.88
2777,2,4,-1,-1,0,-1,-1,1,13.885
2778,-8,2,-3,10,3,0,-1,-2,13.89
2779,3,0,2,1,0,0,-1,-1,13.895
2780,1,-5,-3,1,-2,-1,-2,-1,13.9
2781,-2,-2,3,-2,-1,-1,0,-1,13.905000000000001
2782,2,3,0,-11,-4,0,-2,-1,13.91
2783,-5,-3,-3,3,1,2,1,1,13.915000000000001
2784,-1,13,3,5,-1,-1,-1,-1,13.92
2785,-2,-6,-3,-4,-4,-3,-2,-2,13.925
2786,-4,-15,-3,-4,-2,0,-1,-2,13.93
2787,2,-3,-4,0,-2,-1,-2,0,13.935
2788,0,-5,0,-5,-1,0,-1,0,13.94
2789,-2,-5,-1,1,0,-1,1,-1,13.945
2790,2,15,-2,-2,-1,-3,-1,2,13.950000000000001
2791,1,-3,0,-5,-2,-1,-1,0,13.955
2792,0,-8,-3,-2,0,0,-1,0,13.96
2793,-1,-2,-1,2,0,0,-1,-2,13.965
2794,-2,-7,0,-2,-3,-1,-1,-1,13.97
2795,-4,-4,0,-2,-1,0,0,-1,13.975
2796,1,8,0,-1,1,-1,0,-1,13.98
2797,-4,-7,-2,7,1,0,-1,0,13.985
2798,-1,3,-1,6,0,0,1,0,13.99
2799,-1,-2,6,2,-1,0,0,-1,13.995000000000001
2800,-3,-9,-15,-15,-6,-2,-1,0,14.0
2801,1,2,-2,-3,-4,-1,-1,0,14.005
2802,-1,-14,-10,-3,-1,0,-1,-3,14.01
2803,3,-4,3,0,-2,-1,0,-1,14.015
2804,0,3,3,4,2,-1,1,-1,14.02
2805,-3,-8,-2,-6,-1,-2,0,0,14.025
2806,2,-3,1,-6,-3,-2,0,0,14.030000000000001
2807,2,-3,-3,1,0,-2,-1,-1,14.035
2808,2,-4,1,2,0,-1,-2,-1,14.040000000000001
2809,1,-7,1,-1,0,0,-2,-1,14.045
2810,-4,-4,1,-4,-2,-1,-2,1,14.05
2811,1,0,-1,3,1,1,-2,0,14.055
2812,-1,-4,3,1,0,0,0,-1,14.06
2813,1,-3,-3,4,0,2,0,-1,14.065
2814,-3,-20,-2,-4,2,0,1,-1,14.07
2815,-2,2,-3,-7,-1,-2,0,-1,14.075000000000001
2816,-1,-1,-4,-4,-1,0,-1,0,14.08
2817,-2,-11,0,9,-2,-1,2,0,14.085
2818,5,-5,5,2,-2,0,-1,0,14.09
2819,1,1,-2,1,0,0,-1,0,14.095
2820,0,-5,2,3,1,-1,-2,0,14.1
2821,-2,-6,-3,-7,-1,-3,-2,-2,14.105
2822,3,13,2,-2,-3,-1,-1,0,14.11
2823,1,-9,6,-2,-1,-2,2,1,14.115
2824,-1,0,-21,-6,-2,0,0,-1,14.120000000000001
2825,-1,-2,5,5,2,-2,1,0,14.125
2826,-1,-16,0,4,2,0,-1,0,14.13
2827,-1,-8,-2,-3,-1,-1,-2,-2,14.135
2828,-4,-4,4,1,-1,-2,0,-3,14.14
2829,-2,-1,-3,-2,-1,0,1,1,14.145
2830,-3,9,2,-4,-1,-1,-1,-3,14.15
2831,-3,-8,-9,-2,0,0,-1,-2,14.155000000000001
2832,4,-3,6,3,-2,-1,-2,1,14.16
2833,-3,-6,-6,-2,1,1,-2,-2,14.165000000000001
2834,1,14,2,-5,-3,-1,-1,0,14.17
2835,-3,2,1,10,1,1,-1,-1,14.175
2836,-1,-1,1,1,-3,-1,1,-2,14.18
2837,1,-1,-2,-3,-2,0,-2,-1,14.185
2838,1,-3,0,7,2,0,-1,2,14.19
2839,-2,-2,-2,-8,-3,-2,-1,0,14.195
2840,3,0,-2,-7,-2,0,0,2,14.200000000000001
2841,-2,0,0,-1,0,-1,-1,-1,14.205
2842,-4,-15,-6,2,-1,0,1,-3,14.21
2843,0,-2,0,-1,0,0,-2,0,14.215
2844,-1,1,11,3,1,0,-2,-1,14.22
2845,-1,-8,-18,-18,-3,-3,-3,-1,14.225
2846,-1,-8,6,9,0,-1,0,1,14.23
2847,-1,-1,-6,-1,-2,-2,-1,-1,14.235
2848,-1,-5,0,3,-1,-1,-1,0,14.24
2849,2,-2,2,5,1,0,0,2,14.245000000000001
2850,0,17,0,-6,-2,0,-1,-1,14.25
2851,0,7,2,1,0,-1,2,1,14.255
2852,-1,8,0,0,0,2,0,-1,14.26
2853,1,8,3,3,-2,-2,-2,-2,14.265
2854,-2,-6,-4,-4,-2,-2,0,-1,14.27
2855,1,2,-1,-7,-2,-1,-1,-1,14.275
2856,0,7,-3,4,1,-1,-2,-1,14.280000000000001
2857,-1,1,6,-1,-2,1,1,1,14.285
2858,0,-7,-1,3,0,-1,-1,-1,14.290000000000001
2859,-3,6,-5,2,0,0,-2,-1,14.295
2860,0,-2,-3,0,0,-4,1,-1,14.3
2861,-1,3,2,-3,-1,0,-1,0,14.305
2862,0,-7,-1,-4,-2,-1,-1,-1,14.31
2863,-1,-10,-4,-1,-2,-1,1,-2,14.315
2864,1,-4,0,-4,-3,-1,-2,-3,14.32
2865,2,1,4,-1,-3,-3,-1,-1,14.325000000000001
2866,-4,-7,-6,2,3,-2,0,-2,14.33
2867,3,-7,3,2,-1,-2,-1,1,14.335
2868,-4,-3,-3,-4,-1,-2,-3,0,14.34
2869,-1,-3,-2,-2,0,1,1,-1,14.345
2870,4,7,3,0,1,1,-2,0,14.35
2871,-1,2,2,-2,-2,-3,-2,-1,14.355
2872,-3,-9,-1,-3,-1,-2,-1,-1,14.36
2873,-5,-8,-5,2,1,0,-1,-3,14.365
2874,-2,-20,-1,-3,0,-1,1,0,14.370000000000001
2875,-1,-7,1,0,1,2,0,-1,14.375
2876,0,-3,2,-2,-2,-1,0,-2,14.38
2877,0,-12,0,-5,-4,-3,-1,-3,14.385
2878,1,-15,-4,-4,-2,0,-1,-1,14.39
2879,-3,-12,-5,-1,-1,1,0,2,14.395
2880,1,-11,0,9,2,0,0,1,14.4
2881,-3,-4,-2,-4,-2,-2,-2,0,14.405000000000001
2882,0,-2,5,1,-3,1,-1,0,14.41
2883,0,-6,-1,-1,1,-1,0,-1,14.415000000000001
2884,-2,-2,-2,-6,1,1,-1,0,14.42
2885,2,-2,3,6,1,0,0,0,14.425
2886,-3,2,-3,-3,-1,0,1,-1,14.43
2887,-3,-7,-3,-2,-2,-1,-2,-1,14.435
2888,1,-1,4,7,1,0,1,-1,14.44
2889,0,-5,-4,-2,-1,-2,1,1,14.445
2890,-3,-9,-5,-3,0,-1,-1,0,14.450000000000001
2891,-1,-7,-4,-3,-2,0,-2,-2,14.455
2892,-4,-2,-2,-7,-3,-1,-1,-1,14.46
2893,-1,-12,4,10,3,0,0,-2,14.465
2894,-2,-4,-14,-18,-5,-2,-1,1,14.47
2895,0,3,2,16,3,1,-1,-1,14.475
2896,2,-1,-6,-3,-2,-2,-2,-1,14.48
2897,-3,-8,0,-4,0,0,0,-1,14.485
2898,-3,-6,2,2,0,-3,-2,-1,14.49
2899,0,0,1,-3,-2,-3,0,-3,14.495000000000001
2900,-1,-4,-1,-4,-1,0,1,1,14.5
2901,0,-9,-4,-1,0,0,-2,-1,14.505
2902,0,-4,2,6,1,1,-2,-1,14.51
2903,-2,-11,-3,-5,-1,-1,0,0,14.515
2904,-2,-4,1,3,-1,0,0,-3,14.52
2905,1,-2,1,-2,-1,-1,1,0,14.525
2906,-2,-9,-1,-1,-2,-1,0,-2,14.530000000000001
2907,0,-4,-1,-1,-2,-2,-1,-1,14.535
2908,-2,-8,-3,-4,-1,-1,0,1,14.540000000000001
2909,-1,-5,-5,-3,-2,-1,0,1,14.545
2910,1,-3,0,5,-1,-1,-2,0,14.55
2911,2,0,1,0,1,0,-1,0,14.555
2912,0,-13,0,-5,-1,-1,-1,0,14.56
2913,1,-6,-1,8,0,0,-1,0,14.565
2914,-2,-14,-1,4,3,1,2,-1,14.57
2915,0,-3,0,-3,-1,0,-2,0,14.575000000000001
2916,-1,1,-3,3,-1,0,-3,-1,14.58
2917,-2,2,1,-2,0,0,-1,2,14.585
2918,2,-2,4,1,-1,0,1,0,14.59
2919,-2,-4,-7,-3,-1,1,-1,-3,14.595
2920,0,0,5,-4,-1,-2,0,0,14.6
2921,-1,-8,-6,-3,-1,-2,-1,-1,14.605
2922,-3,0,-4,1,-1,-1,0,-1,14.61
2923,0,-2,2,0,0,-2,2,0,14.615
2924,0,-3,-1,3,0,0,1,0,14.620000000000001
2925,2,4,4,0,-2,0,0,0,14.625
2926,-5,-4,-4,-9,-4,-3,-2,-2,14.63
2927,1,-3,0,2,0,1,-2,-1,14.635
2928,-2,7,-1,4,-2,-1,0,-1,14.64
2929,0,5,-2,-3,0,-1,-1,-1,14.645
2930,1,16,3,-2,-1,-1,-1,-1,14.65
2931,0,14,4,1,0,-1,0,0,14.655000000000001
2932,-2,-2,-7,0,1,1,-2,-1,14.66
2933,-2,0,-2,-1,-1,0,0,-2,14.665000000000001
2934,2,13,-2,-3,-3,-1,-2,-3,14.67
2935,-4,3,1,-6,-2,-2,-1,-2,14.675
2936,0,1,0,3,2,1,-1,-1,14.68
2937,-3,2,-2,-5,-2,0,-2,-2,14.685
2938,0,5,4,11,2,1,2,0,14.69
2939,-3,-2,-3,-1,-2,0,1,0,14.695
2940,0,-2,-3,-6,-2,-1,-1,0,14.700000000000001
2941,-3,-3,-3,-3,-2,-1,-2,-2,14.705
2942,1,4,0,-5,-1,-1,-2,0,14.71
2943,-2,-5,-1,4,0,-1,0,-1,14.715
2944,1,-6,-2,-2,0,0,0,-1,14.72
2945,-1,-6,-2,1,-2,0,-1,-2,14.725
2946,-1,3,-2,-4,2,-1,-1,-1,14.73
2947,0,-3,4,2,0,0,-2,0,14.735
2948,-2,-7,1,0,-2,-1,-3,0,14.74
2949,1,4,-7,-5,4,2,1,1,14.745000000000001
2950,3,-3,1,1,-1,0,0,-1,14.75
2951,-2,-1,-1,-5,-2,-1,-1,-1,14.755
2952,-2,-7,2,-1,-2,0,0,-2,14.76
2953,0,-2,2,3,-1,-2,0,-1,14.765
2954,0,-20,-3,-4,-1,-3,1,-1,14.77
2955,1,4,-2,2,0,-2,1,0,14.775
2956,2,-3,0,2,0,0,0,1,14.780000000000001
2957,-3,-21,0,-2,-3,-1,-1,-1,14.785
2958,0,3,-1,-3,1,1,0,1,14.790000000000001
2959,0,-5,-2,-3,-2,-1,-2,0,14.795
2960,2,-6,-3,-1,-1,-1,-1,1,14.8
2961,1,-7,-1,0,-1,-1,-1,0,14.805
2962,-1,4,2,4,0,1,0,0,14.81
2963,-1,-8,0,1,-1,0,0,-1,14.815
2964,2,-1,-1,-2,0,0,0,0,14.82
2965,-3,-4,7,3,0,0,-1,-1,14.825000000000001
2966,-2,-5,-3,-2,-2,-3,-3,-1,14.83
2967,-1,-5,-5,-2,-2,-1,-1,1,14.835
2968,0,-1,0,1,-2,1,-1,-2,14.84
2969,3,-6,2,1,-2,0,-1,-1,14.845
2970,0,6,0,1,0,2,-2,0,14.85
2971,-1,3,-1,-1,-1,0,-1,-1,14.855
2972,-2,-9,0,-3,-3,-2,-1,-2,14.86
2973,-2,-4,0,-12,-3,-3,1,0,14.865
2974,-1,-1,5,20,3,2,0,0,14.870000000000001
2975,0,-8,-3,-2,-2,0,0,0,14.875
2976,-1,1,2,1,-2,0,0,0,14.88
2977,-1,-3,-3,-9,-1,0,0,-1,14.885
2978,-3,-4,-2,-3,0,-2,-3,-2,14.89
2979,-2,-1,6,12,1,-2,-2,0,14.895
2980,-2,0,-1,-3,-1,-1,-2,-1,14.9
2981,1,-1,-2,6,0,-1,0,1,14.905000000000001
2982,0,-19,2,-9,-3,-1,3,-2,14.91
2983,-2,-3,-6,-2,-1,-1,0,-1,14.915000000000001
2984,1,-2,-4,-1,-1,-1,-1,1,14.92
2985,-1,-5,0,-5,-4,-1,-1,-1,14.925
2986,-5,5,-4,3,2,1,-1,-1,14.93
2987,0,-5,-2,-1,1,1,-2,-1,14.935
2988,-2,-4,-4,-3,-3,-2,-1,-4,14.94
2989,0,-1,-1,1,1,0,0,-1,14.945
2990,0,6,0,-4,-3,0,-1,0,14.950000000000001
2991,2,-3,-4,-4,0,0,0,-1,14.955
2992,1,1,2,-2,1,0,-1,2,14.96
2993,-1,-7,-2,7,-1,-1,-1,0,14.965
2994,-1,-13,-2,-6,-4,-3,-3,-4,14.97
2995,0,-6,5,1,0,-2,0,-1,14.975
2996,-1,-8,0,-2,-2,-3,0,-1,14.98
2997,0,-2,-2,1,-1,0,0,0,14.985
2998,3,3,-1,0,-1,-3,-1,0,14.99
2999,-4,5,-1,-3,-1,-2,-2,-2,14.995000000000001
3000,-2,1,-2,3,-1,1,0,-1,15.0
3001,-2,5,-1,2,-1,-1,-3,-1,15.005
3002,0,7,-2,-1,-1,1,1,0,15.01
3003,1,9,-2,-3,-2,0,-1,0,15.015
3004,-2,10,7,-1,-2,-1,0,-2,15.02
3005,-1,-2,-17,-2,2,1,-1,-1,15.025
3006,-2,-4,3,-6,-1,-1,0,-1,15.030000000000001
3007,-2,0,-4,2,0,-2,0,0,15.035
3008,-1,-1,-1,-2,-2,0,-1,-2,15.040000000000001
3009,-1,4,0,-2,-2,-2,-1,-1,15.045
3010,0,9,1,-3,-2,-2,-3,-1,15.05
3011,1,5,0,3,0,0,-2,-1,15.055
3012,-2,0,-2,-3,0,-1,-1,-1,15.06
3013,0,-4,3,-8,-3,-1,-1,0,15.065
3014,2,6,-3,-2,-1,-1,0,0,15.07
3015,-4,-5,7,10,1,-1,0,-2,15.075000000000001
3016,3,0,-2,7,1,1,1,-1,15.08
3017,-1,-3,-1,-10,-4,-3,-1,-1,15.085
3018,-2,4,-1,-6,-3,0,0,-2,15.09
3019,0,-5,-5,-6,-2,1,-1,-1,15.095
3020,0,1,-4,-7,-2,0,1,0,15.1
3021,-2,-14,3,18,3,0,1,1,15.105
3022,0,-1,5,-4,-4,-2,-2,0,15.11
3023,-1,-2,-9,-9,0,0,0,-2,15.115
3024,-6,0,0,9,2,-1,0,0,15.120000000000001
3025,0,-2,4,-4,-1,0,-1,-1,15.125
3026,-1,-5,2,5,1,-1,-1,-3,15.13
3027,2,-1,0,-4,-2,0,0,1,15.135
3028,1,1,2,-7,-1,1,-1,-1,15.14
3029,-1,2,0,9,1,-1,-2,0,15.145
3030,-4,-12,-4,-8,-2,-2,1,-2,15.15
3031,-1,-1,-3,6,0,-2,0,-1,15.155000000000001
3032,-6,-12,-1,10,0,-2,-1,-3,15.16
3033,1,0,1,2,-3,-2,-2,-1,15.165000000000001
3034,3,-4,-4,4,5,1,1,0,15.17
3035,-2,-9,0,-4,-3,0,-1,0,15.175
3036,-2,0,-2,-6,-4,-3,-2,0,15.18
3037,0,3,-2,-1,-1,1,-1,-1,15.185
3038,0,-4,1,5,2,2,1,1,15.19
3039,4,-7,2,-6,-3,-1,-2,-1,15.195
3040,2,3,-3,-2,0,1,-3,-1,15.200000000000001
3041,-6,-9,-3,-3,-2,-3,-1,-3,15.205
3042,4,-1,-4,-5,-2,-2,0,-1,15.21
3043,-8,2,4,-2,-2,-2,0,-3,15.215
3044,4,-5,1,-4,-4,0,0,1,15.22
3045,-1,-6,-5,-8,-2,-2,-1,-1,15.225
3046,-1,6,-6,12,3,-1,-2,1,15.23
3047,1,-4,0,2,-1,0,-2,-1,15.235
3048,-1,-13,0,-5,0,1,0,-1,15.24
3049,0,-3,3,-4,-2,-1,0,-1,15.245000000000001
3050,-1,1,4,8,1,-2,-1,1,15.25
3051,-1,1,-6,0,0,-1,-2,-2,15.255
3052,-1,2,-6,-1,0,-2,-1,-1,15.26
3053,0,-6,4,2,1,1,1,0,15.265
3054,1,-1,-2,-13,-5,-1,-1,-2,15.27
3055,0,-1,2,6,3,0,-1,1,15.275
3056,0,-3,1,3,2,1,0,-1,15.280000000000001
3057,-2,-6,1,-1,-1,0,-1,0,15.285
3058,-3,2,-9,4,-2,0,-1,0,15.290000000000001
3059,1,-4,2,-7,-3,-1,-1,0,15.295
3060,-2,-6,-6,-1,-2,-3,-2,0,15.3
3061,0,4,-3,-6,-2,-2,-1,-1,15.305
3062,-3,-5,0,-8,-4,-1,-1,-2,15.31
3063,-1,-2,-4,4,-1,0,0,-1,15.315
3064,-1,7,0,2,0,0,-1,-2,15.32
3065,0,-4,0,0,2,1,1,0,15.325000000000001
3066,0,-1,1,-5,-1,-1,-2,-1,15.33
3067,0,5,-6,-6,1,1,1,1,15.335
3068,1,4,1,0,-3,-1,1,0,15.34
3069,-1,-5,-5,7,0,-1,-1,-2,15.345
3070,1,5,-2,-1,-2,0,1,-1,15.35
3071,1,-3,3,-4,-4,-2,-1,-1,15.355
3072,-2,-3,-4,-1,1,-1,-2,-1,15.36
3073,3,-3,0,-14,-2,0,0,0,15.365
3074,-3,-1,8,23,6,1,-1,-1,15.370000000000001
3075,-1,-4,-10,-4,-2,-2,-1,-2,15.375
3076,1,4,0,-8,-2,0,-1,-1,15.38
3077,0,3,0,-1,-2,-2,0,-1,15.385
3078,-7,-4,0,-3,-1,-2,-1,-2,15.39
3079,-2,9,5,-2,-2,-2,-1,0,15.395
3080,0,3,-5,11,3,0,0,-1,15.4
3081,0,-1,-3,-6,-3,-1,0,-1,15.405000000000001
3082,-1,-7,-4,-9,-4,0,-1,-2,15.41
3083,0,5,4,-5,-3,-2,-1,-1,15.415000000000001
3084,-2,-3,-9,-10,-1,-2,-2,0,15.42
3085,0,8,6,3,0,0,0,1,15.425
3086,-1,5,12,7,-1,-2,0,1,15.43
3087,-4,-9,-22,-6,1,1,1,1,15.435
3088,-1,6,4,2,0,0,0,-1,15.44
3089,1,1,-3,2,-3,-3,-1,-2,15.445
3090,3,3,2,-9,-3,-3,-2,0,15.450000000000001
3091,2,1,6,-6,-3,-2,-1,0,15.455
3092,2,2,9,10,5,1,1,0,15.46
3093,-2,-7,-10,-7,0,-2,-1,-1,15.465
3094,-1,-13,-10,-1,0,2,-1,0,15.47
3095,-5,-1,5,1,-1,-1,1,-1,15.475
3096,0,-6,-7,6,0,0,0,0,15.48
3097,1,-4,4,2,1,0,-1,-1,15.485000000000001
3098,3,-1,-7,-10,-1,0,0,0,15.49
3099,1,-10,11,8,0,-1,-1,-1,15.495000000000001
3100,-4,-13,-8,-13,-5,-2,-2,-2,15.5
3101,-4,-4,2,13,-1,0,-1,-1,15.505
3102,-1,-3,-3,-9,-2,-4,-3,0,15.51
3103,-1,-1,-10,-4,-1,-1,-1,1,15.515
3104,0,3,8,4,-1,-3,0,-1,15.52
3105,0,-5,-5,4,1,-1,0,-1,15.525
3106,4,-6,4,0,-2,0,1,-2,15.530000000000001
3107,-4,-3,0,-9,-6,0,-1,-3,15.535
3108,-3,-13,1,2,4,2,1,0,15.540000000000001
3109,4,-6,-1,-8,-1,0,-2,2,15.545
3110,-4,5,-2,9,1,-1,-1,-1,15.55
3111,3,-11,-1,-5,0,-1,-1,0,15.555
3112,3,10,3,1,-3,-1,-1,-2,15.56
3113,-6,0,6,-4,-3,-1,-2,-3,15.565
3114,0,-5,-18,-6,2,1,-2,-1,15.57
3115,2,9,12,13,0,-1,0,0,15.575000000000001
3116,-4,-4,-4,-2,0,0,-1,0,15.58
3117,0,-7,1,-14,-3,-3,0,1,15.585
3118,-1,-5,-2,2,1,0,-1,0,15.59
3119,-2,-5,-6,15,2,-1,-2,-1,15.595
3120,4,-7,-3,-8,-2,-1,-3,1,15.6
3121,-2,0,1,-15,-8,-2,0,-3,15.605
3122,-7,-6,3,13,6,3,-1,-2,15.610000000000001
3123,5,2,2,1,0,-2,-2,-2,15.615
3124,-4,-10,0,-5,-5,-3,1,0,15.620000000000001
3125,-1,-3,-4,4,2,0,2,1,15.625
3126,-1,-4,-1,-5,-2,-4,-1,1,15.63
3127,-9,-6,-2,1,2,-1,-2,-5,15.635
3128,-2,0,2,6,-2,-2,-1,-3,15.64
3129,2,-5,0,4,0,0,1,0,15.645
3130,-1,-5,1,15,4,1,3,1,15.65
3131,4,2,9,-5,-3,-3,-2,-2,15.655000000000001
3132,2,-3,-10,-19,-3,-1,-2,-1,15.66
3133,-3,5,3,21,7,1,-1,-1,15.665000000000001
3134,-2,-1,-4,-9,-8,-3,-3,-1,15.67
3135,1,-8,-8,-13,-2,0,-1,1,15.675
3136,-3,-4,4,10,-3,-2,-2,-2,15.68
3137,5,-10,7,2,2,1,1,3,15.685
3138,0,1,2,-3,0,-1,0,-2,15.69
3139,-4,7,-22,-7,1,1,2,1,15.695
3140,2,0,-6,-15,-3,-4,-2,1,15.700000000000001
3141,0,-7,0,9,1,0,0,-1,15.705
3142,-4,7,9,12,-2,0,0,-1,15.71
3143,-3,-16,-8,-7,-1,0,2,-2,15.715
3144,-2,-1,2,5,-1,1,3,-1,15.72
3145,3,-16,-8,-6,-1,-2,-4,1,15.725
3146,3,-3,6,-7,-5,-4,-3,-2,15.73
3147,0,-7,-5,-8,-3,-1,-1,-1,15.735000000000001
3148,-3,-4,-1,13,5,2,-1,-2,15.74
3149,5,-9,0,-17,-6,-3,-1,2,15.745000000000001
3150,1,13,4,-10,0,-1,-2,-1,15.75
3151,-2,4,-8,17,6,1,0,1,15.755
3152,7,13,14,-15,-3,0,1,1,15.76
3153,-4,2,-18,24,8,2,0,-2,15.765
3154,1,-7,2,-12,-6,-2,-1,0,15.77
3155,-2,6,12,1,1,0,-2,-2,15.775
3156,-3,-8,-6,-10,-3,-2,-2,-2,15.780000000000001
3157,-3,-2,5,1,-1,-4,-3,-3,15.785
3158,-2,3,3,26,5,3,1,-1,15.790000000000001
3159,4,2,4,-2,-3,0,-1,1,15.795
3160,1,3,3,9,2,2,2,4,15.8
3161,-10,-14,-9,-9,-1,-1,-2,-5,15.805
3162,0,-6,-3,-12,-4,1,2,0,15.81
3163,0,-3,-3,-2,-1,-1,2,1,15.815
3164,0,2,3,8,0,-2,-3,-1,15.82
3165,-6,-5,-12,-4,-1,0,0,-1,15.825000000000001
3166,5,-14,11,0,-2,0,-1,1,15.83
3167,-9,-14,-23,1,2,-2,-2,-1,15.835
3168,-3,-4,3,2,1,-1,-1,-2,15.84
3169,-1,7,8,-10,-3,0,1,-1,15.845
3170,-2,9,6,8,3,0,-1,0,15.85
3171,1,-2,7,16,1,-3,-2,-2,15.855
3172,-3,-4,-7,-2,1,-1,-2,-4,15.860000000000001
3173,-1,0,-3,-5,-4,-2,0,-3,15.865
3174,-2,3,-5,-22,-9,-2,1,1,15.870000000000001
3175,0,7,3,6,7,0,-1,1,15.875
3176,4,4,-1,4,0,-2,-1,2,15.88
3177,1,-2,2,-12,-6,-4,-4,-2,15.885
3178,-2,-21,1,4,0,0,0,-2,15.89
3179,2,-14,9,0,-4,-2,-2,0,15.895
3180,-7,-15,-10,-6,-2,-3,-3,-1,15.9
3181,4,7,7,4,0,0,1,3,15.905000000000001
3182,1,7,-13,-10,1,-3,-2,-2,15.91
3183,-2,2,0,-7,-4,-1,1,-2,15.915000000000001
3184,1,0,7,11,2,2,0,-1,15.92
3185,-1,-10,-8,-21,-7,-4,-2,-2,15.925
3186,-4,-1,6,10,5,1,1,0,15.93
3187,5,-6,11,17,0,0,0,0,15.935
3188,-2,2,-21,-1,-1,0,1,0,15.94
3189,0,2,-1,11,0,3,-1,-2,15.945
3190,-1,7,-24,-29,-5,-3,-3,-4,15.950000000000001
3191,2,3,4,-11,0,-3,-4,-1,15.955
3192,-1,9,9,4,-1,-1,-2,-3,15.96
3193,-1,-2,-8,7,3,1,0,0,15.965
3194,-2,4,0,11,-1,-3,-1,-1,15.97
3195,-5,7,16,-15,-6,0,1,-3,15.975
3196,2,3,-1,1,-1,-3,-1,3,15.98
3197,0,-4,-17,-8,-2,-1,-3,-3,15.985000000000001
3198,-1,1,-3,-4,3,-2,-1,-1,15.99
3199,-3,-6,-3,5,-1,0,0,2,15.995000000000001
3200,-7,-12,-2,-13,-4,-1,-1,-5,16.0
3201,-5,-2,18,12,-2,-1,0,-3,16.005
3202,-1,-3,-3,5,0,1,4,0,16.01
3203,2,5,-3,-3,-1,-1,4,3,16.015
3204,5,-21,-17,-18,-5,-1,-1,2,16.02
3205,2,-8,2,-12,-3,-1,4,-1,16.025
3206,-3,-4,11,-4,-5,-5,-7,-3,16.03
3207,-3,-13,-5,14,8,0,-3,4,16.035
3208,-11,-14,-7,-9,-2,-3,-4,-4,16.04
3209,-3,-8,21,37,4,2,-1,1,16.045
3210,6,17,-6,2,3,2,3,6,16.05
3211,-1,10,17,-4,-7,0,-1,-3,16.055
3212,-8,-5,12,1,-3,-1,-5,-4,16.06
3213,-5,-8,-51,-6,5,3,4,-1,16.065
3214,5,0,-5,-4,2,5,8,3,16.07
3215,0,-2,3,-40,-11,-2,-2,-4,16.075
3216,3,-6,-30,16,8,-2,-3,-4,16.080000000000002
3217,0,-3,18,-40,-9,0,-4,-1,16.085
3218,-7,-6,-2,64,11,-2,-7,-4,16.09
3219,2,2,4,3,0,-9,0,2,16.095
3220,17,9,42,-85,-20,-1,2,5,16.1
3221,-3,-7,-59,82,30,7,8,-1,16.105
3222,-11,7,-6,-69,-16,-7,-11,-7,16.11
3223,-1,46,35,30,6,-5,-10,-3,16.115000000000002
3224,-8,-23,-37,29,6,8,8,-2,16.12
3225,-1,-35,41,-5,-8,-4,-8,-2,16.125
3226,2,-43,-14,20,-3,2,6,9,16.13
3227,2,-6,-8,-31,-5,0,1,-1,16.135
3228,-4,0,17,22,5,-3,5,1,16.14
3229,-16,12,0,-12,2,6,-2,0,16.145
3230,0,57,-3,3,-13,-10,-10,-12,16.15
3231,7,24,-21,-67,-7,21,32,11,16.155
3232,-9,6,-11,48,8,-10,-32,-9,16.16
3233,14,13,-26,-45,-30,-49,-18,-3,16.165
3234,3,11,110,-70,-29,1,-3,1,16.17
3235,-5,-14,-114,116,53,10,-11,-3,16.175
3236,-10,19,37,10,-5,-3,4,-5,16.18
3237,-8,31,-13,20,11,32,25,22,16.185
3238,-23,107,7,-63,-11,-14,-16,-18,16.19
3239,-9,84,-33,20,3,1,4,-7,16.195
3240,11,33,39,-46,-11,-11,-14,-10,16.2
3241,4,-8,34,13,1,5,-4,-9,16.205000000000002
3242,14,-50,-65,-16,14,3,11,19,16.21
3243,-10,-58,51,-58,-23,-2,-3,-5,16.215
3244,-9,-25,-59,54,24,-17,-22,5,16.22
3245,-1,-14,92,-112,-33,-10,-2,18,16.225
3246,1,-41,-101,107,63,47,36,13,16.23
3247,18,-40,67,-44,-19,-7,-17,-23,16.235
3248,-7,2,-57,-51,-28,-6,14,23,16.240000000000002
3249,1,1,67,48,15,29,19,-7,16.245
3250,-14,-14,-84,9,10,2,-10,-9,16.25
3251,4,-14,34,-82,-54,-72,-36,9,16.255
3252,-2,-9,6,100,57,26,24,7,16.26
3253,-20,6,28,-88,-2,11,-1,-11,16.265
3254,-13,-18,-21,108,1,-31,-18,-10,16.27
3255,-5,-5,-16,-38,5,57,45,7,16.275
3256,33,-13,125,-128,-44,41,44,10,16.28
3257,18,13,-128,127,55,-18,-18,-8,16.285
3258,-28,-9,71,-128,-62,-47,-48,-17,16.29
3259,-12,-3,48,76,10,-52,-46,-1,16.295
3260,-6,11,-32,-43,-20,-8,5,-19,16.3
3261,-3,-10,-27,26,13,29,7,-6,16.305
3262,49,-20,86,-42,-11,46,56,16,16.31
3263,-4,-4,-75,75,22,-4,-20,3,16.315
3264,3,8,-52,-55,-24,-21,-22,-26,16.32
3265,-21,-1,-100,52,34,-4,2,29,16.325
3266,-16,-13,75,-81,-37,-51,-46,-34,16.330000000000002
3267,-8,-17,-6,71,31,94,86,16,16.335
3268,-10,9,22,-20,-11,-34,-37,-15,16.34
3269,8,1,-34,75,17,-30,-18,9,16.345
3270,-19,-1,-41,-78,1,26,33,-5,16.35
3271,12,-12,11,29,-18,-50,-66,-18,16.355
3272,9,6,101,-92,-24,23,16,-1,16.36
3273,7,4,99,68,31,23,22,-5,16.365000000000002
3274,18,-9,55,-10,-4,14,14,29,16.37
3275,17,5,-16,-42,-6,-2,13,-17,16.375
3276,-22,23,-36,98,18,-15,-28,1,16.38
3277,24,-1,-32,-121,-38,25,26,6,16.385
3278,2,10,26,61,33,-19,-14,8,16.39
3279,4,10,67,-19,-27,-21,-29,-31,16.395
3280,20,1,-30,89,52,33,32,29,16.4
3281,0,9,50,-128,-39,18,30,17,16.405
3282,11,1,-6,89,37,40,19,-8,16.41
3283,-8,-6,66,-34,-20,-26,-43,-35,16.415
3284,-11,-4,-48,52,-10,-48,-13,48,16.42
3285,-10,-3,-40,79,-1,-4,-18,-16,16.425
3286,10,1,58,46,-3,17,19,15,16.43
3287,-23,-1,-89,-88,-7,-32,-28,-10,16.435
3288,-2,-10,107,-15,0,39,38,-29,16.44
3289,28,-5,20,-93,-23,-10,-23,-12,16.445
3290,9,5,-128,37,-6,-38,-21,11,16.45
3291,16,-11,91,73,19,18,33,22,16.455000000000002
3292,-9,3,-33,-37,21,56,48,11,16.46
3293,-22,-4,26,-107,-48,-49,-29,12,16.465
3294,26,0,-45,17,35,39,-5,-10,16.47
3295,-37,2,-104,93,80,-6,-22,5,16.475
3296,-29,-2,80,3,-39,-55,-16,-14,16.48
3297,-14,-12,53,-85,-46,-10,-23,-37,16.485
3298,6,0,81,79,59,47,59,47,16.490000000000002
3299,18,10,-34,-128,-21,9,24,55,16.495
3300,-21,-13,-36,-33,3,16,7,-3,16.5
3301,36,1,63,-53,-12,5,8,-29,16.505
3302,-38,4,-44,-10,-25,-20,-40,-42,16.51
3303,18,-1,-38,-20,7,24,55,28,16.515
3304,19,-9,21,-3,-6,-29,-36,9,16.52
3305,-17,12,-62,-45,-8,-51,-45,-22,16.525
3306,11,1,50,-91,-42,-19,2,3,16.53
3307,-14,-10,9,58,49,53,17,-32,16.535
3308,6,-4,8,-52,9,-33,-41,47,16.54
3309,19,0,-32,-82,-17,26,35,33,16.545
3310,-26,-4,-72,-15,-34,-70,-57,-64,16.55
3311,8,7,26,15,-7,43,50,36,16.555
3312,9,-9,44,24,-1,-29,-40,-10,16.56
3313,-13,-8,-67,127,98,31,23,30,16.565
3314,-19,6,120,-128,-42,-28,-16,-37,16.57
3315,-6,-1,101,-124,-42,19,22,-16,16.575
3316,-15,8,18,-54,-7,9,-13,-50,16.580000000000002
3317,27,0,-1,49,-8,-25,3,52,16.585
3318,2,-9,-90,75,32,17,11,-2,16.59
3319,8,4,60,-95,-21,-1,1,2,16.595
3320,21,-9,-92,24,29,50,31,8,16.6
3321,-50,-8,52,18,-50,-105,-83,-38,16.605
3322,-16,0,105,65,14,40,23,-28,16.61
3323,-12,10,-84,82,30,21,38,55,16.615000000000002
3324,-29,3,-79,-42,-20,-21,-20,1,16.62
3325,47,-10,56,-89,0,49,47,-18,16.625
3326,40,-3,-96,-128,-35,-15,-7,88,16.63
3327,-2,17,-42,51,74,-16,-36,-49,16.635
3328,-23,-10,-53,36,16,29,24,-17,16.64
3329,-14,6,-59,-7,-2,-20,-27,-13,16.645
3330,-1,-7,83,-38,-15,19,22,4,16.65
3331,3,-13,-22,-59,-31,6,7,13,16.655
3332,27,5,-20,93,12,-27,-33,-43,16.66
3333,-21,-2,33,11,8,18,31,40,16.665
3334,14,10,7,25,12,24,18,9,16.67
3335,40,-16,3,0,-42,-71,-55,-19,16.675
3336,-22,5,30,-17,-1,7,22,35,16.68
3337,-68,3,40,-26,-26,-9,-35,-79,16.685
3338,-3,1,21,18,23,19,16,9,16.69
3339,6,0,1,4,-12,-1,-8,-14,16.695
3340,31,3,6,-58,-18,-27,-25,-4,16.7
3341,18,-6,-10,-56,-7,26,29,2,16.705000000000002
3342,22,2,11,97,45,15,11,25,16.71
3343,-24,-10,5,-24,-19,-23,-25,-21,16.715
3344,-36,6,5,43,-3,5,11,-1,16.72
3345,21,-1,-26,-28,10,16,12,19,16.725
3346,-23,-2,-12,-27,-20,-32,-28,-17,16.73
3347,9,2,24,-28,-18,7,6,3,16.735
3348,14,-2,31,-22,5,19,20,12,16.740000000000002
3349,14,-3,5,18,1,-12,-16,-5,16.745
3350,-13,-1,-33,-14,3,-1,-3,-5,16.75
3351,-26,0,5,12,-4,-2,1,1,16.755
3352,10,-6,-12,-25,-9,-9,-10,-16,16.76
3353,2,-3,-8,41,15,1,12,13,16.765
3354,2,-8,-4,-9,-7,-5,-8,2,16.77
3355,-13,3,0,-10,-4,8,-3,-4,16.775
3356,6,-3,9,0,1,1,6,-3,16.78
3357,10,-1,15,13,6,9,6,9,16.785
3358,3,1,-14,-11,-6,-15,-3,2,16.79
3359,-4,0,7,2,-6,-12,-12,-3,16.795
3360,3,11,-4,-11,-2,5,-1,-7,16.8
3361,-3,2,0,15,6,8,11,2,16.805
3362,-2,-1,-2,-9,-5,-10,-6,5,16.81
3363,0,-1,-38,5,1,0,1,1,16.815
3364,7,-1,34,-1,1,6,6,-1,16.82
3365,-6,-1,-10,3,1,0,-3,-2,16.825
3366,-2,-7,10,4,0,-5,-9,-6,16.830000000000002
3367,2,-5,-1,-7,-7,-4,-2,0,16.835
3368,-2,2,-15,-10,-1,2,5,-1,16.84
3369,-2,-2,12,7,2,-2,-8,1,16.845
3370,2,-2,-18,-9,-3,-3,-1,-7,16.85
3371,4,2,11,4,0,1,2,-2,16.855
3372,-17,1,1,-6,-2,-1,2,0,16.86
3373,-8,0,0,7,1,2,-3,-5,16.865000000000002
3374,-5,-5,-5,-3,-2,-4,-4,-6,16.87
3375,-2,-5,2,-2,-3,-3,1,4,16.875
3376,10,3,-6,-2,-2,2,1,1,16.88
3377,-5,-4,2,2,0,3,-2,-3,16.885
3378,2,2,-3,-5,-2,-2,-1,0,16.89
3379,3,2,6,-1,-2,-3,-3,0,16.895
3380,4,3,3,-1,0,1,0,-1,16.9
3381,-2,3,2,4,1,2,1,0,16.905
3382,2,-2,1,-4,-2,-3,-2,0,16.91
3383,-7,2,-9,-2,-2,-2,1,-2,16.915
3384,2,1,8,-4,-1,1,2,4,16.92
3385,3,-4,12,4,2,-1,-1,-3,16.925
3386,-6,3,-13,-5,-3,-2,-2,-4,16.93
3387,-1,2,5,-4,-2,-2,1,3,16.935
3388,7,2,10,0,-1,1,1,1,16.94
3389,-5,-4,-28,-3,-2,-2,-4,-2,16.945
3390,-3,3,-5,-1,-2,1,-1,0,16.95
3391,-8,-3,6,-2,0,-2,-2,-3,16.955000000000002
3392,4,11,10,2,-2,-1,-1,2,16.96
3393,1,6,3,1,1,0,0,-1,16.965
3394,-4,0,3,0,-1,-2,-2,-1,16.97
3395,-1,1,-8,-2,-1,-1,-2,-1,16.975
3396,1,-3,-2,-3,-2,-2,1,-1,16.98
3397,4,-2,17,0,0,-1,0,0,16.985
3398,-4,-3,-10,-3,-2,0,0,-3,16.990000000000002
3399,-2,1,7,0,0,-2,-2,-1,16.995
3400,-3,-3,-6,-3,0,1,0,-2,17.0
3401,-5,-4,3,4,0,1,1,-1,17.005
3402,0,2,-1,-2,-1,-2,-1,0,17.01
3403,0,-4,-1,1,-2,-1,-1,0,17.015
3404,-1,-9,-4,1,1,0,-1,-1,17.02
3405,0,-83,-3,1,2,-1,-2,0,17.025
3406,-2,-24,4,-1,-1,-1,-2,-3,17.03
3407,2,-128,16,1,1,-1,1,0,17.035
3408,-2,-111,-5,-2,0,0,0,0,17.04
3409,0,-8,11,-1,-1,-1,-1,-1,17.045
3410,-2,-11,2,-2,0,-1,-1,-1,17.05
3411,1,47,6,-1,-1,0,-1,0,17.055
3412,-2,20,2,3,1,1,-2,-2,17.06
3413,1,57,21,0,0,0,-1,0,17.065
3414,0,85,19,-1,-1,-1,1,-2,17.07
3415,-3,91,0,0,-1,1,-1,0,17.075
3416,1,82,-3,-5,0,-2,-2,1,17.080000000000002
3417,-1,101,-10,3,1,1,-1,0,17.085
3418,1,52,-3,2,0,1,0,0,17.09
3419,-7,19,1,-1,-2,0,-1,-1,17.095
3420,2,17,6,1,0,0,1,2,17.1
3421,-5,60,1,-3,0,-1,-2,-3,17.105
3422,0,47,5,0,-1,0,0,1,17.11
3423,1,83,-5,-1,-1,-1,1,-2,17.115000000000002
3424,-6,123,-16,-5,-4,-3,-3,-2,17.12
3425,3,127,-8,-4,-2,-1,-1,-1,17.125
3426,-3,88,6,-4,-1,-1,-2,-2,17.13
3427,2,16,1,0,0,-1,0,1,17.135
3428,0,-83,-4,2,0,-1,1,-2,17.14
3429,0,-128,-10,-6,-5,-2,-2,0,17.145
3430,-2,-111,-19,8,1,0,0,-1,17.150000000000002
3431,-1,-76,-10,-5,-2,-1,0,-1,17.155
3432,1,-55,3,-1,-1,-1,0,-1,17.16
3433,1,-97,15,3,0,0,1,1,17.165
3434,-3,-80,-1,-6,-2,-2,-2,-1,17.17
3435,-2,-60,-9,3,0,-1,-1,-2,17.175
3436,2,-72,-11,-5,-1,1,-1,0,17.18
3437,0,-61,-20,-2,-2,-2,-1,-1,17.185
3438,0,-27,-18,8,0,-1,-2,0,17.19
3439,0,-15,-14,0,2,0,-1,1,17.195
3440,-6,-13,-10,-1,0,0,-2,-2,17.2
