slno,emg1,emg2,emg3,emg4,emg5,emg6,emg7,emg8,Time
0,0,-2,-2,-1,0,0,-1,0,0.0
1,0,0,2,3,-1,1,0,-1,0.005
2,-1,-1,-1,0,-1,-1,0,-2,0.01
3,-3,-3,0,-2,-3,-2,-1,-3,0.015
4,-2,0,-1,-2,-2,-1,0,1,0.02
5,1,-1,-1,-1,-1,-2,-1,0,0.025
6,0,1,0,-1,-2,0,0,0,0.03
7,0,-1,1,0,0,-1,-2,-1,0.035
8,0,0,-1,-1,1,0,-1,0,0.04
9,-2,-2,0,-1,-2,-4,-1,-1,0.045
10,0,-1,-3,0,0,-1,0,0,0.05
11,0,-1,-3,-2,-1,-2,-3,-1,0.055
12,0,-1,-1,-1,1,-1,0,-3,0.06
13,-2,1,-2,-2,1,0,0,-1,0.065
14,-1,-2,0,0,-1,0,1,-2,0.07
15,0,0,-1,0,0,0,0,-1,0.075
16,0,0,1,0,-2,0,-1,-1,0.08
17,-4,-4,-1,-1,-2,-1,-1,-2,0.085
18,-1,0,-1,-2,-1,-1,0,0,0.09
19,0,0,-1,0,-1,-1,-1,-1,0.095
20,-1,-1,-1,0,-2,0,0,-1,0.1
21,-2,-2,-1,0,0,-2,-2,-2,0.105
22,-3,-4,-3,0,0,-1,0,0,0.11
23,-1,0,0,1,0,1,-2,0,0.115
24,0,0,-2,-1,-1,0,-1,1,0.12
25,-1,-1,0,1,0,-2,0,-1,0.125
26,1,2,0,-1,-1,-2,-2,-2,0.13
27,-2,-1,-2,-2,0,0,0,0,0.135
28,-1,1,2,-1,1,1,1,-1,0.14
29,-1,0,-1,-4,-2,0,0,0,0.145
30,-3,-3,1,-2,-2,-2,0,0,0.15
31,-3,-3,-2,-1,-2,-3,0,-1,0.155
32,-1,-2,0,-2,-2,-2,-1,-2,0.16
33,0,-1,-2,-2,-2,0,-2,-1,0.165
34,-2,-2,-2,0,1,2,1,0,0.17
35,1,-1,1,1,-1,-1,-1,-1,0.17500000000000002
36,-2,-2,-1,-1,-2,0,-2,-1,0.18
37,-1,1,0,-1,-1,-3,0,-2,0.185
38,1,1,0,0,-2,-2,-1,-1,0.19
39,-1,-2,-2,2,2,-1,-1,-2,0.195
40,-1,-1,-1,-2,0,-2,-1,-2,0.2
41,-1,-3,1,1,2,-1,0,-1,0.20500000000000002
42,0,0,-2,-2,-2,1,-1,0,0.21
43,1,4,1,-1,-1,0,-3,0,0.215
44,-1,-1,-5,-2,-2,-3,0,-1,0.22
45,3,2,0,-1,-1,0,2,0,0.225
46,-1,0,1,-1,1,-2,0,-1,0.23
47,-1,-4,-2,-2,-2,-1,1,-1,0.23500000000000001
48,0,2,0,0,-1,-1,-2,-1,0.24
49,-2,-3,-1,0,1,1,2,0,0.245
50,0,-1,-3,-1,-2,1,0,-2,0.25
51,0,0,-1,-1,-3,-1,-1,0,0.255
52,-2,0,1,3,1,-1,-2,-1,0.26
53,-3,-2,-1,-1,-1,-4,-4,-1,0.265
54,-3,-3,-1,-1,0,0,-1,-1,0.27
55,-2,-5,-2,-3,-1,0,-1,-2,0.275
56,0,1,1,1,-2,0,1,0,0.28
57,1,1,2,0,-1,-1,-1,0,0.28500000000000003
58,-1,-4,-2,-2,-2,-3,-1,-2,0.29
59,-2,1,1,1,1,0,0,-2,0.295
60,0,-1,-1,0,0,-1,0,-1,0.3
61,-1,-2,-1,0,-2,1,-3,-1,0.305
62,-3,-2,-1,0,0,-1,-2,-1,0.31
63,0,0,-1,-1,0,-1,-2,1,0.315
64,0,0,-1,-1,0,-1,0,-1,0.32
65,-2,-1,-3,-1,0,0,0,0,0.325
66,2,1,1,0,-1,1,1,0,0.33
67,0,-1,-1,-1,-1,-2,1,0,0.335
68,-2,-2,-3,-1,-2,-1,0,-2,0.34
69,0,0,-1,-1,-2,-1,0,0,0.34500000000000003
70,0,0,0,2,-2,2,-2,0,0.35000000000000003
71,-1,-2,0,0,0,-2,-2,-3,0.355
72,0,0,2,-3,-2,1,-1,0,0.36
73,1,0,1,-3,-1,0,-1,-1,0.365
74,-2,0,0,0,-1,-2,-1,-1,0.37
75,0,2,1,-1,-2,0,-2,-2,0.375
76,0,-2,-3,-1,0,-3,-1,0,0.38
77,0,0,-2,1,-2,-1,-2,-2,0.385
78,0,-1,-1,1,0,-2,0,0,0.39
79,5,3,0,0,-2,-1,1,1,0.395
80,-2,-4,-1,-2,-1,-1,1,-1,0.4
81,0,1,1,0,-2,0,-1,0,0.405
82,1,-2,-3,-2,-2,-2,0,-2,0.41000000000000003
83,-2,-2,1,0,1,0,-1,0,0.41500000000000004
84,-2,-1,0,0,-3,-2,-1,0,0.42
85,-1,-1,-1,-4,-2,-2,-1,1,0.425
86,1,1,2,-1,0,0,-1,-1,0.43
87,-3,-4,-3,2,-2,0,-2,0,0.435
88,-1,-2,-2,1,0,-2,0,0,0.44
89,-1,0,-1,-1,1,-1,-1,-2,0.445
90,0,-1,-2,-3,-2,0,-1,-1,0.45
91,-2,-4,-3,-3,-1,-2,-1,-2,0.455
92,0,-1,-1,1,1,0,-2,-1,0.46
93,1,1,0,-3,-3,-3,-1,-2,0.465
94,2,1,4,-7,2,-1,1,2,0.47000000000000003
95,-2,-5,-5,-5,1,0,2,1,0.47500000000000003
96,-4,-1,-1,3,-3,-1,-3,-2,0.48
97,-1,-1,-3,12,10,4,0,0,0.485
98,-2,0,-1,2,-3,-1,-2,-2,0.49
99,1,0,-2,-3,-1,0,-1,0,0.495
100,0,-6,-1,-9,-2,-1,-1,0,0.5
101,-6,-4,-4,-5,-5,-1,-2,0,0.505
102,-7,0,-3,-1,1,-2,-1,-2,0.51
103,-3,4,2,0,-2,1,1,-1,0.515
104,-4,-1,-3,0,-1,1,-1,-1,0.52
105,-3,-3,2,1,-1,-2,-2,-1,0.525
106,6,-4,1,-1,-4,-2,0,3,0.53
107,-1,-9,5,-1,-1,2,0,-2,0.535
108,2,4,-4,-4,0,0,-1,-1,0.54
109,14,-2,-7,-4,-3,0,0,2,0.545
110,0,2,-2,4,3,0,-1,0,0.55
111,1,2,3,-3,-3,-4,0,-1,0.555
112,3,2,4,0,0,-1,-1,0,0.56
113,-5,-1,2,9,2,0,1,0,0.5650000000000001
114,-2,-4,-5,-1,-3,-2,-1,-1,0.5700000000000001
115,4,8,-1,1,-2,-1,-3,-2,0.5750000000000001
116,-3,1,4,-10,-3,-1,1,0,0.58
117,-2,1,-1,25,10,1,1,-2,0.585
118,-2,-2,-5,2,2,0,0,-1,0.59
119,-2,-2,-3,3,1,-2,-1,1,0.595
120,1,1,-1,-3,-2,-4,-1,-1,0.6
121,0,-3,-5,-12,-4,-1,0,-1,0.605
122,-1,-2,5,-1,-3,1,-1,-3,0.61
123,0,4,-3,6,1,-1,-3,-1,0.615
124,-2,-6,6,-4,1,1,-3,-3,0.62
125,-3,-5,-2,-12,-6,-2,-2,-2,0.625
126,-6,1,-6,-5,-3,-2,-1,-1,0.63
127,-7,0,-1,9,4,0,2,0,0.635
128,-4,-6,-6,12,1,2,-1,-2,0.64
129,-3,0,9,1,0,-1,0,-2,0.645
130,0,-1,0,-11,-4,-1,-1,-2,0.65
131,2,0,-3,-11,-7,-3,-1,-2,0.655
132,-3,-3,-3,9,2,-1,0,-2,0.66
133,3,3,1,-14,-5,-1,1,1,0.665
134,-2,-5,-2,5,0,-3,-1,-1,0.67
135,1,-6,-4,-4,0,1,0,0,0.675
136,6,6,-2,4,-1,0,-1,1,0.68
137,-10,-14,-17,-14,-3,1,-1,0,0.685
138,2,3,6,12,1,2,-2,-2,0.6900000000000001
139,4,13,24,16,2,-1,3,3,0.6950000000000001
140,-1,1,0,-21,-4,0,-2,1,0.7000000000000001
141,-3,-13,-3,-3,-8,-8,-14,-10,0.705
142,-1,-11,-51,-2,16,4,0,0,0.71
143,-4,2,1,3,-6,0,4,-3,0.715
144,-6,2,8,25,8,2,0,-3,0.72
145,-1,-15,-19,-19,-1,2,16,11,0.725
146,-5,0,24,-1,-7,-3,2,3,0.73
147,5,3,-7,-4,-5,-3,-13,-10,0.735
148,-4,-9,-25,-21,0,-3,-4,-4,0.74
149,5,11,37,22,1,0,6,-7,0.745
150,-18,-34,-27,21,13,-2,-27,-8,0.75
151,6,2,12,-6,-4,0,7,8,0.755
152,-9,-19,-23,5,-2,2,1,2,0.76
153,4,-4,20,-18,-4,-1,12,6,0.765
154,3,-26,6,-6,-9,-2,4,-2,0.77
155,-3,-50,-23,-8,2,-1,-4,-5,0.775
156,10,-34,21,1,1,-1,3,4,0.78
157,-3,-46,-19,-10,-4,-7,-22,-15,0.785
158,7,-29,18,-4,-5,1,5,4,0.79
159,-3,-64,-16,-1,0,-3,-8,-3,0.795
160,-6,-50,-14,1,-3,-2,2,0,0.8
161,1,-28,4,20,4,4,3,3,0.805
162,3,-23,-15,-14,-4,-3,1,-1,0.81
163,-6,-12,3,-1,2,0,1,-1,0.8150000000000001
164,-3,-13,3,3,-3,2,-4,-1,0.8200000000000001
165,-13,0,18,4,-1,3,15,9,0.8250000000000001
166,14,29,-10,-5,-2,-6,-28,-14,0.8300000000000001
167,4,14,0,3,1,-1,-3,1,0.835
168,-3,19,-5,-6,-7,-7,-12,-8,0.84
169,2,35,-25,3,2,0,0,1,0.845
170,-9,33,0,-1,-2,1,15,2,0.85
171,-7,23,-17,-10,-5,0,1,1,0.855
172,3,33,11,-3,-1,-1,3,1,0.86
173,7,10,-12,12,7,2,-2,1,0.865
174,-8,-18,37,1,-2,0,16,5,0.87
175,-3,-33,-48,-9,-1,0,-6,-3,0.875
176,-3,-22,8,13,2,-1,-2,-3,0.88
177,10,13,-17,-7,-2,-2,-6,-2,0.885
178,-3,30,-9,1,1,1,-2,-2,0.89
179,-4,39,10,4,-2,-3,2,-1,0.895
180,2,38,-15,-7,-1,0,3,1,0.9
181,-10,28,1,-23,-7,-4,-9,-4,0.905
182,1,26,30,29,-1,-1,2,2,0.91
183,3,24,14,9,8,2,1,1,0.915
184,-6,21,-12,-16,-4,0,-2,0,0.92
185,8,10,25,8,1,-1,-5,-2,0.925
186,-1,6,-11,-20,-6,-2,0,-1,0.93
187,-6,11,33,-4,-7,-3,2,-1,0.935
188,7,8,12,14,5,0,0,-1,0.9400000000000001
189,-7,2,-4,-8,-1,-1,-2,-3,0.9450000000000001
190,9,3,4,6,3,1,2,3,0.9500000000000001
191,-12,5,-26,-1,2,0,-3,-3,0.9550000000000001
192,5,4,5,-7,-2,2,6,3,0.96
193,1,-1,-19,-3,-2,-1,-1,-1,0.965
194,0,1,25,-13,-6,-4,-4,-2,0.97
195,1,3,-11,9,3,0,-3,-3,0.975
196,15,0,23,5,2,1,1,4,0.98
197,-6,0,-58,1,0,-2,1,-6,0.985
198,-1,0,2,-8,-1,0,2,-3,0.99
199,6,1,24,13,5,-1,-1,2,0.995
200,-1,1,-13,-2,-5,-3,0,-2,1.0
201,-1,-1,23,8,6,4,1,1,1.0050000000000001
202,-2,0,-2,-16,-9,-4,-4,-3,1.01
203,2,1,-4,-21,-9,1,1,2,1.0150000000000001
204,0,0,11,24,11,3,1,0,1.02
205,-8,7,17,5,-1,-2,-3,-3,1.025
206,-1,78,-44,-3,1,1,1,2,1.03
207,-2,87,35,-10,-7,-3,1,1,1.035
208,9,111,33,4,4,0,-3,1,1.04
209,-20,72,-86,-17,-5,-3,-7,-10,1.045
210,7,93,19,5,4,3,4,7,1.05
211,4,88,-1,6,1,0,-1,-2,1.055
212,-8,71,-10,-11,-5,-1,-2,-1,1.06
213,7,66,50,7,-1,-2,-3,1,1.065
214,-1,34,-22,-1,1,1,-2,0,1.07
215,5,3,-37,3,0,-1,0,0,1.075
216,-8,61,-4,0,-3,-5,-5,-6,1.08
217,4,75,0,-2,-1,0,-1,1,1.085
218,-10,0,26,-4,-5,-4,-3,-4,1.09
219,-10,-24,3,-4,2,1,2,2,1.095
220,-7,-74,37,-13,-9,-6,-2,-5,1.1
221,21,-59,15,21,7,2,4,8,1.105
222,12,-48,17,-6,-3,0,1,1,1.11
223,-2,12,-55,10,6,0,-2,-4,1.115
224,-11,-33,9,-5,-2,1,1,2,1.12
225,1,-29,15,2,7,3,1,3,1.125
226,-7,-68,0,6,1,-2,-1,-2,1.1300000000000001
227,-11,-87,-32,-13,-3,-1,-1,-5,1.135
228,7,-49,6,-14,-5,0,-1,0,1.1400000000000001
229,-4,-41,3,8,1,0,0,-1,1.145
230,11,-62,20,6,-2,-2,-1,0,1.1500000000000001
231,-11,-52,7,5,7,1,1,-1,1.155
232,7,-26,-46,0,-2,0,-1,-1,1.16
233,-6,-37,-2,-8,0,1,0,-1,1.165
234,3,-27,47,15,1,2,1,2,1.17
235,-2,-21,-59,-13,-7,-4,-1,-1,1.175
236,-18,-17,-64,-4,0,-1,-1,-5,1.18
237,1,-5,90,-1,-8,-6,-1,-1,1.185
238,-1,-5,-82,7,9,3,3,-1,1.19
239,12,-5,87,-12,-6,-5,-6,-1,1.195
240,-5,-14,-5,20,4,0,-1,1,1.2
241,4,-1,-14,-13,-4,-3,-5,-4,1.205
242,-12,-3,8,-11,-2,0,7,1,1.21
243,4,-8,-34,11,3,3,2,2,1.215
244,-3,1,13,-1,0,-3,-2,-3,1.22
245,-2,3,20,1,-1,0,-11,-8,1.225
246,-2,-6,-13,-10,2,1,-4,-2,1.23
247,6,-1,4,4,0,-2,-3,0,1.235
248,-4,-3,-16,-14,-3,0,2,-2,1.24
249,18,-1,42,20,9,4,6,10,1.245
250,-25,-4,-27,-23,-16,-12,-11,-17,1.25
251,2,-3,21,5,-1,-2,-9,-2,1.2550000000000001
252,4,3,-6,4,5,2,2,6,1.26
253,-4,-3,-44,-3,-1,2,3,2,1.2650000000000001
254,5,-4,-62,-7,3,1,1,4,1.27
255,3,2,118,5,-5,-4,-1,-2,1.2750000000000001
256,0,1,9,-6,-5,-3,-6,-4,1.28
257,-13,-8,-50,-9,-4,-3,0,-1,1.285
258,10,6,30,8,2,2,2,1,1.29
259,-1,-2,-54,-8,1,2,2,0,1.295
260,-1,3,0,0,2,1,0,0,1.3
261,-7,-3,11,-10,-8,-2,-1,-5,1.305
262,0,-1,12,3,-1,-2,-4,-1,1.31
263,1,-4,26,1,-1,1,5,5,1.315
264,11,-1,15,-2,-1,0,-1,0,1.32
265,8,0,-32,-7,0,-1,0,2,1.325
266,10,2,54,29,10,4,5,6,1.33
267,-17,1,-8,-15,-6,-2,-3,-7,1.335
268,2,0,5,-2,-2,-2,1,4,1.34
269,-7,-4,-50,-7,-2,-1,-2,-4,1.345
270,6,-7,41,4,-1,0,1,-1,1.35
271,2,3,-15,-7,-1,1,1,2,1.355
272,4,0,-3,19,5,0,-1,0,1.36
273,-1,1,17,6,2,-1,2,1,1.365
274,-11,-4,25,-5,-5,-5,-6,-4,1.37
275,-8,-5,-30,0,0,-1,0,-3,1.375
276,2,1,-7,-8,-4,-1,-1,-2,1.3800000000000001
277,-6,-2,45,-13,-9,-4,-4,-4,1.385
278,-5,-5,-77,-7,0,0,2,-1,1.3900000000000001
279,7,-2,-33,-7,3,3,3,2,1.395
280,8,6,109,22,1,-1,-1,-1,1.4000000000000001
281,-12,-1,4,-1,-2,-1,-1,-3,1.405
282,-3,-3,-9,-4,-4,-3,-2,0,1.41
283,1,-2,17,1,2,1,3,1,1.415
284,-3,-4,-44,-8,1,2,2,2,1.42
285,3,-6,12,5,0,0,-1,-1,1.425
286,-1,-2,-2,-4,-2,-2,1,-1,1.43
287,7,0,13,3,-2,-1,0,2,1.435
288,3,-6,-3,-3,-2,0,-2,-2,1.44
289,-8,0,-2,-2,-3,-3,-3,-5,1.445
290,3,5,8,-2,-1,-2,-3,0,1.45
291,2,-2,19,6,0,1,0,-1,1.455
292,1,3,-12,-2,-2,0,0,0,1.46
293,4,7,5,3,4,1,0,4,1.465
294,-2,0,-22,-6,2,2,1,-1,1.47
295,1,7,14,10,-2,-3,-2,-1,1.475
296,-4,-7,-6,-15,-3,-2,-3,-3,1.48
297,6,2,11,2,0,1,3,3,1.485
298,-6,0,-38,-5,1,0,-1,-2,1.49
299,-5,2,-3,-12,-5,-1,1,0,1.495
300,-6,-7,19,17,6,1,-1,-1,1.5
301,-14,-1,-56,-11,-1,-1,-1,-6,1.5050000000000001
302,7,2,16,11,-2,-2,-2,1,1.51
303,-4,3,5,-2,-1,-3,-2,-3,1.5150000000000001
304,1,-1,-10,-11,-2,-2,-1,1,1.52
305,1,-2,-17,-7,1,0,0,2,1.5250000000000001
306,-9,-2,6,7,0,0,-2,-2,1.53
307,1,-3,-4,0,0,0,-1,0,1.5350000000000001
308,-2,1,-24,-7,-3,-3,-1,1,1.54
309,3,-2,8,1,-1,-1,-2,0,1.545
310,2,6,15,0,-1,0,-1,-2,1.55
311,2,-4,7,1,1,1,-2,-1,1.555
312,-9,-4,-13,-3,-1,0,1,-3,1.56
313,3,-2,3,2,-2,0,1,1,1.565
314,0,-1,5,-6,-5,-2,-1,-1,1.57
315,-1,3,-21,-2,1,-2,-1,-1,1.575
316,-2,3,14,-1,-2,-2,-2,-3,1.58
317,-5,3,-15,-4,-2,-1,-1,-3,1.585
318,6,-3,17,0,-5,-3,-4,0,1.59
319,1,-2,1,14,7,3,1,0,1.595
320,-4,-4,-35,-14,-4,-1,-1,-1,1.6
321,3,-1,38,14,-2,-3,-3,0,1.605
322,-10,-1,-34,2,0,-1,-1,-2,1.61
323,1,-4,12,3,1,0,2,2,1.615
324,-1,-2,-38,-10,-4,-3,-1,-4,1.62
325,6,-6,41,1,-8,-5,-3,-1,1.625
326,-4,0,-28,0,12,5,4,2,1.6300000000000001
327,-4,-4,6,-4,-4,-4,-3,-3,1.635
328,-1,-2,3,-1,2,0,0,0,1.6400000000000001
329,1,-6,-5,-9,-3,-3,-1,1,1.645
330,-1,-2,20,3,-3,-2,-2,-2,1.6500000000000001
331,0,-4,-14,-4,-1,-1,-2,-2,1.655
332,-5,-1,17,3,1,1,0,1,1.6600000000000001
333,-4,-2,-28,0,1,1,0,-3,1.665
334,5,-2,15,0,-3,-4,-2,0,1.67
335,-7,-1,-10,-6,-4,-3,-2,-3,1.675
336,-1,-2,-3,-4,-3,-1,0,-1,1.68
337,-1,-3,9,7,3,1,-1,1,1.685
338,1,-5,-22,-8,-1,1,-2,0,1.69
339,-2,-3,13,-4,-4,-3,-3,-5,1.695
340,4,-5,15,6,1,-1,2,0,1.7
341,4,-4,-16,1,3,0,1,2,1.705
342,1,2,16,0,-2,-1,-1,-4,1.71
343,1,4,-9,-5,-2,-1,-1,2,1.715
344,-3,-3,-6,1,2,1,-2,-1,1.72
345,4,-4,4,-2,0,-2,-2,0,1.725
346,-7,1,5,-1,-3,-2,-2,-2,1.73
347,4,-3,-8,0,2,2,1,1,1.735
348,-3,8,-22,-6,-1,-1,-1,-1,1.74
349,0,-4,21,3,-3,-4,-3,-2,1.745
350,2,-6,-3,-2,0,-1,0,0,1.75
351,1,3,12,2,0,0,2,-1,1.7550000000000001
352,-5,-2,5,1,1,-1,-2,0,1.76
353,-1,-2,-13,-3,-1,-2,1,-1,1.7650000000000001
354,-2,0,1,-3,1,-1,0,1,1.77
355,-5,-3,-2,0,-2,-2,-1,-2,1.7750000000000001
356,1,-4,0,0,-3,-2,-2,-1,1.78
357,-2,0,0,3,1,3,1,-1,1.7850000000000001
358,-4,-2,-1,0,-2,-1,-1,-3,1.79
359,-4,-2,-3,-1,0,1,0,-1,1.795
360,3,3,9,2,-3,-2,-1,-3,1.8
361,1,-1,0,-17,-8,-2,-2,0,1.805
362,4,4,-6,31,16,3,1,1,1.81
363,1,-4,-1,-1,-2,-3,-1,-2,1.815
364,2,2,6,4,1,-1,0,0,1.82
365,-6,3,-14,0,2,-1,-1,-2,1.825
366,3,-1,10,-10,-6,-4,-1,-1,1.83
367,-4,3,-6,-3,-1,-3,-1,-2,1.835
368,1,-7,-1,-4,1,1,1,-1,1.84
369,-2,3,3,-12,-6,-3,-1,-1,1.845
370,-7,1,-5,12,3,0,-4,-2,1.85
371,5,-3,-5,-1,3,-1,0,1,1.855
372,-2,5,1,-1,-5,-2,-4,0,1.86
373,-2,5,-7,5,3,1,1,-1,1.865
374,-5,-2,2,-7,-2,-1,1,-1,1.87
375,-1,-1,7,2,0,0,0,0,1.875
376,0,-1,0,-4,-1,-2,-1,-2,1.8800000000000001
377,-1,3,-2,-2,-2,-1,0,-1,1.885
378,1,-34,0,-9,-3,0,2,0,1.8900000000000001
379,-3,-46,-4,3,0,0,0,0,1.895
380,0,-50,3,-3,-2,-1,-1,0,1.9000000000000001
381,0,-59,3,12,5,3,0,0,1.905
382,-5,-28,-5,-11,-6,-3,-2,-2,1.9100000000000001
383,3,-40,6,-4,0,1,-1,-1,1.915
384,-3,-37,-5,2,1,-2,0,-2,1.92
385,-2,-16,11,2,0,-1,-1,-3,1.925
386,3,-52,7,0,1,1,0,0,1.93
387,1,-38,9,-1,-6,-2,-3,-1,1.935
388,0,-36,14,10,5,1,1,1,1.94
389,1,-116,-8,-2,0,-1,-1,0,1.945
390,3,-86,7,0,-2,-1,1,1,1.95
391,-3,-80,20,-5,-3,-2,-1,-1,1.955
392,-2,-104,19,9,-2,0,0,0,1.96
393,-4,-80,-2,9,7,1,1,-1,1.965
394,-1,-21,-16,-9,-4,0,0,0,1.97
395,-2,-38,-9,4,3,0,-1,0,1.975
396,-4,34,-14,-16,-6,-2,-3,-3,1.98
397,0,99,-7,-5,-4,-2,-2,0,1.985
398,-2,121,-15,12,2,0,0,-1,1.99
399,-2,127,-10,-5,-2,1,-1,-1,1.995
400,0,117,1,-1,-1,1,-1,-1,2.0
401,-3,118,9,-5,-4,-2,0,-3,2.005
402,0,114,10,-6,-3,-2,-3,-3,2.0100000000000002
403,1,86,-1,-1,-1,-1,-1,-2,2.015
404,3,49,0,-2,-1,0,-1,0,2.02
405,-6,31,-15,0,1,0,-1,-2,2.025
406,0,24,-2,-8,-4,-2,0,0,2.0300000000000002
407,-1,3,-5,4,0,-1,1,0,2.035
408,-2,9,-4,0,-2,1,-1,0,2.04
409,1,8,-8,-3,-1,-1,-1,-1,2.045
410,2,-28,0,1,0,-1,-1,-1,2.05
411,-5,-32,-1,-4,-1,-1,0,0,2.055
412,2,-4,-7,-6,-1,0,0,-1,2.06
413,2,5,-2,2,-1,-1,-2,-1,2.065
414,-5,-11,0,-1,-2,-1,-3,-2,2.07
415,3,1,-3,0,1,0,-1,1,2.075
416,-1,-2,-1,-1,-1,-2,0,-2,2.08
417,0,-20,-9,-1,0,-1,-1,-1,2.085
418,-4,-29,-5,-9,-2,-1,-2,0,2.09
419,1,-34,-5,-4,-2,-1,-2,0,2.095
420,-3,-20,3,16,3,-1,-1,1,2.1
421,-1,-45,-1,0,-1,0,0,0,2.105
422,2,-7,-1,3,1,0,0,1,2.11
423,-2,-28,-6,-2,-2,-2,-1,-2,2.115
424,-3,-52,-4,-1,-1,-2,2,-2,2.12
425,3,-19,0,0,-2,-1,-1,1,2.125
426,-1,-21,4,0,-4,-2,-2,0,2.13
427,-1,-18,0,1,1,0,1,-1,2.1350000000000002
428,0,-28,-8,-2,-1,-1,-1,-2,2.14
429,1,-14,0,-4,-2,-1,1,-1,2.145
430,-3,13,4,6,1,-1,-1,-2,2.15
431,2,42,6,1,-2,-2,0,0,2.1550000000000002
432,-2,36,12,-4,-2,-3,-1,-3,2.16
433,-5,25,4,-4,-1,0,0,-1,2.165
434,4,23,9,-3,-1,1,0,0,2.17
435,5,28,-11,0,1,-1,1,0,2.1750000000000003
436,-4,14,-6,-4,-1,-2,-1,0,2.18
437,-1,11,-4,-1,-1,-1,-3,-1,2.185
438,0,12,-10,-5,-1,-4,1,-1,2.19
439,-4,9,-3,-1,-3,-1,-2,-2,2.195
440,3,6,3,-6,-2,0,1,3,2.2
441,0,5,2,7,-1,2,0,-2,2.205
442,0,3,-2,-7,-2,-1,1,0,2.21
443,-4,4,4,-3,-1,-2,-3,-1,2.215
444,1,3,5,16,3,0,0,-1,2.22
445,-1,2,-14,0,1,-1,-2,0,2.225
446,-5,-2,-5,-1,0,-2,-2,-2,2.23
447,-3,2,-6,9,2,2,0,-1,2.235
448,5,2,-2,0,0,1,0,1,2.24
449,-1,-1,1,1,1,0,0,0,2.245
450,0,-2,-5,-2,-2,-1,2,0,2.25
451,-1,2,-3,-9,-3,0,-1,-1,2.255
452,4,1,1,-1,-3,-1,-1,-1,2.2600000000000002
453,0,-1,-14,-7,-2,-1,-1,0,2.265
454,0,-1,-1,-2,0,0,-1,0,2.27
455,-1,1,-3,1,0,-2,0,-1,2.275
456,-5,0,-4,-3,-2,0,1,-2,2.2800000000000002
457,0,-1,2,3,-1,-1,1,0,2.285
458,-1,0,-4,-1,-1,0,0,-1,2.29
459,0,0,-2,-1,0,-1,0,-1,2.295
460,-1,0,-5,-11,-1,-1,-1,-2,2.3000000000000003
461,1,0,2,3,-1,-2,-1,0,2.305
462,-4,0,3,10,3,0,0,0,2.31
463,-1,-1,-2,-5,-2,-1,0,-1,2.315
464,-2,0,-5,-6,0,0,-1,1,2.32
465,-2,0,3,0,0,-2,-1,-3,2.325
466,-1,-2,-3,-4,-1,-2,-2,-3,2.33
467,-1,0,-3,-1,-2,0,-1,0,2.335
468,-4,0,-2,2,-1,-2,-1,-1,2.34
469,-4,-1,1,-5,-1,-1,-2,0,2.345
470,2,-1,0,-5,-4,-1,-1,-1,2.35
471,2,0,8,3,1,-2,-1,-1,2.355
472,-3,0,-2,-13,-2,-1,-1,-3,2.36
473,-4,-1,4,11,0,0,2,-1,2.365
474,0,0,-10,14,2,0,-2,0,2.37
475,0,-1,3,-1,1,2,1,1,2.375
476,2,-1,-3,6,1,0,0,1,2.38
477,1,-1,7,-6,-1,1,0,-1,2.3850000000000002
478,-3,-1,5,-10,-1,0,-3,-3,2.39
479,-5,0,-1,-1,-2,-2,-2,0,2.395
480,5,0,2,-4,-3,-1,-2,0,2.4
481,2,-1,0,-1,-1,1,0,-1,2.4050000000000002
482,2,-1,0,-5,-2,-1,0,1,2.41
483,0,0,0,-1,-1,0,-2,-1,2.415
484,-2,-1,-1,2,1,0,0,0,2.42
485,1,0,-4,-6,-2,-2,-2,0,2.4250000000000003
486,-6,-1,1,-1,0,2,1,0,2.43
487,0,-1,0,-3,-4,-2,-1,-2,2.435
488,-1,12,-7,1,0,-1,-2,-1,2.44
489,0,13,2,1,1,-1,-1,1,2.445
490,-1,7,1,-3,0,1,-1,-2,2.45
491,-2,3,3,-5,-2,0,-1,-2,2.455
492,-4,6,4,3,-3,-1,-1,-2,2.46
493,1,5,0,0,-1,0,-1,1,2.465
494,-1,-1,1,-4,0,-2,-3,-1,2.47
495,-2,-3,0,-4,-3,-2,-1,-3,2.475
496,1,3,2,5,1,0,0,-2,2.48
497,0,1,-5,-8,-1,0,0,0,2.485
498,0,-3,-12,0,-1,-1,1,1,2.49
499,0,-9,0,2,1,-1,0,0,2.495
500,-3,-12,1,-1,-1,0,-1,1,2.5
501,-1,-5,0,-3,-2,-1,-2,-1,2.505
502,3,-2,2,2,0,-1,0,0,2.5100000000000002
503,-1,-20,-4,0,-1,-1,0,-2,2.515
504,-1,-13,-4,-2,0,1,-2,-1,2.52
505,0,-8,1,2,-1,-1,-2,-1,2.525
506,0,-2,1,-3,-3,-2,-2,0,2.5300000000000002
507,-2,-6,-2,2,0,1,0,-1,2.535
508,-2,-4,-2,-1,-2,-2,-1,-2,2.54
509,-2,-3,-2,-1,0,-2,1,-1,2.545
510,3,2,1,1,-2,0,1,0,2.5500000000000003
511,-5,11,-4,0,0,0,-1,-1,2.555
512,2,6,1,-1,-1,-2,-1,0,2.56
513,3,8,0,2,-1,-1,0,-1,2.565
514,0,4,2,-1,-1,-2,-2,0,2.57
515,1,4,3,1,1,2,1,1,2.575
516,-2,6,1,-2,0,-1,0,0,2.58
517,-1,1,8,-1,0,-1,0,0,2.585
518,-2,-3,6,-2,0,-1,-1,1,2.59
519,-4,-1,-2,0,0,-2,-2,-2,2.595
520,0,6,-1,-1,-2,1,-1,0,2.6
521,-4,4,-3,-2,-2,0,-2,-2,2.605
522,-2,0,-5,-4,-3,-2,-2,-3,2.61
523,2,4,-1,-6,-1,-1,2,2,2.615
524,-4,-7,-2,1,-2,-2,0,0,2.62
525,1,3,6,-1,-4,0,-3,0,2.625
526,0,-7,-21,2,4,1,1,0,2.63
527,2,-3,-4,-2,-1,-1,-2,0,2.6350000000000002
528,0,-13,-5,-5,-1,-1,1,0,2.64
529,-2,-14,-1,4,-1,-3,0,-1,2.645
530,-1,-4,1,2,0,-1,0,-2,2.65
531,-4,-8,-11,-7,1,-1,0,-1,2.6550000000000002
532,2,4,-2,4,0,0,-3,0,2.66
533,-2,3,-3,1,1,-1,0,-1,2.665
534,0,3,4,-3,0,0,2,0,2.67
535,1,0,0,0,0,-2,0,0,2.6750000000000003
536,-2,0,0,-7,-2,-2,0,0,2.68
537,-2,3,-6,2,1,-1,0,-1,2.685
538,0,4,1,0,-2,-2,-2,-1,2.69
539,0,2,3,0,-2,-2,0,-2,2.695
540,-1,6,-1,-1,0,-1,0,-1,2.7
541,1,3,-1,-1,0,0,1,1,2.705
542,1,4,3,0,0,-1,0,-1,2.71
543,1,11,-1,4,-1,-1,-2,-2,2.715
544,-4,8,8,2,-2,-2,-3,-2,2.72
545,-1,0,-4,-1,1,0,-1,-1,2.725
546,1,0,-5,3,1,0,0,0,2.73
547,0,1,4,-1,-4,-1,-3,-1,2.735
548,-4,-5,-4,-3,-1,-2,-2,-1,2.74
549,-1,-3,2,-2,-3,-1,0,-2,2.745
550,0,0,2,0,-2,-3,0,0,2.75
551,0,-3,0,-2,-1,-1,0,-1,2.755
552,-1,-8,1,6,0,0,0,0,2.7600000000000002
553,-3,-9,-4,1,-1,-1,-2,-3,2.765
554,0,-2,-3,-2,-1,0,0,1,2.77
555,3,0,2,1,-1,0,1,1,2.775
556,4,3,1,-3,-1,0,1,1,2.7800000000000002
557,1,-4,-3,-5,-2,0,-1,-1,2.785
558,-4,-6,2,2,0,1,-2,0,2.79
559,-2,-6,-1,-2,-2,-1,-1,-1,2.795
560,-1,-6,-4,-2,0,0,0,0,2.8000000000000003
561,0,-2,1,-1,0,-2,-2,-1,2.805
562,0,7,1,-1,0,2,0,1,2.81
563,-6,5,-3,-2,-2,-1,-3,-2,2.815
564,1,6,-1,-1,-1,0,1,-1,2.82
565,-5,1,-6,-2,-2,-2,-2,-3,2.825
566,-5,3,2,-7,-2,-2,-2,-3,2.83
567,0,1,0,1,1,-1,0,0,2.835
568,1,3,1,-2,0,-2,-1,-1,2.84
569,1,2,3,-9,-7,-2,-3,-2,2.845
570,0,-6,6,8,1,1,0,-2,2.85
571,-1,-4,-7,-3,-2,-1,-3,-2,2.855
572,-4,-3,-5,-4,-2,-2,0,-1,2.86
573,3,2,4,3,2,-1,-2,1,2.865
574,1,-2,-2,-4,-1,-2,-1,0,2.87
575,3,4,1,1,0,0,1,-1,2.875
576,-1,-2,-1,2,0,-1,-1,0,2.88
577,1,1,1,0,0,0,1,0,2.8850000000000002
578,-2,1,2,-5,-4,0,-3,0,2.89
579,-4,-4,-5,3,1,1,0,-1,2.895
580,3,3,-2,5,-2,-1,0,0,2.9
581,0,0,-4,5,2,1,1,0,2.9050000000000002
582,3,0,0,-2,-1,-2,-2,-1,2.91
583,3,2,2,-3,-3,-1,0,0,2.915
584,-2,-3,-1,-4,0,0,0,-3,2.92
585,-2,-1,2,4,0,-2,1,0,2.9250000000000003
586,1,-5,-4,2,-2,-1,-2,-2,2.93
587,-3,-3,-5,-2,0,-2,-2,-1,2.935
588,2,2,1,0,-1,-2,-1,-1,2.94
589,-1,2,1,-2,-1,-1,0,-2,2.945
590,-2,-2,-1,-3,-1,-1,-1,-1,2.95
591,1,1,4,5,1,1,-1,0,2.955
592,0,1,1,3,-1,-1,0,-1,2.96
593,1,-3,-10,-6,-1,-1,1,1,2.965
594,-1,0,-6,5,-1,-1,-1,-2,2.97
595,-2,-3,-1,2,1,0,1,0,2.975
596,-3,-4,0,-3,-2,-1,-1,-3,2.98
597,2,0,1,-1,0,0,-2,1,2.985
598,-8,-5,-4,1,0,-2,-1,-3,2.99
599,-2,-4,-2,1,-1,1,-1,-1,2.995
600,-1,-8,0,1,0,0,-2,-1,3.0
601,-1,-2,0,-6,-4,-2,-2,0,3.005
602,1,-2,0,-2,-1,1,2,1,3.0100000000000002
603,4,2,2,-1,-1,-2,-1,0,3.015
604,-1,-2,-1,0,-1,1,0,0,3.02
605,-1,-4,-2,-1,0,-1,-1,-1,3.025
606,-1,-1,2,-1,0,-1,1,1,3.0300000000000002
607,-7,-6,-5,-5,-5,-3,-2,-3,3.035
608,-5,1,2,-1,-1,-1,-2,0,3.04
609,-1,3,0,1,0,0,-2,-1,3.045
610,0,-1,0,-3,0,-1,0,0,3.0500000000000003
611,-3,-6,-1,-4,-1,1,1,-1,3.055
612,3,-3,-1,-3,2,0,1,-1,3.06
613,-5,-5,-2,3,0,0,0,-2,3.065
614,0,-1,0,-2,-2,0,-1,-1,3.0700000000000003
615,2,4,4,1,-2,-1,1,1,3.075
616,2,5,-11,-5,-3,-1,-2,-2,3.08
617,-2,1,-1,-2,-3,0,1,-1,3.085
618,0,0,-4,-4,-1,-2,-3,0,3.09
619,-2,0,-1,-5,-2,-2,-2,-2,3.095
620,5,-1,1,1,-2,-1,-1,2,3.1
621,-2,0,-12,1,1,0,0,0,3.105
622,0,2,1,-1,-1,-1,0,-1,3.11
623,-2,2,-1,0,1,0,-1,-1,3.115
624,-2,0,3,-3,-1,0,0,-1,3.12
625,0,-4,3,-2,0,1,0,-1,3.125
626,-1,2,0,-2,0,0,-1,-1,3.13
627,4,3,3,-2,-2,-1,-2,0,3.1350000000000002
628,-1,-1,2,4,1,-1,0,0,3.14
629,4,2,3,-6,-4,-3,-2,-1,3.145
630,-2,2,1,9,3,-2,1,-1,3.15
631,-1,0,-1,-6,-1,-2,0,0,3.1550000000000002
632,-7,-3,-6,9,0,0,-2,-1,3.16
633,-1,0,1,-3,-1,-1,-1,-2,3.165
634,1,-4,0,-12,-6,0,-1,0,3.17
635,-2,-16,-2,22,5,0,0,-1,3.1750000000000003
636,0,-10,2,-1,-2,-1,-1,0,3.18
637,4,-4,-5,-1,0,-1,0,0,3.185
638,1,1,-6,-7,-3,-2,-1,-3,3.19
639,1,6,2,-4,0,1,0,1,3.1950000000000003
640,1,6,10,-8,-4,0,-2,0,3.2
641,-4,-1,-5,19,6,0,-2,-2,3.205
642,0,3,0,-1,-3,-1,-3,-1,3.21
643,2,5,-3,-5,0,0,-2,-2,3.215
644,-3,1,-5,-5,-1,-1,0,1,3.22
645,-2,-1,4,-5,-2,1,-1,-1,3.225
646,-2,-3,-1,0,0,-2,-1,-3,3.23
647,0,0,1,7,-1,0,0,-1,3.235
648,-1,-3,-2,-6,-4,-3,-1,-1,3.24
649,0,-1,0,-1,-2,-1,-2,0,3.245
650,-3,-4,-3,6,-1,-1,-1,-1,3.25
651,-2,-1,3,-6,-4,-2,-1,0,3.255
652,0,2,-3,1,1,1,0,-1,3.2600000000000002
653,1,2,3,-4,-4,-2,-1,0,3.265
654,-1,-1,-1,2,2,-1,-1,0,3.27
655,1,1,-1,-4,-1,-2,-3,-1,3.275
656,-1,-2,3,0,1,-3,1,1,3.2800000000000002
657,-1,-1,-10,-2,0,-1,0,1,3.285
658,0,-1,3,-6,0,0,-1,-1,3.29
659,-3,-2,-10,8,2,1,-1,-1,3.295
660,-2,-2,-4,-2,0,0,0,-1,3.3000000000000003
661,-1,-1,2,-2,-1,-1,-1,-2,3.305
662,-10,-8,0,-8,-4,-2,-2,-3,3.31
663,-4,1,-1,-9,-4,-2,-1,-2,3.315
664,2,0,-3,2,0,1,-2,1,3.3200000000000003
665,-2,-1,-2,-4,-2,-1,-2,-1,3.325
666,2,1,-2,4,0,-1,-1,1,3.33
667,-1,-2,6,3,-1,0,-1,-1,3.335
668,-1,-2,-1,0,-1,-3,-1,-2,3.34
669,0,3,-5,-4,-1,-1,-2,-2,3.345
670,0,-3,-3,-6,0,0,0,1,3.35
671,-5,-2,-2,2,-1,-1,-2,-1,3.355
672,-1,2,-3,-2,-1,0,-1,-2,3.36
673,-5,-7,-1,-5,0,-1,-1,-1,3.365
674,-3,-3,-2,8,2,1,0,-1,3.37
675,3,0,-2,-5,-1,-1,2,0,3.375
676,1,0,3,4,-1,-1,0,-1,3.38
677,1,-1,-2,1,-2,1,0,-1,3.3850000000000002
678,-2,1,2,-4,0,0,0,-1,3.39
679,0,-1,-5,2,2,0,-1,0,3.395
680,-1,0,1,-1,-1,-1,0,-1,3.4
681,1,-1,1,-7,-3,-1,0,1,3.4050000000000002
682,2,0,3,6,0,-1,-1,-1,3.41
683,-2,-1,0,-3,-3,-1,-2,-1,3.415
684,-2,-2,-2,-1,-1,1,-2,-1,3.42
685,3,-1,2,-3,-3,-2,-2,1,3.4250000000000003
686,5,0,-5,5,3,1,0,0,3.43
687,-3,-1,-3,-6,-2,-3,-2,-2,3.435
688,0,0,-1,7,2,0,1,0,3.44
689,-1,-3,6,0,1,1,-1,-1,3.4450000000000003
690,-2,-1,-3,-3,-2,-2,-1,1,3.45
691,2,0,1,4,1,-2,0,-1,3.455
692,1,0,2,-3,-2,0,2,1,3.46
693,-1,-1,5,1,-2,-3,-1,-3,3.465
694,1,2,-3,13,5,1,1,1,3.47
695,-4,-2,-1,-1,0,2,-1,0,3.475
696,-2,-2,-6,-4,-3,-1,-2,-2,3.48
697,-2,-1,4,2,-2,0,0,0,3.485
698,0,-2,0,-9,-4,-2,-3,-2,3.49
699,-1,-3,-6,-7,-4,-2,0,0,3.495
700,-5,-3,0,4,3,0,-1,-1,3.5
701,-4,-4,-5,-3,-1,0,0,0,3.505
702,1,1,1,-5,-2,-1,0,-1,3.5100000000000002
703,2,1,3,9,1,0,1,0,3.515
704,2,-1,-2,-2,0,-1,0,0,3.52
705,-2,0,-1,4,0,-2,0,-2,3.525
706,-2,-3,0,-5,-1,0,1,-1,3.5300000000000002
707,0,0,0,-5,0,-1,-2,-1,3.535
708,-1,0,0,2,-3,-2,-2,-1,3.54
709,2,3,-3,0,-1,-1,0,-1,3.545
710,-3,-1,-2,-3,-4,0,0,-2,3.5500000000000003
711,0,-3,0,-4,-1,-2,0,-1,3.555
712,-1,1,-2,-5,-2,-2,-2,-1,3.56
713,3,0,4,8,2,-1,-1,-1,3.565
714,-5,0,-8,-4,-1,-2,-3,-2,3.5700000000000003
715,1,2,-1,-3,-2,-1,-2,-1,3.575
716,1,-2,-3,-1,0,0,-2,-2,3.58
717,-1,-2,-1,-2,0,1,0,2,3.585
718,0,0,-2,-7,-2,-1,-3,-1,3.59
719,0,-1,5,2,-2,-1,0,-1,3.595
720,-1,-1,-10,-1,2,1,-1,-1,3.6
721,-1,1,-1,-5,-3,-1,-1,-1,3.605
722,3,0,8,6,2,0,1,-1,3.61
723,-7,-2,-6,4,3,-1,-2,-3,3.615
724,0,3,4,-1,-3,-2,1,-1,3.62
725,-3,-3,-2,-3,-2,-2,-1,-1,3.625
726,-2,-5,-5,-1,1,-1,-1,-3,3.63
727,0,1,5,1,0,-1,-2,-1,3.6350000000000002
728,-2,-2,4,6,2,-1,-1,-1,3.64
729,1,-1,-2,2,-3,0,1,0,3.645
730,3,2,1,-6,-2,-2,0,1,3.65
731,-2,-2,-6,2,1,-1,-1,-2,3.6550000000000002
732,-5,-5,-5,-9,-3,-2,-1,-2,3.66
733,-2,-3,-1,2,2,0,-1,-1,3.665
734,-1,2,4,0,-3,0,-1,0,3.67
735,1,-1,2,2,2,1,1,-1,3.6750000000000003
736,-1,0,-10,-15,-5,-3,-2,-2,3.68
737,2,0,0,0,2,-1,0,-1,3.685
738,-6,-2,-1,8,0,-1,-1,-1,3.69
739,2,0,-4,-3,-1,0,-1,1,3.6950000000000003
740,2,2,8,1,-1,-2,0,0,3.7
741,1,-3,-6,-8,-2,-2,-1,-1,3.705
742,1,-4,-2,-6,-3,-1,-2,0,3.71
743,0,-2,6,2,-3,-1,-2,0,3.715
744,-1,-3,-9,-2,0,-1,-2,0,3.72
745,-5,-1,-4,1,1,-1,0,-2,3.725
746,-3,-4,-4,-1,0,-1,0,-1,3.73
747,-1,-3,-4,-7,-3,-1,0,-1,3.735
748,-1,-1,3,1,0,1,0,1,3.74
749,1,3,2,-3,-1,-2,0,-2,3.745
750,-1,-1,11,2,-1,-3,2,-1,3.75
751,-1,-1,-9,1,0,2,1,0,3.755
752,1,1,1,-2,-3,1,0,1,3.7600000000000002
753,-3,0,2,4,-1,-1,-3,0,3.765
754,-1,-2,-4,-2,-2,-4,-2,-2,3.77
755,3,2,2,-1,-2,-1,1,0,3.775
756,-1,0,1,1,-1,-2,-2,-3,3.7800000000000002
757,-3,-2,-6,-8,-4,-1,-1,-1,3.785
758,2,0,2,-1,-1,1,-1,2,3.79
759,-2,-2,-2,1,0,-1,0,0,3.795
760,2,0,4,-3,-2,-4,-2,-2,3.8000000000000003
761,0,-1,-2,5,1,0,-1,0,3.805
762,-3,-2,-2,-2,-1,-1,-1,-3,3.81
763,-1,-2,0,-5,-1,1,0,0,3.815
764,2,1,1,3,1,0,1,-1,3.8200000000000003
765,-9,-5,0,-1,-2,0,-1,-3,3.825
766,0,5,-3,-1,0,0,0,1,3.83
767,2,2,1,-14,-6,-2,-1,-1,3.835
768,-2,-3,4,22,6,2,0,-1,3.84
769,-1,-1,-1,2,3,0,0,1,3.845
770,1,-2,-9,1,0,0,0,1,3.85
771,-4,0,1,-1,-1,-2,0,-1,3.855
772,1,0,-3,-6,-2,-2,-2,0,3.86
773,3,-1,3,0,-1,0,0,0,3.865
774,-1,3,1,1,1,0,2,0,3.87
775,-2,0,1,-3,0,-2,-2,-1,3.875
776,-1,1,-1,-1,-1,0,0,-1,3.88
777,3,2,2,1,-2,-2,-1,1,3.8850000000000002
778,-1,-2,-2,-7,-5,-3,-3,-1,3.89
779,-1,0,-4,7,4,1,2,-1,3.895
780,-5,-3,-5,2,0,0,-3,0,3.9
781,1,-1,-1,-6,-2,-1,-2,1,3.9050000000000002
782,0,-5,0,0,-2,1,-1,-1,3.91
783,3,1,2,2,0,-2,-1,0,3.915
784,1,0,-7,4,0,-1,0,-1,3.92
785,0,3,1,-4,-2,0,-1,0,3.9250000000000003
786,1,-1,-4,-2,-1,-1,-1,-1,3.93
787,-3,-2,-3,1,1,0,-2,-1,3.935
788,-3,-1,4,-10,-4,-2,0,-3,3.94
789,-4,-2,-3,0,-2,-1,-2,-2,3.9450000000000003
790,-3,1,-1,-2,1,-3,0,-1,3.95
791,1,0,-7,0,0,0,-1,-1,3.955
792,-4,-2,-4,-1,-1,-3,-2,-5,3.96
793,-1,1,2,-3,-1,-1,2,-1,3.9650000000000003
794,1,1,3,-6,-4,-1,-2,-2,3.97
795,3,2,-5,17,9,2,2,1,3.975
796,1,0,1,-5,-3,-1,-1,2,3.98
797,-5,-5,-7,4,-1,-2,0,-4,3.985
798,-1,-1,2,0,-2,-2,0,-1,3.99
799,-1,-1,4,-6,-4,0,1,-1,3.995
800,1,-1,-4,-6,-1,0,0,-1,4.0
801,0,-1,-1,-1,-1,-1,0,-2,4.005
802,1,-1,1,-2,-1,1,0,-1,4.01
803,-2,-3,-4,-2,-1,-3,-2,-1,4.015
804,-7,-6,-2,1,1,2,-1,-2,4.0200000000000005
805,2,1,-1,-2,-2,-1,-1,1,4.025
806,-2,-1,1,-3,1,0,-1,-1,4.03
807,-1,-4,0,-1,-4,-3,-3,-3,4.035
808,-1,2,-6,5,2,0,-1,0,4.04
809,3,1,-2,-2,-1,-2,-1,0,4.045
810,-1,-4,1,1,-2,-1,-2,1,4.05
811,-1,-4,0,6,1,0,-1,0,4.055
812,6,1,1,-5,-3,-1,-2,1,4.0600000000000005
813,-6,-4,-1,-1,-1,-1,-2,-3,4.065
814,1,0,-3,-1,1,1,0,0,4.07
815,3,3,6,-6,-2,-2,-1,-1,4.075
816,-3,-4,-1,-1,-1,-2,1,-2,4.08
817,0,-1,-3,-5,-3,-2,-3,-2,4.085
818,1,-1,1,9,0,-1,0,-1,4.09
819,-2,-1,-2,-3,0,0,0,0,4.095
820,0,-1,2,5,1,-1,1,2,4.1
821,2,-1,-3,-3,-1,-2,0,1,4.105
822,-1,3,-1,2,-1,0,2,-2,4.11
823,-1,-3,-1,-4,-3,-1,-2,-2,4.115
824,0,-2,0,-3,-3,-1,0,1,4.12
825,-2,-3,5,2,1,1,0,0,4.125
826,-1,0,-2,2,2,1,0,0,4.13
827,-2,0,-11,-8,-2,0,0,-1,4.135
828,1,2,3,-2,-2,0,0,-2,4.14
829,-2,-1,-3,-2,-1,-1,-1,-1,4.1450000000000005
830,0,-1,4,-2,0,-1,-1,-1,4.15
831,-1,-1,7,2,-2,-3,-2,-2,4.155
832,-5,-5,-16,-7,0,-1,-1,1,4.16
833,3,0,4,3,0,1,-1,0,4.165
834,0,0,-3,-2,0,1,-1,1,4.17
835,-1,-2,0,3,-1,-1,0,0,4.175
836,4,3,4,1,-1,-1,-2,-2,4.18
837,-2,0,-2,1,-1,0,0,-1,4.1850000000000005
838,-2,-3,-3,-1,0,0,-1,-1,4.19
839,-6,-3,-1,-3,-3,-3,-1,-2,4.195
840,0,-1,2,2,-1,-2,0,-1,4.2
841,-2,-2,0,1,0,0,-1,0,4.205
842,3,0,0,-2,-3,-2,-2,0,4.21
843,-4,-3,-5,-6,-4,-2,-2,-2,4.215
844,-1,-1,1,-3,0,0,0,-1,4.22
845,0,-1,1,4,0,-2,0,-1,4.225
846,-3,1,-3,-4,-1,-2,-1,-2,4.23
847,2,1,6,9,3,3,4,2,4.235
848,-1,2,2,-1,0,0,-1,-1,4.24
849,-2,-4,1,-11,-2,-1,0,1,4.245
850,-6,-5,-11,-2,0,-4,-3,-2,4.25
851,0,0,-1,1,-2,0,0,1,4.255
852,-1,-4,0,-3,-1,-1,-1,-1,4.26
853,4,1,0,1,0,-1,0,-1,4.265
854,-1,0,2,-7,-2,-1,-1,-2,4.2700000000000005
855,0,3,-1,-5,-2,-1,-2,-1,4.275
856,-2,-1,-4,0,1,-1,-1,0,4.28
857,1,1,-2,-2,-2,-1,-1,-1,4.285
858,2,0,0,1,-1,0,-2,1,4.29
859,1,-1,-4,-6,0,-4,-1,0,4.295
860,2,1,3,-1,-2,-2,-1,-2,4.3
861,-5,0,-3,-3,-1,-2,-2,-2,4.305
862,1,1,-3,3,-1,0,0,0,4.3100000000000005
863,1,1,0,-2,2,2,-1,1,4.315
864,4,3,0,-1,-2,0,0,0,4.32
865,-3,0,-2,-1,-1,-1,-1,-2,4.325
866,-6,-6,-2,3,0,-1,-2,-3,4.33
867,0,-2,1,-6,-4,-2,-1,-1,4.335
868,-1,-4,2,5,2,-2,2,-1,4.34
869,-1,-2,-4,-3,1,-1,0,0,4.345
870,0,1,4,3,1,0,3,1,4.3500000000000005
871,1,-2,3,-3,-3,-2,-1,0,4.355
872,-3,-2,-10,1,0,-2,-1,-1,4.36
873,2,-2,-3,1,-1,-1,-2,-1,4.365
874,-4,-2,-3,-7,-3,-1,-2,-3,4.37
875,-4,-4,3,1,-1,1,0,-1,4.375
876,-2,-2,1,-2,-2,-1,-2,-4,4.38
877,4,4,-1,1,0,1,-1,0,4.385
878,-1,-1,6,1,-2,-1,-2,0,4.39
879,2,1,0,-1,-2,0,0,0,4.3950000000000005
880,-1,-4,-5,-6,-2,0,-1,0,4.4
881,-1,-2,-3,-7,-5,-2,0,-2,4.405
882,4,2,-1,13,5,0,2,0,4.41
883,1,2,-3,2,0,-1,-1,-1,4.415
884,-3,-2,0,2,-1,1,1,0,4.42
885,-3,-2,0,-7,-3,1,0,-1,4.425
886,1,-1,0,-5,-3,-3,-1,1,4.43
887,-1,-3,-2,10,1,0,-1,0,4.4350000000000005
888,-4,-2,-2,-3,-4,-1,-3,-2,4.44
889,-2,-2,1,5,0,0,0,-1,4.445
890,0,-1,0,-2,-1,-1,0,0,4.45
891,-1,0,-6,-4,-1,-1,1,-1,4.455
892,-7,-5,3,1,-1,-2,-2,-2,4.46
893,-3,1,11,8,0,-1,0,0,4.465
894,0,-2,-7,1,-2,-1,-2,-1,4.47
895,1,-1,2,-4,-1,0,-1,0,4.4750000000000005
896,0,0,-3,-3,0,-1,1,0,4.48
897,-3,-1,0,4,2,-1,-1,-2,4.485
898,-1,-3,1,2,0,-1,0,-2,4.49
899,-2,2,-1,-5,-2,-2,-2,-3,4.495
900,7,0,-3,-3,1,0,-2,1,4.5
901,-1,-2,-1,7,-2,-1,-3,-1,4.505
902,-1,1,-3,-9,1,0,0,0,4.51
903,-5,-3,3,12,3,0,-2,-1,4.515
904,1,1,7,5,1,0,1,0,4.5200000000000005
905,1,-2,-4,-4,-2,-1,1,-1,4.525
906,1,-3,0,-5,-3,-2,-1,2,4.53
907,0,2,1,3,1,-2,0,-1,4.535
908,-2,0,1,-1,-2,0,0,-2,4.54
909,-4,0,-1,2,-1,-3,-2,-3,4.545
910,-3,-1,2,1,-1,0,-1,-2,4.55
911,0,-1,-14,-7,0,-1,-1,0,4.555
912,0,1,-3,-4,-3,-2,-1,-1,4.5600000000000005
913,4,0,-1,-2,0,1,-2,1,4.565
914,1,0,-1,-2,-2,-2,-2,-2,4.57
915,1,1,-1,-4,-2,-2,-2,-1,4.575
916,-2,3,2,0,2,2,1,1,4.58
917,-4,-3,-5,-3,1,0,0,-1,4.585
918,-2,0,-2,0,0,-2,-1,-1,4.59
919,1,-2,1,-4,-2,-1,-1,-1,4.595
920,-1,-3,2,-5,-4,-3,-3,-2,4.6000000000000005
921,1,-2,1,-1,-2,0,0,-1,4.605
922,0,2,-6,-1,1,0,1,0,4.61
923,1,1,0,-4,0,-2,0,-1,4.615
924,-3,0,2,-1,0,-1,0,0,4.62
925,-1,0,0,0,0,0,0,-2,4.625
926,-2,-3,-2,-5,-4,0,-1,-4,4.63
927,1,-1,-1,-1,-2,0,-1,-1,4.635
928,3,-1,0,0,1,-1,-1,-1,4.64
929,-2,-3,-2,3,1,0,0,1,4.6450000000000005
930,-2,-3,-3,-5,-2,-2,-2,-2,4.65
931,-2,-1,5,8,1,-1,1,1,4.655
932,0,1,3,-7,-3,-3,0,-2,4.66
933,2,1,-11,0,1,0,-1,0,4.665
934,-1,-1,-2,2,2,0,0,0,4.67
935,0,0,-5,-4,-1,-1,-1,-3,4.675
936,5,1,3,-1,-3,-2,-2,-2,4.68
937,1,1,6,-6,-5,-2,-2,-2,4.6850000000000005
938,-3,0,1,8,5,0,-1,-1,4.69
939,0,0,-7,-3,-2,0,-2,0,4.695
940,-1,-1,-3,2,1,1,-1,0,4.7
941,-3,-1,-1,-5,-3,0,-2,0,4.705
942,-1,0,3,-2,-2,-3,-1,-1,4.71
943,3,-2,2,-2,1,0,1,1,4.715
944,-8,-5,-5,-1,-1,-2,-3,-4,4.72
945,-1,-2,-2,-2,-3,-1,0,0,4.7250000000000005
946,0,1,3,-2,-2,-1,-2,-1,4.73
947,-3,-1,-3,2,1,0,-1,0,4.735
948,1,0,-3,-1,-2,-1,1,0,4.74
949,-1,-1,-1,2,2,-3,-2,-2,4.745
950,0,1,3,2,0,3,1,0,4.75
951,-1,-2,0,-3,-3,0,-1,-2,4.755
952,1,1,-4,-3,-2,-1,-1,0,4.76
953,0,-2,0,-1,-1,-1,0,0,4.765
954,0,2,-2,0,-1,-1,-1,-1,4.7700000000000005
955,-9,-4,3,-1,-1,0,-1,0,4.775
956,0,-3,-3,-2,-2,-2,0,-1,4.78
957,2,0,1,9,4,1,1,2,4.785
958,0,-4,-1,-1,-3,-3,0,0,4.79
959,2,2,0,-1,-1,-2,-1,0,4.795
960,0,0,-2,-4,-2,0,-3,1,4.8
961,-1,0,1,6,2,1,1,-1,4.805
962,-5,-5,-3,-1,-2,-2,-2,-1,4.8100000000000005
963,2,2,1,-2,-2,-1,-1,0,4.815
964,-1,-2,1,-3,0,1,0,0,4.82
965,0,-2,-1,10,0,-1,-1,-1,4.825
966,3,4,4,6,0,0,0,-1,4.83
967,-2,-4,-3,-4,-1,-3,-1,-4,4.835
968,-7,-2,1,0,0,0,1,0,4.84
969,-4,1,0,-8,-3,-2,-1,-1,4.845
970,-2,-2,-7,-3,0,0,0,0,4.8500000000000005
971,3,0,3,2,-2,0,1,0,4.855
972,0,-1,-11,-1,-2,-3,-2,-1,4.86
973,-1,0,3,-4,1,-1,0,0,4.865
974,-2,0,-6,-6,-2,-2,-1,-2,4.87
975,-1,2,2,-5,-2,-3,0,-1,4.875
976,1,-2,2,4,-1,-1,-2,-1,4.88
977,0,-1,-5,0,-1,0,-2,1,4.885
978,-1,0,1,-2,-3,-1,-2,-1,4.89
979,-1,1,2,1,0,0,0,1,4.8950000000000005
980,-1,-2,1,3,1,0,-1,-2,4.9
981,2,2,-3,-4,0,-1,1,0,4.905
982,-1,-3,-3,-1,1,0,0,-1,4.91
983,2,2,-1,-3,-2,0,0,0,4.915
984,-6,1,-1,1,-1,-1,1,-2,4.92
985,3,1,1,-4,-3,-1,0,0,4.925
986,3,1,7,-3,-2,-1,-1,2,4.93
987,-5,-3,-9,0,-2,-1,-2,0,4.9350000000000005
988,2,-1,-2,-2,-1,0,-1,0,4.94
989,-1,-3,-1,-1,-1,-2,-3,-1,4.945
990,-5,0,-2,-2,0,0,-2,-2,4.95
991,-2,-5,0,-3,1,-1,-1,-1,4.955
992,2,1,2,3,2,0,-1,-1,4.96
993,-1,-3,-2,-5,-3,-2,-1,-1,4.965
994,1,-1,0,3,0,1,0,2,4.97
995,1,5,-3,0,0,2,-1,-1,4.9750000000000005
996,-1,4,-1,2,0,1,0,-1,4.98
997,-8,-8,-9,-10,-3,-2,-2,-3,4.985
998,-1,-1,-2,4,1,-1,-1,-2,4.99
999,4,4,4,-1,-1,-2,2,0,4.995
1000,-2,0,-5,-1,-2,-3,2,0,5.0
1001,0,-2,1,2,0,0,-1,0,5.005
1002,1,-2,1,-3,0,0,0,1,5.01
1003,-4,-5,-7,-5,-3,-2,-2,-3,5.015
1004,0,-4,1,-8,-3,-2,-2,0,5.0200000000000005
1005,0,1,2,2,1,1,0,-1,5.025
1006,-2,-1,1,0,-5,-2,-1,-2,5.03
1007,-5,-1,-2,12,4,2,-1,0,5.035
1008,2,-1,2,2,0,1,-1,-2,5.04
1009,-2,0,5,-4,-2,-1,-1,-2,5.045
1010,-1,2,-5,-5,-1,-1,0,-2,5.05
1011,-1,1,3,-7,-1,-3,1,-1,5.055
1012,-1,-3,-2,2,0,-3,1,-2,5.0600000000000005
1013,2,2,-4,-1,0,-3,-1,1,5.065
1014,-1,1,4,-1,-2,-3,-1,-2,5.07
1015,-3,-3,-4,-1,0,-1,0,-2,5.075
1016,4,-1,-1,4,0,0,0,1,5.08
1017,1,4,7,-1,-2,-2,-2,-1,5.085
1018,-1,-3,-12,1,1,1,-1,0,5.09
1019,-2,0,1,-3,-3,-3,-4,-2,5.095
1020,-3,3,-1,-8,0,-1,-1,-2,5.1000000000000005
1021,-1,1,-1,12,3,0,0,1,5.105
1022,-2,-1,0,-5,0,0,0,0,5.11
1023,0,-3,-1,0,-2,-1,1,-1,5.115
1024,0,-3,-4,1,-1,-1,0,0,5.12
1025,-5,-3,-4,-6,-3,-1,-2,-1,5.125
1026,0,1,-1,-1,1,-1,0,1,5.13
1027,0,-5,1,-1,-2,1,-1,1,5.135
1028,1,-1,-1,-2,0,1,-1,0,5.14
1029,0,-2,-2,-4,-1,0,1,-2,5.1450000000000005
1030,2,1,4,-1,-2,1,0,1,5.15
1031,-2,0,-11,-5,-1,0,-1,0,5.155
1032,-1,0,-2,-1,-2,-2,0,-1,5.16
1033,4,-2,0,7,2,-1,0,1,5.165
1034,-3,-3,0,-5,-2,-1,-1,-1,5.17
1035,0,3,6,0,-3,-1,0,0,5.175
1036,-2,-1,-8,15,4,0,-1,-1,5.18
1037,0,2,1,-3,-2,-3,-2,-2,5.1850000000000005
1038,-2,-3,-12,-4,-1,0,0,-1,5.19
1039,0,-2,1,-3,-2,-1,-3,-1,5.195
1040,1,1,3,-5,-2,-1,-2,-1,5.2
1041,-2,-1,-2,-5,0,0,-1,0,5.205
1042,-2,0,4,8,1,-2,-2,-1,5.21
1043,0,1,-1,-1,-1,-1,-1,-2,5.215
1044,1,2,4,3,-2,1,0,0,5.22
1045,-1,0,-2,1,0,-2,-1,-1,5.2250000000000005
1046,0,-2,-1,-5,-2,0,-1,0,5.23
1047,-5,-2,-3,2,-1,0,-2,-3,5.235
1048,-3,-4,1,-4,-3,-1,-1,1,5.24
1049,0,-2,-6,-6,-2,0,0,-1,5.245
1050,2,2,0,2,-1,-1,-1,0,5.25
1051,-2,0,-2,2,0,-1,-1,-1,5.255
1052,-1,0,-1,-7,-3,-2,-2,-2,5.26
1053,-1,0,2,-1,-1,0,0,0,5.265
1054,-3,-3,-1,5,-1,0,1,-2,5.2700000000000005
1055,4,4,2,-1,0,0,2,1,5.275
1056,0,1,3,0,-1,-1,2,-1,5.28
1057,-3,-5,-15,-11,-2,-1,-2,-1,5.285
1058,-1,-2,3,3,0,-1,-1,-2,5.29
1059,2,0,0,-3,-1,-1,0,-1,5.295
1060,1,-2,0,0,-1,-1,-2,0,5.3
1061,1,0,3,1,-2,0,0,1,5.305
1062,1,-1,-9,2,-1,-1,-2,-2,5.3100000000000005
1063,1,-1,4,1,2,1,0,1,5.315
1064,1,0,-1,-6,1,0,-1,1,5.32
1065,1,0,7,10,-1,-1,-1,-2,5.325
1066,0,-2,0,1,1,0,-1,-1,5.33
1067,-1,2,0,-1,-1,0,-1,0,5.335
1068,-2,-2,-3,-4,-4,-2,-2,-1,5.34
1069,-2,0,-1,-2,-2,1,0,0,5.345
1070,1,1,-4,3,1,-2,2,0,5.3500000000000005
1071,0,-2,-2,3,-1,-1,-2,-1,5.355
1072,-1,-2,-2,-5,0,-2,-2,0,5.36
1073,-3,-2,0,0,-2,-1,-2,-2,5.365
1074,4,2,-2,-6,-2,-2,-1,0,5.37
1075,0,-2,-2,0,0,0,0,0,5.375
1076,-1,0,1,1,-1,0,0,-2,5.38
1077,2,2,1,-2,-2,-4,1,-1,5.385
1078,0,0,1,-7,-2,-1,0,-2,5.39
1079,-3,-2,-5,2,1,0,-1,-1,5.3950000000000005
1080,-1,0,-2,-3,-2,-1,-1,-3,5.4
1081,-1,-1,-3,4,1,-3,-2,-3,5.405
1082,0,3,5,-6,-3,-2,-3,-1,5.41
1083,1,1,5,-6,-2,-2,0,1,5.415
1084,-4,-1,-11,15,4,0,-1,0,5.42
1085,-2,-1,1,-6,-3,-1,-2,0,5.425
1086,0,-1,0,-4,-3,-2,0,0,5.43
1087,1,-1,0,6,-1,-2,-3,-2,5.4350000000000005
1088,-1,0,1,-6,-3,1,-1,1,5.44
1089,-2,0,-1,1,2,-1,1,0,5.445
1090,-4,-3,0,-2,-2,-1,-2,-1,5.45
1091,2,1,0,2,-2,-2,-1,0,5.455
1092,-1,-3,3,0,0,-1,1,-1,5.46
1093,0,0,-5,-6,0,-1,-2,-1,5.465
1094,1,-6,1,-2,-2,1,-1,-1,5.47
1095,-5,-3,-5,-1,1,0,0,-2,5.4750000000000005
1096,3,0,3,4,1,1,0,0,5.48
1097,-3,-1,-2,-3,-2,-3,-1,-1,5.485
1098,-3,2,-1,-3,0,-1,-1,0,5.49
1099,-1,1,1,-1,0,-1,1,0,5.495
1100,1,2,1,4,0,1,-1,-1,5.5
1101,-1,-4,0,-10,-3,-1,-1,-1,5.505
1102,-7,-1,-2,10,2,-2,0,-1,5.51
1103,-1,-1,-2,-4,-2,-2,-1,-2,5.515
1104,0,0,3,-2,-2,-1,0,-1,5.5200000000000005
1105,3,-1,-5,5,0,0,0,0,5.525
1106,-4,-2,-8,-4,-4,-1,-1,-1,5.53
1107,-5,1,-4,-17,-4,0,-1,-1,5.535
1108,2,1,7,5,-1,1,-1,1,5.54
1109,0,-1,1,5,-1,0,0,-1,5.545
1110,-1,0,-5,4,-2,0,-1,-1,5.55
1111,-1,-1,2,8,1,-1,-2,0,5.555
1112,1,0,-3,-8,-3,-2,-2,0,5.5600000000000005
1113,-1,0,3,-3,-2,0,0,1,5.565
1114,1,2,1,-4,1,0,0,0,5.57
1115,-1,0,2,7,2,0,1,0,5.575
1116,-2,-1,-2,-4,-2,-3,-1,-1,5.58
1117,-3,-2,-1,1,-1,0,-1,-1,5.585
1118,-2,1,1,-6,-2,0,-3,-1,5.59
1119,-2,-5,-2,-3,-3,-1,-2,0,5.595
1120,-4,-3,-4,-5,-2,-2,-1,-3,5.6000000000000005
1121,1,0,5,9,3,2,0,2,5.605
1122,1,0,-1,1,2,0,0,-1,5.61
1123,-7,-5,-4,0,-1,-1,1,-3,5.615
1124,3,-2,0,2,1,0,0,0,5.62
1125,-3,1,-1,-2,-2,0,-1,-2,5.625
1126,2,0,-1,-4,-1,0,-1,0,5.63
1127,-2,-3,-1,-2,-1,-3,-1,-2,5.635
1128,1,2,8,3,0,0,1,0,5.64
1129,1,0,-11,-5,-3,-1,-2,-2,5.6450000000000005
1130,3,-1,-2,-3,1,-1,1,0,5.65
1131,3,2,4,6,0,1,-2,-1,5.655
1132,-4,-1,-4,-3,-2,0,-1,-1,5.66
1133,-1,-1,5,-4,0,0,0,0,5.665
1134,0,1,2,10,2,-1,-1,-2,5.67
1135,0,1,-5,-5,-4,-1,-3,-2,5.675
1136,-2,-1,1,2,2,-1,-2,0,5.68
1137,1,-1,-1,-1,-1,-1,-1,-1,5.6850000000000005
1138,0,2,0,-4,-2,-1,0,-1,5.69
1139,-1,-2,-2,-5,-2,-1,-1,-1,5.695
1140,-4,-2,-4,-1,-2,-2,-2,-2,5.7
1141,-5,-6,-3,-4,-3,-2,-1,-3,5.705
1142,3,0,3,5,-1,0,0,-1,5.71
1143,-1,-1,-1,0,-1,1,1,0,5.715
1144,0,1,-4,-5,-1,-1,-1,-1,5.72
1145,-3,-3,-4,-2,-1,-1,-2,0,5.7250000000000005
1146,-3,-1,0,-1,-3,1,-2,1,5.73
1147,0,-2,-4,-10,-3,-2,0,-2,5.735
1148,3,0,6,6,-2,-2,0,0,5.74
1149,0,0,-2,2,3,1,0,1,5.745
1150,0,0,-5,-6,-3,0,0,0,5.75
1151,1,1,-1,-3,0,-1,-1,-1,5.755
1152,-4,0,-5,1,-1,-2,-1,-2,5.76
1153,3,2,1,-2,-2,-3,-1,0,5.765
1154,-5,-1,0,5,-1,-2,0,-1,5.7700000000000005
1155,0,-1,-2,-4,-1,-1,0,2,5.775
1156,-3,-4,-2,-4,-1,-1,-2,-2,5.78
1157,0,2,0,0,-1,0,-1,0,5.785
1158,1,-3,-3,-8,-3,-1,-3,-3,5.79
1159,1,2,2,4,0,-1,-2,-1,5.795
1160,0,-2,-8,-4,-2,0,-1,-2,5.8
1161,-1,0,-2,1,-1,0,0,-1,5.805
1162,-2,0,0,-3,0,-1,-1,-1,5.8100000000000005
1163,0,-1,-3,3,0,0,0,-2,5.815
1164,-5,-3,-4,-7,0,0,0,-1,5.82
1165,0,1,-3,4,1,-1,0,0,5.825
1166,0,-2,3,1,1,-1,-2,2,5.83
1167,-1,-1,0,-1,1,-1,-2,1,5.835
1168,-6,-2,-3,-4,-3,-1,0,-3,5.84
1169,-5,-6,1,1,0,-1,0,-3,5.845
1170,0,1,-2,-2,-2,0,1,-2,5.8500000000000005
1171,0,0,-4,-1,-2,-1,0,-2,5.855
1172,1,-3,-3,-4,0,-2,-2,0,5.86
1173,1,0,3,14,1,0,-1,1,5.865
1174,1,-1,-1,-3,-1,-1,0,1,5.87
1175,1,1,-3,2,2,-1,-1,0,5.875
1176,0,-3,-3,3,1,1,0,-2,5.88
1177,-3,-3,-4,-4,1,0,0,-2,5.885
1178,0,1,2,-3,-2,-2,-2,-1,5.89
1179,2,1,10,1,-3,-1,-1,-1,5.8950000000000005
1180,-1,0,4,7,0,-1,-2,-3,5.9
1181,2,-2,-14,-7,-2,0,-2,1,5.905
1182,0,0,-1,-1,0,-1,0,0,5.91
1183,2,1,0,0,0,0,-1,-1,5.915
1184,2,4,3,-1,-1,0,1,-2,5.92
1185,1,-1,5,0,-2,0,0,-2,5.925
1186,-1,-1,1,1,0,-2,-1,-1,5.93
1187,-2,-2,0,-2,-3,0,-2,-1,5.9350000000000005
1188,1,-3,0,-1,-1,-1,-3,1,5.94
1189,0,2,1,-5,-3,-2,-2,-1,5.945
1190,0,0,-3,-1,-1,0,0,0,5.95
1191,-2,1,-1,-1,0,-1,3,0,5.955
1192,1,1,-3,-13,-5,-2,-1,-1,5.96
1193,-4,-4,2,11,2,0,-1,-1,5.965
1194,-2,-4,2,7,1,-1,-3,-2,5.97
1195,3,0,-1,-4,-2,1,-1,-1,5.9750000000000005
1196,0,2,-1,1,0,0,-1,2,5.98
1197,5,2,0,-7,-3,-1,-1,-2,5.985
1198,-1,0,-1,0,0,-1,1,-2,5.99
1199,-1,-2,-2,-6,-2,-1,-1,0,5.995
1200,-2,-3,0,3,2,0,2,-1,6.0
1201,-3,-2,-5,-8,-2,-1,-2,-1,6.005
1202,-2,-1,0,2,-1,-1,0,1,6.01
1203,-2,-1,-4,-5,0,0,-2,-2,6.015000000000001
1204,-1,-2,-3,-7,-4,-1,-2,-2,6.0200000000000005
1205,1,0,1,7,2,0,0,-1,6.025
1206,2,1,6,0,-2,0,0,-2,6.03
1207,0,2,-14,-5,0,0,3,0,6.035
1208,-3,1,2,2,0,-1,-1,-1,6.04
1209,4,2,-1,-3,0,0,0,0,6.045
1210,-3,-3,-3,-10,-2,0,0,0,6.05
1211,2,-1,6,6,-1,-2,-3,0,6.055
1212,0,0,-1,3,3,0,1,1,6.0600000000000005
1213,1,2,-2,-13,-4,-1,1,1,6.065
1214,-2,-1,0,7,0,-3,-1,-1,6.07
1215,-2,1,3,6,-2,-2,-1,-3,6.075
1216,-1,-1,-7,-3,0,-3,-1,-2,6.08
1217,-1,-4,0,-2,-2,-1,-1,-1,6.085
1218,-3,1,-5,-5,-1,2,0,-1,6.09
1219,-1,-2,-2,-4,-1,-2,-1,0,6.095
1220,-1,-2,0,1,-1,-1,0,-2,6.1000000000000005
1221,-2,-1,1,0,1,1,0,-1,6.105
1222,3,2,-3,-5,-3,-1,1,0,6.11
1223,0,-3,0,2,0,1,0,-1,6.115
1224,2,2,2,2,0,-1,0,1,6.12
1225,-3,-2,2,0,-1,-3,-3,-3,6.125
1226,-2,-1,2,-1,0,0,-2,0,6.13
1227,-8,-4,-7,1,1,0,0,0,6.135
1228,1,0,5,-1,-2,0,1,0,6.140000000000001
1229,1,0,-11,0,-1,-3,0,-1,6.1450000000000005
1230,-1,-3,-6,-9,-3,-4,-1,-1,6.15
1231,-1,-2,3,7,-2,-3,0,-1,6.155
1232,1,0,7,4,-2,1,-2,-1,6.16
1233,-4,0,3,11,4,1,0,-2,6.165
1234,-2,-3,1,-1,-1,0,-1,0,6.17
1235,-1,0,-3,-8,-1,-1,-2,-1,6.175
1236,2,-1,-3,-4,-1,0,0,0,6.18
1237,-2,-1,2,-2,-3,-1,0,-1,6.1850000000000005
1238,-5,-3,-6,-5,-2,-1,-1,-2,6.19
1239,1,1,3,3,-2,-4,-1,-1,6.195
1240,0,-2,-5,1,1,0,1,1,6.2
1241,1,1,-3,-2,-2,-1,0,0,6.205
1242,4,1,-2,0,-1,0,1,-1,6.21
1243,-1,0,0,-1,-3,-1,-1,-3,6.215
1244,-3,0,-2,0,0,-2,-1,-1,6.22
1245,2,2,1,-5,-3,0,-1,1,6.2250000000000005
1246,1,0,-1,3,-1,0,0,-1,6.23
1247,-1,-3,-2,3,5,0,1,0,6.235
1248,-1,0,3,0,0,0,-2,-1,6.24
1249,-1,0,-1,-5,-2,-1,-2,-2,6.245
1250,-3,-2,1,2,-1,-3,1,-1,6.25
1251,-2,-3,-8,-5,1,1,-1,0,6.255
1252,1,-2,-3,-6,-3,-1,1,-1,6.26
1253,-2,-2,2,-2,0,-1,0,-1,6.265000000000001
1254,-3,-1,-2,0,1,-1,-1,-1,6.2700000000000005
1255,-1,2,2,1,-1,-2,-2,-1,6.275
1256,0,-2,-4,2,0,0,-1,-1,6.28
1257,-6,-5,0,-3,-4,-2,-3,-2,6.285
1258,-1,0,0,0,-3,-1,0,1,6.29
1259,3,1,1,4,1,-1,0,3,6.295
1260,2,1,3,2,0,1,1,2,6.3
1261,0,-2,0,-4,-3,-3,1,0,6.305
1262,-2,-1,-2,8,2,0,-2,-2,6.3100000000000005
1263,3,2,0,-6,-2,0,-1,-1,6.315
1264,-6,-6,-3,-2,-2,-3,-1,-3,6.32
1265,1,-1,-3,-3,0,0,-2,-1,6.325
1266,0,2,2,0,3,0,-1,0,6.33
1267,-4,-4,1,4,-2,0,-1,-1,6.335
1268,-5,-3,-3,3,0,-2,-1,0,6.34
1269,0,0,-2,-2,-2,-2,-1,-1,6.345
1270,0,0,-2,-2,-1,-3,-2,-1,6.3500000000000005
1271,2,0,1,-9,-2,0,0,-1,6.355
1272,-4,-1,5,2,-1,-1,0,-1,6.36
1273,-3,-3,-11,2,0,0,-1,-1,6.365
1274,2,1,1,-5,1,0,-2,0,6.37
1275,0,-3,-3,3,0,0,-1,-2,6.375
1276,2,3,1,-7,0,0,0,0,6.38
1277,-1,-2,0,1,0,0,3,-1,6.385
1278,-4,-2,-4,-3,-2,1,-1,-1,6.390000000000001
1279,-2,0,1,-1,-1,-1,-2,-1,6.3950000000000005
1280,-1,-2,-3,-1,-3,0,-2,-2,6.4
1281,-1,1,0,-3,0,-2,-2,-2,6.405
1282,1,2,1,5,3,-1,-3,-2,6.41
1283,-1,-2,-2,-3,-1,0,-1,-2,6.415
1284,2,3,0,1,-2,-3,0,2,6.42
1285,-6,-4,1,0,1,2,-2,0,6.425
1286,-1,-2,-3,-11,-3,-1,-1,0,6.43
1287,1,0,5,8,1,-1,0,1,6.4350000000000005
1288,0,-1,-5,0,-1,-1,0,0,6.44
1289,1,0,5,2,-2,-1,0,-1,6.445
1290,1,-1,-1,8,1,-1,-1,0,6.45
1291,-1,0,3,-2,-2,0,1,1,6.455
1292,0,-3,-11,-5,0,0,0,-1,6.46
1293,-1,1,-1,-3,-1,-1,0,-1,6.465
1294,0,0,2,0,-2,0,2,-1,6.47
1295,1,2,2,0,-1,-2,0,-1,6.4750000000000005
1296,0,-1,1,-5,-2,-2,-1,-1,6.48
1297,2,1,-1,0,0,0,-1,2,6.485
1298,-4,-4,-1,0,0,-2,-1,-2,6.49
1299,1,0,-5,-1,-1,-1,-2,-2,6.495
1300,-2,0,0,0,-1,-1,-1,-2,6.5
1301,0,-2,3,1,0,-1,-1,0,6.505
1302,2,-1,2,-2,-2,0,0,-1,6.51
1303,-5,-2,-8,2,2,-2,-2,0,6.515000000000001
1304,0,-1,-3,-11,-5,0,-2,-2,6.5200000000000005
1305,2,2,0,18,4,1,1,0,6.525
1306,-2,1,3,5,-1,-2,-1,-2,6.53
1307,-1,-2,-2,-6,-1,0,0,0,6.535
1308,-1,1,-3,-8,-2,-1,0,-2,6.54
1309,-2,-4,-7,-15,-5,-3,1,-1,6.545
1310,0,1,0,2,-3,0,0,0,6.55
1311,-1,-2,4,1,-1,-1,0,0,6.555
1312,-3,-2,-8,1,0,-1,0,-1,6.5600000000000005
1313,1,3,4,4,2,0,-2,0,6.565
1314,0,-1,-3,-5,-1,1,2,0,6.57
1315,-5,-2,-3,-6,-2,-4,-2,-4,6.575
1316,2,1,3,10,3,0,-1,0,6.58
1317,-4,0,-2,-6,-5,-2,-3,-3,6.585
1318,0,-2,-2,1,3,0,-1,0,6.59
1319,1,2,3,-2,-3,0,1,-1,6.595
1320,-3,-2,-5,0,1,-2,-2,-1,6.6000000000000005
1321,-2,-4,-7,-7,-2,-2,-1,-2,6.605
1322,-2,-3,0,-3,-4,-3,-3,-1,6.61
1323,-4,1,-3,1,1,0,0,0,6.615
1324,0,-2,-1,-1,-2,-2,0,-1,6.62
1325,1,0,0,-6,-3,-2,-2,1,6.625
1326,-2,1,-1,3,-1,-1,-1,-1,6.63
1327,0,-3,4,-8,-3,0,-3,0,6.635
1328,-3,0,-5,1,-1,0,-1,0,6.640000000000001
1329,2,0,2,2,1,1,-2,0,6.6450000000000005
1330,-3,0,-3,-2,1,0,0,1,6.65
1331,2,-1,3,9,-1,0,0,0,6.655
1332,1,-3,2,-6,-2,1,0,1,6.66
1333,-7,-3,-4,2,0,0,-1,-2,6.665
1334,0,0,-3,-4,-2,0,-1,-1,6.67
1335,2,1,-2,-3,-1,0,-1,0,6.675
1336,0,0,4,-3,-2,0,-1,0,6.68
1337,1,2,4,7,3,-1,0,0,6.6850000000000005
1338,-2,2,-4,-7,-2,-1,0,-1,6.69
1339,-3,0,-4,-2,-2,-2,-1,-1,6.695
1340,0,2,0,0,-2,0,0,1,6.7
1341,-2,0,3,2,-2,0,0,-1,6.705
1342,-1,1,2,-1,0,-1,1,0,6.71
1343,2,-1,-3,-2,-1,-2,-2,-1,6.715
1344,-3,-2,2,2,0,-2,-1,-2,6.72
1345,3,-1,1,-6,-2,0,0,0,6.7250000000000005
1346,2,0,3,2,-1,0,-2,0,6.73
1347,0,-1,-4,-5,-4,0,-1,-2,6.735
1348,1,0,3,3,3,-1,-1,1,6.74
1349,-7,-4,-5,-1,-2,-1,0,-1,6.745
1350,-1,-1,1,0,0,-2,0,0,6.75
1351,-1,2,0,3,-1,-2,-2,0,6.755
1352,-1,-2,-2,-2,-2,-1,-2,-2,6.76
1353,4,0,2,-1,-1,-1,0,-1,6.765000000000001
1354,-2,-2,-2,5,0,-2,0,-2,6.7700000000000005
1355,-3,-4,-3,0,0,-1,1,-2,6.775
1356,-1,-1,-1,7,6,1,1,-2,6.78
1357,1,2,3,0,-2,-2,-1,0,6.785
1358,0,-3,-7,-7,-3,2,1,0,6.79
1359,1,1,3,1,1,-2,0,0,6.795
1360,-6,0,-6,-5,-4,-3,-1,-2,6.8
1361,0,-1,0,8,2,0,0,0,6.805
1362,-1,-2,4,-1,-2,-1,-4,-1,6.8100000000000005
1363,-5,0,-11,-10,-2,-1,-1,-1,6.815
1364,-4,-4,1,6,-1,0,-1,-3,6.82
1365,0,1,-3,-3,-1,-1,-1,0,6.825
1366,0,0,-1,1,-1,-2,1,-1,6.83
1367,-2,-1,1,-8,-2,0,-1,-2,6.835
1368,0,-1,-2,-1,-3,-1,-2,-1,6.84
1369,-2,-3,-4,-4,-1,-1,-2,-2,6.845
1370,3,1,0,-3,-1,0,-1,0,6.8500000000000005
1371,-3,-2,4,8,2,0,-1,2,6.855
1372,2,2,-1,-5,-3,-1,0,-1,6.86
1373,-2,-1,1,3,-1,0,-1,0,6.865
1374,1,1,-1,0,-1,-3,-1,0,6.87
1375,0,0,0,-1,-2,-2,0,0,6.875
1376,0,1,4,-5,-2,0,-3,-1,6.88
1377,1,1,-5,3,1,0,1,1,6.885
1378,-4,-2,1,6,1,-1,-2,-3,6.890000000000001
1379,-1,1,-1,14,5,2,0,1,6.8950000000000005
1380,-2,-4,6,3,-2,-1,0,-1,6.9
1381,0,0,-11,-13,-3,0,-1,-1,6.905
1382,0,-3,1,-2,-2,-1,0,-1,6.91
1383,-3,-1,-6,3,-1,-1,0,-1,6.915
1384,4,1,3,1,2,0,0,0,6.92
1385,1,2,5,-2,-1,-1,-2,-2,6.925
1386,-2,-2,-8,-2,0,-1,0,0,6.93
1387,0,1,1,-2,-3,-3,0,-1,6.9350000000000005
1388,0,0,2,2,-2,-2,-1,-3,6.94
1389,0,0,0,0,-1,0,0,-1,6.945
1390,-3,-2,-1,0,-2,2,0,0,6.95
1391,3,0,1,-4,1,0,-1,-1,6.955
1392,-4,-2,-5,-1,-1,-1,-1,-1,6.96
1393,-1,-2,1,-9,-4,-1,-2,-2,6.965
1394,2,1,0,9,3,2,0,1,6.97
1395,0,-4,-2,1,1,0,-2,1,6.9750000000000005
1396,-3,-1,-4,-2,-2,-1,0,0,6.98
1397,0,-1,-2,-5,-3,-3,-3,0,6.985
1398,-4,-3,-4,-4,-2,-1,-1,-3,6.99
1399,-2,-2,2,-8,-3,-1,0,-1,6.995
1400,1,2,-7,-3,1,0,0,0,7.0
1401,-4,-5,-3,4,-1,-3,-1,-2,7.005
1402,0,1,1,-3,-1,-2,0,0,7.01
1403,0,0,3,-1,-1,-1,-1,-1,7.015000000000001
1404,5,-1,1,-5,-2,0,-1,0,7.0200000000000005
1405,-5,0,2,-1,0,-1,0,-2,7.025
1406,1,0,-2,3,0,0,-5,-1,7.03
1407,-2,-3,-4,-6,-4,1,0,-2,7.035
1408,1,0,2,10,0,-1,1,1,7.04
1409,-1,-1,2,-1,0,-1,0,-1,7.045
1410,-3,0,0,-3,-1,-2,-1,-1,7.05
1411,2,0,1,1,0,-1,-2,-1,7.055
1412,0,-1,2,-8,-4,-2,-1,0,7.0600000000000005
1413,0,1,0,5,1,-1,-1,-1,7.065
1414,0,0,-4,-3,-1,1,0,1,7.07
1415,-5,-1,-1,-9,-1,-3,-1,0,7.075
1416,0,0,5,0,0,1,1,-1,7.08
1417,2,-2,-1,7,-1,-1,-2,-1,7.085
1418,-1,-1,-13,-7,-2,-2,-1,-2,7.09
1419,-3,-2,-5,-3,-3,-1,-4,-1,7.095
1420,-1,-3,-4,-1,-3,-1,-1,-1,7.1000000000000005
1421,-2,0,3,-5,-2,0,1,1,7.105
1422,-5,0,3,9,1,-3,-2,-1,7.11
1423,-2,0,-2,4,2,0,0,-2,7.115
1424,-2,0,-1,-5,-3,-2,-1,-1,7.12
1425,4,1,-3,-3,-1,-1,-2,-1,7.125
1426,-1,-4,-1,-7,-3,0,-2,0,7.13
1427,-1,-1,0,0,-1,-1,0,-1,7.135
1428,-1,-1,0,4,3,0,-1,0,7.140000000000001
1429,0,-3,-2,-5,-2,0,0,0,7.1450000000000005
1430,-1,-1,1,4,-1,0,2,-1,7.15
1431,1,-1,-1,-4,0,0,0,-1,7.155
1432,-1,1,-7,4,0,-1,-3,-2,7.16
1433,-2,-1,0,-3,-2,-1,-1,-1,7.165
1434,2,1,4,5,0,-2,0,-3,7.17
1435,-1,-2,-5,2,-1,0,0,-2,7.175
1436,-6,-1,0,-5,-3,-1,1,-2,7.18
1437,-1,2,-1,-2,-2,-1,0,0,7.1850000000000005
1438,2,0,6,-6,-1,-1,1,1,7.19
1439,2,1,-1,2,-1,-1,-1,-1,7.195
1440,1,-1,-6,3,2,1,0,1,7.2
1441,0,1,-2,1,0,-1,-3,0,7.205
1442,-1,0,1,-4,-2,0,0,0,7.21
1443,-2,0,3,0,0,-1,0,0,7.215
1444,-1,-3,-2,-6,-3,-2,-2,-1,7.22
1445,1,-2,0,3,1,0,1,0,7.2250000000000005
1446,1,0,-4,-2,1,-2,0,0,7.23
1447,3,5,-2,-9,-3,-2,0,-1,7.235
1448,0,-1,2,1,-1,-1,-2,-1,7.24
1449,-7,-6,-3,5,1,-1,1,-3,7.245
1450,0,-1,-5,-8,-4,0,-3,-2,7.25
1451,-5,0,6,11,2,1,0,-2,7.255
1452,-1,-1,-1,-4,0,0,-2,0,7.26
1453,1,1,-2,-1,-1,-1,-2,0,7.265000000000001
1454,1,1,6,-2,-2,-2,-1,0,7.2700000000000005
1455,-1,-2,-4,-8,-3,-2,0,-1,7.275
1456,-1,1,-1,3,-1,-1,1,-3,7.28
1457,1,0,3,3,3,0,0,-1,7.285
1458,-2,-2,-2,1,-1,-1,0,-1,7.29
1459,1,1,2,-1,-3,-1,-2,0,7.295
1460,-1,-3,-1,-2,-1,-1,0,-1,7.3
1461,1,0,-1,-2,-2,0,-1,-1,7.305
1462,0,1,8,0,-1,-1,0,0,7.3100000000000005
1463,-3,0,-10,5,2,1,1,-1,7.315
1464,-2,2,-3,-3,-3,-3,0,-1,7.32
1465,1,0,2,3,-2,0,-2,-1,7.325
1466,-4,-4,-6,-2,-1,1,-2,-1,7.33
1467,2,0,1,3,-1,0,-2,0,7.335
1468,3,-1,0,-9,-1,-1,-1,1,7.34
1469,-3,-1,-5,3,0,-2,-2,-2,7.345
1470,-1,2,0,1,0,0,1,0,7.3500000000000005
1471,-2,-4,2,1,-2,-2,-2,-1,7.355
1472,2,1,-1,-3,0,-1,1,-1,7.36
1473,1,0,4,-12,-5,-2,-3,-1,7.365
1474,-2,-3,-5,6,5,-1,-2,-2,7.37
1475,-1,-4,-1,-5,-3,1,-1,-1,7.375
1476,-3,-1,0,7,3,0,0,-2,7.38
1477,0,0,-2,-1,-2,-2,0,-1,7.385
1478,-1,-1,-4,0,-1,0,-2,-3,7.390000000000001
1479,2,1,0,-1,-1,-2,-1,1,7.3950000000000005
1480,-1,-3,4,-1,-4,-2,-4,1,7.4
1481,0,-2,-13,-2,-1,0,0,1,7.405
1482,-2,-1,-1,-1,-2,-2,-2,0,7.41
1483,1,-2,2,0,0,-1,1,-1,7.415
1484,-1,-1,-4,-8,-1,0,0,0,7.42
1485,0,1,5,-2,-1,-1,0,0,7.425
1486,-2,-4,-4,6,1,0,-1,-2,7.43
1487,-3,-2,-4,2,0,-2,-2,-2,7.4350000000000005
1488,-1,-2,-11,-1,0,0,1,0,7.44
1489,-9,-7,-4,-7,-2,0,0,-2,7.445
1490,3,2,1,-4,-3,1,0,-2,7.45
1491,-5,-2,-1,-5,-3,-1,-2,-2,7.455
1492,-3,-2,9,6,1,1,-1,-1,7.46
1493,2,0,0,-3,-2,-1,-2,1,7.465
1494,0,0,-5,-3,1,-2,0,0,7.47
1495,2,1,-2,-3,-1,0,-2,-1,7.4750000000000005
1496,-2,-1,-1,-4,0,-1,-2,-1,7.48
1497,-1,1,3,5,1,-1,0,-1,7.485
1498,-1,-2,2,2,-1,-1,-2,1,7.49
1499,1,1,-2,-3,0,0,0,0,7.495
1500,0,1,4,4,1,-1,-1,-1,7.5
1501,-2,1,2,6,1,0,2,0,7.505
1502,0,-3,4,1,-2,-1,1,-2,7.51
1503,-1,-2,-1,-1,-1,1,-1,0,7.515000000000001
1504,-2,0,-13,10,1,-1,1,-1,7.5200000000000005
1505,1,-2,-2,-5,0,0,0,-1,7.525
1506,-2,1,9,2,-3,-1,-1,-1,7.53
1507,-2,-3,2,-8,-1,1,-1,-2,7.535
1508,0,1,-2,2,-1,1,-1,0,7.54
1509,-3,-3,-4,0,1,-1,-1,-1,7.545
1510,-1,2,-2,-4,-1,-2,0,0,7.55
1511,0,-3,20,-8,-3,-1,-1,1,7.555
1512,-3,-3,-10,39,13,3,2,-1,7.5600000000000005
1513,3,3,-3,-15,-4,-2,1,1,7.565
1514,-8,-2,2,10,-3,-2,-4,-1,7.57
1515,3,5,-12,-8,-1,0,3,2,7.575
1516,0,-2,8,-15,-7,1,3,-1,7.58
1517,-2,-1,2,7,2,-1,-4,-4,7.585
1518,2,-2,-3,-11,-2,-5,-6,-1,7.59
1519,-5,-3,2,4,0,2,3,-1,7.595
1520,4,-4,11,-21,-11,6,8,2,7.6000000000000005
1521,1,0,-4,6,1,-4,-10,-2,7.605
1522,-7,6,-7,-9,-9,-18,-16,-2,7.61
1523,4,-1,-10,4,-3,-7,-6,0,7.615
1524,-2,2,21,3,-2,-3,0,1,7.62
1525,-3,0,-12,35,12,12,12,3,7.625
1526,-2,3,-11,1,5,14,15,2,7.63
1527,-3,2,-16,24,11,0,-3,3,7.635
1528,-12,10,-12,-21,-3,-7,-8,-14,7.640000000000001
1529,-4,3,-4,-14,-9,-7,-6,-4,7.6450000000000005
1530,7,8,57,-66,-19,-2,5,-1,7.65
1531,13,7,19,49,13,11,10,-4,7.655
1532,11,-3,-66,89,43,12,0,7,7.66
1533,-7,14,-20,-27,-4,-4,-1,2,7.665
1534,-19,-3,-20,25,3,-5,-13,-13,7.67
1535,14,24,47,-51,-22,-10,0,1,7.675
1536,-19,-11,27,-76,-35,-29,-28,-15,7.68
1537,8,-6,-5,12,10,7,4,3,7.6850000000000005
1538,36,-3,25,-56,-9,16,25,10,7.69
1539,-2,20,25,79,16,8,3,3,7.695
1540,1,54,-58,5,-1,-15,-14,3,7.7
1541,7,45,37,-17,-10,-1,10,-2,7.705
1542,9,15,8,25,17,18,4,5,7.71
1543,-1,2,-3,-82,-24,-23,-29,-14,7.715
1544,14,34,16,-11,-2,-2,8,8,7.72
1545,27,43,41,28,-1,31,29,1,7.7250000000000005
1546,-20,32,-107,81,20,-37,-76,-27,7.73
1547,-11,54,30,-100,-57,-45,-22,-4,7.735
1548,-32,34,-13,100,44,26,10,9,7.74
1549,25,-73,-4,4,8,16,43,14,7.745
1550,16,36,39,-76,-32,34,63,7,7.75
1551,-9,-25,-77,-35,-28,-19,-27,-11,7.755
1552,23,-42,20,4,19,13,21,40,7.76
1553,-52,-36,31,-7,5,13,1,-32,7.765000000000001
1554,1,-49,42,106,51,43,50,23,7.7700000000000005
1555,2,-60,5,-51,-25,-39,-43,-34,7.775
1556,35,-21,35,-70,-30,-27,-35,10,7.78
1557,-5,-1,3,118,-3,-49,-45,-16,7.785
1558,17,-6,-19,-128,-23,10,-3,11,7.79
1559,-33,-16,-24,97,76,112,127,36,7.795
1560,-6,-43,-55,74,14,-8,-27,-6,7.8
1561,-2,2,-92,-128,-41,-89,-80,15,7.805000000000001
1562,-37,-14,116,-81,-79,-78,-58,-61,7.8100000000000005
1563,36,-24,-74,127,57,47,46,42,7.815
1564,11,-3,16,-51,-18,23,-4,-6,7.82
1565,47,5,12,80,61,49,28,-13,7.825
1566,-80,1,31,-72,-28,27,39,-24,7.83
1567,-21,-17,-54,-8,35,34,23,1,7.835
1568,-20,0,114,40,-38,-62,-57,-3,7.84
1569,-3,14,49,-128,-41,-63,-74,-21,7.845
1570,33,-9,-5,69,14,-42,-33,31,7.8500000000000005
1571,1,-2,92,-109,-19,6,-3,-19,7.855
1572,-23,3,-78,-120,11,78,120,32,7.86
1573,-13,-4,27,97,50,21,-15,-3,7.865
1574,-12,-1,57,-56,-8,22,35,7,7.87
1575,-46,-16,74,17,-25,-55,-74,-27,7.875
1576,-23,-13,77,-75,-15,-21,-3,17,7.88
1577,25,4,-68,-73,1,77,77,-22,7.885
1578,19,-7,-73,77,35,83,108,42,7.890000000000001
1579,-6,-11,-93,123,-6,-101,-109,6,7.8950000000000005
1580,-78,3,32,-81,-45,-105,-81,12,7.9
1581,-37,8,10,-98,-45,18,26,-9,7.905
1582,0,-4,85,49,1,-12,-59,-71,7.91
1583,18,10,-97,-5,49,76,85,54,7.915
1584,-15,-13,63,-22,15,36,13,-50,7.92
1585,6,7,97,-17,0,17,41,47,7.925
1586,46,-10,36,25,-2,-9,-28,-18,7.930000000000001
1587,40,-8,-24,-43,3,54,51,-7,7.9350000000000005
1588,-13,-18,40,29,2,-40,-43,34,7.94
1589,-19,-4,103,37,-16,-25,-12,-33,7.945
1590,11,0,-121,95,70,-21,-29,67,7.95
1591,27,-13,37,-42,4,37,69,-26,7.955
1592,-31,7,28,69,7,-44,-53,19,7.96
1593,10,-13,12,-124,-35,-25,-39,-57,7.965
1594,-52,-10,68,-29,-23,-3,8,-18,7.97
1595,2,-1,-56,-65,1,-11,14,11,7.9750000000000005
1596,57,0,-50,3,22,68,45,-2,7.98
1597,-29,4,57,61,-5,-26,-22,21,7.985
1598,13,2,6,-20,6,-10,-4,8,7.99
1599,14,-2,75,-118,-21,33,20,-12,7.995
1600,27,1,15,-51,-2,60,58,-45,8.0
1601,12,-6,-79,-16,-3,-35,-32,54,8.005
1602,-8,0,-128,79,57,17,26,6,8.01
1603,-6,12,7,-55,-74,-127,-125,-53,8.015
1604,4,3,34,-69,-29,1,3,41,8.02
1605,12,-3,-30,75,14,-25,-11,-25,8.025
1606,0,0,105,-105,7,62,54,-6,8.03
1607,11,-1,23,-54,-20,-56,-34,54,8.035
1608,-11,-8,65,93,-3,-49,-34,-74,8.040000000000001
1609,9,14,76,-43,-7,58,76,72,8.045
1610,19,-7,49,13,-1,-10,-29,-48,8.05
1611,-54,-5,-80,14,10,-7,-28,-3,8.055
1612,40,0,83,-81,-42,3,13,-16,8.06
1613,-12,2,-27,-72,15,8,5,9,8.065
1614,2,-4,37,-33,-26,-36,-45,33,8.07
1615,-6,4,36,115,75,125,105,-11,8.075
1616,10,-18,-128,-84,15,-26,-33,12,8.08
1617,-47,9,-128,120,-7,-43,-56,-29,8.085
1618,-16,0,66,-89,-45,11,1,-19,8.09
1619,-3,-12,69,15,-4,34,31,8,8.095
1620,2,0,-17,39,25,44,36,-7,8.1
1621,39,-17,-63,-5,47,57,38,-25,8.105
1622,-26,-2,28,-128,-72,-48,-25,25,8.11
1623,-17,-7,-23,56,-28,-92,-64,34,8.115
1624,-16,4,0,42,32,41,31,-21,8.120000000000001
1625,27,-16,10,-99,-23,20,19,-6,8.125
1626,-34,-3,-28,73,23,-51,-59,-45,8.13
1627,0,-4,39,-102,-14,-10,-30,-12,8.135
1628,4,-1,32,-88,-20,-8,12,15,8.14
1629,-9,0,39,41,18,3,-13,-12,8.145
1630,70,7,-20,4,23,51,66,50,8.15
1631,-47,-1,67,90,32,33,11,-15,8.155
1632,-12,-11,-9,-78,-30,-88,-75,-46,8.16
1633,-8,-8,61,-107,-33,5,26,15,8.165000000000001
1634,0,0,-91,-24,12,-6,-3,15,8.17
1635,-8,10,45,-49,-30,-28,-34,-12,8.175
1636,29,7,-42,10,-4,42,55,-7,8.18
1637,-1,4,-24,51,19,20,-1,16,8.185
1638,14,-7,-13,26,-10,-52,-23,7,8.19
1639,-20,5,-50,1,14,57,19,-24,8.195
1640,15,-1,20,58,33,60,60,6,8.2
1641,-18,2,-23,20,-21,-70,-62,-14,8.205
1642,10,2,-15,29,5,-21,-36,1,8.21
1643,46,1,77,-20,-21,-20,8,12,8.215
1644,1,8,-6,-21,-12,-4,-4,-10,8.22
1645,-28,1,-15,33,13,28,29,19,8.225
1646,-13,-2,-20,-99,-15,20,16,-6,8.23
1647,17,-2,18,91,28,-2,-7,-6,8.235
1648,-14,3,-79,38,1,3,0,7,8.24
1649,15,-3,13,-44,-10,-3,-3,-1,8.245000000000001
1650,-13,-4,-18,23,12,10,5,-7,8.25
1651,5,10,-1,-43,-14,-10,2,-2,8.255
1652,2,1,3,0,-5,3,-7,3,8.26
1653,5,4,16,4,6,7,3,-2,8.265
1654,1,-1,-33,18,-6,-19,-6,-5,8.27
1655,-5,12,8,-27,-15,-32,-9,2,8.275
1656,-17,-5,-22,19,13,31,-1,-9,8.28
1657,-13,-1,-6,-2,21,24,7,8,8.285
1658,6,-1,10,9,-1,5,0,-1,8.290000000000001
1659,16,-1,-4,-9,-3,-7,-7,-3,8.295
1660,8,4,-2,18,2,-13,8,5,8.3
1661,4,-1,24,0,-3,-3,7,18,8.305
1662,-5,-3,0,6,1,7,7,-2,8.31
1663,5,-3,2,-11,-4,1,-2,-2,8.315
1664,1,3,9,9,-2,-10,-6,-3,8.32
1665,-14,-3,-78,-24,-7,-3,-3,-8,8.325
1666,0,2,-2,9,3,7,5,-2,8.33
1667,-1,1,27,-20,-5,3,1,0,8.335
1668,12,5,-14,-1,2,6,2,10,8.34
1669,-7,-6,23,-3,-6,-11,-2,0,8.345
1670,1,-5,-18,7,4,6,-1,-5,8.35
1671,8,-2,-4,-13,-2,6,0,-6,8.355
1672,3,1,13,0,-1,-3,-2,4,8.36
1673,-4,2,-1,8,-5,-7,-4,-8,8.365
1674,-5,-3,-13,-7,0,4,3,3,8.370000000000001
1675,6,-1,7,3,-1,6,3,3,8.375
1676,3,-5,-9,2,-2,-6,1,4,8.38
1677,-1,-1,23,9,0,-6,-12,-21,8.385
1678,-4,-3,9,1,0,7,6,-1,8.39
1679,-17,-4,-29,-8,-3,-2,-3,-3,8.395
1680,0,-1,0,12,6,-3,-4,-1,8.4
1681,-2,2,-2,-7,-3,-1,-1,4,8.405
1682,10,-2,26,-1,-3,-1,-1,0,8.41
1683,0,5,-40,-5,-1,-4,-1,-4,8.415000000000001
1684,-1,1,-1,-11,-2,-2,-2,0,8.42
1685,4,-6,44,3,-3,-1,0,4,8.425
1686,-6,-8,-48,-4,3,2,0,-6,8.43
1687,11,-3,22,15,2,1,0,3,8.435
1688,-10,7,-43,25,9,2,0,-3,8.44
1689,5,2,1,-14,-6,-2,0,1,8.445
1690,1,1,12,7,1,0,-2,-3,8.45
1691,-2,8,-8,-8,-1,3,0,-2,8.455
1692,0,0,14,-12,-5,-3,-1,0,8.46
1693,5,-2,-2,11,4,-1,0,1,8.465
1694,-2,-1,0,0,-2,-1,-1,-1,8.47
1695,-2,2,-2,-2,-2,0,1,-2,8.475
1696,5,0,-3,-3,-4,0,-1,1,8.48
1697,0,0,-3,-2,-1,-2,-1,-1,8.485
1698,-3,0,2,4,4,1,-1,-4,8.49
1699,3,6,-1,-4,0,-2,-1,1,8.495000000000001
1700,2,-1,10,4,-2,-3,-3,-3,8.5
1701,1,2,0,-25,-6,-2,1,0,8.505
1702,-6,-3,7,31,6,1,-1,0,8.51
1703,1,1,-6,5,0,2,0,-3,8.515
1704,-2,-5,25,-29,-9,-2,-4,-1,8.52
1705,-3,2,-37,39,11,4,0,-2,8.525
1706,-1,0,-7,-17,-5,-1,0,0,8.53
1707,0,1,4,-4,-2,-2,-2,0,8.535
1708,-3,5,-5,-6,-2,-2,0,-2,8.540000000000001
1709,1,6,15,-10,-4,-2,0,0,8.545
1710,-2,-4,0,2,0,0,-1,-1,8.55
1711,-2,-3,0,5,0,1,2,-2,8.555
1712,0,0,-4,-10,-3,-3,-1,-2,8.56
1713,-2,-1,4,-3,-1,0,1,-1,8.565
1714,5,1,5,6,0,-1,3,1,8.57
1715,-5,-1,-4,-11,-2,-1,-2,-1,8.575000000000001
1716,-6,-2,3,9,1,1,-2,-3,8.58
1717,-3,-7,0,4,2,-1,0,2,8.585
1718,-1,-5,4,-8,-1,0,-1,-1,8.59
1719,-6,-5,-4,-2,-1,0,-1,1,8.595
1720,1,-4,15,13,3,0,1,-1,8.6
1721,2,2,13,-1,-2,0,0,0,8.605
1722,-1,0,11,-20,-8,-2,-2,-2,8.61
1723,0,1,9,8,6,0,0,-1,8.615
1724,0,-1,25,-7,-1,0,-3,0,8.620000000000001
1725,-2,-5,9,14,3,0,-2,-1,8.625
1726,0,0,9,-4,-2,-1,-3,-1,8.63
1727,-1,-1,7,-3,0,0,0,0,8.635
1728,-1,-4,-13,4,2,0,1,1,8.64
1729,-1,0,8,-10,-2,1,-2,-1,8.645
1730,-5,0,-38,-6,-2,-1,-1,2,8.65
1731,-7,-3,-29,13,4,1,0,0,8.655
1732,-2,-1,-17,-4,-5,-2,-2,-3,8.66
1733,0,-2,-17,4,0,-3,-1,-3,8.665000000000001
1734,0,4,-8,-1,1,0,2,-1,8.67
1735,2,-5,-8,-24,-5,0,0,-3,8.675
1736,2,1,-10,27,3,-2,0,0,8.68
1737,-4,0,-4,-6,-3,-2,-1,1,8.685
1738,-2,1,-3,0,-2,-2,-3,-2,8.69
1739,4,1,-4,-10,-4,-2,-1,0,8.695
1740,-1,4,-3,-9,1,-1,0,0,8.700000000000001
1741,5,-6,1,3,-2,-1,0,-1,8.705
1742,-5,-1,-8,1,1,0,-3,0,8.71
1743,0,3,-3,-2,-2,0,-1,-1,8.715
1744,2,-3,3,1,-1,0,1,3,8.72
1745,1,0,3,-6,-3,-2,-2,0,8.725
1746,1,-4,1,4,1,0,1,-1,8.73
1747,0,1,2,-1,-2,0,-1,1,8.735
1748,-3,0,-1,-2,-3,-2,-4,-2,8.74
1749,0,1,-5,-9,-3,-2,-2,-1,8.745000000000001
1750,4,-6,5,8,2,0,0,4,8.75
1751,-5,-35,-2,3,3,0,0,-2,8.755
1752,-4,-35,0,-13,-4,0,-2,-2,8.76
1753,-3,-43,7,9,1,1,1,1,8.765
1754,-1,-33,0,5,0,1,-2,-2,8.77
1755,-2,-18,6,5,1,-1,-1,-1,8.775
1756,-1,17,0,-2,0,0,0,-1,8.78
1757,-2,29,8,-15,-5,-2,-1,-1,8.785
1758,3,37,-1,4,4,3,0,-2,8.790000000000001
1759,-5,8,-12,1,0,-2,-3,-3,8.795
1760,3,-18,0,2,-2,-3,0,-2,8.8
1761,0,-17,-6,-11,-7,-3,-3,-3,8.805
1762,0,16,5,0,-7,-5,-1,-1,8.81
1763,1,22,7,9,4,1,0,0,8.815
1764,-6,14,7,4,-1,-1,-2,-2,8.82
1765,-1,23,-14,1,-1,-1,-1,-1,8.825000000000001
1766,-2,17,-12,-7,2,1,0,-3,8.83
1767,-4,18,-7,-3,-1,-3,-2,-2,8.835
1768,-1,11,11,10,-1,0,-1,-1,8.84
1769,1,13,1,5,2,2,0,1,8.845
1770,-1,24,-3,-4,-2,-2,-1,-1,8.85
1771,-3,26,13,-1,-5,-2,-3,-1,8.855
1772,2,23,-17,-5,-2,-1,-1,-2,8.86
1773,-3,14,-10,0,0,-1,-3,-2,8.865
1774,1,5,2,-7,-4,-2,-1,-1,8.870000000000001
1775,4,12,-6,2,1,-1,0,-2,8.875
1776,-3,6,-1,-4,-2,-2,-2,-2,8.88
1777,-4,10,-7,-3,0,-1,0,0,8.885
1778,-7,-21,6,1,-3,0,-1,-3,8.89
1779,0,-9,4,2,-2,-2,-1,-1,8.895
1780,-2,-7,-3,1,0,-1,-1,-2,8.9
1781,2,-4,17,-2,0,-1,0,0,8.905
1782,-3,1,-24,-10,-3,0,1,-1,8.91
1783,8,6,4,7,-1,-2,-2,2,8.915000000000001
1784,0,-3,7,1,-1,-1,0,2,8.92
1785,-2,-2,-4,8,2,-1,-1,-1,8.925
1786,0,-9,9,-3,-3,-1,-2,0,8.93
1787,-1,9,5,-18,-10,-3,-2,-3,8.935
1788,0,15,1,11,9,4,1,0,8.94
1789,-4,3,-36,9,3,0,-1,-3,8.945
1790,-1,17,1,9,0,-4,-1,-2,8.950000000000001
1791,5,13,-1,-10,-4,-2,-1,-2,8.955
1792,-1,19,8,-6,-6,-4,-1,-1,8.96
1793,-2,1,7,-3,-3,-3,-2,-4,8.965
1794,-1,-3,-2,-3,1,1,1,1,8.97
1795,0,3,-2,6,2,1,0,2,8.975
1796,1,3,-9,-6,-1,-3,-1,-1,8.98
1797,4,1,3,-4,-3,-1,0,1,8.985
1798,-1,-6,0,3,-4,-2,-4,-2,8.99
1799,-2,-7,1,7,4,1,1,0,8.995000000000001
1800,-5,-2,-12,-13,-4,-2,-2,-2,9.0
1801,1,6,13,6,1,1,0,-1,9.005
1802,0,0,8,9,2,0,-1,-1,9.01
1803,-3,-1,6,-4,-4,-1,0,-2,9.015
1804,0,2,-25,-2,0,2,1,-1,9.02
1805,8,1,0,-7,-1,0,2,2,9.025
1806,-2,-1,12,-5,-3,-1,0,-2,9.03
1807,-2,-5,-20,3,-3,-2,-1,0,9.035
1808,-1,4,10,4,1,0,-1,1,9.040000000000001
1809,-1,6,6,1,-4,-1,-1,-1,9.045
1810,-1,3,0,11,5,0,0,-1,9.05
1811,3,10,-1,-10,-4,0,0,0,9.055
1812,-1,3,4,-2,-2,-1,0,1,9.06
1813,-4,4,-5,-5,-1,0,-2,0,9.065
1814,1,-3,2,-3,0,-1,-1,2,9.07
1815,-3,1,0,1,-2,-2,-1,-1,9.075000000000001
1816,3,5,2,2,1,-1,0,-1,9.08
1817,-1,7,-1,13,4,1,1,0,9.085
1818,-2,6,-4,-7,-1,0,0,0,9.09
1819,0,-3,-4,-5,-2,-3,-1,-2,9.095
1820,5,-5,2,4,0,1,1,1,9.1
1821,-6,-4,-1,-7,-2,-2,-1,-2,9.105
1822,-1,-5,-1,-3,-2,-1,-1,-2,9.11
1823,-2,1,-4,-2,1,0,0,0,9.115
1824,-2,-2,15,5,-1,0,0,1,9.120000000000001
1825,-2,-2,-12,-11,-3,-2,-1,-2,9.125
1826,3,1,-7,-13,-3,-1,-1,0,9.13
1827,-6,-5,11,16,-1,-2,0,-2,9.135
1828,0,-1,-2,-1,0,0,0,-1,9.14
1829,-3,0,5,-4,-4,0,-1,-4,9.145
1830,0,-1,11,-4,0,-1,0,-1,9.15
1831,3,5,-19,-22,0,0,1,0,9.155
1832,-5,-1,0,26,2,-1,-1,-1,9.16
1833,1,-1,-1,-5,-4,-3,-1,-1,9.165000000000001
1834,-5,0,-5,0,-1,-2,-1,-3,9.17
1835,-3,-5,7,5,-3,1,-1,-1,9.175
1836,-3,0,-3,-9,-2,-1,-2,-2,9.18
1837,-4,1,-2,1,1,0,0,0,9.185
1838,6,-3,1,1,-2,-4,1,1,9.19
1839,-2,-2,5,6,0,-1,-2,-1,9.195
1840,1,-1,-9,-8,-1,1,-2,0,9.200000000000001
1841,0,-2,1,1,-1,-2,-3,0,9.205
1842,0,3,2,-3,-1,-1,-2,-1,9.21
1843,-1,0,1,5,2,1,2,1,9.215
1844,2,-5,-15,-9,-3,0,-1,1,9.22
1845,2,2,-2,-3,-2,-1,1,0,9.225
1846,-3,-5,-2,5,-2,0,1,-1,9.23
1847,-2,0,-6,-13,-3,-3,-2,-2,9.235
1848,-1,-1,15,14,1,-2,-1,-2,9.24
1849,-4,-10,-6,-2,2,2,-1,0,9.245000000000001
1850,-1,-23,2,-19,-8,-3,-1,-1,9.25
1851,1,-2,-1,45,11,3,1,1,9.255
1852,6,6,2,-13,-5,-1,-1,1,9.26
1853,-5,5,4,15,3,0,-1,-2,9.265
1854,3,6,-5,-3,-2,-1,0,-1,9.27
1855,-2,2,-1,-14,-2,-2,-2,-2,9.275
1856,0,3,-1,-7,-3,-1,-2,-2,9.28
1857,2,-1,0,-3,-1,1,0,0,9.285
1858,-1,3,0,-4,-1,-1,0,0,9.290000000000001
1859,4,-2,11,10,0,-1,0,2,9.295
1860,-3,1,-10,-1,1,-1,-1,-1,9.3
1861,-1,1,1,-8,-5,-2,-1,-2,9.305
1862,-3,0,4,5,-1,0,-2,-1,9.31
1863,-1,3,-9,-10,-2,-1,-1,0,9.315
1864,-1,-3,2,-3,-2,-3,-2,-2,9.32
1865,1,2,-1,1,-1,-1,0,0,9.325000000000001
1866,-1,0,-3,3,0,-1,-1,-1,9.33
1867,-3,1,-3,-3,0,-1,1,-1,9.335
1868,-3,-2,0,-12,-3,-4,-1,-2,9.34
1869,0,-1,-1,-7,-3,-1,-1,0,9.345
1870,0,4,-7,8,1,0,0,-1,9.35
1871,5,-4,6,-21,-5,0,-1,2,9.355
1872,-3,1,-11,15,3,0,-1,-2,9.36
1873,-4,-2,0,-2,1,0,1,0,9.365
1874,-2,3,16,3,-2,0,-1,-1,9.370000000000001
1875,0,1,-14,0,1,-1,-1,-2,9.375
1876,4,1,-12,-16,-4,-1,-1,1,9.38
1877,2,0,0,0,3,0,0,0,9.385
1878,-2,0,-3,8,2,1,-1,-3,9.39
1879,-3,-4,7,-2,-3,-3,-3,-4,9.395
1880,2,1,-2,-1,0,0,-1,-1,9.4
1881,2,1,-1,-2,-1,0,0,0,9.405
1882,-1,1,-3,0,1,-1,0,1,9.41
1883,3,2,9,5,0,-1,-2,-2,9.415000000000001
1884,-3,-2,-2,-7,-1,0,-1,-1,9.42
1885,-2,-5,2,12,2,-1,0,0,9.425
1886,1,-2,2,-2,1,0,0,0,9.43
1887,-7,3,-2,0,-1,1,1,-1,9.435
1888,-1,1,-1,2,-1,1,-1,-1,9.44
1889,-3,0,1,-13,-4,-3,-3,-2,9.445
1890,5,2,2,3,1,-1,0,0,9.450000000000001
1891,-3,1,-11,7,1,0,0,1,9.455
1892,-1,-5,6,-4,-4,-2,-1,0,9.46
1893,-3,-6,-4,4,2,0,-1,-1,9.465
1894,-4,-2,-9,-8,-1,-2,-1,-3,9.47
1895,0,-8,6,-6,-2,-2,-1,0,9.475
1896,-1,-4,5,8,-1,1,0,1,9.48
1897,1,-7,0,-1,-1,0,0,-2,9.485
1898,0,-3,-3,0,-1,-1,-1,0,9.49
1899,0,3,-5,-6,-2,-2,-1,-1,9.495000000000001
1900,1,2,6,10,0,-1,-1,-1,9.5
1901,-3,3,-5,-5,-4,-3,-1,0,9.505
1902,-1,-2,3,4,0,1,-2,0,9.51
1903,2,1,4,-2,-1,0,-2,0,9.515
1904,1,1,-5,-3,0,-1,-3,-2,9.52
1905,1,3,7,10,1,-1,1,-1,9.525
1906,0,3,-10,-6,-1,-1,-1,-1,9.53
1907,-2,-3,-8,-6,-2,0,-1,-2,9.535
1908,-4,-1,-2,-5,-2,-3,2,0,9.540000000000001
1909,3,-4,1,-1,1,0,0,0,9.545
1910,-4,-1,-6,-3,-3,-3,0,-3,9.55
1911,1,2,1,6,0,-1,0,0,9.555
1912,-1,-2,8,-9,-1,1,-1,-1,9.56
1913,-6,-6,-15,0,-1,-1,-2,-2,9.565
1914,3,1,2,-10,-4,-3,-3,0,9.57
1915,-4,-1,-14,22,4,-1,0,-2,9.575000000000001
1916,-1,1,6,4,1,0,1,1,9.58
1917,3,-1,1,1,-1,-1,-2,0,9.585
1918,-5,-4,-7,-10,-1,-2,-2,-2,9.59
1919,2,-1,10,-7,-4,-3,0,0,9.595
1920,-2,-1,-8,-5,-1,-2,1,1,9.6
1921,-2,-2,-4,-5,0,-1,0,0,9.605
1922,0,2,5,6,-1,-2,0,-1,9.61
1923,-2,-1,-5,-2,0,1,0,-1,9.615
1924,-1,-4,-3,-1,-1,0,0,1,9.620000000000001
1925,1,-3,1,-10,-5,-1,1,-2,9.625
1926,-1,-2,4,2,2,1,-2,-1,9.63
1927,-1,-1,-4,0,2,-2,-1,-2,9.635
1928,1,1,0,-7,-2,-1,-2,0,9.64
1929,0,4,-2,1,-1,0,-1,-1,9.645
1930,-4,-2,-2,11,2,1,-1,0,9.65
1931,2,-2,0,-4,-1,1,0,-1,9.655
1932,0,-1,4,-6,-1,-2,0,-3,9.66
1933,-1,-2,0,-8,-2,-2,-2,-2,9.665000000000001
1934,0,2,-7,17,1,1,3,1,9.67
1935,1,1,-4,-11,-1,0,0,0,9.675
1936,-5,-2,4,12,1,-2,0,-2,9.68
1937,1,-3,10,6,0,3,0,-1,9.685
1938,3,-2,4,-14,-5,-2,-2,-1,9.69
1939,-4,-2,-3,3,-2,1,0,-1,9.695
1940,3,-2,0,9,5,1,0,-3,9.700000000000001
1941,0,-5,-2,-4,0,-2,-3,1,9.705
1942,1,0,0,0,0,1,-2,0,9.71
1943,1,2,2,-6,-5,-2,-1,-2,9.715
1944,0,-1,-5,-5,-3,-1,-2,-1,9.72
1945,0,-2,-2,4,3,-1,0,0,9.725
1946,-3,-9,-3,-6,0,1,0,0,9.73
1947,0,-6,3,6,1,0,0,2,9.735
1948,-1,-6,-4,-3,-2,0,-1,-2,9.74
1949,-3,-9,-2,-4,-2,-1,1,-2,9.745000000000001
1950,1,-1,-3,-5,-3,-3,0,0,9.75
1951,4,-2,3,-3,-3,0,0,1,9.755
1952,-3,-2,-2,5,-1,0,-1,-1,9.76
1953,-3,-23,1,-1,1,1,-1,-1,9.765
1954,-3,-9,-5,-6,0,0,0,-1,9.77
1955,-1,-5,3,-5,1,-3,-3,0,9.775
1956,0,-4,-7,4,-1,0,-1,0,9.78
1957,-2,1,2,-1,-5,-1,0,0,9.785
1958,-1,-15,-11,-3,1,2,1,0,9.790000000000001
1959,-4,-7,7,-9,-3,-2,0,-2,9.795
1960,-5,3,-4,-8,-3,-1,-2,-2,9.8
1961,-1,6,-5,4,-1,-1,-2,-1,9.805
1962,-1,10,6,6,2,-2,0,-1,9.81
1963,-1,7,-3,6,0,0,0,1,9.815
1964,-2,4,-4,-13,-2,-1,0,-1,9.82
1965,1,5,-4,-1,-3,-3,-2,-1,9.825000000000001
1966,-1,7,-2,-2,1,0,1,0,9.83
1967,0,5,0,-3,-4,-1,-3,-4,9.835
1968,-10,9,3,6,4,2,1,-1,9.84
1969,0,11,3,-2,0,0,-2,-1,9.845
1970,0,4,-2,3,0,0,-3,-1,9.85
1971,-4,7,-5,-1,-1,-1,-2,-1,9.855
1972,2,5,-1,-1,-2,0,-1,0,9.86
1973,-1,3,3,-7,-1,1,-2,-1,9.865
1974,-5,3,6,3,-1,-3,-2,-1,9.870000000000001
1975,0,1,-14,-7,0,1,1,2,9.875
1976,0,-2,-3,1,-2,-4,-1,-1,9.88
1977,-1,4,-3,-8,-3,-3,0,0,9.885
1978,5,-3,4,-3,-1,-2,-1,0,9.89
1979,-1,4,4,1,-2,-1,0,-2,9.895
1980,5,1,-8,-8,-1,-1,-1,0,9.9
1981,-1,0,0,2,2,1,1,0,9.905
1982,2,-20,1,7,-1,0,1,-1,9.91
1983,-3,-25,13,7,-1,-1,-2,-2,9.915000000000001
1984,-1,-10,-30,-17,-1,1,1,0,9.92
1985,0,-2,4,9,-2,0,-1,-2,9.925
1986,1,11,-5,-9,-4,-1,-2,-1,9.93
1987,-4,14,1,-4,-1,-1,0,-2,9.935
1988,0,4,13,-1,-2,-1,-2,0,9.94
1989,-1,7,-3,-2,-3,-3,0,-1,9.945
1990,-1,1,-6,-6,-3,-2,-1,-1,9.950000000000001
1991,-4,-4,-7,-3,0,-1,0,-1,9.955
1992,0,1,5,8,-1,-1,-1,0,9.96
1993,-1,-5,-5,-6,-2,-1,0,0,9.965
1994,-3,-9,4,2,0,1,-1,-1,9.97
1995,3,-2,4,2,0,-1,0,-2,9.975
1996,-6,2,-5,-2,-2,-2,0,-1,9.98
1997,-4,-5,4,2,1,-1,-2,-1,9.985
1998,0,9,0,-4,1,0,0,-1,9.99
1999,-1,0,-11,-1,0,1,-1,-1,9.995000000000001
2000,2,0,10,5,0,-2,-2,0,10.0
2001,1,0,9,6,0,0,-1,0,10.005
2002,-4,1,-13,-4,-1,-3,-3,-2,10.01
2003,3,2,-4,-6,-1,-1,-2,1,10.015
2004,1,1,8,-6,-3,0,0,-1,10.02
2005,0,-8,0,10,1,0,0,0,10.025
2006,-2,-1,10,8,1,-2,-1,0,10.03
2007,5,-1,-4,-10,-1,0,1,1,10.035
2008,-11,-2,-3,3,-1,-1,-1,-2,10.040000000000001
2009,-3,3,-6,-6,-1,0,-1,-1,10.045
2010,1,3,4,3,0,2,1,1,10.05
2011,2,-1,3,1,-2,0,0,0,10.055
2012,6,-2,2,-1,-3,-1,-1,0,10.06
2013,-2,-1,-2,-4,-2,0,-1,-3,10.065
2014,0,2,1,-3,-3,1,0,-1,10.07
2015,-6,-7,-6,4,0,1,-3,-2,10.075000000000001
2016,3,5,0,3,0,1,-2,0,10.08
2017,-1,-4,1,-1,0,-2,-1,-1,10.085
2018,0,-1,-2,-6,-1,-3,-1,0,10.09
2019,0,-3,-3,-4,-2,0,1,-1,10.095
2020,8,-4,5,10,2,-1,1,0,10.1
2021,-2,-3,-4,-14,0,1,1,1,10.105
2022,-1,-1,7,26,3,-1,0,-1,10.11
2023,-1,-7,1,5,-1,-1,0,-1,10.115
2024,1,-11,1,1,1,-2,-2,0,10.120000000000001
2025,6,7,-1,-3,-2,-2,1,0,10.125
2026,-5,2,-2,-11,-1,1,-1,-1,10.13
2027,-3,1,4,9,1,0,-1,0,10.135
2028,2,-6,-1,-5,-4,-1,-2,-2,10.14
2029,1,-7,-3,3,1,1,2,0,10.145
2030,1,-4,0,-3,-2,0,0,-2,10.15
2031,-6,2,-7,-1,1,-1,0,-1,10.155
2032,2,6,2,-3,-1,0,-1,-2,10.16
2033,-8,2,-4,0,-2,-2,1,-3,10.165000000000001
2034,-4,4,1,3,0,-1,1,-1,10.17
2035,1,-9,-3,-3,-2,-1,0,-1,10.175
2036,0,-29,-3,-4,-2,0,1,1,10.18
2037,2,-31,5,7,0,0,0,-1,10.185
2038,-2,-11,-3,0,2,-1,-1,0,10.19
2039,-1,-9,13,6,-1,-2,-3,-2,10.195
2040,-4,0,9,-6,0,0,-2,-1,10.200000000000001
2041,6,6,6,-10,-3,-1,-1,1,10.205
2042,-1,4,-7,8,3,2,-2,0,10.21
2043,-1,3,-7,16,6,0,2,0,10.215
2044,-4,5,-12,1,0,-1,1,-1,10.22
2045,2,7,0,5,1,0,1,1,10.225
2046,6,17,-22,-26,-8,-2,-2,0,10.23
2047,-7,15,-3,-3,-2,-1,-4,-3,10.235
2048,1,10,-3,4,0,-1,0,2,10.24
2049,-2,7,-3,-4,0,-2,0,-1,10.245000000000001
2050,3,7,5,-3,-2,-3,-3,-1,10.25
2051,-5,1,-2,-5,-2,-1,-2,-1,10.255
2052,-3,3,-3,3,0,-1,0,-1,10.26
2053,-1,11,-4,1,-1,0,-2,0,10.265
2054,-3,-4,6,4,0,-1,0,-3,10.27
2055,-1,0,-2,-6,-1,-2,0,1,10.275
2056,-1,1,1,-9,-1,-2,0,-1,10.28
2057,-1,3,-7,0,-4,-2,-2,-1,10.285
2058,-2,2,0,2,1,-2,1,0,10.290000000000001
2059,1,-7,3,2,-2,1,-1,1,10.295
2060,-2,4,-2,4,-1,-2,-3,-1,10.3
2061,0,1,-1,-6,-1,0,0,-2,10.305
2062,-4,-11,-6,-10,-3,1,0,-1,10.31
2063,3,3,-1,-6,-3,-3,0,-1,10.315
2064,-2,-8,8,-3,-1,0,0,-3,10.32
2065,-2,-12,-9,-4,-1,-1,-1,0,10.325000000000001
2066,-2,-21,-1,0,1,1,0,0,10.33
2067,4,-6,8,2,-1,-1,-1,0,10.335
2068,-2,-2,-10,5,0,0,-2,0,10.34
2069,2,3,7,-2,0,-1,-1,1,10.345
2070,-3,9,-6,6,1,-2,0,-1,10.35
2071,-1,5,-2,-7,-1,-2,0,-1,10.355
2072,-1,-4,2,-3,-2,-2,-2,-1,10.36
2073,-10,1,-16,-9,-6,-3,-1,-3,10.365
2074,3,-6,1,4,0,-1,1,0,10.370000000000001
2075,1,-19,2,-6,-1,-1,-1,1,10.375
2076,-1,2,-2,11,3,0,0,0,10.38
2077,4,11,5,1,-2,-2,-1,0,10.385
2078,-5,12,2,-3,-1,0,0,-1,10.39
2079,3,16,-10,-4,-1,0,-1,0,10.395
2080,5,-19,1,-8,-4,-2,1,-1,10.4
2081,-2,-31,0,-1,-3,-1,-3,-2,10.405
2082,-3,-16,-2,-7,-3,-1,-2,-2,10.41
2083,0,-14,-1,10,2,1,0,0,10.415000000000001
2084,-2,6,-6,-6,-1,-1,0,1,10.42
2085,-2,4,-3,2,0,-2,0,0,10.425
2086,0,3,1,-4,-2,0,-1,-1,10.43
2087,-2,6,0,-4,-1,-1,-1,1,10.435
2088,-3,7,6,2,-2,1,0,0,10.44
2089,-2,-20,-2,-1,1,0,-1,0,10.445
2090,-6,-3,-2,6,1,-1,-2,-3,10.450000000000001
2091,1,0,1,-7,-2,-2,-1,-2,10.455
2092,-3,6,6,7,2,1,-1,-2,10.46
2093,-2,12,6,-9,-4,-1,-1,-2,10.465
2094,-2,15,5,9,1,0,1,-2,10.47
2095,0,10,4,5,-2,-1,0,-2,10.475
2096,-1,-7,-13,-5,-2,-1,-3,-1,10.48
2097,3,-3,-1,3,0,0,-1,1,10.485
2098,3,-43,-2,-24,-5,-3,0,1,10.49
2099,-1,-13,7,23,2,-1,-1,-1,10.495000000000001
2100,-4,-59,-5,2,1,1,-1,0,10.5
2101,-1,-10,-5,1,0,0,-3,-2,10.505
2102,5,16,-3,0,-2,0,-1,-1,10.51
2103,0,32,2,-10,-2,-3,1,1,10.515
2104,-3,14,-3,-8,-3,-3,-2,-3,10.52
2105,0,4,4,0,0,-2,-1,-1,10.525
2106,-2,23,-13,6,1,1,-2,1,10.53
2107,-4,0,-6,-6,-2,0,0,-2,10.535
2108,-6,25,-6,1,-1,0,-1,-4,10.540000000000001
2109,1,18,3,-4,1,0,1,-1,10.545
2110,1,17,5,3,-1,0,-2,0,10.55
2111,2,-10,-6,-4,0,-1,1,1,10.555
2112,3,7,1,0,-2,-2,-2,0,10.56
2113,-5,-13,2,0,-1,0,0,-1,10.565
2114,0,-18,1,-2,-1,-1,0,0,10.57
2115,3,-23,-6,-8,-2,-2,-1,-2,10.575000000000001
2116,0,-9,8,2,1,-1,3,-1,10.58
2117,4,-2,-3,2,-1,0,2,-1,10.585
2118,4,0,2,21,3,-2,0,0,10.59
2119,-4,7,-1,-5,-2,0,-1,0,10.595
2120,-1,-9,3,1,0,-1,-3,-1,10.6
2121,3,-10,-2,-3,0,-1,-2,-1,10.605
2122,5,-20,1,-3,-3,-2,-3,1,10.61
2123,2,-2,8,2,1,-1,-1,1,10.615
2124,3,7,-12,-9,-3,-1,-1,-1,10.620000000000001
2125,-5,23,6,5,-2,-1,0,1,10.625
2126,-1,19,-10,2,3,2,0,0,10.63
2127,-4,14,-5,3,0,-1,1,-1,10.635
2128,1,17,3,1,-3,0,1,1,10.64
2129,2,5,-2,-8,-2,-2,-1,-1,10.645
2130,2,9,6,-2,-3,-2,-1,1,10.65
2131,-2,7,2,3,0,2,-2,-3,10.655
2132,-1,2,-7,-4,-1,-1,-1,-3,10.66
2133,-4,0,-2,5,1,0,-2,-1,10.665000000000001
2134,-3,5,3,-5,-3,0,-1,-2,10.67
2135,-4,6,-6,0,2,0,0,0,10.675
2136,0,-3,2,-4,0,0,0,1,10.68
2137,2,1,-3,3,0,-1,-1,1,10.685
2138,-5,16,-1,-3,-1,1,-1,-3,10.69
2139,-2,12,1,-2,-2,-2,-3,0,10.695
2140,-1,13,-3,0,-1,-2,-2,-1,10.700000000000001
2141,2,3,0,2,0,-2,-1,0,10.705
2142,-4,3,-3,-1,0,-1,1,-1,10.71
2143,-1,-7,-2,-4,-2,-2,-1,-1,10.715
2144,1,-3,8,9,0,-1,0,0,10.72
2145,1,-7,1,3,1,-1,0,0,10.725
2146,4,-28,1,-7,-3,-2,-4,-1,10.73
2147,-4,-18,0,1,-1,0,-2,-1,10.735
2148,-2,12,0,-2,2,1,1,0,10.74
2149,1,18,-11,-10,-3,0,0,1,10.745000000000001
2150,-2,11,-2,12,1,-2,-1,-1,10.75
2151,1,10,-3,-4,-2,-1,1,0,10.755
2152,2,12,8,4,1,1,2,1,10.76
2153,-2,7,-10,-8,-4,-2,0,-2,10.765
2154,6,16,0,-4,-3,-1,1,1,10.77
2155,-11,4,-11,-4,0,-2,-1,-5,10.775
2156,0,-1,10,-8,-5,-3,-2,-3,10.78
2157,1,-4,-13,9,3,3,0,0,10.785
2158,-4,-2,-7,-9,-2,-2,-2,-1,10.790000000000001
2159,4,1,1,1,0,-1,0,1,10.795
2160,3,7,-2,-4,-3,-2,-1,0,10.8
2161,-3,5,7,-8,-3,-3,-1,-2,10.805
2162,-6,-4,-6,17,4,0,-1,-3,10.81
2163,1,-4,4,-14,0,0,-1,0,10.815
2164,-6,-6,-9,17,1,-1,-2,-2,10.82
2165,0,-5,0,-2,0,-1,1,1,10.825000000000001
2166,-5,-9,6,-3,-4,-2,-1,-3,10.83
2167,1,-9,7,4,0,0,1,-1,10.835
2168,2,-11,-10,-9,-3,0,-1,0,10.84
2169,1,-7,4,1,-4,-2,-2,-1,10.845
2170,1,-4,4,-9,-1,2,0,1,10.85
2171,-2,-10,-3,-4,-1,-2,-2,0,10.855
2172,0,-10,1,-6,0,-2,0,0,10.86
2173,-1,-6,-8,14,5,2,1,1,10.865
2174,6,-7,6,-1,-1,-1,1,3,10.870000000000001
2175,-1,-8,1,-2,-1,-2,-2,1,10.875
2176,-6,-9,5,1,-2,-1,-2,-2,10.88
2177,-2,-4,3,-1,0,-1,0,-2,10.885
2178,-1,-4,3,-4,-2,-2,0,0,10.89
2179,0,-5,3,-7,-3,0,-1,-2,10.895
2180,-3,-8,-13,4,2,2,0,1,10.9
2181,-9,-8,0,-2,-1,-1,0,-3,10.905
2182,-4,-10,-6,1,0,-1,-2,-4,10.91
2183,2,-5,5,2,-2,-2,0,-2,10.915000000000001
2184,0,-5,3,-15,-3,-1,0,1,10.92
2185,2,-7,-1,-3,-1,-1,-1,1,10.925
2186,-4,-2,6,9,2,0,-1,0,10.93
2187,-6,-8,-4,-5,-2,-2,-2,-2,10.935
2188,0,-5,-9,9,4,1,0,1,10.94
2189,0,-11,6,-6,-2,-2,-2,0,10.945
2190,4,-2,-5,-5,-6,-1,-2,-3,10.950000000000001
2191,-4,-2,-12,6,0,2,0,0,10.955
2192,0,0,1,0,0,-1,-2,-1,10.96
2193,-2,-4,-1,0,-3,-2,-3,-3,10.965
2194,2,-3,-7,-7,-3,-2,-1,1,10.97
2195,3,-10,4,12,2,2,3,4,10.975
2196,3,-8,2,-4,1,1,2,0,10.98
2197,1,-4,10,1,-1,2,1,1,10.985
2198,2,-1,1,-1,7,3,3,1,10.99
2199,4,7,-2,10,-1,-1,0,-1,10.995000000000001
2200,-2,0,-1,-11,-4,-1,0,1,11.0
2201,-2,2,7,11,2,-1,0,-2,11.005
2202,-3,-1,2,-1,0,-2,-1,0,11.01
2203,2,-1,5,-3,-3,-2,-1,0,11.015
2204,2,5,13,17,9,7,3,2,11.02
2205,-2,5,-9,-9,-3,1,1,-2,11.025
2206,-9,5,-15,-6,-4,-9,-6,-2,11.03
2207,0,12,-4,-4,-1,-3,-2,-1,11.035
2208,0,10,2,1,-5,-5,-3,-5,11.040000000000001
2209,-1,9,12,0,0,-1,-2,-2,11.045
2210,0,13,-17,2,0,3,3,0,11.05
2211,2,14,3,-1,-3,-1,-2,-1,11.055
2212,-1,10,-12,0,0,2,1,-2,11.06
2213,3,16,2,-15,-4,1,0,1,11.065
2214,-4,8,7,5,-3,-4,0,0,11.07
2215,-6,13,-5,14,5,0,-1,-1,11.075000000000001
2216,0,14,-3,0,2,-2,-3,0,11.08
2217,-4,3,14,5,-4,-6,-8,-3,11.085
2218,-1,5,-24,-18,-3,1,-1,-3,11.09
2219,2,4,-6,-16,-5,1,1,1,11.095
2220,1,4,5,-6,-4,0,1,0,11.1
2221,3,5,-14,8,5,1,2,3,11.105
2222,2,-1,25,3,-2,1,-1,-1,11.11
2223,-3,2,-11,1,-1,-1,-2,-2,11.115
2224,0,1,-11,-9,-3,-2,-1,-1,11.120000000000001
2225,-7,-3,2,5,2,-2,2,-3,11.125
2226,-1,-3,2,1,0,1,0,-2,11.13
2227,3,3,-3,-12,-3,-3,0,-1,11.135
2228,-5,-2,13,-2,-7,-5,-6,-4,11.14
2229,-7,5,-2,10,5,1,0,-1,11.145
2230,-3,6,1,10,1,1,1,2,11.15
2231,-1,2,-26,-9,-3,-1,-1,-1,11.155
2232,0,11,0,-1,0,0,-1,0,11.16
2233,8,12,-5,-12,-2,1,-1,-1,11.165000000000001
2234,-1,8,-2,-4,0,-2,0,-1,11.17
2235,-3,1,14,6,-1,-2,-1,-1,11.175
2236,0,-6,-2,-3,-1,-1,-1,-1,11.18
2237,1,-1,-7,8,1,1,0,0,11.185
2238,4,-1,7,-4,0,-1,2,1,11.19
2239,-1,-3,-5,4,0,-1,-1,1,11.195
2240,-3,-9,0,2,0,0,0,-1,11.200000000000001
2241,0,-11,2,-3,-3,-2,-2,-2,11.205
2242,-2,-6,-15,-2,-1,0,0,-1,11.21
2243,-3,-8,4,-2,0,-1,0,-1,11.215
2244,0,-5,0,-13,-4,-4,-2,0,11.22
2245,-2,0,2,2,-2,-2,-1,-1,11.225
2246,1,-5,2,23,2,0,-1,-1,11.23
2247,-2,1,12,5,0,-2,-1,-2,11.235
2248,-2,3,-7,1,-1,-1,-1,-1,11.24
2249,-4,-7,-7,-6,-2,-2,-1,-1,11.245000000000001
2250,-6,-6,1,-6,-1,-1,-4,-2,11.25
2251,1,-2,-3,-13,-3,-1,-3,-1,11.255
2252,4,-5,16,20,7,0,0,1,11.26
2253,-4,-3,-10,-2,-1,-1,-1,-1,11.265
2254,-1,-3,5,13,0,1,0,-1,11.27
2255,0,-5,3,-4,-1,-1,-3,-1,11.275
2256,3,2,-21,-7,0,-1,1,1,11.28
2257,-2,-6,-6,-6,-2,0,-3,-2,11.285
2258,-1,-3,3,-5,-1,-2,-3,-1,11.290000000000001
2259,1,-1,9,1,-2,1,-1,0,11.295
2260,-3,-5,-7,-1,-1,2,1,-2,11.3
2261,-1,-5,-3,-1,-2,0,-1,-1,11.305
2262,-1,-1,2,-8,-2,-4,-1,-1,11.31
2263,-1,11,1,-5,0,1,-1,0,11.315
2264,-1,3,5,8,0,-2,-1,-2,11.32
2265,8,4,-4,-1,0,-2,-1,1,11.325000000000001
2266,0,1,6,-6,-3,-2,-1,-2,11.33
2267,-1,-2,-2,20,2,0,2,0,11.335
2268,-12,-6,-13,-8,2,1,-2,-5,11.34
2269,-2,-2,2,0,-1,-1,0,0,11.345
2270,3,-1,-1,-9,-1,0,0,2,11.35
2271,-1,-3,2,0,-1,-1,0,0,11.355
2272,1,-1,-1,-9,-7,-3,-1,1,11.36
2273,-6,-5,-3,14,2,1,0,0,11.365
2274,-2,-3,-5,-13,-1,1,0,-1,11.370000000000001
2275,0,3,-1,2,-2,-2,1,-1,11.375
2276,4,3,3,-6,-2,-1,0,1,11.38
2277,-1,1,1,-8,0,-1,-2,-1,11.385
2278,-2,0,-8,4,-3,-2,0,1,11.39
2279,3,-3,-1,-9,0,1,2,-1,11.395
2280,-3,2,3,1,-1,-2,0,-4,11.4
2281,-2,-4,2,8,4,-1,2,-1,11.405
2282,-2,-2,-1,3,1,1,0,-1,11.41
2283,-1,-1,-10,-10,-3,-1,-3,-3,11.415000000000001
2284,-3,2,6,6,0,0,-3,-1,11.42
2285,2,-4,3,-3,-1,-1,0,2,11.425
2286,-2,-3,-10,-2,1,-2,-2,-3,11.43
2287,-4,-2,-1,3,0,-1,0,-1,11.435
2288,-1,-2,3,-1,-3,-1,-1,-1,11.44
2289,1,-3,11,-1,-4,-1,-1,-2,11.445
2290,3,1,-12,7,3,-1,0,1,11.450000000000001
2291,3,3,-3,-12,-4,0,-1,0,11.455
2292,-9,-2,-4,5,1,0,-1,0,11.46
2293,1,-1,1,-3,-1,0,-1,-2,11.465
2294,-7,-5,5,-6,-4,-1,-1,-3,11.47
2295,0,-4,-1,6,2,0,-2,-2,11.475
2296,-2,1,4,-5,-3,-1,-3,-2,11.48
2297,-2,-2,1,1,0,1,0,1,11.485
2298,0,-5,5,-5,-3,-1,0,-1,11.49
2299,-1,3,-1,9,2,2,0,0,11.495000000000001
2300,-2,-3,-20,5,2,1,1,0,11.5
2301,0,-1,-1,-3,-4,0,1,-2,11.505
2302,3,1,8,2,-1,-2,-3,1,11.51
2303,-4,2,-4,-4,-2,-9,-6,-2,11.515
2304,0,-1,2,-3,1,-1,0,1,11.52
2305,2,0,-2,-5,0,0,-2,-1,11.525
2306,0,1,-6,-3,-2,1,1,0,11.53
2307,1,-1,8,-4,-2,2,2,-3,11.535
2308,0,3,5,-3,-1,-2,0,-1,11.540000000000001
2309,-2,-1,-31,-6,0,1,1,-1,11.545
2310,-4,-1,15,15,0,1,-3,-1,11.55
2311,-6,-4,5,5,3,-2,-1,-2,11.555
2312,2,-3,-5,-6,-2,-1,-2,-3,11.56
2313,-2,-2,-5,-1,-3,-4,-3,0,11.565
2314,3,1,1,-8,-4,-7,-6,-2,11.57
2315,2,0,-7,-15,-5,0,2,2,11.575000000000001
2316,0,-5,22,22,8,7,6,2,11.58
2317,-5,-3,2,-13,-4,-4,-4,-5,11.585
2318,-3,-2,-12,20,-2,-8,-5,-3,11.59
2319,3,5,17,16,2,3,1,1,11.595
2320,-2,6,-37,-31,-7,-3,-1,-2,11.6
2321,4,-4,11,2,1,4,4,1,11.605
2322,1,-2,-17,-19,-2,1,1,0,11.61
2323,-4,-1,8,-7,0,5,5,0,11.615
2324,0,-6,12,9,-2,-1,3,2,11.620000000000001
2325,1,2,-5,-14,-3,0,1,-5,11.625
2326,-7,-1,6,-16,-8,-3,-10,-6,11.63
2327,-11,5,-65,25,8,-6,-6,-3,11.635
2328,15,1,48,-26,-18,-10,-9,2,11.64
2329,-8,3,-27,39,15,0,1,4,11.645
2330,8,6,5,-32,-3,8,8,4,11.65
2331,-7,3,-10,-9,-4,4,0,-6,11.655
2332,3,15,3,5,5,7,6,6,11.66
2333,3,6,7,-16,-10,-1,2,2,11.665000000000001
2334,14,16,31,25,5,10,13,9,11.67
2335,23,24,-10,-39,-1,-3,0,8,11.675
2336,-10,31,-18,53,5,-4,-2,-3,11.68
2337,-10,14,3,23,1,-15,-22,-9,11.685
2338,-6,10,3,-2,3,4,3,-6,11.69
2339,2,7,19,-20,-10,-11,-10,-4,11.695
2340,-7,30,-33,-17,-4,-10,-10,-3,11.700000000000001
2341,14,42,-10,-44,-10,12,15,6,11.705
2342,-10,54,20,42,6,-1,-2,-1,11.71
2343,-13,20,14,-21,-6,-9,-8,-4,11.715
2344,0,28,35,1,-6,-7,-8,-12,11.72
2345,-6,41,-55,-8,7,29,26,2,11.725
2346,-4,28,-5,-14,1,-4,-9,4,11.73
2347,-10,29,4,23,2,-3,0,-5,11.735
2348,7,-36,-24,-18,2,10,5,9,11.74
2349,-26,-25,18,-3,-5,-23,-28,-13,11.745000000000001
2350,-11,-26,-42,-20,4,17,20,-4,11.75
2351,5,-29,6,6,-7,-15,-17,-4,11.755
2352,41,-57,18,40,7,9,22,2,11.76
2353,-2,-57,0,44,3,-10,-22,-4,11.765
2354,19,-44,56,-56,-16,-11,-12,9,11.77
2355,-8,-32,-124,52,24,19,5,-15,11.775
2356,-37,-31,57,-62,-25,-11,-9,-14,11.78
2357,26,-28,-21,82,30,7,18,6,11.785
2358,-28,-13,-4,-14,-11,-16,-7,2,11.790000000000001
2359,31,-3,-58,-52,-4,16,9,13,11.795
2360,-11,-5,70,22,9,1,-11,-3,11.8
2361,-10,-7,15,-41,-12,-7,-13,6,11.805
2362,39,-6,33,-25,2,21,14,-2,11.81
2363,-15,2,-72,112,23,2,18,16,11.815
2364,0,-1,-11,-60,-10,-12,-18,10,11.82
2365,13,-16,85,-43,-26,-66,-45,-7,11.825000000000001
2366,-13,1,-8,-19,-4,11,6,-10,11.83
2367,-18,6,-35,50,30,45,42,15,11.835
2368,23,-1,-5,62,32,3,-17,0,11.84
2369,1,-7,13,0,5,34,45,11,11.845
2370,-3,6,-26,-99,-39,-43,-29,5,11.85
2371,-7,1,-15,65,-9,-12,-3,-8,11.855
2372,-4,-6,55,17,12,41,27,-19,11.86
2373,27,-2,105,67,13,-32,-55,7,11.865
2374,-53,-2,28,-17,-8,4,23,-26,11.870000000000001
2375,-10,-8,30,-128,-11,33,18,23,11.875
2376,8,-2,-64,71,-7,-95,-78,-43,11.88
2377,-3,-11,-64,-27,-13,11,0,-1,11.885
2378,-35,-3,55,-20,-3,5,-9,19,11.89
2379,5,-4,18,-65,-11,15,12,-5,11.895
2380,-35,-3,106,-128,-67,-39,-13,-6,11.9
2381,-22,1,-102,70,53,33,38,17,11.905
2382,27,-5,33,29,-4,-9,-4,5,11.91
2383,41,10,127,-128,-30,38,48,8,11.915000000000001
2384,2,-12,-105,98,52,17,7,-20,11.92
2385,3,-3,-3,-128,-30,1,-2,3,11.925
2386,51,-8,-84,9,-12,-57,-49,10,11.93
2387,-59,3,121,78,15,-7,-19,-56,11.935
2388,-1,5,76,-77,-25,46,22,58,11.94
2389,-36,1,-51,-1,1,-32,13,9,11.945
2390,41,-6,-84,54,-9,0,6,21,11.950000000000001
2391,-37,-9,127,-47,-5,9,-14,-21,11.955
2392,0,-5,-94,79,24,7,14,-42,11.96
2393,-25,-1,-83,-8,-8,-22,-19,13,11.965
2394,-10,1,127,-92,-29,-4,18,15,11.97
2395,20,6,-79,89,30,-38,-46,-3,11.975
2396,2,4,-16,86,38,35,32,20,11.98
2397,20,13,127,-85,-32,48,3,-59,11.985
2398,25,3,-70,89,47,32,54,26,11.99
2399,3,-6,-54,-11,-16,16,0,-39,11.995000000000001
2400,20,4,-64,43,32,-16,-10,93,12.0
2401,-20,1,-29,4,-22,-26,-2,4,12.005
2402,-53,-1,91,-19,-28,-28,-39,-31,12.01
2403,46,18,-8,-40,-1,18,62,5,12.015
2404,33,-3,-61,5,23,34,7,4,12.02
2405,10,7,72,28,-19,-65,-47,-31,12.025
2406,27,6,-21,-35,26,55,33,3,12.030000000000001
2407,-5,0,32,-59,-42,-25,-26,-28,12.035
2408,26,-15,86,-69,-32,-11,9,23,12.040000000000001
2409,-2,-4,7,-115,-7,14,7,33,12.045
2410,31,-5,-27,127,44,-17,-32,-61,12.05
2411,-1,3,90,-33,-39,-18,3,63,12.055
2412,-52,4,-98,53,20,-25,-16,-37,12.06
2413,23,-5,32,-8,31,117,98,-12,12.065
2414,2,0,9,-128,-19,8,14,41,12.07
2415,-8,3,58,104,10,-114,-117,29,12.075000000000001
2416,6,-4,33,-72,-48,-17,-7,-39,12.08
2417,10,2,18,-59,-10,11,2,-47,12.085
2418,5,5,-100,89,46,19,4,13,12.09
2419,-20,3,46,-45,-17,-16,0,5,12.095
2420,-7,2,7,-21,-9,8,-4,-9,12.1
2421,-2,-12,-68,99,31,-21,-25,-12,12.105
2422,-12,5,1,-45,16,60,50,-2,12.11
2423,7,-6,37,-39,-4,23,18,27,12.115
2424,18,-5,70,-58,-29,-49,-37,-13,12.120000000000001
2425,-28,-1,-57,54,66,15,10,8,12.125
2426,-3,0,106,-88,-32,-79,-83,-39,12.13
2427,25,-10,-15,-20,13,-20,-12,-4,12.135
2428,-7,-8,63,-128,-34,36,29,24,12.14
2429,7,-3,49,10,-12,7,17,3,12.145
2430,-24,-5,-76,54,15,0,8,37,12.15
2431,18,-4,-59,-16,-2,10,-2,-41,12.155000000000001
2432,-3,9,7,16,9,30,38,-6,12.16
2433,19,3,-8,26,-1,5,6,11,12.165000000000001
2434,-18,-1,-53,31,16,40,26,3,12.17
2435,-15,-2,-7,-63,-45,-87,-82,-39,12.175
2436,-4,-1,-74,13,12,-1,4,6,12.18
2437,7,13,25,41,7,0,-7,33,12.185
2438,10,8,71,-128,-83,-20,-6,-35,12.19
2439,-13,1,-128,118,114,90,66,22,12.195
2440,-32,0,3,-41,-6,-21,-26,-4,12.200000000000001
2441,29,8,88,-83,-21,-18,-7,27,12.205
2442,-19,4,-53,-31,-4,16,15,9,12.21
2443,-5,-5,-5,-8,-14,-5,-3,-7,12.215
2444,0,11,-12,17,7,-7,-1,5,12.22
2445,1,-5,-19,-5,-29,-48,-4,-13,12.225
2446,-5,-3,7,36,4,16,-43,-29,12.23
2447,8,3,-13,26,31,31,21,10,12.235
2448,-9,-3,15,-3,-6,0,-5,-11,12.24
2449,-2,4,0,-11,-7,17,19,29,12.245000000000001
2450,-6,-2,3,29,9,-20,2,6,12.25
2451,1,-7,-1,-12,-21,-32,-22,7,12.255
2452,1,-7,12,-14,1,27,-1,-16,12.26
2453,-7,3,-11,-9,-11,-23,-11,26,12.265
2454,-8,-2,-11,25,7,-6,-2,-24,12.27
2455,-2,8,2,-11,-6,21,21,11,12.275
2456,-3,1,8,0,-1,-15,-5,-6,12.280000000000001
2457,-9,-3,-20,-1,-4,-1,-22,-26,12.285
2458,-2,5,-4,12,12,5,9,17,12.290000000000001
2459,6,0,41,-11,-13,-1,3,-2,12.295
2460,-1,3,-18,-6,-4,-10,-2,-7,12.3
2461,-4,1,-7,-4,2,12,-2,-6,12.305
2462,-6,0,-3,4,7,2,3,-3,12.31
2463,-4,-5,-7,9,-4,-10,-7,-7,12.315
2464,0,-7,-4,4,6,6,7,8,12.32
2465,0,2,-4,-6,2,13,6,-5,12.325000000000001
2466,0,-2,-11,4,0,-13,-8,-3,12.33
2467,-1,-5,-5,-5,-5,-4,-1,-2,12.335
2468,3,1,7,-2,3,8,12,11,12.34
2469,-3,-2,-4,-5,-2,0,-4,-10,12.345
2470,7,1,12,6,0,-8,-7,-7,12.35
2471,-7,-5,-3,-4,-2,5,3,6,12.355
2472,-4,-1,8,-2,-2,6,6,0,12.36
2473,-7,2,-10,-1,1,-5,-7,-9,12.365
2474,2,-3,8,7,4,-1,-1,3,12.370000000000001
2475,7,-1,0,0,-1,3,7,4,12.375
2476,-4,-3,1,-8,-5,-6,-3,-3,12.38
2477,-5,1,14,-7,-7,-3,-7,-7,12.385
2478,-3,-2,-39,2,2,-2,0,1,12.39
2479,-3,-1,18,-9,-4,-1,-1,-3,12.395
2480,-3,-2,-4,6,0,-4,0,-3,12.4
2481,0,0,11,0,-4,2,-3,-5,12.405000000000001
2482,0,5,16,-1,-1,-1,1,0,12.41
2483,5,-5,-17,-4,-4,-4,0,-2,12.415000000000001
2484,7,6,11,-9,-2,3,1,4,12.42
2485,-3,0,-7,-4,1,3,-1,-4,12.425
2486,-1,1,1,2,0,-2,-3,-1,12.43
2487,0,-3,1,-5,-1,-2,-2,0,12.435
2488,6,3,22,4,1,1,2,2,12.44
2489,0,-1,3,5,0,-1,-1,-4,12.445
2490,2,0,13,0,1,-2,0,-1,12.450000000000001
2491,-5,1,4,-4,-4,-2,-1,-3,12.455
2492,0,-2,0,-2,0,1,1,-3,12.46
2493,-1,2,-2,-3,-2,-4,-2,-3,12.465
2494,2,-3,15,1,-1,-1,0,1,12.47
2495,2,-5,4,2,-1,1,2,2,12.475
2496,-4,6,-4,1,1,-1,-1,-1,12.48
2497,-3,-6,12,-15,-5,-1,-2,-1,12.485
2498,-4,-8,10,21,5,-1,-1,-2,12.49
2499,-1,-1,24,3,0,-1,-2,-1,12.495000000000001
2500,-6,-6,-14,-2,5,-1,0,0,12.5
2501,-3,-36,12,0,-3,-1,-1,-1,12.505
2502,-1,-112,-50,-8,0,-1,0,-2,12.51
2503,5,-127,-19,-10,-4,-2,-1,0,12.515
2504,1,-113,-16,18,6,1,-1,1,12.52
2505,4,-111,-18,0,2,0,0,-1,12.525
2506,-8,-68,5,7,-1,1,-2,0,12.530000000000001
2507,1,-114,-11,0,-2,-2,-1,0,12.535
2508,4,-99,1,-16,-4,-1,0,1,12.540000000000001
2509,0,17,-11,-3,0,-1,0,0,12.545
2510,1,41,3,-1,-3,-2,-2,-2,12.55
2511,1,7,-14,7,3,0,-1,-1,12.555
2512,-2,-11,-1,-1,-2,-1,1,0,12.56
2513,-7,-48,-13,2,2,1,-1,-1,12.565
2514,-3,20,1,-14,-5,-3,-2,-2,12.57
2515,-6,119,-20,-2,-3,0,-2,-1,12.575000000000001
2516,4,92,10,0,0,0,0,-1,12.58
2517,-13,87,-6,2,0,-1,-3,-3,12.585
2518,2,69,17,-1,-2,1,-1,-1,12.59
2519,1,104,6,1,0,0,-1,0,12.595
2520,-1,118,-7,-11,-4,-1,-1,-2,12.6
2521,2,27,-16,2,3,0,-1,1,12.605
2522,2,-12,3,9,-1,-1,-2,1,12.61
2523,1,-14,3,3,2,1,1,-1,12.615
2524,0,-16,-27,8,1,2,0,-1,12.620000000000001
2525,1,-15,-4,-2,-2,-1,-2,-4,12.625
2526,-2,11,-7,-6,0,-1,-2,-1,12.63
2527,1,13,2,-3,-2,-2,-1,2,12.635
2528,-2,49,9,1,0,1,-1,0,12.64
2529,-1,5,-8,0,0,0,0,-1,12.645
2530,1,-8,-9,-6,-2,-2,-1,-2,12.65
2531,-1,6,-9,-5,-2,0,-1,-3,12.655000000000001
2532,1,5,9,-1,1,-1,-1,1,12.66
2533,0,19,-9,-5,-3,-1,-4,-2,12.665000000000001
2534,2,28,3,4,1,2,0,1,12.67
2535,-6,14,-12,-3,2,0,0,-1,12.675
2536,-1,25,5,3,-3,-2,0,0,12.68
2537,3,29,6,-5,-3,0,0,0,12.685
2538,-4,7,5,-8,1,-1,0,-2,12.69
2539,-1,-2,2,14,1,0,-1,-1,12.695
2540,-5,-2,2,-4,-4,-1,-1,-2,12.700000000000001
2541,1,15,7,2,0,-1,0,1,12.705
2542,-2,2,-8,-8,-2,-1,-2,-3,12.71
2543,-2,-7,-2,0,-1,0,1,0,12.715
2544,-2,-9,3,1,0,-3,-1,-2,12.72
2545,2,2,-2,-2,-1,1,1,-1,12.725
2546,-2,-15,-1,2,-1,1,-2,-1,12.73
2547,-1,-34,4,-4,-2,0,-2,0,12.735
2548,-2,-12,-7,4,0,-2,-3,-1,12.74
2549,0,3,0,4,0,-1,0,0,12.745000000000001
2550,2,3,6,1,0,2,2,1,12.75
2551,3,-13,1,-6,-2,1,0,0,12.755
2552,-4,-24,-1,-5,-1,0,1,1,12.76
2553,1,-21,29,-1,-3,-3,-2,-3,12.765
2554,-12,-14,-44,0,3,0,-1,-1,12.77
2555,-1,6,-3,0,-2,-1,-1,0,12.775
2556,2,16,-4,-3,0,0,1,0,12.780000000000001
2557,-1,16,0,-10,-4,-2,0,-1,12.785
2558,3,15,19,6,-2,-4,0,0,12.790000000000001
2559,1,19,0,2,2,2,1,1,12.795
2560,-8,0,-9,-8,-2,0,-1,-4,12.8
2561,-2,8,-1,11,-2,0,2,-1,12.805
2562,2,5,8,4,-1,0,-1,0,12.81
2563,-1,1,-8,-5,-1,-2,0,-2,12.815
2564,4,2,6,2,-2,-2,-2,-1,12.82
2565,1,-1,-9,0,4,1,-1,0,12.825000000000001
2566,0,-1,-5,-10,-4,-1,-2,-2,12.83
2567,1,0,5,-4,-3,-3,0,-1,12.835
2568,-1,1,12,-7,-4,-2,-3,-2,12.84
2569,4,0,-13,8,3,1,-1,1,12.845
2570,1,1,3,1,-2,-1,0,0,12.85
2571,-1,4,1,7,1,-1,-3,-3,12.855
2572,2,-10,0,-5,-1,0,-1,-1,12.86
2573,-2,-8,-1,-3,1,0,-1,1,12.865
2574,0,-2,5,-6,-1,-1,-3,-1,12.870000000000001
2575,-4,3,-9,2,-1,-1,-1,-1,12.875
2576,0,3,-1,0,-2,-2,-1,0,12.88
2577,-3,6,0,-5,-2,-1,0,0,12.885
2578,5,4,10,-3,-2,1,2,0,12.89
2579,1,1,0,11,3,1,-2,0,12.895
2580,-3,-2,-10,-2,-1,0,0,-2,12.9
2581,-5,-3,2,12,0,1,-1,-2,12.905000000000001
2582,-1,1,-5,-3,-3,-3,0,0,12.91
2583,2,1,1,-7,-4,-2,0,-2,12.915000000000001
2584,2,-1,-2,-1,-1,-1,-1,0,12.92
2585,0,-2,2,-4,0,1,0,0,12.925
2586,-2,-2,0,-5,0,2,2,-1,12.93
2587,-1,-6,-2,-4,-3,-1,0,-1,12.935
2588,2,-4,1,5,0,-1,-1,0,12.94
2589,-2,2,-1,5,2,-3,0,-1,12.945
2590,-2,-5,7,5,1,-3,-3,-2,12.950000000000001
2591,1,-2,-7,-5,1,-1,1,-1,12.955
2592,2,4,8,-4,-2,0,0,1,12.96
2593,-2,1,-11,-13,-6,-1,-1,-1,12.965
2594,3,0,7,17,6,2,2,2,12.97
2595,-6,0,-2,0,-2,-1,-2,0,12.975
2596,-5,-2,2,7,1,-2,-2,-1,12.98
2597,-2,-2,2,-2,-2,-1,-2,-3,12.985
2598,2,-2,-7,-8,-2,-2,-1,-1,12.99
2599,4,-2,1,-11,-3,-2,-1,-2,12.995000000000001
2600,-7,-5,12,5,-1,0,1,-2,13.0
2601,-1,-1,-7,9,3,1,-2,0,13.005
2602,-1,-1,0,2,-1,1,-2,1,13.01
2603,-1,-5,-6,-2,0,-1,0,2,13.015
2604,0,3,-11,-5,-2,-2,0,0,13.02
2605,-1,-3,7,-6,-3,-2,-1,-1,13.025
2606,-4,-1,2,-2,-5,-1,0,-2,13.030000000000001
2607,-3,-3,4,5,0,0,-1,2,13.035
2608,-6,-5,-4,-5,-2,0,0,-3,13.040000000000001
2609,-3,-6,-2,-7,-5,0,-1,-2,13.045
2610,-4,2,0,8,2,0,-1,0,13.05
2611,-1,-1,5,-3,-3,-1,-3,-1,13.055
2612,-1,-2,-15,4,1,0,-1,-1,13.06
2613,-1,-2,2,-2,-2,-2,0,-1,13.065
2614,-1,-5,-3,-2,-1,-1,-1,-1,13.07
2615,0,-1,5,-2,0,-1,-2,0,13.075000000000001
2616,2,2,1,-1,-2,0,1,2,13.08
2617,0,0,-8,-5,-2,-2,1,-1,13.085
2618,-4,-1,1,-6,-1,-1,-1,-2,13.09
2619,-1,-1,-1,0,-1,-2,-1,-2,13.095
2620,3,0,-5,-11,-3,0,0,1,13.1
2621,-7,-6,-6,11,3,0,-1,-2,13.105
2622,-5,2,4,7,-2,-4,-1,-1,13.11
2623,2,0,-8,7,2,0,0,-1,13.115
2624,-2,0,-1,-2,0,0,-1,-1,13.120000000000001
2625,5,2,3,-10,-2,0,-2,1,13.125
2626,4,-2,-2,-3,0,0,-2,0,13.13
2627,-2,1,0,-6,-2,1,-2,-2,13.135
2628,1,0,6,-3,-3,-2,0,-1,13.14
2629,4,1,7,13,5,2,1,0,13.145
2630,-5,-2,-19,-5,-2,-1,-2,-3,13.15
2631,-3,-1,1,4,0,-2,1,-2,13.155000000000001
2632,-1,-1,2,1,1,0,0,-1,13.16
2633,-2,-2,0,-4,-2,-1,-1,-1,13.165000000000001
2634,3,-1,0,-6,-4,-2,0,0,13.17
2635,3,-1,6,1,-1,1,0,-1,13.175
2636,0,1,-3,3,2,1,-1,0,13.18
2637,0,-1,-5,-8,-3,-1,0,0,13.185
2638,-3,-2,0,-2,-1,-2,-1,-2,13.19
2639,-4,-4,-4,4,0,-3,-2,-1,13.195
2640,5,4,4,2,-2,-2,-3,0,13.200000000000001
2641,-6,2,-1,-2,0,-3,0,-2,13.205
2642,3,-1,-2,-7,-3,-1,1,-1,13.21
2643,-1,4,2,-3,-2,-1,-2,-1,13.215
2644,-3,-2,-11,3,0,-2,0,-1,13.22
2645,-6,-2,-1,-2,-3,-1,0,-1,13.225
2646,1,0,-3,6,5,1,1,1,13.23
2647,3,-2,4,-7,-3,-1,-1,1,13.235
2648,-8,-1,-4,1,1,0,-3,-2,13.24
2649,-4,0,-1,-4,-1,-1,0,0,13.245000000000001
2650,2,-4,2,-10,-3,-2,1,-1,13.25
2651,-2,-4,-1,7,1,0,0,0,13.255
2652,1,-3,0,-3,-1,-1,0,1,13.26
2653,2,-4,5,0,-1,-1,0,-2,13.265
2654,4,1,-10,1,1,1,-1,0,13.27
2655,-2,0,-1,-1,0,-2,0,-2,13.275
2656,-2,-11,4,-2,-1,-3,-2,0,13.280000000000001
2657,3,-7,4,11,0,2,0,1,13.285
2658,4,2,5,5,2,0,-2,-1,13.290000000000001
2659,2,2,-4,-3,0,0,2,2,13.295
2660,-1,8,1,1,0,0,1,-2,13.3
2661,1,12,-1,-4,-2,-3,-1,0,13.305
2662,0,5,0,-3,-2,-1,0,-1,13.31
2663,-2,4,-2,-1,-1,-1,-1,-1,13.315
2664,-6,-23,9,2,-1,-1,0,-2,13.32
2665,-3,-40,-18,-14,-3,-1,-3,-2,13.325000000000001
2666,2,-32,1,7,0,0,-1,1,13.33
2667,-5,-5,3,1,2,1,-1,-2,13.335
2668,2,11,-4,0,-3,-1,0,-1,13.34
2669,0,21,3,0,1,-1,-2,-1,13.345
2670,-4,15,6,-9,-5,-2,-1,0,13.35
2671,-5,5,-13,-4,-3,-2,-2,-3,13.355
2672,3,13,-7,5,2,1,0,1,13.36
2673,0,12,3,3,0,2,1,2,13.365
2674,5,8,-3,4,2,-1,1,0,13.370000000000001
2675,-3,1,4,-4,-3,0,0,0,13.375
2676,1,1,-2,-7,-1,-2,-1,-2,13.38
2677,1,1,2,0,-3,-1,-2,0,13.385
2678,-4,0,-5,-4,-3,-1,-2,-3,13.39
2679,-1,1,-2,-5,-3,-1,-2,0,13.395
2680,0,-4,-2,1,-2,-1,-1,-2,13.4
2681,2,-2,1,0,1,-2,0,-1,13.405000000000001
2682,-4,5,5,5,0,0,1,0,13.41
2683,0,-1,-1,1,1,0,-1,-2,13.415000000000001
2684,-1,-5,-1,-3,-2,-1,-2,-1,13.42
2685,0,-2,-1,-3,-1,1,1,-1,13.425
2686,-1,2,7,3,1,1,0,-1,13.43
2687,0,-4,-11,-6,-1,-2,0,0,13.435
2688,2,1,3,6,1,0,1,-1,13.44
2689,-3,2,0,4,2,0,-1,-1,13.445
2690,-2,0,-4,3,0,-1,-2,-1,13.450000000000001
2691,-2,-2,-2,-9,-4,-1,-2,-4,13.455
2692,1,-2,11,4,2,-2,0,2,13.46
2693,-4,-1,-6,3,1,-1,-1,-3,13.465
2694,-3,0,3,-2,0,-1,0,-1,13.47
2695,-5,-8,-8,2,-1,-2,-1,0,13.475
2696,0,-2,-2,-7,-2,0,-1,-1,13.48
2697,-2,0,2,0,-3,-3,-1,-2,13.485
2698,-1,2,-5,-7,-3,-2,0,0,13.49
2699,2,1,9,13,2,0,0,0,13.495000000000001
2700,-1,-2,-4,-2,0,0,1,-1,13.5
2701,7,-1,1,0,0,0,-1,0,13.505
2702,-7,-3,-6,-9,-3,-2,-2,-5,13.51
2703,-1,-3,-3,-4,-2,-2,-1,-1,13.515
2704,-1,-3,-2,-1,-3,-2,-2,-1,13.52
2705,-5,-4,0,-3,-4,-2,0,0,13.525
2706,0,0,2,4,3,1,-1,1,13.530000000000001
2707,-1,0,-2,-2,-2,-1,1,0,13.535
2708,-4,-6,-3,-10,-4,-2,-2,-3,13.540000000000001
2709,-6,-13,5,9,1,0,1,0,13.545
2710,-3,-5,-4,-1,0,0,0,0,13.55
2711,-2,-11,0,2,0,-1,-1,-1,13.555
2712,0,-9,-4,-3,2,0,-1,1,13.56
2713,2,-8,1,-4,-1,0,-1,1,13.565
2714,0,-9,5,0,0,-1,0,-1,13.57
2715,0,7,-2,-2,0,0,-1,-2,13.575000000000001
2716,-2,9,-7,-4,-5,-1,-2,-2,13.58
2717,-1,15,5,2,-1,-1,-1,0,13.585
2718,-1,8,0,6,0,-3,-2,0,13.59
2719,-1,2,-1,-9,-1,0,1,-2,13.595
2720,0,-1,2,15,2,1,1,0,13.6
2721,-2,4,-4,-6,-1,-3,-2,-1,13.605
2722,-2,1,-3,-3,-3,-1,-1,-3,13.61
2723,1,4,5,4,0,0,1,1,13.615
2724,-1,7,-2,-8,-1,-1,0,-1,13.620000000000001
2725,0,1,-7,-3,-3,-1,-3,-2,13.625
2726,-4,3,-3,2,-2,-2,-4,-1,13.63
2727,1,3,3,-10,-3,-1,-1,1,13.635
2728,0,-3,-6,11,3,0,0,2,13.64
2729,-4,-2,-4,1,3,0,1,0,13.645
2730,0,2,7,-6,-1,-1,0,0,13.65
2731,2,-5,-12,5,-1,1,-1,0,13.655000000000001
2732,7,7,5,-7,-1,-3,-1,0,13.66
2733,-1,2,-2,3,1,2,-1,-2,13.665000000000001
2734,0,0,-8,-9,-4,-2,1,-1,13.67
2735,3,2,15,8,1,-1,0,-1,13.675
2736,0,0,-7,-4,-3,1,-1,0,13.68
2737,3,3,-4,-8,-3,-3,-4,-3,13.685
2738,-2,-2,2,9,5,1,0,2,13.69
2739,-1,2,7,0,0,-2,-1,-1,13.695
2740,3,3,-3,8,0,0,-2,0,13.700000000000001
2741,-4,2,4,3,-1,0,-2,-1,13.705
2742,2,1,-6,-6,-2,2,0,0,13.71
2743,-1,-4,-2,-12,-4,-4,-3,-1,13.715
2744,-5,-5,3,13,5,1,0,-1,13.72
2745,1,-1,-2,-1,1,-2,-1,0,13.725
2746,0,4,-1,0,0,0,-2,-2,13.73
2747,0,0,-3,-1,-3,-2,-2,-3,13.735
2748,-3,2,3,-5,-3,-1,-1,-2,13.74
2749,2,-3,-2,-4,-3,-1,0,-1,13.745000000000001
2750,2,-6,5,0,-2,0,1,1,13.75
2751,-7,-6,-15,-1,-2,-1,0,-3,13.755
2752,-5,-3,-4,-4,-2,-1,-2,-1,13.76
2753,1,2,1,2,0,1,1,1,13.765
2754,3,-1,3,-2,-4,-1,-2,-2,13.77
2755,-1,0,10,0,-1,0,-1,-1,13.775
2756,-6,-8,-8,-9,-5,-2,-1,-1,13.780000000000001
2757,-1,-1,1,0,4,2,1,0,13.785
2758,-4,-5,-1,3,-2,-3,1,-1,13.790000000000001
2759,3,2,0,2,2,0,0,1,13.795
2760,-2,-2,-4,-8,-2,-2,0,-1,13.8
2761,0,-4,4,2,0,0,-1,-1,13.805
2762,1,0,-3,-10,-4,0,-3,-2,13.81
2763,1,0,-1,17,7,2,1,1,13.815
2764,-3,-1,3,3,0,0,1,0,13.82
2765,5,0,1,-1,-2,-2,-1,0,13.825000000000001
2766,-2,-1,-4,-4,-3,-1,-1,-1,13.83
2767,-5,-5,-3,-10,-5,-1,-3,-4,13.835
2768,3,2,3,-2,-3,-1,-1,-2,13.84
2769,-1,-6,5,2,-1,1,0,1,13.845
2770,-5,-4,-24,2,1,-1,-3,0,13.85
2771,2,2,-1,-5,-1,0,0,2,13.855
2772,0,2,6,-1,-1,-1,-1,0,13.86
2773,1,2,-9,-5,-2,-1,0,0,13.865
2774,0,1,5,-3,-3,0,0,-1,13.870000000000001
2775,0,0,0,1,1,-1,1,-1,13.875
2776,0,-2,-4,0,-1,-1,1,-1,13.88
2777,0,-1,4,0,-1,-1,1,0,13.885
2778,-2,1,-1,-3,-1,-1,-1,-1,13.89
2779,2,3,1,-1,-3,-1,-1,0,13.895
2780,-4,-1,5,-2,-1,-1,-1,-1,13.9
2781,1,0,-5,-5,-1,-3,-2,-2,13.905000000000001
2782,-1,0,-2,7,1,2,1,0,13.91
2783,1,2,4,4,-1,-2,-1,0,13.915000000000001
2784,-3,-1,-1,-1,1,-1,0,0,13.92
2785,0,1,-4,-6,-3,-2,-1,-1,13.925
2786,-1,1,5,2,1,0,1,1,13.93
2787,-2,2,2,-7,-3,-2,-1,-1,13.935
2788,4,1,8,8,0,1,-1,-2,13.94
2789,-6,0,-19,-7,-2,-1,-3,-1,13.945
2790,0,-3,7,-2,0,0,-1,-1,13.950000000000001
2791,-2,0,-2,10,1,1,0,1,13.955
2792,1,1,2,-3,-2,0,0,0,13.96
2793,-5,-2,-8,1,0,0,2,-1,13.965
2794,1,-1,3,1,-1,-2,-2,-1,13.97
2795,1,-1,-4,-3,1,0,-1,0,13.975
2796,-1,-2,-2,-4,-2,-2,-3,-1,13.98
2797,0,-1,5,2,-3,-1,-2,-2,13.985
2798,-1,2,1,-1,-1,-1,-2,1,13.99
2799,0,-2,-3,-6,-1,1,-1,-1,13.995000000000001
2800,-2,-1,0,7,0,-1,-1,-3,14.0
2801,1,1,3,-2,-1,-1,0,-2,14.005
2802,0,-2,-2,-3,0,-3,1,0,14.01
2803,0,2,1,-4,0,0,1,0,14.015
2804,-4,-1,-5,-3,0,1,1,0,14.02
2805,2,1,6,7,0,0,1,-1,14.025
2806,-1,1,0,0,-3,0,-1,-2,14.030000000000001
2807,-2,-4,-7,-7,-3,-2,-1,-2,14.035
2808,-4,0,-5,-10,-1,-1,0,0,14.040000000000001
2809,1,1,10,-4,-2,-2,-3,-1,14.045
2810,-1,1,-7,-3,0,1,0,1,14.05
2811,0,-1,-4,2,-1,0,-1,-1,14.055
2812,-1,-2,-1,6,0,0,-2,1,14.06
2813,-2,-1,1,-2,-3,0,-2,-1,14.065
2814,3,2,-7,-4,2,-1,1,0,14.07
2815,-2,0,2,0,-1,-1,-1,0,14.075000000000001
2816,4,4,1,-5,-2,-2,-1,0,14.08
2817,-3,0,-2,-7,-2,-1,-2,-1,14.085
2818,-2,-1,10,11,1,1,-2,-1,14.09
2819,0,-1,-5,4,3,0,-1,-1,14.095
2820,-1,-1,-7,-4,-2,-2,0,0,14.1
2821,1,-3,1,4,-1,0,0,1,14.105
2822,-3,-3,-4,-13,-4,-2,0,-1,14.11
2823,-4,-2,5,7,0,0,-3,0,14.115
2824,1,-3,-2,-3,-2,-2,0,0,14.120000000000001
2825,3,0,-4,-2,-2,0,0,1,14.125
2826,2,7,0,2,1,0,2,0,14.13
2827,-4,-1,-1,-6,-2,0,-1,0,14.135
2828,-2,1,-1,1,0,1,-1,-1,14.14
2829,3,2,0,-4,1,-1,0,2,14.145
2830,1,-4,4,-1,-1,-4,-2,-3,14.15
2831,-4,-2,-2,0,-5,-2,-1,-1,14.155000000000001
2832,-5,-5,-6,-6,-4,-2,-1,-3,14.16
2833,-7,-2,-1,1,2,1,-1,0,14.165000000000001
2834,-2,-1,-11,-7,-2,-2,-4,-2,14.17
2835,2,0,6,3,1,-2,0,2,14.175
2836,3,1,1,4,2,1,0,0,14.18
2837,-3,0,-5,0,-2,-2,-2,-2,14.185
2838,0,-3,1,0,-1,-1,1,-1,14.19
2839,-1,4,1,-6,-3,0,-1,-2,14.195
2840,2,-3,-2,-4,-3,-2,-2,-1,14.200000000000001
2841,-2,-5,-1,0,-1,-2,-1,-2,14.205
2842,-2,-1,-4,-5,-2,-1,-1,-1,14.21
2843,-3,-3,-3,-3,-1,-1,-1,-4,14.215
2844,4,0,2,3,0,0,1,1,14.22
2845,-7,-1,-1,1,3,1,1,-3,14.225
2846,0,-1,1,8,0,0,-2,-1,14.23
2847,3,1,2,-3,-2,-2,0,-1,14.235
2848,-5,-3,5,1,1,-1,-1,-1,14.24
2849,0,-5,-1,-6,-1,-2,-3,-2,14.245000000000001
2850,2,-1,-4,-6,0,1,0,1,14.25
2851,3,4,6,5,1,-1,1,1,14.255
2852,-1,1,-8,4,3,1,-1,0,14.26
2853,-2,-1,0,-2,-2,-2,-1,-1,14.265
2854,-6,-3,1,-1,-1,-1,-2,-2,14.27
2855,6,-1,-5,-3,0,0,0,-1,14.275
2856,-1,0,5,4,-2,-2,-1,-2,14.280000000000001
2857,2,1,3,-4,-1,-2,0,0,14.285
2858,-2,-1,3,11,2,1,1,-1,14.290000000000001
2859,-2,-4,-13,-10,-1,1,-1,-1,14.295
2860,-1,2,2,5,0,1,-1,0,14.3
2861,-3,-3,-7,-5,-3,0,-2,-2,14.305
2862,1,-2,-1,-1,-4,0,-2,-1,14.31
2863,0,-1,2,-3,-2,-1,0,-1,14.315
2864,-1,-2,-3,-2,-2,-1,-1,-3,14.32
2865,0,-1,2,2,-2,0,-2,-1,14.325000000000001
2866,-4,-1,1,5,2,0,-3,0,14.33
2867,-1,0,5,-8,-6,-3,-4,-2,14.335
2868,0,-4,-10,6,1,0,0,-2,14.34
2869,0,2,1,1,-1,-1,1,-2,14.345
2870,1,4,-5,-10,-3,-1,1,0,14.35
2871,2,1,6,11,1,1,-1,0,14.355
2872,-4,-2,7,-2,-1,0,-1,-2,14.36
2873,3,0,-2,4,3,1,1,1,14.365
2874,2,3,3,-1,0,0,2,-1,14.370000000000001
2875,-2,0,-7,-3,-1,-1,-2,0,14.375
2876,-1,-3,2,-1,-1,0,-1,-1,14.38
2877,0,-1,-3,0,-1,0,-1,-1,14.385
2878,1,1,-2,-3,-1,-1,-1,-2,14.39
2879,-5,-3,4,-5,-1,-2,-2,0,14.395
2880,3,2,-6,-5,-1,-2,-1,-1,14.4
2881,-7,0,1,-2,-1,-1,-1,-2,14.405000000000001
2882,0,-2,6,0,-4,-1,0,-1,14.41
2883,1,-1,-13,-1,-1,0,2,-1,14.415000000000001
2884,0,-1,1,-5,-2,-1,-1,0,14.42
2885,-3,-3,1,-1,0,0,-1,-2,14.425
2886,-1,-2,0,-5,-2,-2,-3,-1,14.43
2887,-2,-2,6,6,2,0,1,0,14.435
2888,-1,-4,-5,-4,-1,0,-1,-1,14.44
2889,3,1,1,-7,-2,-1,1,2,14.445
2890,-5,-3,-2,10,2,1,-3,-1,14.450000000000001
2891,-3,1,0,2,0,0,0,-1,14.455
2892,0,-1,-2,-10,-2,1,-1,-1,14.46
2893,-2,0,3,3,-1,-1,0,0,14.465
2894,-1,-2,-4,-2,-1,-1,-1,-2,14.47
2895,-4,2,1,6,1,-1,-1,-3,14.475
2896,1,5,1,5,-2,0,1,1,14.48
2897,-5,-3,-6,5,2,-2,-2,0,14.485
2898,7,2,1,0,-2,1,1,1,14.49
2899,-6,-1,-5,-2,1,-1,0,-2,14.495000000000001
2900,0,2,0,-4,-2,-3,0,1,14.5
2901,1,0,2,3,0,0,0,0,14.505
2902,-3,-4,0,-2,-1,0,0,-1,14.51
2903,3,-4,0,-1,-1,0,-2,0,14.515
2904,-2,2,4,-1,0,0,-1,1,14.52
2905,2,3,-3,1,-1,-2,2,-2,14.525
2906,-5,-2,1,-2,-2,-2,-2,-1,14.530000000000001
2907,-1,-1,3,1,-1,0,0,-1,14.535
2908,-1,-3,-8,-2,-1,-2,-1,-2,14.540000000000001
2909,-4,-2,-2,-4,-1,0,-3,-1,14.545
2910,3,2,-4,-3,-2,-2,1,-1,14.55
2911,-4,-2,-1,-5,-2,-2,0,-2,14.555
2912,4,5,5,6,0,1,-2,0,14.56
2913,1,0,-3,-6,-2,2,0,0,14.565
2914,6,4,1,-5,-1,0,1,1,14.57
2915,0,-2,-11,-2,0,-1,-2,0,14.575000000000001
2916,3,-4,-1,-12,-3,-3,1,-2,14.58
2917,-4,-4,-2,5,-1,-1,-1,-1,14.585
2918,-4,2,-4,3,1,1,-1,-1,14.59
2919,1,-2,2,-4,-1,1,-1,-2,14.595
2920,-6,0,-3,-1,0,1,0,-2,14.6
2921,6,4,5,-1,0,0,0,-1,14.605
2922,-2,-1,-2,-4,-2,-3,-2,0,14.61
2923,-2,-2,6,3,-2,-2,-1,-1,14.615
2924,-3,-2,-12,6,1,1,-1,-2,14.620000000000001
2925,4,4,1,1,1,1,1,1,14.625
2926,-3,-4,-2,0,1,0,0,-2,14.63
2927,-3,3,-5,-6,-5,-2,-2,-1,14.635
2928,3,1,10,3,1,1,0,-1,14.64
2929,3,0,0,1,0,0,0,-1,14.645
2930,-1,0,-6,-5,1,-1,-4,-2,14.65
2931,-3,-3,3,2,-2,-3,-1,-2,14.655000000000001
2932,0,1,-8,-8,-4,-2,0,-1,14.66
2933,-2,-1,-2,6,2,0,0,-2,14.665000000000001
2934,0,-1,-2,-3,-2,-1,1,-1,14.67
2935,1,-2,2,-8,-3,-3,0,-1,14.675
2936,-3,1,6,14,3,-1,1,0,14.68
2937,-2,-1,-6,-8,-2,-1,-2,-1,14.685
2938,-7,-4,-1,3,1,0,-1,-1,14.69
2939,-1,-1,-6,-3,-2,-1,-1,2,14.695
2940,-2,-3,4,-4,-3,-1,-3,1,14.700000000000001
2941,3,2,6,-6,-2,-1,-3,-1,14.705
2942,-2,1,-8,3,0,-1,-1,-2,14.71
2943,1,3,-3,9,3,1,-1,1,14.715
2944,-3,-4,-4,-6,-2,-1,-2,-1,14.72
2945,-4,-2,1,-9,-2,-1,-2,-1,14.725
2946,2,0,-6,1,-3,0,-1,0,14.73
2947,-1,0,2,-4,0,-1,-1,0,14.735
2948,-1,-4,2,8,1,-1,-1,1,14.74
2949,-1,-1,-5,-3,-3,-3,-1,-3,14.745000000000001
2950,2,0,5,-5,-1,0,0,-1,14.75
2951,1,1,-3,-5,-1,1,2,-1,14.755
2952,0,-1,4,-9,-4,0,-2,-1,14.76
2953,-2,-3,-8,13,4,1,1,0,14.765
2954,-2,0,2,0,0,-3,0,-2,14.77
2955,5,0,1,4,2,0,-1,0,14.775
2956,0,2,-7,-8,-1,-2,-1,-1,14.780000000000001
2957,-3,-3,4,5,-1,-3,-2,-3,14.785
2958,1,1,4,0,0,0,0,0,14.790000000000001
2959,-2,0,-5,-8,-3,0,-1,1,14.795
2960,1,-1,2,4,3,0,0,-1,14.8
2961,2,0,0,-1,-2,-1,0,1,14.805
2962,-2,0,3,-1,0,0,0,-1,14.81
2963,0,-3,4,7,-1,-3,-2,-2,14.815
2964,-1,2,-19,-6,0,0,0,-2,14.82
2965,5,0,1,3,1,0,0,2,14.825000000000001
2966,-6,0,0,-2,-1,0,-2,-1,14.83
2967,2,-1,1,-9,-2,0,1,1,14.835
2968,2,-2,7,9,1,0,0,0,14.84
2969,-11,-5,-9,1,-2,-1,-2,-2,14.845
2970,1,0,1,-1,-1,-1,1,2,14.85
2971,-5,-4,-2,0,-1,-1,-1,-2,14.855
2972,-2,2,0,-5,-4,-2,-1,0,14.86
2973,1,-2,4,3,1,0,1,0,14.865
2974,1,-1,-3,-1,-1,-1,-1,0,14.870000000000001
2975,0,-1,-6,1,-1,-1,-2,-2,14.875
2976,-1,-3,-3,-7,-2,-2,-1,0,14.88
2977,2,3,0,-6,-4,-2,-2,-1,14.885
2978,-2,-2,-1,-1,-1,0,-1,0,14.89
2979,3,1,-4,-4,-1,0,2,1,14.895
2980,-2,1,1,6,0,0,0,1,14.9
2981,-1,3,2,-3,-2,1,-1,-1,14.905000000000001
2982,2,0,-10,-2,-1,2,0,-2,14.91
2983,2,0,2,3,1,0,-1,-2,14.915000000000001
2984,2,-2,-1,-3,-2,-1,-1,-1,14.92
2985,1,-2,-3,-1,-2,-1,0,0,14.925
2986,1,0,7,-2,-2,-1,0,0,14.93
2987,-2,0,5,8,1,0,-2,0,14.935
2988,1,0,6,-11,-2,0,-3,-1,14.94
2989,0,-1,-5,4,2,-2,-1,-3,14.945
2990,-2,-1,-5,0,3,0,-1,0,14.950000000000001
2991,2,0,1,-7,-2,1,0,-1,14.955
2992,-5,-3,1,14,4,-1,0,-3,14.96
2993,-7,-2,0,-9,-6,-2,-3,-1,14.965
2994,-2,-2,1,-2,-2,0,0,0,14.97
2995,-2,0,0,-2,2,0,-2,1,14.975
2996,1,0,-1,3,0,0,0,0,14.98
2997,-3,-2,-8,-3,-3,-2,0,-2,14.985
2998,-4,-6,-3,5,1,-2,-2,-3,14.99
2999,-3,0,-1,-9,-4,-4,-2,-1,14.995000000000001
3000,3,-2,4,6,0,0,0,-1,15.0
3001,-2,0,-5,-1,0,0,0,-1,15.005
3002,2,1,0,-3,-1,1,1,1,15.01
3003,-3,-2,0,2,-1,0,-1,-1,15.015
3004,-6,0,-9,-3,0,-1,0,-1,15.02
3005,2,-1,6,-6,-1,0,-1,1,15.025
3006,1,0,4,5,-1,0,-2,-4,15.030000000000001
3007,-5,-6,-5,4,1,-1,-1,-3,15.035
3008,-3,2,0,-4,-1,-1,0,1,15.040000000000001
3009,1,-3,-3,-11,-1,-2,0,0,15.045
3010,0,0,-4,-4,-3,-1,0,0,15.05
3011,3,1,2,10,0,-2,0,1,15.055
3012,-5,-5,3,-8,-6,-3,-2,-2,15.06
3013,-3,-1,-9,5,4,-1,-1,-4,15.065
3014,0,0,1,-4,-2,-1,0,-1,15.07
3015,1,2,-6,-3,2,0,0,-2,15.075000000000001
3016,3,1,3,1,-1,0,-1,1,15.08
3017,0,5,6,9,0,0,-1,0,15.085
3018,0,2,-1,-1,3,-1,0,1,15.09
3019,-4,-3,-1,3,-1,0,0,-1,15.095
3020,0,1,4,-6,0,-2,-1,0,15.1
3021,-3,-5,-13,-1,0,0,-1,-1,15.105
3022,0,-2,2,-3,-1,-2,-3,-1,15.11
3023,2,3,0,1,0,0,0,1,15.115
3024,-5,-6,-2,-8,-2,2,0,-3,15.120000000000001
3025,2,1,5,5,0,-1,-1,-1,15.125
3026,2,1,2,1,1,0,1,0,15.13
3027,-5,-5,-10,-13,-4,-1,0,-2,15.135
3028,-4,-6,-5,4,-1,-2,-2,-2,15.14
3029,5,2,2,-3,2,2,2,1,15.145
3030,0,2,1,0,-2,0,-1,-1,15.15
3031,-2,0,5,3,2,0,-1,1,15.155000000000001
3032,2,3,-7,0,-1,0,-1,0,15.16
3033,1,2,1,-9,-3,-1,-2,-1,15.165000000000001
3034,-4,-5,2,5,-2,-3,-3,-3,15.17
3035,2,4,-1,3,2,1,3,-1,15.175
3036,-3,0,2,-5,-1,0,-1,-1,15.18
3037,0,0,1,6,1,0,-1,0,15.185
3038,-5,1,-1,-3,-1,-1,-1,-1,15.19
3039,-9,-8,-5,-16,-9,-4,-3,-2,15.195
3040,-1,-3,-6,6,2,-1,1,-2,15.200000000000001
3041,-4,0,1,-1,-1,0,0,0,15.205
3042,-4,-4,-9,-4,-1,-1,-1,-1,15.21
3043,3,-2,1,8,-1,0,-1,1,15.215
3044,1,4,3,-5,-2,-2,-1,1,15.22
3045,-1,-2,1,-2,-3,-2,-1,0,15.225
3046,2,1,3,2,-2,-1,-1,-2,15.23
3047,3,3,0,-2,1,-1,-1,2,15.235
3048,-4,-1,-3,-1,-2,-1,-2,-3,15.24
3049,-1,0,1,2,-1,0,-1,0,15.245000000000001
3050,0,0,1,-3,-1,0,-1,1,15.25
3051,1,-1,3,-3,-2,0,-1,-2,15.255
3052,-4,-5,0,10,3,0,-1,-2,15.26
3053,-2,-5,1,-4,-1,-3,-1,-2,15.265
3054,0,-2,-7,-10,-1,-1,-1,0,15.27
3055,-3,-2,3,15,4,1,0,-1,15.275
3056,-1,1,-4,-7,-3,-1,-2,1,15.280000000000001
3057,-4,-2,-1,4,-1,-1,1,-1,15.285
3058,2,-3,5,1,-1,-1,2,1,15.290000000000001
3059,2,1,-5,-5,-2,-2,0,-1,15.295
3060,0,-2,0,-1,-2,0,-1,-1,15.3
3061,0,-1,-1,0,-2,1,-1,-1,15.305
3062,-2,1,-1,-6,1,0,0,0,15.31
3063,-2,-1,2,5,-2,-1,-3,-4,15.315
3064,-1,-2,3,-5,-2,-1,0,-2,15.32
3065,6,2,-5,6,0,-2,0,1,15.325000000000001
3066,-7,0,-7,-2,3,-2,-1,-2,15.33
3067,-3,-1,-3,-1,0,1,0,0,15.335
3068,3,2,6,-2,-3,-2,0,0,15.34
3069,-1,-2,7,-3,0,0,0,0,15.345
3070,-2,-1,-5,-2,-2,-2,-1,-2,15.35
3071,0,-3,-5,-7,0,0,-1,-1,15.355
3072,1,0,3,14,1,0,-1,0,15.36
3073,0,1,6,-1,-2,0,-1,0,15.365
3074,0,-2,-8,0,0,-1,0,-1,15.370000000000001
3075,0,-1,-3,-1,0,0,0,1,15.375
3076,2,1,-4,-9,0,-1,1,-2,15.38
3077,-5,0,-2,-1,1,1,-1,-2,15.385
3078,0,-1,5,1,-2,-1,-1,-2,15.39
3079,3,3,-1,-10,-3,-1,-2,0,15.395
3080,-2,1,1,4,2,0,-2,-1,15.4
3081,2,5,-6,4,1,-1,-1,-1,15.405000000000001
3082,-3,0,4,-1,-1,0,0,-1,15.41
3083,0,1,-10,1,-1,-1,0,0,15.415000000000001
3084,2,0,-1,-3,-2,0,0,2,15.42
3085,-2,-3,-4,-13,-2,-1,-1,-1,15.425
3086,1,-3,12,12,1,-2,0,-1,15.43
3087,-4,-3,-4,12,3,-2,0,-1,15.435
3088,-1,-3,-1,7,-1,1,0,0,15.44
3089,-3,-3,0,-8,-4,-2,-3,-4,15.445
3090,2,1,8,-8,-1,0,-1,1,15.450000000000001
3091,2,-3,-3,10,-1,-3,0,-2,15.455
3092,2,6,-5,1,1,1,-1,0,15.46
3093,-1,-1,0,-4,2,3,1,2,15.465
3094,-1,1,-3,-4,-5,-2,-3,-1,15.47
3095,2,2,6,-10,-4,-5,-4,-1,15.475
3096,-2,-2,-7,-3,0,0,0,0,15.48
3097,2,0,0,-2,-3,-3,-1,0,15.485000000000001
3098,1,4,-8,-11,-3,2,-1,-1,15.49
3099,0,-1,10,3,0,3,0,1,15.495000000000001
3100,-3,-2,-9,7,-1,-1,-1,-1,15.5
3101,-2,-1,3,6,-1,0,-2,-1,15.505
3102,-3,-2,-9,-3,-1,1,2,1,15.51
3103,-9,-5,-1,-12,-4,-3,-4,-4,15.515
3104,1,-2,3,-6,-1,-1,-1,1,15.52
3105,-1,1,-7,8,-1,1,1,-2,15.525
3106,-2,-2,-2,1,0,-1,0,-2,15.530000000000001
3107,4,-1,4,-3,-3,-1,-2,0,15.535
3108,-3,-3,-10,-7,-3,-2,1,1,15.540000000000001
3109,-3,-6,-9,9,2,-1,0,1,15.545
3110,1,-1,-4,1,-2,-1,-2,0,15.55
3111,-3,4,4,-3,-1,-2,-1,-3,15.555
3112,-3,-4,6,-4,-2,-1,-1,-1,15.56
3113,2,2,8,-16,-6,0,0,-2,15.565
3114,-3,2,-16,28,9,3,0,0,15.57
3115,-5,-3,0,9,1,-1,-3,-1,15.575000000000001
3116,2,2,-2,0,0,-1,-1,-1,15.58
3117,-3,-1,0,-14,-6,-5,-2,-3,15.585
3118,2,-1,7,-3,-1,-2,-2,-1,15.59
3119,-1,0,-8,-21,-7,-1,0,-3,15.595
3120,-2,-3,0,14,3,1,-2,-1,15.6
3121,-1,-1,-1,10,2,-2,0,-1,15.605
3122,-1,0,4,2,-2,-1,-1,-1,15.610000000000001
3123,4,1,1,-4,-1,-1,0,0,15.615
3124,-2,-4,-1,-2,-1,-3,-1,-4,15.620000000000001
3125,1,-1,1,-1,-1,1,0,0,15.625
3126,1,0,2,-6,-3,2,1,1,15.63
3127,-1,-1,21,1,-1,-1,-3,-1,15.635
3128,-2,4,-18,18,2,-6,-5,-4,15.64
3129,-7,2,-2,3,1,0,-2,-1,15.645
3130,-3,-4,1,1,0,-1,1,-3,15.65
3131,3,0,3,-6,-3,2,2,0,15.655000000000001
3132,5,2,11,-1,1,1,-3,1,15.66
3133,-1,-4,-10,-4,-2,-2,-1,0,15.665000000000001
3134,-3,-2,2,0,-1,-1,1,2,15.67
3135,-2,-1,-7,0,2,2,1,0,15.675
3136,0,-1,1,-3,-4,-1,1,-2,15.68
3137,2,0,-2,-18,-1,-1,-2,-1,15.685
3138,0,-3,-5,-3,-2,1,-1,-1,15.69
3139,3,1,-2,7,-1,-1,1,0,15.695
3140,3,-2,5,-3,0,2,1,2,15.700000000000001
3141,-5,-5,-5,0,0,0,-1,-2,15.705
3142,3,2,6,-1,-3,-6,-5,-1,15.71
3143,0,3,-5,-5,0,-2,-1,-2,15.715
3144,3,6,-7,-18,-5,1,-1,-1,15.72
3145,0,3,-4,5,-1,1,0,-1,15.725
3146,0,-2,-6,5,0,0,0,0,15.73
3147,-3,-3,3,1,-2,-2,-1,0,15.735000000000001
3148,-1,-5,10,-2,0,1,5,1,15.74
3149,0,-5,-5,-4,-3,-5,-3,2,15.745000000000001
3150,-2,-2,-7,-1,-2,-4,-4,-4,15.75
3151,4,2,0,-15,-2,-2,-2,0,15.755
3152,-5,1,-1,14,1,-2,-3,-4,15.76
3153,-2,0,10,14,-1,0,0,-1,15.765
3154,-2,-2,-13,-11,0,3,2,0,15.77
3155,0,-2,2,15,5,3,0,-1,15.775
3156,-1,-1,-9,-17,-7,-3,-3,-3,15.780000000000001
3157,0,-1,0,0,1,0,0,-3,15.785
3158,-1,2,4,-13,-4,-4,-4,-3,15.790000000000001
3159,-1,-1,-10,9,-1,-1,-1,-3,15.795
3160,2,1,14,-5,-1,1,0,-1,15.8
3161,-2,-2,-1,-2,1,0,1,3,15.805
3162,-3,-4,-2,2,2,0,0,-1,15.81
3163,-1,0,3,-7,1,1,2,2,15.815
3164,-1,-2,4,6,-4,-4,-3,0,15.82
3165,1,4,7,-4,3,2,5,3,15.825000000000001
3166,-1,-7,-31,-5,-1,-2,-4,0,15.83
3167,-2,6,7,2,2,-1,0,1,15.835
3168,1,12,13,9,4,-3,-4,-7,15.84
3169,10,7,-10,-9,-1,-1,-2,0,15.845
3170,1,5,13,10,-2,-2,2,-3,15.85
3171,2,-2,-20,-3,0,2,4,2,15.855
3172,-6,-6,22,-21,-6,3,-1,1,15.860000000000001
3173,-10,-8,-10,21,6,1,0,-5,15.865
3174,-6,-4,-17,10,0,-6,-6,0,15.870000000000001
3175,-2,-3,-13,0,-4,-5,-4,-2,15.875
3176,6,0,3,-27,-6,-3,1,-1,15.88
3177,-7,-2,9,3,-2,0,-2,-5,15.885
3178,-6,-6,-13,0,2,6,1,-3,15.89
3179,-9,-3,-2,-18,-6,-1,3,-9,15.895
3180,7,8,17,1,3,3,0,3,15.9
3181,-8,-8,-22,0,-3,-10,-10,-4,15.905000000000001
3182,-1,-6,-21,5,-1,-6,-7,-4,15.91
3183,1,-1,5,-11,2,2,2,0,15.915000000000001
3184,-4,-7,-30,-7,3,4,7,3,15.92
3185,4,4,41,-10,-2,4,3,-4,15.925
3186,-2,3,-9,21,-3,-9,-7,-4,15.93
3187,-3,-1,26,-29,-8,-4,-10,-3,15.935
3188,-15,-5,-60,36,5,-3,-5,-5,15.94
3189,-10,21,-10,-20,-5,1,6,2,15.945
3190,8,18,2,-2,2,2,6,-5,15.950000000000001
3191,-6,4,-1,13,4,0,2,5,15.955
3192,-5,0,-7,-61,-17,-9,-6,-6,15.96
3193,13,4,14,37,7,-4,-11,0,15.965
3194,-12,14,33,8,-4,0,0,-5,15.97
3195,16,21,1,11,2,12,7,8,15.975
3196,7,29,16,36,8,-6,-1,2,15.98
3197,-12,40,-9,-15,-9,-8,3,1,15.985000000000001
3198,10,53,-4,-39,0,20,20,1,15.99
3199,10,33,2,34,12,5,0,-5,15.995000000000001
3200,-15,70,-4,-1,-3,-26,-35,-7,16.0
3201,11,33,1,13,-5,-12,-5,1,16.005
3202,-10,14,25,20,9,14,14,-3,16.01
3203,-12,17,1,-40,-12,-16,-12,-5,16.015
3204,5,16,14,22,3,13,16,10,16.02
3205,17,-45,3,0,9,28,32,19,16.025
3206,1,40,-11,-58,-25,-35,-33,4,16.03
3207,4,-17,-34,52,22,12,14,-4,16.035
3208,0,-42,105,17,2,15,11,-6,16.04
3209,10,-30,-120,-10,-2,-19,-43,-9,16.045
3210,-3,-69,95,-2,-10,-10,13,2,16.05
3211,-13,-33,38,37,-6,2,1,-3,16.055
3212,25,-32,-128,-33,11,-10,-15,17,16.06
3213,2,-16,73,-41,-14,18,31,-1,16.065
3214,2,-40,30,52,15,-23,-34,-8,16.07
3215,4,-17,-78,-77,-13,15,28,15,16.075
3216,35,-29,0,-10,8,41,43,3,16.080000000000002
3217,-50,4,-67,45,3,-41,-54,-21,16.085
3218,-11,-15,-14,1,-35,-87,-79,-3,16.09
3219,-1,-33,44,-42,-8,8,17,8,16.095
3220,-30,1,-23,-16,-6,13,14,-7,16.1
3221,1,-2,110,5,6,47,48,1,16.105
3222,24,-11,1,-77,-2,38,29,-1,16.11
3223,10,-1,-70,112,62,17,-2,-3,16.115000000000002
3224,-6,-1,0,-71,-37,-57,-37,-23,16.12
3225,1,0,32,10,1,-7,0,14,16.125
3226,-14,-15,4,-54,-28,-40,-55,-28,16.13
3227,-1,-1,126,-25,-41,-19,-18,14,16.135
3228,-3,-1,-77,53,57,44,42,21,16.14
3229,-11,-2,-23,-92,-26,-17,3,4,16.145
3230,41,-8,-78,127,54,59,42,22,16.15
3231,-5,5,19,-38,-21,2,10,-22,16.155
3232,-8,2,79,-46,-15,33,32,-1,16.16
3233,4,5,-25,26,11,-32,-59,-1,16.165
3234,-2,-3,-80,-63,-8,3,30,-7,16.17
3235,-6,3,-12,-21,-9,-39,-34,3,16.175
3236,-5,-1,-8,127,15,8,-6,-18,16.18
3237,0,18,28,-70,-21,-29,-10,-11,16.185
3238,-15,-11,32,65,32,61,54,16,16.19
3239,45,-2,21,38,5,-7,4,24,16.195
3240,-6,3,17,-121,-51,-72,-56,1,16.2
3241,-1,0,-76,93,35,23,7,-18,16.205000000000002
3242,40,-2,105,36,11,45,37,25,16.21
3243,-44,1,-84,-19,22,13,-1,-4,16.215
3244,2,-11,-33,5,-5,-25,-34,-25,16.22
3245,-11,-3,45,-92,-63,9,46,26,16.225
3246,-3,5,-51,43,78,17,-31,-15,16.23
3247,28,4,12,-76,-38,-45,-17,16,16.235
3248,-31,8,49,-7,-7,3,-14,-2,16.240000000000002
3249,4,4,-86,-41,29,21,25,5,16.245
3250,7,-7,118,-86,-51,-13,21,-4,16.25
3251,31,5,-59,-53,8,27,5,15,16.255
3252,-38,-3,-94,63,45,-14,-35,-29,16.26
3253,65,10,111,-76,-3,55,64,13,16.265
3254,-10,5,56,-9,-27,-34,-17,5,16.27
3255,-20,-12,-29,31,-15,-59,-87,-47,16.275
3256,6,7,127,-74,-23,27,78,16,16.28
3257,-27,-4,-29,38,6,-44,-97,-30,16.285
3258,42,-5,29,-73,1,39,49,39,16.29
3259,-94,-8,-69,71,0,-66,-44,-58,16.295
3260,61,-5,-23,28,-4,16,19,24,16.3
3261,14,-4,92,-89,-33,7,-5,-33,16.305
3262,28,9,-123,68,45,12,-4,14,16.31
3263,-47,-5,127,-127,-46,-5,20,10,16.315
3264,-22,-1,-33,112,39,2,-1,14,16.32
3265,21,-1,-8,-65,4,16,11,7,16.325
3266,-22,-10,16,-27,-9,-10,3,-10,16.330000000000002
3267,30,14,-63,68,39,55,32,2,16.335
3268,28,-2,59,-123,-18,8,-1,22,16.34
3269,-19,-8,-72,127,37,-15,-10,-8,16.345
3270,-25,-2,86,-63,-24,-5,-22,-12,16.35
3271,-35,3,95,-72,-33,-74,-43,-12,16.355
3272,-19,-9,-3,-50,-25,-32,-47,-23,16.36
3273,18,0,72,127,49,55,41,13,16.365000000000002
3274,31,9,41,-69,4,29,35,-18,16.37
3275,23,5,-87,10,1,25,25,80,16.375
3276,0,2,-13,-21,-21,-26,12,12,16.38
3277,38,15,98,-35,-2,18,7,37,16.385
3278,-54,-19,-128,-7,6,-56,-58,-35,16.39
3279,4,-12,127,36,-10,-34,-53,-75,16.395
3280,14,-3,-27,-45,0,44,50,9,16.4
3281,-6,-11,-22,80,37,44,35,-5,16.405
3282,-9,10,56,-101,-54,-41,-32,19,16.41
3283,20,-11,127,-99,-6,63,60,8,16.415
3284,-6,4,-123,45,73,-25,-37,15,16.42
3285,-62,-3,-23,-116,-50,-77,-52,-63,16.425
3286,-3,-2,28,-83,-28,4,13,27,16.43
3287,-21,-19,-128,9,28,69,70,22,16.435
3288,21,0,127,85,-19,13,19,11,16.44
3289,14,-6,-43,-90,-9,-7,-14,22,16.445
3290,-35,-16,-107,127,27,-54,-73,-28,16.45
3291,15,10,-2,-16,6,7,1,-11,16.455000000000002
3292,-10,-4,62,-28,-27,-25,-6,-2,16.46
3293,-4,6,-22,19,14,20,35,37,16.465
3294,-2,10,71,-56,-34,-13,-15,-14,16.47
3295,31,4,-57,107,36,9,7,20,16.475
3296,-15,-6,-45,-93,-26,19,9,-21,16.48
3297,2,-8,-29,58,44,8,0,8,16.485
3298,39,9,64,-75,-35,-30,-14,-12,16.490000000000002
3299,-4,2,-39,96,67,45,28,1,16.495
3300,-15,0,-32,-109,-28,-25,-24,-18,16.5
3301,-30,-9,-59,55,-20,-41,-38,-8,16.505
3302,-4,-2,8,-9,12,31,32,0,16.51
3303,8,-9,46,-29,-18,-13,-9,-2,16.515
3304,0,2,22,1,7,13,-1,-5,16.52
3305,-11,-5,0,-12,-14,-18,-12,-7,16.525
3306,-32,1,-7,63,20,27,15,-16,16.53
3307,15,3,5,-35,0,39,40,10,16.535
3308,-19,-4,-38,25,-23,-90,-69,-22,16.54
3309,0,1,37,-47,-18,5,6,8,16.545
3310,9,-5,-47,28,7,3,2,-14,16.55
3311,0,6,-7,-22,-11,-7,-1,16,16.555
3312,-12,4,12,-5,18,37,16,-14,16.56
3313,-2,1,8,-15,-5,-11,5,-10,16.565
3314,5,-3,-2,19,4,17,19,13,16.57
3315,6,-3,-42,-22,-7,-5,-11,-12,16.575
3316,4,-1,63,87,20,3,1,4,16.580000000000002
3317,-4,2,-29,-44,-23,-22,-18,-16,16.585
3318,2,3,-2,1,8,19,26,15,16.59
3319,-12,2,-12,53,9,-17,-22,-14,16.595
3320,-2,-1,-34,-17,-4,2,1,3,16.6
3321,-5,2,8,-30,-8,3,4,-3,16.605
3322,-6,1,12,6,8,6,2,5,16.61
3323,-4,1,-1,-36,-16,-20,-13,-3,16.615000000000002
3324,4,-1,8,3,3,16,4,3,16.62
3325,11,-1,7,1,3,5,3,2,16.625
3326,-6,0,-9,5,-1,-8,-3,5,16.63
3327,-1,-3,19,-12,-5,-9,-7,-2,16.635
3328,5,-5,-11,12,8,15,15,-1,16.64
3329,-8,-3,21,-6,-6,-8,-12,-10,16.645
3330,-19,-4,-21,12,7,9,-3,-8,16.65
3331,-1,1,1,-16,-3,3,3,15,16.655
3332,8,1,2,-6,4,9,12,11,16.66
3333,7,1,11,2,0,-8,-3,5,16.665
3334,-3,-8,-23,1,-4,-5,0,-1,16.67
3335,-8,-2,12,-15,-4,-2,-9,-17,16.675
3336,-5,-6,5,-3,-1,2,-1,-3,16.68
3337,1,-2,-2,3,-2,-1,-2,-3,16.685
3338,2,-5,-13,4,-1,1,1,3,16.69
3339,4,-3,16,-13,-6,-3,-3,-3,16.695
3340,5,-6,-8,1,-1,0,-2,1,16.7
3341,-6,-4,-7,-3,0,2,2,-3,16.705000000000002
3342,-5,-8,4,0,1,0,-1,0,16.71
3343,1,0,1,-8,-4,-7,-4,-3,16.715
3344,1,0,-1,0,1,2,1,-2,16.72
3345,1,-4,-3,-2,0,2,-2,-2,16.725
3346,2,0,-5,0,-1,-3,3,6,16.73
3347,-2,5,6,-2,-2,-4,-4,-3,16.735
3348,3,3,-1,7,1,5,3,3,16.740000000000002
3349,-2,-3,5,-7,1,-5,-2,-1,16.745
3350,0,-1,-7,2,-1,-3,-2,0,16.75
3351,0,1,0,-5,-2,-1,-1,-3,16.755
3352,7,3,-1,-5,-2,3,-2,0,16.76
3353,-3,-1,5,0,-2,1,0,2,16.765
3354,-4,-3,-5,-7,-2,-2,-2,-2,16.77
3355,1,4,5,-1,-3,-3,-2,-5,16.775
3356,-1,-3,22,11,1,-2,-3,0,16.78
3357,2,-2,-20,-2,3,0,2,0,16.785
3358,-2,-1,4,5,-2,-1,0,-1,16.79
3359,0,0,3,-18,-3,-1,-1,1,16.795
3360,-1,0,18,-6,-6,-4,-1,-3,16.8
3361,-1,-2,9,-1,-2,-1,-1,-3,16.805
3362,0,3,10,2,3,1,1,-1,16.81
3363,6,-1,13,4,0,-1,-1,1,16.815
3364,-2,-1,-13,-4,1,1,1,0,16.82
3365,2,-5,-2,-8,-2,-1,-1,-1,16.825
3366,1,-11,-18,0,1,-3,0,2,16.830000000000002
3367,-4,-81,-12,1,-1,-1,0,-1,16.835
3368,-2,-109,-12,-5,0,2,-1,-2,16.84
3369,-1,-128,-10,1,-1,0,-3,-2,16.845
3370,0,-107,-2,-7,-4,-1,0,0,16.85
3371,-3,-100,10,10,0,-1,-2,-3,16.855
3372,0,-110,3,-2,1,0,1,0,16.86
3373,3,-128,11,0,-1,-1,0,1,16.865000000000002
3374,-4,-22,8,-3,-4,-1,-1,-2,16.87
3375,1,-4,22,-23,-9,-3,-2,-4,16.875
3376,-5,31,-8,37,10,2,1,-1,16.88
3377,1,87,7,-1,0,-1,0,0,16.885
3378,-5,44,-13,-5,-2,0,-1,1,16.89
3379,3,127,-17,2,-1,1,-1,0,16.895
3380,-6,108,-7,0,-1,0,-2,-2,16.9
3381,-4,98,-22,-6,1,0,-2,-2,16.905
3382,1,91,-13,21,2,2,0,1,16.91
3383,-3,7,-14,-5,-4,-3,-1,-3,16.915
3384,4,-24,-2,-12,-5,-2,0,0,16.92
3385,-1,-8,-34,8,3,1,1,0,16.925
3386,1,19,-2,-9,-1,-1,-2,-1,16.93
3387,-2,78,-10,-1,-1,0,-1,-2,16.935
3388,-1,92,-8,-13,-5,-2,-3,-3,16.94
3389,-1,86,11,7,0,-1,1,-1,16.945
3390,2,57,0,-4,-1,-1,-1,-3,16.95
3391,3,27,-1,10,2,1,2,2,16.955000000000002
3392,3,30,-8,-14,-2,-1,-1,0,16.96
3393,-1,24,21,5,-3,-2,-2,-1,16.965
3394,5,11,-8,-4,-1,1,-1,-1,16.97
3395,2,-3,-4,4,1,0,1,-2,16.975
3396,-3,1,9,4,1,-1,0,0,16.98
3397,-1,5,-12,-11,-3,0,1,-1,16.985
3398,-1,-6,16,9,0,-2,-2,-1,16.990000000000002
3399,-1,-14,-1,8,4,0,0,-1,16.995
3400,2,-3,-5,-11,-5,-2,-2,0,17.0
3401,0,-11,13,11,-1,-2,1,-1,17.005
3402,-4,-11,-1,-5,-2,-2,-1,-1,17.01
3403,-1,-8,-1,-9,0,-1,1,0,17.015
3404,-3,-8,-13,0,-1,0,0,-2,17.02
3405,-1,-7,7,-3,-2,0,0,0,17.025
3406,1,-4,-2,-1,-2,-1,-2,0,17.03
3407,-1,-5,3,-3,-1,0,-1,0,17.035
3408,0,-5,-2,-3,-1,0,-1,-1,17.04
3409,2,-3,-2,-9,-1,0,1,-1,17.045
3410,1,-4,4,6,-1,-1,1,-1,17.05
3411,-9,-10,-4,-4,-3,-2,-3,-2,17.055
3412,10,19,3,-1,-2,-1,-1,0,17.06
3413,-6,3,2,9,4,2,-1,-2,17.065
3414,-3,-5,9,-4,-4,-2,0,-2,17.07
3415,1,-3,-18,2,4,0,1,-1,17.075
3416,0,-10,-3,-2,-4,-1,-1,-1,17.080000000000002
3417,0,-4,-1,-4,-2,-1,-2,0,17.085
3418,2,-3,-2,-1,-1,0,1,0,17.09
3419,0,-6,10,-8,-5,-1,-1,1,17.095
3420,-5,-9,-7,-6,-4,-1,-2,-2,17.1
3421,1,-8,-5,-1,-3,-2,0,0,17.105
3422,-3,-5,-3,-1,0,-1,0,-2,17.11
3423,0,1,-9,-6,-4,-2,1,0,17.115000000000002
3424,-1,0,1,-2,0,0,0,-1,17.12
3425,-1,-4,10,3,-2,0,-1,-1,17.125
3426,3,-5,-3,-8,-1,-1,-2,-1,17.13
3427,-2,3,6,3,-1,-1,-1,-2,17.135
3428,0,-3,-2,-1,2,-1,0,-2,17.14
3429,-4,-6,0,2,-3,-2,-1,-1,17.145
3430,0,0,-4,0,2,0,0,1,17.150000000000002
3431,2,-2,5,3,-2,-2,-1,-1,17.155
3432,-1,-5,2,-1,-2,-1,0,1,17.16
3433,-1,-1,1,-10,-2,-1,-3,-3,17.165
3434,-4,-2,-17,-7,1,0,-1,2,17.17
3435,1,-2,9,7,1,1,0,-1,17.175
3436,-1,2,-3,11,3,0,1,1,17.18
3437,-2,-3,4,-2,-1,-1,0,1,17.185
3438,-4,-7,-5,-5,-1,0,-2,-1,17.19
3439,-1,-12,0,2,0,-1,-4,-1,17.195
3440,-1,-4,1,-4,-1,0,-3,0,17.2
3441,-3,3,0,-4,-2,-3,-2,-1,17.205000000000002
3442,-6,0,1,-2,-6,-2,-1,-3,17.21
3443,-1,0,0,4,2,2,0,0,17.215
3444,-3,-5,6,0,-2,-2,0,0,17.22
3445,2,-6,-14,-3,0,2,0,1,17.225
3446,0,1,3,6,0,0,-2,-3,17.23
3447,-1,5,0,-1,2,-1,0,0,17.235
3448,-1,3,3,3,1,-2,-2,-3,17.240000000000002
3449,2,4,3,-2,0,1,2,0,17.245
3450,-1,6,-1,-10,-2,0,0,2,17.25
3451,-3,2,-6,7,-3,-1,-2,-2,17.255
3452,-7,-6,-3,2,0,-1,-2,-2,17.26
3453,1,5,3,8,3,0,-1,0,17.265
3454,-1,-1,3,5,1,1,0,2,17.27
3455,2,1,1,-6,-3,-2,0,1,17.275000000000002
3456,-1,-2,0,-7,-4,-2,-2,-2,17.28
3457,-1,-3,-5,-3,-4,-3,-3,-3,17.285
