slno,emg1,emg2,emg3,emg4,emg5,emg6,emg7,emg8,Time
0,-1,5,5,-3,-6,-1,-2,-3,0.0
1,3,2,-1,-13,-10,-5,-2,-2,0.005
2,3,3,3,1,4,1,1,-2,0.01
3,1,0,-3,-3,0,-2,-2,-1,0.015
4,1,2,-1,1,5,-1,-2,-1,0.02
5,-2,1,9,1,-3,-1,-1,0,0.025
6,-2,2,0,0,-2,1,-3,0,0.03
7,0,0,1,-3,-4,-3,-2,-1,0.035
8,-1,-1,-7,-1,0,-1,0,-1,0.04
9,-1,-5,-4,2,4,1,0,0,0.045
10,-1,0,-1,-2,-3,-1,-1,-1,0.05
11,-3,-5,1,1,0,0,1,-2,0.055
12,-1,-5,0,-1,-4,-2,0,1,0.06
13,-1,-4,-2,0,4,0,0,0,0.065
14,0,-7,-2,0,-1,-1,-2,-2,0.07
15,0,3,-2,-2,-8,-1,0,0,0.075
16,0,5,1,-3,-3,0,1,0,0.08
17,-1,2,-1,0,0,0,-1,0,0.085
18,-1,-1,-3,0,-2,0,-2,-1,0.09
19,-1,-1,-1,-1,-1,-1,-3,0,0.095
20,0,-6,1,0,0,0,-1,0,0.1
21,0,-2,-2,0,-3,-3,1,-2,0.105
22,-1,-3,-1,-1,-2,-3,-1,0,0.11
23,0,-2,1,2,7,3,0,-1,0.115
24,1,-3,-2,0,0,0,-2,0,0.12
25,1,1,-1,-1,0,-2,-4,-2,0.125
26,-2,0,-1,-2,-2,-2,1,-2,0.13
27,-1,-2,-1,-1,-1,-2,-6,0,0.135
28,-1,-2,-1,-1,-4,-4,0,0,0.14
29,1,1,1,3,7,9,1,0,0.145
30,-2,0,0,0,0,0,3,0,0.15
31,0,0,0,-2,-1,1,-4,0,0.155
32,-1,0,-1,-2,-1,-4,-3,-1,0.16
33,-3,-1,-2,-2,-4,-5,-1,-1,0.165
34,-1,1,-1,1,0,1,-2,-2,0.17
35,-1,-1,0,-1,1,-1,1,-1,0.17500000000000002
36,-2,-3,-1,0,1,1,0,0,0.18
37,0,-2,-1,0,-3,0,-3,-2,0.185
38,-2,1,0,-2,0,0,-5,0,0.19
39,0,2,0,-2,-3,-4,-1,-1,0.195
40,1,0,0,-1,-2,1,1,-2,0.2
41,-1,-1,-3,-1,-4,-3,0,-1,0.20500000000000002
42,1,1,0,0,2,1,1,-1,0.21
43,1,1,0,0,0,0,-2,0,0.215
44,-1,-1,0,-3,0,1,-1,1,0.22
45,-1,0,-1,-1,-2,-4,-1,-1,0.225
46,1,0,-1,-3,-3,-4,-3,0,0.23
47,0,0,0,0,-2,-2,-6,-1,0.23500000000000001
48,0,-1,-2,2,0,1,8,0,0.24
49,0,0,-2,-2,0,-2,-4,0,0.245
50,0,0,-2,1,-1,-1,7,2,0.25
51,-1,0,-1,-2,-1,1,3,-2,0.255
52,-1,-2,0,0,-1,-1,-4,0,0.26
53,-1,-2,-1,-2,-3,-1,-2,-2,0.265
54,-3,-2,-2,0,-1,-2,-4,-1,0.27
55,-2,-1,0,-2,-3,-6,-15,-7,0.275
56,0,1,0,-2,-1,4,15,4,0.28
57,2,0,0,3,2,6,18,4,0.28500000000000003
58,0,0,-1,-1,-2,-1,-1,-2,0.29
59,0,-3,0,-1,-1,0,3,1,0.295
60,-3,9,-1,-1,1,-4,-13,-5,0.3
61,-5,-17,-3,-4,-2,-2,-7,-3,0.305
62,1,1,-1,-1,-2,-1,1,-2,0.31
63,-1,-1,-2,-1,-3,-3,2,-2,0.315
64,-1,2,0,0,-1,-1,-5,-2,0.32
65,0,2,0,-1,3,3,0,1,0.325
66,-2,-3,3,-1,-5,-4,-1,-1,0.33
67,0,-1,0,-2,6,7,4,0,0.335
68,1,-4,-4,0,1,0,-2,-1,0.34
69,2,4,1,0,-2,-2,-2,-2,0.34500000000000003
70,-1,-6,0,-1,0,-2,-2,-4,0.35000000000000003
71,-2,-2,-1,-2,-2,0,3,1,0.355
72,-4,-4,-3,-3,-3,0,0,-2,0.36
73,0,1,-1,0,-3,-4,-14,-1,0.365
74,1,19,2,0,0,3,8,0,0.37
75,-2,-2,-4,-1,1,1,2,0,0.375
76,-2,-17,-1,2,0,-1,-3,-1,0.38
77,-2,0,-2,-1,-4,-2,-3,-1,0.385
78,-2,1,-1,-1,-2,-2,-4,0,0.39
79,1,4,2,0,-2,0,2,0,0.395
80,2,2,1,-1,1,-2,-2,-1,0.4
81,-3,-3,-1,-2,-1,-3,-2,-3,0.405
82,-1,-5,-1,-2,-1,-1,-8,0,0.41000000000000003
83,1,2,-1,1,3,4,8,2,0.41500000000000004
84,1,-1,-1,0,0,-1,-1,1,0.42
85,0,-8,-2,-1,-4,0,2,-1,0.425
86,-3,-14,-4,-1,-2,-3,-5,-3,0.43
87,-3,-18,-1,-1,-3,-5,-6,0,0.435
88,0,-19,0,0,-1,0,1,0,0.44
89,-4,-20,-3,0,-1,-1,-1,-3,0.445
90,-3,-12,-2,-1,-1,-1,-1,-1,0.45
91,0,3,1,-1,-1,-1,0,-1,0.455
92,1,4,-1,0,2,1,1,-1,0.46
93,-3,4,-7,-1,-1,0,-1,-2,0.465
94,1,10,18,-6,-2,-2,-1,-1,0.47000000000000003
95,2,19,0,11,3,0,2,3,0.47500000000000003
96,-1,14,-1,-2,-2,-1,-1,-1,0.48
97,-2,9,-12,-2,-2,0,0,-1,0.485
98,-1,9,1,-1,2,1,1,0,0.49
99,-1,9,-6,-5,-2,-2,-2,-1,0.495
100,1,7,12,1,0,-1,-2,-1,0.5
101,-2,0,-3,-1,0,-1,0,-1,0.505
102,-3,3,-8,0,0,-2,-2,-1,0.51
103,-1,0,2,-2,0,-1,-2,-1,0.515
104,2,-3,-6,0,0,0,-3,0,0.52
105,0,3,6,0,-1,1,1,0,0.525
106,-1,-3,-4,1,-1,0,-2,0,0.53
107,-2,-7,0,-1,0,-1,0,-1,0.535
108,0,-5,-1,-1,-1,-1,1,-1,0.54
109,0,-1,4,0,-1,-1,-2,0,0.545
110,-1,-1,-1,0,0,1,-1,-1,0.55
111,2,-2,1,-1,-1,-1,0,-1,0.555
112,-3,-1,-7,-1,-2,0,-1,0,0.56
113,0,0,-22,-3,0,-2,0,1,0.5650000000000001
114,2,8,63,15,2,2,0,0,0.5700000000000001
115,-2,2,-33,-9,-3,-1,1,0,0.5750000000000001
116,1,-6,45,10,3,3,1,0,0.58
117,0,-5,-5,-2,0,-2,-1,-1,0.585
118,-1,0,-16,-6,-2,-2,-1,-1,0.59
119,1,8,-1,-3,0,-1,-2,0,0.595
120,1,6,-15,-4,-4,-3,-1,-1,0.6
121,-3,3,7,-1,-1,-1,-2,-1,0.605
122,0,2,-12,-4,-2,-2,-2,-2,0.61
123,0,4,10,1,-1,0,0,0,0.615
124,-1,3,-7,-3,1,1,-2,0,0.62
125,-2,-3,10,2,0,-1,0,-1,0.625
126,-1,-7,-13,-2,-1,0,-1,-1,0.63
127,-1,3,2,1,0,0,0,-1,0.635
128,-3,-18,-7,-3,-1,0,-2,-3,0.64
129,-2,-11,1,0,-1,-1,-2,-2,0.645
130,-2,-1,-12,-6,-4,-4,-2,-2,0.65
131,-1,-3,-16,2,2,0,-1,2,0.655
132,0,8,32,4,11,7,2,0,0.66
133,-1,-9,-16,-4,-2,-3,-3,0,0.665
134,-1,5,20,2,-3,-2,-1,-3,0.67
135,0,-4,2,2,2,1,1,-1,0.675
136,-2,2,-6,-4,-6,-5,-2,-2,0.68
137,0,-1,-15,-2,-2,0,0,-2,0.685
138,1,-1,-3,-3,0,2,1,1,0.6900000000000001
139,-1,-3,6,-1,-5,-4,-3,-2,0.6950000000000001
140,-1,0,-10,-4,-3,0,0,-1,0.7000000000000001
141,0,1,13,-2,-3,0,0,-2,0.705
142,-3,-6,-13,10,1,-2,-2,-1,0.71
143,0,2,9,1,0,-3,-1,-3,0.715
144,0,-3,-17,-14,-6,-3,-2,-3,0.72
145,-1,4,0,-11,1,0,-1,1,0.725
146,-2,-2,4,28,2,0,0,0,0.73
147,0,-3,14,40,6,3,-1,-1,0.735
148,0,5,-8,-12,-4,-4,-3,0,0.74
149,2,4,3,4,-4,-5,0,-1,0.745
150,1,5,-12,-24,6,10,3,1,0.75
151,-5,-23,0,-5,-4,-1,-1,-2,0.755
152,0,-3,-8,-9,-3,-2,-2,0,0.76
153,-4,0,-5,-23,-3,-3,-3,-2,0.765
154,0,-5,-5,13,-3,-3,-1,-1,0.77
155,2,13,3,-14,-2,1,2,0,0.775
156,1,15,0,15,3,-1,-6,-2,0.78
157,-1,-22,4,-1,-1,-1,3,0,0.785
158,1,-10,0,0,0,0,-2,0,0.79
159,-2,4,-4,-17,-2,1,2,-1,0.795
160,-2,1,0,1,-3,-2,-1,0,0.8
161,1,13,3,14,2,0,-2,-1,0.805
162,0,-2,-4,-14,-3,-3,0,-1,0.81
163,4,6,-1,-2,1,0,0,1,0.8150000000000001
164,-4,-16,11,4,-3,-1,-2,-1,0.8200000000000001
165,-5,-11,-11,6,1,3,-2,-2,0.8250000000000001
166,1,1,-4,-6,1,0,0,-1,0.8300000000000001
167,1,5,2,-3,-3,-1,-3,-1,0.835
168,1,6,2,9,1,0,2,0,0.84
169,-1,-4,0,0,-1,0,-1,-1,0.845
170,-4,-10,-4,-6,-4,-2,-1,-2,0.85
171,-2,5,-1,1,-1,0,-3,-1,0.855
172,0,-7,-7,-2,1,-2,0,-1,0.86
173,0,-1,7,1,1,-1,0,-1,0.865
174,0,0,-2,-2,-1,-2,-2,-1,0.87
175,1,2,-11,-2,-1,-4,-1,-2,0.875
176,-2,-6,8,2,-1,-1,-1,-1,0.88
177,1,2,4,1,-2,0,-1,0,0.885
178,-2,4,-32,-4,-1,0,-2,-1,0.89
179,-2,0,59,1,-2,-1,-2,-2,0.895
180,0,-5,-13,1,-1,1,0,-1,0.9
181,4,8,2,2,10,-1,-2,-1,0.905
182,2,4,3,-2,4,1,-1,2,0.91
183,-10,-24,-22,-3,-1,-2,0,-2,0.915
184,-1,2,-5,-2,-4,-1,0,-2,0.92
185,-1,4,13,-1,-7,1,-1,-1,0.925
186,2,-3,-1,-2,-5,-2,-1,-1,0.93
187,2,7,-7,-1,-2,-1,0,1,0.935
188,0,-1,5,2,-3,-1,0,-2,0.9400000000000001
189,-1,-7,-10,-2,-1,-2,-1,-1,0.9450000000000001
190,0,12,8,-2,-2,-1,-1,0,0.9500000000000001
191,0,3,-5,-1,-2,0,-2,0,0.9550000000000001
192,-3,-6,-8,-2,0,-1,0,-1,0.96
193,-1,-1,2,0,-1,0,-2,-3,0.965
194,-1,-1,3,-2,-2,-1,1,0,0.97
195,0,2,-2,-2,0,0,0,-1,0.975
196,0,-6,-6,-2,0,-1,-1,0,0.98
197,-1,-2,-2,0,-1,1,-1,0,0.985
198,-2,6,8,-1,-2,-1,-2,-2,0.99
199,0,-1,-9,-2,1,0,0,-1,0.995
200,0,0,-1,-1,1,-2,0,-2,1.0
201,-1,-1,1,0,-3,-1,-2,0,1.0050000000000001
202,-2,-3,-3,-2,0,-1,0,0,1.01
203,0,1,-2,-1,0,-1,-2,-1,1.0150000000000001
204,0,-2,-5,-2,0,-2,-2,-1,1.02
205,-2,-2,-11,-1,-2,-1,-2,-1,1.025
206,-1,0,12,-2,0,0,0,0,1.03
207,1,2,-2,-1,0,0,0,1,1.035
208,-2,-10,4,4,1,0,0,-1,1.04
209,-3,0,0,1,-2,-1,1,0,1.045
210,0,3,-11,-3,0,-3,0,0,1.05
211,-2,-6,4,-3,-1,-1,-3,-1,1.055
212,-2,1,8,-2,-2,-1,-1,-1,1.06
213,0,3,-4,-1,-2,-2,0,0,1.065
214,-1,-5,-8,-2,0,-1,-2,-1,1.07
215,0,0,12,2,0,-1,1,0,1.075
216,0,-7,-21,-6,0,0,0,0,1.08
217,1,-1,32,5,0,-1,0,-1,1.085
218,-2,-4,-11,0,0,-2,0,-1,1.09
219,0,-5,-8,-2,0,0,0,-1,1.095
220,-1,-3,-1,0,0,-1,-1,0,1.1
221,2,2,-5,-1,-1,0,-1,-2,1.105
222,0,-6,6,-1,-1,0,1,-1,1.11
223,0,6,-2,0,-1,0,-1,-2,1.115
224,-1,-7,4,-2,-1,1,0,-1,1.12
225,-1,5,-7,-3,0,1,1,0,1.125
226,-4,-20,4,1,-1,-1,-2,-2,1.1300000000000001
227,0,-7,-5,-1,-1,-2,0,1,1.135
228,0,4,-4,0,-2,0,1,-2,1.1400000000000001
229,0,-5,1,-2,-1,0,0,0,1.145
230,-2,-8,-21,-1,-1,0,-3,-1,1.1500000000000001
231,-2,-2,33,0,-1,1,0,-3,1.155
232,-1,-4,0,1,-1,-1,0,2,1.16
233,-1,-1,0,-2,0,-1,1,0,1.165
234,-1,0,-1,-2,-1,0,0,0,1.17
235,0,2,-3,2,0,-2,-2,-1,1.175
236,-1,2,-5,2,0,-2,-1,-1,1.18
237,-2,4,14,1,-1,-1,-2,-1,1.185
238,1,10,-1,1,0,1,-1,1,1.19
239,-3,-2,-11,-3,-1,-1,0,-1,1.195
240,-2,9,5,-3,-2,-1,-2,-4,1.2
241,-2,3,-10,1,1,0,-1,-2,1.205
242,-1,6,6,-2,0,-1,0,-1,1.21
243,0,0,-7,0,0,-1,-1,1,1.215
244,-2,3,0,-1,-2,-2,-1,-3,1.22
245,-2,-1,-6,-2,-2,0,0,-1,1.225
246,1,6,6,0,-1,1,0,0,1.23
247,-3,-4,-5,1,0,0,0,-2,1.235
248,-1,0,-4,0,-1,1,-1,-1,1.24
249,-1,1,-3,-2,-1,-1,-1,-1,1.245
250,3,2,8,0,0,-1,0,1,1.25
251,-1,1,-13,-1,-1,-2,0,0,1.2550000000000001
252,-5,-18,-15,0,-1,-2,-3,-1,1.26
253,0,6,16,1,1,-1,-1,1,1.2650000000000001
254,-1,-2,-10,-1,0,-1,0,-1,1.27
255,3,0,0,3,0,1,1,1,1.2750000000000001
256,-1,14,21,0,-1,-1,1,1,1.28
257,0,0,-4,0,0,0,-1,-1,1.285
258,0,1,-2,-1,0,-1,-1,-2,1.29
259,-2,-8,-2,-3,-3,-2,-2,0,1.295
260,-2,-4,-7,-2,0,-3,-1,-1,1.3
261,-1,-3,-6,-2,-1,-2,2,0,1.305
262,0,4,12,0,0,1,-2,-2,1.31
263,0,-8,-17,-2,-1,0,1,-2,1.315
264,-1,4,5,3,0,0,0,-2,1.32
265,-1,0,-7,-3,-1,-1,-1,-1,1.325
266,0,-1,1,-1,1,-1,-1,0,1.33
267,-2,-2,-1,-1,0,-2,-1,-1,1.335
268,-1,-1,-17,-3,0,-1,0,1,1.34
269,0,1,24,0,0,-1,-1,-1,1.345
270,-2,-8,-1,0,0,0,1,-1,1.35
271,-2,-1,-3,-2,-2,-2,-2,0,1.355
272,-1,-1,11,1,0,0,0,-1,1.36
273,-1,-3,-23,-4,-2,-1,-1,-2,1.365
274,0,2,31,-2,-1,-3,0,-1,1.37
275,-1,-1,1,1,0,1,-3,-1,1.375
276,-1,-2,-4,-1,-1,0,-2,-2,1.3800000000000001
277,-2,-1,-1,0,-1,-2,0,1,1.385
278,-1,5,-11,0,-1,0,-1,0,1.3900000000000001
279,1,-2,-2,-1,-1,-1,-1,0,1.395
280,-1,-6,1,-1,-1,1,-1,0,1.4000000000000001
281,0,-3,-7,-1,-1,-1,-2,-2,1.405
282,0,-2,-10,-3,-2,-1,1,-1,1.41
283,-2,0,5,0,1,-1,-1,0,1.415
284,0,-3,-4,-1,-1,0,-1,-1,1.42
285,-1,-4,3,0,0,-1,-1,0,1.425
286,0,0,-5,0,-2,-1,-2,0,1.43
287,-1,0,1,-2,-2,0,-2,-1,1.435
288,0,-6,-15,-4,0,-1,-1,0,1.44
289,0,6,34,5,0,-2,0,0,1.445
290,-1,1,-1,-1,-1,-2,-1,-2,1.45
291,-1,1,-1,-1,-1,-1,-1,-3,1.455
292,-2,1,-3,-1,0,0,0,0,1.46
293,-1,-1,-15,-2,-3,-1,-1,-2,1.465
294,-1,1,-3,2,-1,0,-1,0,1.47
295,-2,-5,-3,-3,-1,-1,0,0,1.475
296,-2,1,-7,1,-1,0,-3,0,1.48
297,-1,-1,-7,-1,-2,1,1,0,1.485
298,0,-3,1,-1,1,-1,0,0,1.49
299,-1,-3,-13,0,-1,-1,0,-1,1.495
300,0,-2,9,0,-1,-2,-1,0,1.5
301,-1,-2,-8,-1,0,0,-1,-2,1.5050000000000001
302,-1,0,-4,0,-1,0,0,1,1.51
303,0,-1,-2,1,0,0,0,-1,1.5150000000000001
304,1,0,2,-3,-2,-1,0,-2,1.52
305,0,0,-2,-3,-1,-1,-2,-2,1.5250000000000001
306,-2,-3,1,-3,1,-1,-2,-3,1.53
307,-3,-1,8,-1,-1,0,-1,0,1.5350000000000001
308,1,-2,1,0,0,0,-2,-1,1.54
309,-1,0,0,-1,-1,0,-2,0,1.545
310,0,1,-4,0,-1,-1,-1,-1,1.55
311,-1,-2,-4,-1,1,1,-2,-3,1.555
312,0,0,-6,1,-1,-2,0,-2,1.56
313,-2,1,-4,-4,0,-1,0,0,1.565
314,-2,-3,-9,-2,-2,-1,0,-1,1.57
315,0,0,3,0,-1,-1,0,0,1.575
316,1,0,3,0,-1,-2,-4,-2,1.58
317,0,-1,-8,-1,0,-1,1,-1,1.585
318,0,2,7,1,1,0,0,0,1.59
319,0,-1,0,-2,-1,-1,1,0,1.595
320,-2,-1,2,-3,-3,1,0,-2,1.6
321,0,1,-3,-1,0,-1,-1,0,1.605
322,-1,-1,1,-3,-2,0,-1,-1,1.61
323,1,3,-4,-1,-1,0,0,0,1.615
324,-3,-6,-8,1,-1,1,-2,0,1.62
325,1,1,1,-1,-1,-1,-2,-2,1.625
326,-1,-2,-4,0,0,-1,0,-1,1.6300000000000001
327,0,1,-1,0,0,-4,-1,-3,1.635
328,0,-3,3,-2,-1,1,0,0,1.6400000000000001
329,0,-2,-34,-2,2,-1,-3,0,1.645
330,1,3,34,2,-2,0,-1,-1,1.6500000000000001
331,-1,-4,-7,0,-1,-1,-2,-1,1.655
332,-1,1,1,-1,-2,-1,0,-1,1.6600000000000001
333,-1,1,5,1,1,-1,1,-2,1.665
334,0,-1,-16,-2,-1,-1,0,-2,1.67
335,-1,-4,-2,-3,-1,0,0,-1,1.675
336,0,3,7,0,1,0,0,-1,1.68
337,-1,-4,-4,-4,-1,1,-1,1,1.685
338,0,3,8,2,0,1,-2,0,1.69
339,-1,-3,5,-1,-1,-2,0,-1,1.695
340,-2,-1,-4,-1,-2,-2,1,-1,1.7
341,-1,1,7,-2,-2,-2,-2,-1,1.705
342,0,-4,-11,-1,0,-1,0,-1,1.71
343,-1,-1,0,0,-2,0,-1,0,1.715
344,-1,0,-13,-2,-2,-2,-1,-2,1.72
345,-1,1,10,3,-2,-1,0,-2,1.725
346,0,3,1,0,0,0,1,0,1.73
347,-2,-6,-14,0,0,1,0,-1,1.735
348,-2,1,5,0,-2,-1,-1,-1,1.74
349,-1,-2,-1,-2,-1,0,-1,-1,1.745
350,-1,-4,-10,-3,-1,-1,-1,0,1.75
351,0,5,12,-1,0,-2,-1,1,1.7550000000000001
352,-2,-9,-7,-1,-1,-1,-2,0,1.76
353,0,1,-26,-1,-2,1,0,-1,1.7650000000000001
354,-1,-3,29,1,-1,0,-1,-1,1.77
355,-2,2,8,-1,-1,1,-2,0,1.7750000000000001
356,0,-1,0,-2,-2,-2,-1,-1,1.78
357,-1,2,4,1,-2,1,-1,0,1.7850000000000001
358,-1,-3,-14,-2,-1,-3,-2,0,1.79
359,1,-3,-3,2,0,0,-1,-2,1.795
360,-1,1,6,0,1,-1,-2,2,1.8
361,0,0,3,-1,0,-2,-2,-2,1.805
362,-1,1,-6,-1,-1,-1,-1,-3,1.81
363,-1,-3,-1,-1,0,0,0,-1,1.815
364,0,-1,-4,0,-1,0,-1,0,1.82
365,-1,-1,18,-1,-1,0,0,-2,1.825
366,-1,-1,-9,1,1,1,-1,0,1.83
367,1,0,-5,-1,-2,-2,1,-1,1.835
368,1,-1,-10,0,0,0,0,-1,1.84
369,-2,-2,15,0,-1,-2,-1,-3,1.845
370,0,-1,-1,-1,-1,-1,0,0,1.85
371,0,-1,-1,-1,-3,-3,0,-1,1.855
372,2,2,-1,-1,0,-2,-1,0,1.86
373,-1,-1,-1,-1,-2,-1,0,0,1.865
374,-1,-1,-7,-2,1,-1,0,-1,1.87
375,-1,-2,-3,-1,0,-2,-1,0,1.875
376,-2,0,5,-1,0,-1,-1,-1,1.8800000000000001
377,1,2,1,-2,0,-2,0,2,1.885
378,0,-2,-8,-2,-2,0,0,-1,1.8900000000000001
379,-2,-1,0,-1,0,1,-1,-1,1.895
380,-2,-1,6,-2,-2,-1,0,-2,1.9000000000000001
381,0,-2,-4,-1,-1,-1,-2,0,1.905
382,-1,3,-7,-2,0,0,-1,0,1.9100000000000001
383,-3,-3,6,-3,-1,-1,-1,-1,1.915
384,-2,-2,5,1,-1,-1,0,-3,1.92
385,1,3,2,0,0,0,-1,1,1.925
386,-1,-8,-5,-3,-1,0,0,-1,1.93
387,-1,-3,-2,-2,-3,-1,0,-1,1.935
388,0,0,-9,-1,-1,0,-1,-1,1.94
389,0,2,-1,-1,1,-2,0,-1,1.945
390,-2,0,4,1,-1,0,-1,0,1.95
391,1,-1,-8,0,1,-1,-1,-1,1.955
392,-3,-4,0,-3,-2,-3,-2,0,1.96
393,-1,1,-1,-1,-2,0,1,-2,1.965
394,0,2,-1,0,-1,-2,0,-1,1.97
395,-1,-5,-1,-1,0,0,-2,0,1.975
396,0,4,6,0,-2,-1,0,1,1.98
397,1,-6,-16,-2,-2,-2,0,-1,1.985
398,-1,3,15,1,-1,-1,-1,-1,1.99
399,0,-1,3,-1,-1,0,-1,-1,1.995
400,-1,-3,-8,-3,0,0,0,-1,2.0
401,-1,2,19,2,-1,1,-1,0,2.005
402,1,-2,-10,2,-1,0,0,-2,2.0100000000000002
403,1,-1,-13,0,-1,-2,-1,0,2.015
404,0,-1,17,0,-2,-2,-1,-1,2.02
405,0,3,10,-3,-1,-1,-1,-1,2.025
406,-2,-5,-4,-2,0,-1,-1,-1,2.0300000000000002
407,-1,0,5,1,-1,0,-2,-1,2.035
408,-1,-4,-12,-1,-2,1,-1,0,2.04
409,-2,1,-4,-2,-1,-2,0,-1,2.045
410,1,1,2,0,-3,0,-1,0,2.05
411,-2,-3,-14,-2,-1,-1,-2,-1,2.055
412,-1,2,33,-1,0,-2,0,-2,2.06
413,0,1,-3,0,0,-1,-1,-2,2.065
414,-1,-2,-3,-1,0,0,0,0,2.07
415,-2,-3,-2,0,-2,-1,1,-1,2.075
416,-1,1,-9,-2,-1,-1,-1,-1,2.08
417,-1,-1,-3,0,-2,0,-2,0,2.085
418,-1,-2,0,-3,0,0,0,-2,2.09
419,-1,-3,-5,-2,-1,-3,0,-1,2.095
420,-3,-2,-4,-1,-1,-3,-1,0,2.1
421,1,4,20,1,-1,0,-1,-1,2.105
422,0,1,-5,-2,0,-2,-2,1,2.11
423,0,-1,6,1,-1,0,-1,-1,2.115
424,1,-1,-25,-1,0,-1,0,-3,2.12
425,-2,-3,8,-1,-1,-1,0,-2,2.125
426,-2,-1,-3,-1,0,0,0,1,2.13
427,1,4,5,1,-1,0,1,1,2.1350000000000002
428,-2,-9,-12,-3,-1,-1,-1,-1,2.14
429,0,0,-12,-1,0,-1,-1,0,2.145
430,-1,1,-2,-1,-1,0,-1,-3,2.15
431,-1,-3,0,-2,-2,0,-1,-1,2.1550000000000002
432,-1,-2,3,-1,-1,0,-1,0,2.16
433,-1,0,-7,-1,-2,-2,1,-1,2.165
434,-1,-2,-1,-4,-1,-2,-3,-1,2.17
435,-1,-2,2,-1,0,1,-2,0,2.1750000000000003
436,-1,3,5,-1,0,2,-1,-1,2.18
437,0,-3,-9,-1,-2,-1,0,0,2.185
438,0,-5,-26,0,0,-1,0,0,2.19
439,-1,7,33,3,-1,-2,-1,0,2.195
440,-1,-2,-7,-1,0,0,-1,0,2.2
441,0,1,-1,0,0,-1,-1,0,2.205
442,0,-2,-4,0,0,0,-1,-1,2.21
443,-1,-5,-10,-1,-1,0,-1,-1,2.215
444,-1,1,1,-1,-1,-1,0,-1,2.22
445,0,-1,-7,0,1,-2,0,0,2.225
446,0,1,14,0,0,-2,0,-1,2.23
447,-2,-1,2,-1,-1,-2,-1,-1,2.235
448,-2,-7,-4,0,-1,-1,-2,-1,2.24
449,-2,1,-6,-2,-2,-1,-2,-2,2.245
450,0,0,-2,-1,-2,0,0,0,2.25
451,-1,-5,-11,0,-1,-1,-3,-1,2.255
452,1,2,-1,0,-2,0,-1,0,2.2600000000000002
453,0,-3,-8,-1,0,1,-1,-3,2.265
454,1,1,7,2,0,-1,0,0,2.27
455,-2,-3,-4,-3,-2,0,0,-2,2.275
456,-1,1,0,-1,0,-1,0,-1,2.2800000000000002
457,-2,-1,-5,-2,-2,0,1,1,2.285
458,-1,2,9,-2,-3,-1,0,0,2.29
459,-2,-5,-4,-1,0,0,0,0,2.295
460,0,-3,-14,0,-2,-2,-3,-2,2.3000000000000003
461,0,8,34,1,0,-2,-2,-1,2.305
462,0,-2,-1,0,0,0,1,-1,2.31
463,-1,-2,-2,-1,0,0,-1,0,2.315
464,-1,-1,-5,-2,-2,-1,0,-1,2.32
465,0,-3,-9,-2,-1,1,0,-1,2.325
466,0,0,1,-1,-1,-2,-1,-1,2.33
467,0,-2,1,0,0,0,0,-2,2.335
468,-1,0,-6,-1,0,1,0,1,2.34
469,-2,3,24,-2,-2,-1,-2,-1,2.345
470,-1,-5,0,1,0,0,-3,-1,2.35
471,0,-1,-7,0,-1,-1,-2,-1,2.355
472,1,2,9,-1,-2,0,-1,0,2.36
473,0,-3,-17,0,-1,-1,0,-2,2.365
474,-2,1,-3,-1,0,-1,0,1,2.37
475,-2,2,4,-2,-1,0,-1,-1,2.375
476,-2,1,0,-3,-1,-1,0,-2,2.38
477,-1,-2,-8,-1,0,-2,0,1,2.3850000000000002
478,2,1,8,0,-1,-1,-1,1,2.39
479,0,-3,-10,-3,-2,-2,0,-2,2.395
480,-1,3,15,0,0,0,1,-1,2.4
481,-2,-3,-10,0,-1,0,-1,-1,2.4050000000000002
482,-3,-1,3,-1,-1,-1,-1,-2,2.41
483,0,-2,-5,0,-1,-2,-1,-2,2.415
484,0,0,-1,-2,-2,-3,0,-2,2.42
485,1,-1,-2,-2,0,-1,0,0,2.4250000000000003
486,0,-1,-4,0,-1,0,1,0,2.43
487,-1,-3,0,-2,-1,-2,-2,0,2.435
488,-1,2,-13,-1,2,-1,-1,-2,2.44
489,1,-2,9,0,0,-2,-1,0,2.445
490,-2,0,7,-2,-1,-1,0,0,2.45
491,-1,-2,1,0,-2,0,-2,-1,2.455
492,-1,0,-2,0,-2,0,-2,-1,2.46
493,0,-1,-5,-4,0,-1,-1,0,2.465
494,1,0,-9,0,-1,0,-1,-3,2.47
495,0,2,6,-1,-4,0,-1,0,2.475
496,-2,0,10,1,-1,-3,-2,-1,2.48
497,1,1,-4,-1,-1,0,-1,-1,2.485
498,-1,-4,-6,-3,-2,-1,-1,0,2.49
499,-2,-2,-1,0,1,-1,0,0,2.495
500,-1,0,0,-1,-2,-1,-1,-1,2.5
501,-1,0,-6,-1,1,-1,-3,1,2.505
502,0,0,3,0,-1,0,-1,-1,2.5100000000000002
503,0,-3,-10,-1,-2,0,-2,-1,2.515
504,-2,-1,0,0,0,1,-1,-2,2.52
505,0,0,2,0,-3,-2,0,0,2.525
506,-1,-6,-10,-1,0,0,1,-2,2.5300000000000002
507,-1,0,-1,-1,0,-2,-1,-1,2.535
508,-1,-1,4,0,0,-3,-1,0,2.54
509,-2,-1,-8,-2,0,0,0,-1,2.545
510,0,1,-5,-1,-2,-1,-2,-1,2.5500000000000003
511,-2,-1,13,-1,-1,1,-2,-2,2.555
512,-1,-3,0,-1,0,-1,-1,-2,2.56
513,-1,-1,-7,-2,-1,-1,-1,-2,2.565
514,0,4,16,3,-2,-1,0,0,2.57
515,-2,-2,2,2,-1,-1,-2,-1,2.575
516,2,0,-9,0,-2,-1,1,0,2.58
517,-1,-3,-7,-1,0,-1,1,0,2.585
518,-1,4,-13,-3,-1,-2,-1,-1,2.59
519,0,1,41,3,1,0,0,1,2.595
520,0,-2,2,-2,-1,0,-3,1,2.6
521,2,2,8,3,0,-1,-1,1,2.605
522,-1,-5,-14,-3,0,-1,-2,1,2.61
523,-3,-3,-17,-1,-2,0,-2,-2,2.615
524,0,-1,1,-1,-1,-2,0,-2,2.62
525,0,0,0,-3,0,0,-2,-2,2.625
526,0,1,2,0,-1,-1,-2,-1,2.63
527,-1,-2,-8,-1,-2,-2,0,0,2.6350000000000002
528,-2,1,6,-2,-2,-1,-2,-1,2.64
529,0,-1,-21,-1,-2,-2,-1,0,2.645
530,-2,-3,22,0,-1,0,-1,-1,2.65
531,0,-2,-4,-1,-1,-1,-2,0,2.6550000000000002
532,0,0,-8,2,2,0,2,1,2.66
533,-3,2,5,-2,-2,0,-1,-2,2.665
534,-1,-2,-5,0,0,1,-1,-1,2.67
535,0,-3,-10,-2,-1,0,-2,0,2.6750000000000003
536,-1,-1,-10,-3,-1,-2,-2,-1,2.68
537,-2,3,14,2,0,-2,-1,0,2.685
538,0,-1,-1,-1,-1,0,2,-2,2.69
539,0,-2,-12,-3,0,0,-1,-2,2.695
540,-1,-4,-32,-2,-1,0,0,0,2.7
541,-2,3,37,1,1,-1,-2,0,2.705
542,0,-1,0,-1,1,0,-2,0,2.71
543,0,0,-8,-1,1,-1,-1,-1,2.715
544,-1,-1,0,-2,1,0,0,1,2.72
545,0,-3,-9,-1,-1,-2,0,-1,2.725
546,0,1,1,-1,-2,0,-1,0,2.73
547,-1,-4,-3,-1,-2,-1,-1,-1,2.735
548,1,3,11,0,0,-1,-1,-1,2.74
549,-2,-2,-10,-1,0,1,0,0,2.745
550,0,2,3,0,0,-2,-1,0,2.75
551,-2,-7,-5,-1,-2,-1,-2,-1,2.755
552,-1,1,0,-1,0,-2,-1,-1,2.7600000000000002
553,1,-2,-2,0,1,-1,0,0,2.765
554,-1,-1,-7,-1,-1,-1,-1,-2,2.77
555,-1,1,12,-1,-1,-1,0,0,2.775
556,-1,-3,3,-1,-2,-1,0,1,2.7800000000000002
557,-1,1,-6,-1,-1,-3,-3,-1,2.785
558,0,-3,-8,0,-2,-1,-1,-1,2.79
559,-1,-2,-3,0,-1,-2,-1,-1,2.795
560,0,-2,-3,0,-1,-1,-1,-3,2.8000000000000003
561,1,4,7,0,-1,-1,0,0,2.805
562,-1,-2,0,-2,0,0,-1,-1,2.81
563,-2,-3,-8,-2,-1,-1,-2,-3,2.815
564,-1,-1,-23,0,-1,1,0,-1,2.82
565,0,-1,19,0,-1,1,1,-1,2.825
566,0,-1,-1,-1,-1,-1,0,0,2.83
567,-1,-2,1,0,-2,0,1,0,2.835
568,-1,0,0,-2,-2,-2,-2,-1,2.84
569,-1,-1,-21,0,-1,1,2,-1,2.845
570,-2,-3,16,1,-1,-1,0,1,2.85
571,-1,-1,-1,-1,-1,-2,-1,1,2.855
572,0,5,13,-1,-1,-2,-1,0,2.86
573,-1,-4,-2,0,-2,0,-2,-2,2.865
574,0,-1,-5,-2,-1,-1,-1,-1,2.87
575,0,0,-6,-1,0,1,-2,-1,2.875
576,-1,0,12,0,-1,1,-1,0,2.88
577,-1,3,2,-2,-1,-2,-1,0,2.8850000000000002
578,-2,-5,-11,0,0,0,0,-1,2.89
579,2,1,-4,-1,-1,-1,1,0,2.895
580,0,-2,1,-2,-1,-2,0,0,2.9
581,-1,-4,-14,-4,-2,0,0,0,2.9050000000000002
582,-2,3,13,2,-1,-1,-1,-3,2.91
583,-2,0,-1,-1,-2,-1,-1,-2,2.915
584,-2,1,4,1,1,0,-1,-2,2.92
585,1,-2,-8,-2,-1,-1,1,-1,2.9250000000000003
586,-1,-4,-3,-3,-1,-2,-2,-2,2.93
587,-1,-1,-5,-1,-1,0,-1,0,2.935
588,-2,1,-10,0,-1,0,0,-1,2.94
589,-1,2,31,1,0,0,-2,-1,2.945
590,0,-2,-21,-2,-2,0,1,2,2.95
591,-1,0,27,2,-2,-1,-1,-2,2.955
592,-1,4,3,-2,-2,0,1,0,2.96
593,-2,-4,-15,-1,0,-1,-1,0,2.965
594,-2,-2,-5,-1,0,-2,-1,0,2.97
595,-1,-3,-8,-1,0,-2,0,-2,2.975
596,0,1,13,0,-1,-1,-1,0,2.98
597,-2,-1,-9,0,1,-1,2,0,2.985
598,0,-1,20,0,-2,-2,-2,0,2.99
599,-2,-2,-12,0,-2,-2,0,0,2.995
600,-1,0,-1,-1,-1,-1,-1,-2,3.0
601,0,1,-8,-2,1,1,-2,0,3.005
602,-1,-2,2,-2,-1,0,-1,-1,3.0100000000000002
603,-1,1,-6,-1,0,-1,-3,0,3.015
604,0,-3,1,0,0,0,0,-2,3.02
605,1,-4,-9,0,-1,-1,-2,0,3.025
606,-1,0,1,1,0,-2,0,-1,3.0300000000000002
607,-2,-1,-3,-3,-2,-1,1,-3,3.035
608,-2,-2,4,0,0,-1,-2,-1,3.04
609,0,-2,-23,-4,-1,-1,0,-1,3.045
610,2,1,20,2,0,0,-2,-2,3.0500000000000003
611,-3,-3,-2,-1,0,-1,0,-1,3.055
612,0,1,-11,-2,-1,1,-1,-1,3.06
613,0,1,25,-1,-2,-3,-1,-2,3.065
614,0,-1,-13,-1,-1,-1,-1,1,3.0700000000000003
615,1,0,0,-1,0,0,0,-1,3.075
616,-2,-1,7,0,-1,-1,-1,-1,3.08
617,-1,1,-5,-1,1,-2,-1,-1,3.085
618,-1,-3,-9,-3,-2,-1,-1,-2,3.09
619,-1,-2,4,0,-2,-2,-1,0,3.095
620,0,-3,-11,-2,1,-2,0,-1,3.1
621,-1,2,1,1,0,0,-1,1,3.105
622,-1,-3,-4,-1,-1,-1,-1,0,3.11
623,-2,-3,-5,2,1,-1,-1,-1,3.115
624,0,0,3,-2,-3,-2,-1,0,3.12
625,1,3,0,0,0,2,0,-1,3.125
626,-1,-2,1,0,0,0,-2,-1,3.13
627,0,-2,-2,-2,-1,-1,0,0,3.1350000000000002
628,-1,-1,-3,-1,-1,-1,-1,0,3.14
629,1,-3,2,1,1,-1,-1,2,3.145
630,-1,-2,-10,-3,-1,0,1,0,3.15
631,-1,1,17,1,-1,0,0,-1,3.1550000000000002
632,0,3,0,-1,0,0,0,-1,3.16
633,-1,-4,-2,0,-1,-2,0,-1,3.165
634,-1,-1,0,-2,0,-1,0,-2,3.17
635,-2,-3,-7,-1,-1,-2,-1,-1,3.1750000000000003
636,0,1,-1,0,-1,1,-1,0,3.18
637,1,2,1,0,-1,-1,-3,-1,3.185
638,-1,-2,-4,-1,0,0,-1,0,3.19
639,-1,-1,-2,-2,-1,-2,-2,-1,3.1950000000000003
640,-3,-1,-1,-1,-1,-1,-1,-2,3.2
641,-1,0,-3,-2,-1,1,0,-2,3.205
642,-1,-3,-6,-1,0,-1,-1,0,3.21
643,-1,1,-2,0,-1,-2,0,-1,3.215
644,-2,2,4,1,0,-1,0,-3,3.22
645,-1,0,0,0,0,-1,0,2,3.225
646,-1,-1,-1,0,-2,0,-2,-1,3.23
647,-1,-3,-1,-1,0,1,-1,0,3.235
648,-2,-2,0,-2,1,1,-2,0,3.24
649,-2,0,-3,-1,-1,-1,0,-2,3.245
650,-1,-2,-2,-1,-1,-2,-1,0,3.25
651,0,-3,5,-3,-2,-2,-2,-1,3.255
652,2,-5,-11,-2,0,-1,1,-2,3.2600000000000002
653,-1,4,18,3,0,0,0,-1,3.265
654,0,1,3,0,0,1,0,0,3.27
655,-4,-9,-10,-2,-3,-2,-3,-1,3.275
656,1,-2,-9,-2,-1,1,0,1,3.2800000000000002
657,0,-2,-1,-2,-4,1,-1,-2,3.285
658,-2,-2,-7,0,-1,-2,-1,-2,3.29
659,1,-1,-4,-2,-1,0,-1,-1,3.295
660,-1,1,6,0,-2,-2,-2,0,3.3000000000000003
661,0,-1,-5,-1,2,-1,-1,0,3.305
662,0,-1,0,-2,-3,-1,0,0,3.31
663,-1,-1,-3,0,-1,0,-1,-3,3.315
664,-1,0,5,0,0,-1,0,1,3.3200000000000003
665,0,-1,-5,-1,-1,0,0,-2,3.325
666,0,-3,-2,-1,-1,-1,-1,0,3.33
667,-1,0,1,0,0,0,-1,0,3.335
668,0,1,1,0,-1,-3,0,-2,3.34
669,-2,2,-4,-2,-1,-1,1,1,3.345
670,-2,-1,0,0,1,-1,0,-2,3.35
671,-1,-2,-4,0,-1,0,-2,-2,3.355
672,-2,1,-2,-1,-2,0,-2,0,3.36
673,-2,-2,4,-3,0,-2,-3,-1,3.365
674,-2,-6,-12,-1,0,-1,-1,-1,3.37
675,-1,4,-9,0,0,0,-1,1,3.375
676,-1,3,33,1,-1,-3,1,1,3.38
677,-2,-8,0,-1,-4,-3,-1,-1,3.3850000000000002
678,0,-1,-10,0,-1,-1,-2,-1,3.39
679,-1,-2,-5,0,1,-1,-2,-1,3.395
680,-2,2,-5,-1,0,0,-1,-1,3.4
681,-2,0,-3,-2,-1,-2,0,-1,3.4050000000000002
682,-1,-2,-1,-2,-1,-1,-1,0,3.41
683,-1,-1,3,1,-1,1,1,-1,3.415
684,0,0,-5,-1,-1,-2,-3,-1,3.42
685,-1,0,-3,0,0,0,0,0,3.4250000000000003
686,0,-2,1,-3,-1,-2,-1,-1,3.43
687,-1,0,1,-2,-1,-1,0,0,3.435
688,-1,0,-6,-1,-1,0,0,-2,3.44
689,-2,0,-5,1,-1,0,1,-1,3.4450000000000003
690,1,-1,2,0,0,0,0,0,3.45
691,0,-3,1,0,-1,0,-1,-2,3.455
692,-1,0,-2,-1,-1,-1,0,-2,3.46
693,0,0,-3,1,-1,-1,-1,-1,3.465
694,-2,-2,6,-2,-1,0,-4,0,3.47
695,0,-1,3,-1,0,-1,-1,0,3.475
696,0,-2,-9,-1,1,1,0,-1,3.48
697,1,0,-9,-2,-1,-1,-1,-1,3.485
698,-4,-3,6,1,-1,-2,1,0,3.49
699,-3,0,0,-1,-2,-2,0,-1,3.495
700,0,3,1,-1,-1,-2,-2,-1,3.5
701,-1,-8,-4,-1,0,0,-1,-1,3.505
702,-2,-1,-2,-1,0,0,-1,-1,3.5100000000000002
703,-1,0,1,2,-2,-1,-1,-2,3.515
704,1,-3,-6,-1,0,-1,0,-1,3.52
705,1,2,0,0,0,0,0,1,3.525
706,0,0,1,0,-1,-1,-1,-3,3.5300000000000002
707,-3,-3,-10,-2,0,-2,-1,-1,3.535
708,-2,0,-4,-1,-1,0,0,-2,3.54
709,0,1,14,1,-1,0,-1,0,3.545
710,-1,-3,-8,0,-2,-1,1,-1,3.5500000000000003
711,0,-1,-1,-1,-1,0,-1,-1,3.555
712,-1,-2,1,-1,-1,-1,-2,-1,3.56
713,-1,2,1,-2,0,-3,0,2,3.565
714,-1,-1,-2,0,-2,0,-2,-1,3.5700000000000003
715,0,-2,2,-1,-1,0,-1,-1,3.575
716,-2,-1,2,1,-1,-2,-2,1,3.58
717,-1,0,-6,-3,0,-1,-1,0,3.585
718,-1,1,7,1,1,0,0,-1,3.59
719,-1,-2,-8,-1,-1,-2,0,0,3.595
720,0,0,-2,-1,-1,-2,-1,1,3.6
721,0,-2,-6,-1,-2,-1,-2,-2,3.605
722,-1,-2,1,-2,0,-3,-1,1,3.61
723,-1,2,2,-2,-1,-2,-1,-1,3.615
724,-2,-6,-16,-2,1,-2,-1,0,3.62
725,-1,-2,12,4,1,1,0,-2,3.625
726,-2,-3,-3,-2,-2,0,0,0,3.63
727,0,0,4,-2,-1,1,0,1,3.6350000000000002
728,-2,1,-1,-2,-2,-1,0,0,3.64
729,0,0,0,0,0,-1,-1,-1,3.645
730,-1,-5,-6,-1,-1,0,-2,-2,3.65
731,0,0,4,-1,1,-2,1,0,3.6550000000000002
732,0,4,6,2,-1,-2,0,0,3.66
733,-3,-4,-31,-3,-1,-1,0,-1,3.665
734,1,2,40,0,-2,-1,0,0,3.67
735,-1,-5,-12,-2,-2,0,-1,-1,3.6750000000000003
736,0,1,16,-1,0,1,1,0,3.68
737,1,1,-9,0,-1,-1,-1,0,3.685
738,-1,-4,-11,-3,-2,-1,0,-1,3.69
739,-2,-1,0,1,-2,-3,-3,-3,3.6950000000000003
740,-2,1,0,0,-1,0,-1,-2,3.7
741,0,-1,3,-4,1,0,1,-1,3.705
742,-1,-5,-8,1,1,0,-2,-1,3.71
743,0,0,4,-1,-2,-1,-2,0,3.715
744,-1,-1,-13,-1,-1,-4,-1,0,3.72
745,-1,0,12,0,-1,-2,-2,1,3.725
746,-1,0,1,-1,-1,0,-3,-3,3.73
747,-2,0,2,0,0,-1,0,-1,3.735
748,-1,-1,-6,-2,-1,0,0,1,3.74
749,0,1,2,0,-1,-1,1,0,3.745
750,0,-2,-8,-1,-1,-2,0,0,3.75
751,0,-4,-5,-1,-1,0,-1,-2,3.755
752,0,2,7,-1,-3,-1,-1,-1,3.7600000000000002
753,-1,-1,1,0,-1,-2,-1,1,3.765
754,0,-1,-5,0,-1,0,-1,-3,3.77
755,-1,4,1,-2,-1,-1,-1,-1,3.775
756,0,-5,-2,-2,-1,-1,-2,-1,3.7800000000000002
757,-2,1,6,-1,-2,2,-1,-1,3.785
758,-2,-3,-7,0,0,0,0,-3,3.79
759,-2,0,6,-1,0,0,1,1,3.795
760,0,-2,-10,-2,0,1,-1,0,3.8000000000000003
761,-1,-3,-2,0,0,0,-1,-1,3.805
762,-1,0,5,-2,-1,-1,-1,0,3.81
763,1,1,-15,-2,-1,0,-2,-1,3.815
764,0,-2,12,0,0,0,1,-1,3.8200000000000003
765,0,-2,-1,0,0,-1,0,1,3.825
766,-2,-1,-3,0,-1,-1,0,0,3.83
767,-2,-1,1,-1,-1,0,-2,0,3.835
768,-1,2,-5,-2,-1,0,-1,-2,3.84
769,-1,0,5,-1,-2,0,-1,-1,3.845
770,0,-2,1,-1,-1,-1,-1,1,3.85
771,-2,-3,-8,-2,-3,-2,0,-1,3.855
772,-1,3,12,0,1,0,0,-1,3.86
773,-2,-3,-3,-2,-1,0,0,-2,3.865
774,0,-2,-9,-1,-1,-1,0,-1,3.87
775,-1,0,8,-2,-1,0,-1,-1,3.875
776,-1,2,-10,-1,0,-2,-1,0,3.88
777,-1,-1,9,-1,1,0,0,1,3.8850000000000002
778,-2,-3,0,-2,-1,-1,0,-2,3.89
779,0,-2,-2,0,-2,0,0,0,3.895
780,-2,0,-2,-1,0,-1,-1,-2,3.9
781,0,-1,-11,-2,-3,0,-2,-1,3.9050000000000002
782,-4,-1,1,-1,-2,-1,-1,-1,3.91
783,-1,-3,7,-1,-1,-1,1,0,3.915
784,0,0,-3,-1,-1,1,-1,-1,3.92
785,0,0,-5,-2,-1,0,-1,-2,3.9250000000000003
786,1,0,0,1,0,-1,-1,-1,3.93
787,-1,0,-3,-1,-1,-1,1,-1,3.935
788,0,1,1,0,-1,-2,-1,-1,3.94
789,-2,-1,0,-2,-2,-2,-2,-1,3.9450000000000003
790,-1,0,-6,-3,-3,-2,-3,-1,3.95
791,-3,-5,-6,-1,-1,-1,-2,-2,3.955
792,-2,1,3,-1,0,1,-2,1,3.96
793,-1,-1,-5,3,0,-1,0,-1,3.9650000000000003
794,-2,0,0,-1,-1,1,-1,1,3.97
795,0,-3,-5,-1,-1,-1,-2,0,3.975
796,-1,0,-2,-1,-2,-2,-1,-1,3.98
797,1,1,13,-2,-1,1,-1,0,3.985
798,-2,-7,-9,-2,-2,-1,0,0,3.99
799,-1,5,14,0,1,-1,0,0,3.995
800,-2,-5,-10,-3,-1,-2,0,-1,4.0
801,0,-1,-9,-1,0,-3,1,-1,4.005
802,2,-2,14,0,0,0,0,0,4.01
803,-1,-1,-9,-1,-1,0,-2,-2,4.015
804,0,2,1,-1,-1,-1,-1,-1,4.0200000000000005
805,-1,-1,1,0,-1,-1,0,0,4.025
806,-1,-1,-11,-3,-2,-2,0,-1,4.03
807,0,-2,-1,0,-1,-2,-1,-1,4.035
808,-2,2,6,-1,0,-2,-1,-1,4.04
809,-1,-1,-3,-1,0,-1,-2,0,4.045
810,0,0,-5,0,0,-3,1,-2,4.05
811,-1,-3,-1,-2,-2,-1,0,-2,4.055
812,1,0,0,3,0,0,0,0,4.0600000000000005
813,0,-3,-3,1,-2,-1,2,1,4.065
814,-3,2,4,0,-1,1,-1,-1,4.07
815,-1,-1,-9,-2,-1,-2,-1,-1,4.075
816,0,-2,-1,-2,0,1,1,0,4.08
817,-1,2,6,0,0,0,-1,-2,4.085
818,-2,-2,-4,0,-1,1,0,-1,4.09
819,-2,-2,-11,-3,-3,0,1,0,4.095
820,-1,1,5,2,-2,-1,0,0,4.1
821,-1,-2,-4,-2,-2,1,0,-1,4.105
822,1,-4,-9,-2,0,-1,0,-2,4.11
823,-2,1,4,1,1,0,-2,-1,4.115
824,0,-1,-10,-4,-3,-1,-2,-2,4.12
825,0,-1,6,2,0,0,1,0,4.125
826,-1,-5,-5,-1,-1,-1,-1,-1,4.13
827,-1,-1,-1,0,-1,-1,0,0,4.135
828,0,1,3,0,-2,0,0,-1,4.14
829,-1,-2,-11,0,-1,0,-2,-3,4.1450000000000005
830,0,-3,2,0,-2,-1,-2,-2,4.15
831,0,6,3,1,-1,-2,-2,-1,4.155
832,-1,-8,2,-1,-2,-2,-1,0,4.16
833,-1,0,-1,-1,-2,0,-1,1,4.165
834,-1,0,4,0,-2,0,-1,-1,4.17
835,0,3,6,-2,-2,-1,1,0,4.175
836,-1,0,-6,-1,1,-2,0,-2,4.18
837,0,1,-3,0,0,-1,0,-1,4.1850000000000005
838,-1,-3,5,0,1,0,-3,-2,4.19
839,-2,-2,-4,-1,-1,0,-3,0,4.195
840,-2,3,1,-2,0,-1,0,-1,4.2
841,0,-4,-2,-2,-1,-1,1,0,4.205
842,-2,1,3,-1,0,0,2,-2,4.21
843,1,-3,-11,-1,-1,-1,-1,-2,4.215
844,0,1,15,0,-1,-2,-2,0,4.22
845,0,-2,1,-1,-2,-1,-2,-1,4.225
846,0,-1,-5,-2,-2,-1,0,-2,4.23
847,0,0,4,1,-1,-3,-1,0,4.235
848,1,1,-6,0,0,1,0,0,4.24
849,-2,1,0,0,-1,-1,0,-1,4.245
850,0,-2,2,0,-1,0,-2,-1,4.25
851,-1,-4,-2,-3,-1,0,-1,-1,4.255
852,-1,1,-6,0,-2,-1,1,0,4.26
853,0,-1,9,2,-1,-1,0,-1,4.265
854,-1,-2,-2,1,-1,-2,-1,-2,4.2700000000000005
855,0,0,3,1,1,-1,-1,-1,4.275
856,-1,-1,-7,0,0,0,1,0,4.28
857,-1,-1,-5,-2,-1,-2,-1,-2,4.285
858,-1,-3,-2,-1,-1,1,-2,2,4.29
859,0,-1,-10,-2,-2,-1,-2,0,4.295
860,1,3,7,1,1,1,-1,2,4.3
861,-1,-2,-2,0,-1,1,0,-1,4.305
862,1,0,0,-3,0,0,-3,-1,4.3100000000000005
863,-1,0,-3,1,1,0,-1,-1,4.315
864,0,0,-15,-2,-3,-2,-1,-2,4.32
865,-2,-3,9,1,0,0,-2,-1,4.325
866,-3,-2,-1,-1,-1,-1,0,-2,4.33
867,0,0,3,-1,-1,0,-1,0,4.335
868,-2,0,3,-2,0,-1,-1,-2,4.34
869,0,-3,-10,-2,-1,-2,0,-1,4.345
870,-1,-1,1,0,-1,-2,0,-2,4.3500000000000005
871,-2,1,5,-1,0,-1,-1,-2,4.355
872,0,0,12,1,2,1,-2,-2,4.36
873,-1,0,-6,1,-1,-1,0,-1,4.365
874,0,0,4,-1,-2,-2,-2,-3,4.37
875,-1,1,0,1,-1,-1,0,-1,4.375
876,-2,-2,-5,0,-1,-1,0,0,4.38
877,-1,1,2,-1,1,-1,-2,-1,4.385
878,-2,-3,0,-1,0,-1,-1,0,4.39
879,-1,1,-26,-3,0,-1,0,-1,4.3950000000000005
880,-1,1,34,-1,0,-2,-1,-2,4.4
881,0,0,-1,-1,-2,-2,-1,1,4.405
882,1,-2,-6,2,-2,-1,0,1,4.41
883,-1,2,10,-2,-2,0,-2,-1,4.415
884,1,-4,-23,-1,-1,-1,-1,0,4.42
885,-1,2,8,0,-1,-1,-2,0,4.425
886,-1,-2,0,-1,0,0,0,-2,4.43
887,-2,-1,-4,-1,-1,-1,-1,-2,4.4350000000000005
888,-1,0,4,2,1,-1,0,0,4.44
889,-1,-3,-2,-1,0,1,-1,0,4.445
890,-1,0,-4,-1,0,1,-2,0,4.45
891,-1,-2,2,-1,-1,-1,-1,0,4.455
892,-1,0,-6,-1,0,-1,-1,-1,4.46
893,-1,-2,-6,-1,0,-1,-1,0,4.465
894,-2,-2,-1,-1,-2,-1,-1,0,4.47
895,1,-1,7,-1,-1,-1,0,0,4.4750000000000005
896,0,-1,-4,-2,0,-1,-2,-2,4.48
897,1,0,-2,1,-1,0,-1,0,4.485
898,-1,-2,-1,-2,0,0,-1,-2,4.49
899,-3,-1,6,-1,0,0,0,0,4.495
900,0,0,-5,0,-1,-2,-1,1,4.5
901,-1,-1,-3,-2,-1,-2,-2,-4,4.505
902,-1,-1,0,2,0,-1,-1,-2,4.51
903,1,-1,2,-2,-1,-1,-2,0,4.515
904,-1,1,-3,-1,-1,0,-1,-1,4.5200000000000005
905,-1,-2,-3,-3,-1,-1,0,0,4.525
906,-2,-2,1,1,-1,-2,-1,1,4.53
907,-1,1,1,0,-1,-1,1,-1,4.535
908,-1,-1,-2,-1,0,1,0,1,4.54
909,-1,-1,1,0,-1,1,0,-1,4.545
910,0,-2,2,-1,-2,-2,1,-1,4.55
911,-1,-1,-1,1,-2,0,-2,-1,4.555
912,0,2,-5,-2,-1,-1,0,-1,4.5600000000000005
913,-2,-5,-13,0,0,0,0,-2,4.565
914,-1,-1,1,-2,-1,-2,-1,0,4.57
915,0,0,2,-1,1,-1,-2,0,4.575
916,1,1,1,-1,-2,-1,-1,0,4.58
917,1,-2,-11,-1,2,-1,1,-1,4.585
918,-1,3,0,3,0,0,-2,-2,4.59
919,0,0,10,1,0,0,1,-2,4.595
920,0,0,-4,0,0,1,0,-1,4.6000000000000005
921,-2,-2,1,-2,-1,-3,-1,1,4.605
922,0,-4,-36,-5,-1,1,-1,1,4.61
923,-1,5,29,1,-2,0,-1,-1,4.615
924,2,-2,0,2,1,-2,0,0,4.62
925,0,0,5,1,-2,-2,-1,-2,4.625
926,-1,-1,0,-1,0,0,0,-1,4.63
927,-1,-2,-12,-1,0,-1,-2,-1,4.635
928,0,-1,-1,-2,-3,-1,0,-2,4.64
929,0,0,2,-1,-1,0,-2,-1,4.6450000000000005
930,-2,0,8,-2,-2,0,-3,0,4.65
931,-1,0,-10,-1,-3,-1,-1,-2,4.655
932,-1,-2,7,-1,0,1,-1,0,4.66
933,0,-1,-1,-1,1,-1,0,-1,4.665
934,0,-2,4,0,-1,-1,-1,-1,4.67
935,1,0,-2,-1,0,-1,-1,0,4.675
936,-1,0,-6,-1,-1,-1,0,0,4.68
937,0,-1,-8,1,-1,0,-1,-2,4.6850000000000005
938,-3,-2,1,-2,0,-1,1,-1,4.69
939,1,0,-5,-2,-1,-1,1,-1,4.695
940,0,-3,-4,-3,-1,-1,-1,-3,4.7
941,0,5,1,0,0,-1,-1,0,4.705
942,-2,-2,1,-1,-2,-2,-4,-2,4.71
943,-1,-2,-16,-1,0,1,0,-1,4.715
944,-1,4,16,3,0,0,0,-1,4.72
945,-1,-2,2,-1,-1,-2,0,-2,4.7250000000000005
946,0,-2,-1,-1,-2,-1,-1,-2,4.73
947,-1,2,1,0,1,-2,-1,-1,4.735
948,1,-3,-4,0,-2,0,-2,-1,4.74
949,-1,-1,-2,-1,-2,-1,0,0,4.745
950,-1,0,13,0,0,-2,-1,0,4.75
951,0,-1,-3,-1,0,0,-1,0,4.755
952,0,0,-1,-2,-2,-2,-2,-1,4.76
953,-1,-2,5,0,-1,0,-1,-1,4.765
954,-1,-1,-12,-1,0,0,0,-1,4.7700000000000005
955,-1,0,0,-2,-1,-1,-1,-1,4.775
956,-2,0,-2,0,-1,0,0,-1,4.78
957,-1,-3,-1,-3,-2,-1,0,-1,4.785
958,-2,1,3,-2,-1,0,0,-1,4.79
959,0,1,1,1,0,-1,-1,-1,4.795
960,-3,-1,-3,-1,0,-1,0,0,4.8
961,1,-5,-29,-2,-1,-1,-3,-1,4.805
962,2,-1,16,4,0,1,-1,0,4.8100000000000005
963,-2,1,1,-1,0,-1,0,-1,4.815
964,0,0,0,-1,0,-1,-1,-2,4.82
965,-3,-5,-11,0,0,0,1,1,4.825
966,-1,-1,-4,-2,-1,-1,0,-2,4.83
967,0,3,-6,-3,-1,0,-1,0,4.835
968,1,-2,-1,1,1,-1,-2,0,4.84
969,-2,-1,12,1,-1,0,-1,1,4.845
970,-1,-5,-3,-3,-1,-1,1,0,4.8500000000000005
971,-1,0,6,2,-1,0,0,1,4.855
972,-2,-2,-11,-3,-1,1,1,-2,4.86
973,1,2,7,-1,-1,-3,-3,-2,4.865
974,-1,-3,-3,0,-1,2,-2,0,4.87
975,-1,-1,-8,-3,-1,-1,-1,-1,4.875
976,1,4,0,0,-2,0,0,0,4.88
977,-2,-1,13,3,0,2,1,-1,4.885
978,-1,-2,-6,-3,-2,-2,0,-2,4.89
979,1,1,5,-1,-2,-2,-2,-1,4.8950000000000005
980,-1,-1,2,-1,-1,-2,0,1,4.9
981,1,0,-11,-1,-1,-3,-1,-2,4.905
982,-2,-1,10,0,-2,0,-2,-2,4.91
983,-1,-2,2,-1,-2,-2,-2,-2,4.915
984,0,2,3,0,0,1,0,-2,4.92
985,-2,-7,-8,-1,0,-1,0,-1,4.925
986,-1,-1,-8,-1,0,1,-1,1,4.93
987,-1,2,16,0,-2,1,0,-2,4.9350000000000005
988,0,1,-9,-1,-1,-2,-2,0,4.94
989,-1,1,7,-1,-1,-1,-1,-1,4.945
990,0,-1,-3,1,-1,-1,-2,-2,4.95
991,-1,0,-6,-3,-1,-1,-1,-1,4.955
992,-1,-2,-5,-2,0,-1,-2,-1,4.96
993,0,1,9,1,-2,0,-1,0,4.965
994,-2,-1,2,0,-1,-3,1,-2,4.97
995,-1,1,-6,-1,0,0,2,0,4.9750000000000005
996,-2,0,0,0,0,0,1,-2,4.98
997,-1,-1,0,0,0,-2,-2,0,4.985
998,-2,-3,-5,-1,0,-2,-2,-2,4.99
999,0,-2,-1,-1,0,-1,-1,-1,4.995
1000,-2,0,4,1,0,-2,-2,-1,5.0
1001,-1,-2,-2,-1,-1,-1,-1,0,5.005
1002,-2,0,1,0,-1,0,-1,-1,5.01
1003,-1,-4,-24,-2,2,-1,-3,-2,5.015
1004,-2,6,46,-1,-2,0,-1,-1,5.0200000000000005
1005,-1,-3,-5,0,-2,0,-2,-2,5.025
1006,-2,1,-11,-2,-2,-2,-2,-3,5.03
1007,-2,-8,-7,-3,-1,-1,-1,-1,5.035
1008,-1,0,-10,-1,-2,-1,2,-1,5.04
1009,-1,-2,0,-3,-2,-1,-1,-1,5.045
1010,-2,-3,-3,0,-1,-1,0,-1,5.05
1011,-1,4,20,-1,0,-1,-2,1,5.055
1012,-1,-2,-8,0,-1,0,-1,1,5.0600000000000005
1013,-1,-1,1,-2,-1,-2,-1,-2,5.065
1014,0,-2,-5,-3,-1,0,-1,-1,5.07
1015,0,1,-1,2,-1,-1,-2,0,5.075
1016,0,-2,-5,-2,-1,-1,-2,0,5.08
1017,0,0,6,-1,-1,-1,-1,-2,5.085
1018,-1,-3,-1,0,-1,-3,-2,0,5.09
1019,1,1,3,-1,0,0,-1,-1,5.095
1020,0,-2,-2,0,-1,-2,0,0,5.1000000000000005
1021,0,0,-3,-1,-3,0,-1,0,5.105
1022,2,-3,4,-1,-2,-2,0,0,5.11
1023,1,1,0,-2,-1,-2,0,-1,5.115
1024,0,-2,-9,1,1,-1,-1,-1,5.12
1025,-1,-2,-2,-1,-1,-1,-1,-3,5.125
1026,-1,-2,-1,-2,-1,-1,-1,-1,5.13
1027,-1,-4,-11,0,0,-1,-1,-1,5.135
1028,0,3,13,-1,-1,0,0,0,5.14
1029,-2,-3,-2,0,0,2,0,1,5.1450000000000005
1030,-1,2,2,-1,-2,-1,-1,-1,5.15
1031,-2,-1,-16,-5,-2,-1,-1,-1,5.155
1032,1,-2,-2,0,1,-1,-2,0,5.16
1033,-1,0,-1,-2,0,-1,0,-1,5.165
1034,-1,-2,7,-1,1,0,-1,-1,5.17
1035,0,4,-16,-1,-1,-1,0,1,5.175
1036,-1,-1,-6,-1,0,0,1,-1,5.18
1037,-1,-1,4,0,0,-1,-1,1,5.1850000000000005
1038,-1,-1,-9,2,-1,1,0,-3,5.19
1039,-2,3,12,-1,-1,1,0,0,5.195
1040,-3,0,-2,-2,-1,0,0,0,5.2
1041,-1,-4,0,-1,-2,1,-1,-1,5.205
1042,0,-1,-1,-2,-1,-1,0,0,5.21
1043,1,0,7,1,-1,-1,0,-1,5.215
1044,0,-3,1,0,0,0,2,-1,5.22
1045,-2,-2,-10,-2,1,0,-2,-1,5.2250000000000005
1046,1,0,4,1,0,0,-1,1,5.23
1047,-4,3,16,0,0,-3,-1,-2,5.235
1048,0,-1,-12,-4,0,-1,-1,-1,5.24
1049,0,-1,-2,1,-1,-2,0,0,5.245
1050,-1,-2,2,1,-1,-1,-1,-1,5.25
1051,1,0,2,-1,1,-1,0,0,5.255
1052,1,3,-4,-1,-1,0,-3,-2,5.26
1053,-1,-3,-14,-3,0,-1,-2,-2,5.265
1054,-2,2,11,-1,-1,0,0,-2,5.2700000000000005
1055,-1,1,6,1,-1,0,1,-1,5.275
1056,-1,1,-2,-1,1,-2,0,0,5.28
1057,0,-1,-1,-1,0,0,0,0,5.285
1058,-1,-2,-10,-1,-3,0,-1,-2,5.29
1059,1,0,2,-1,-2,0,-1,-1,5.295
1060,-1,-3,1,0,0,-1,0,0,5.3
1061,-1,0,3,0,0,0,0,0,5.305
1062,-2,-2,5,-4,0,-4,-1,-3,5.3100000000000005
1063,1,1,0,0,-1,1,-1,0,5.315
1064,0,-2,-3,-1,-1,1,-2,0,5.32
1065,-2,-2,6,0,-3,-1,0,0,5.325
1066,-1,-2,-17,-1,-2,-1,-2,0,5.33
1067,-1,0,-3,0,1,-2,1,0,5.335
1068,1,0,11,0,0,-2,1,1,5.34
1069,0,1,-4,0,0,-1,-1,-2,5.345
1070,-2,-2,-3,-1,-1,0,0,-1,5.3500000000000005
1071,0,-4,-11,-2,1,-2,0,-2,5.355
1072,-1,-1,-7,-2,0,1,-1,0,5.36
1073,1,1,10,1,-2,-1,0,-1,5.365
1074,-2,-9,-8,-1,-1,-2,0,0,5.37
1075,-3,1,3,-1,-2,-1,0,-1,5.375
1076,-1,-1,-2,1,-2,-1,-1,-1,5.38
1077,-1,0,4,-1,0,1,-1,-1,5.385
1078,-1,0,-2,-1,0,-2,-2,0,5.39
1079,-1,-1,0,-1,-2,0,-1,0,5.3950000000000005
1080,-2,-2,-11,0,-2,0,0,-1,5.4
1081,-1,-2,16,1,-2,0,-2,-1,5.405
1082,-2,3,-3,0,-1,-1,0,1,5.41
1083,0,-1,0,-1,0,-1,1,0,5.415
1084,-1,0,-2,0,-1,-1,2,0,5.42
1085,-1,-3,-6,-1,1,-2,0,-2,5.425
1086,-2,0,-4,-2,-1,-2,0,0,5.43
1087,-1,1,12,-2,-1,-2,-1,-1,5.4350000000000005
1088,1,-3,-2,-2,-1,0,0,-1,5.44
1089,-4,-2,-3,-1,-2,0,-1,-1,5.445
1090,0,-4,0,0,0,0,0,0,5.45
1091,0,-2,-8,0,0,-2,-1,-1,5.455
1092,0,1,-3,-1,0,-2,-2,-1,5.46
1093,0,-4,8,1,0,-1,0,-1,5.465
1094,0,0,1,-1,-1,1,-2,2,5.47
1095,-1,1,-2,-2,-1,-2,-3,0,5.4750000000000005
1096,-2,-1,-4,-1,-1,-1,-2,0,5.48
1097,-1,-3,-13,-2,-2,-2,-2,0,5.485
1098,0,5,7,0,-2,-1,-1,-3,5.49
1099,-3,-6,-3,-1,-1,0,0,-2,5.495
1100,0,0,3,-2,-1,-1,-1,1,5.5
1101,-1,-2,-6,1,1,-1,0,0,5.505
1102,0,0,-8,-1,-1,-1,0,-2,5.51
1103,0,2,7,1,-1,0,-1,0,5.515
1104,-2,-1,-2,0,-2,-2,-1,-2,5.5200000000000005
1105,-1,-1,2,0,-2,1,-1,-3,5.525
1106,0,-3,-9,-1,0,0,0,-2,5.53
1107,0,2,-1,0,0,0,0,-1,5.535
1108,-1,-1,2,-2,1,0,0,-1,5.54
1109,0,-1,0,-1,-1,0,-2,0,5.545
1110,-1,0,3,-1,-2,-1,-2,-1,5.55
1111,0,1,-5,-3,-1,-2,-1,0,5.555
1112,0,0,9,1,-1,0,-1,0,5.5600000000000005
1113,-1,-3,-7,-4,-2,-2,0,-1,5.565
1114,0,-3,-3,0,0,-1,0,-2,5.57
1115,-2,2,6,1,-1,-1,-3,-2,5.575
1116,-1,-4,-11,-1,-1,-1,-1,1,5.58
1117,-1,0,0,-1,-1,-3,0,0,5.585
1118,-2,-1,4,1,0,0,0,0,5.59
1119,0,1,-5,-1,-4,0,2,0,5.595
1120,-1,0,2,0,-1,1,0,-1,5.6000000000000005
1121,-1,-3,-7,0,-2,-2,-1,1,5.605
1122,1,2,22,0,-1,-1,-2,0,5.61
1123,-1,1,-3,-1,2,-1,0,0,5.615
1124,-1,0,1,1,0,0,0,-1,5.62
1125,2,-2,0,-2,-2,0,-1,0,5.625
1126,-2,0,-13,-1,-1,-2,0,0,5.63
1127,-1,-1,8,0,-1,0,-1,0,5.635
1128,0,-2,-1,-1,0,-1,0,0,5.64
1129,-1,-3,-5,0,-2,-1,-2,0,5.6450000000000005
1130,-2,-2,8,-1,-2,0,-2,-2,5.65
1131,0,1,-8,-1,0,0,0,0,5.655
1132,1,0,12,-1,0,0,-1,-2,5.66
1133,-1,0,9,-1,0,-2,0,-2,5.665
1134,0,0,-13,-1,-1,-1,-1,0,5.67
1135,1,0,0,-1,0,1,-1,0,5.675
1136,-2,-2,1,-2,0,-2,1,0,5.68
1137,0,-2,-8,1,-3,-1,-1,0,5.6850000000000005
1138,0,-1,3,0,-1,-1,-2,-1,5.69
1139,-1,-2,-5,-4,-2,-2,0,1,5.695
1140,1,-1,-8,-1,0,1,0,0,5.7
1141,-3,-1,1,-1,0,-1,-1,-2,5.705
1142,-1,-1,-4,-1,-2,-2,0,-2,5.71
1143,-2,1,3,1,-3,-1,0,-2,5.715
1144,0,-3,-9,-1,-1,-1,0,0,5.72
1145,-1,-1,7,0,-1,0,0,-2,5.7250000000000005
1146,-1,0,-2,-1,-1,1,-2,-1,5.73
1147,0,1,-5,-1,0,-1,-1,1,5.735
1148,0,-2,2,0,-3,-2,0,-2,5.74
1149,0,1,-4,0,1,-1,0,0,5.745
1150,-2,-2,-9,1,0,-2,1,-2,5.75
1151,1,0,4,0,-2,-1,-2,0,5.755
1152,-1,-1,0,-1,-1,-2,-1,-1,5.76
1153,-1,-2,2,0,0,-1,-1,-1,5.765
1154,-1,-4,-11,-2,0,0,0,1,5.7700000000000005
1155,-3,4,12,-1,0,-2,-1,-1,5.775
1156,-1,1,-4,0,0,-3,-2,-1,5.78
1157,-2,-1,9,1,1,-1,-1,-1,5.785
1158,0,1,0,-2,0,-1,0,1,5.79
1159,-1,-2,-9,1,0,-2,0,-1,5.795
1160,0,0,2,0,-1,-1,1,0,5.8
1161,-2,-3,-7,-3,-2,0,-1,0,5.805
1162,-1,0,0,0,-1,-1,0,-2,5.8100000000000005
1163,0,0,3,-1,1,1,0,0,5.815
1164,-1,0,1,0,-2,-2,1,-1,5.82
1165,0,-3,-2,0,0,-2,-2,-1,5.825
1166,-1,3,4,0,-1,0,-2,0,5.83
1167,-1,-2,-16,-3,-1,-2,0,0,5.835
1168,-1,-1,3,1,0,1,-1,0,5.84
1169,0,-2,-4,-1,-3,-1,0,-1,5.845
1170,-1,0,0,-2,-2,-2,-1,-3,5.8500000000000005
1171,0,-1,7,-2,0,0,0,-1,5.855
1172,0,0,-9,-1,0,1,0,-1,5.86
1173,-1,2,6,0,-1,0,-2,0,5.865
1174,-1,0,3,-1,0,-2,-2,-1,5.87
1175,2,2,2,-1,-3,-1,0,0,5.875
1176,-1,-1,2,-1,-1,1,2,-1,5.88
1177,-1,-4,-3,-3,-2,2,0,-1,5.885
1178,0,1,-5,-2,0,-3,0,-1,5.89
1179,0,-1,5,3,0,-1,-1,-2,5.8950000000000005
1180,0,-1,4,0,0,-1,-1,0,5.9
1181,0,-1,-8,-1,-2,-1,0,-1,5.905
1182,0,-4,-2,-2,-2,-2,0,-2,5.91
1183,0,0,-2,-2,-1,0,1,-1,5.915
1184,-1,-1,-1,-2,-1,-1,-1,0,5.92
1185,0,-3,-5,0,-2,-1,-2,-1,5.925
1186,0,-2,0,-2,-2,0,-2,-1,5.93
1187,0,0,2,2,0,-1,0,-2,5.9350000000000005
1188,-1,-1,-1,-2,-1,0,0,0,5.94
1189,-1,-2,-3,0,0,-2,-1,-1,5.945
1190,-1,1,6,-1,-1,1,-2,0,5.95
1191,-1,1,-4,0,1,-2,-1,-2,5.955
1192,-1,-3,-3,-2,-1,-1,0,-1,5.96
1193,-1,-6,-32,-2,0,-1,-2,-1,5.965
1194,1,5,49,1,-1,0,-1,0,5.97
1195,-2,-2,-4,-3,-2,-1,-1,0,5.9750000000000005
1196,1,1,-2,-1,-1,0,-1,0,5.98
1197,1,-2,-4,-2,-3,0,-1,-1,5.985
1198,-2,-1,-5,-1,-2,-2,0,-1,5.99
1199,-2,1,-5,1,-1,0,1,-1,5.995
1200,0,-2,0,-1,-2,-1,1,0,6.0
1201,-2,1,13,0,-1,0,0,-1,6.005
1202,-1,-2,-12,0,0,-1,0,-1,6.01
1203,2,1,4,0,-2,-1,-2,-1,6.015000000000001
1204,0,-4,-6,1,0,0,-2,-1,6.0200000000000005
1205,-1,-1,2,0,-2,0,1,-1,6.025
1206,-1,-1,-6,1,0,-2,1,-1,6.03
1207,0,-1,-3,-1,0,-2,-1,-1,6.035
1208,0,2,-8,0,-2,-1,-1,-1,6.04
1209,0,-2,25,2,0,-1,0,1,6.045
1210,0,0,-3,-2,-1,0,-1,0,6.05
1211,2,-1,-6,0,-2,-1,-1,-2,6.055
1212,0,1,6,1,0,-3,-1,-1,6.0600000000000005
1213,0,-4,2,-2,-2,-1,-1,-3,6.065
1214,0,1,-13,-1,-1,-1,1,0,6.07
1215,-2,-3,-6,-1,-1,-1,-1,0,6.075
1216,-2,-2,-3,-2,-1,0,-2,0,6.08
1217,-1,-1,-21,0,-1,-2,-1,-2,6.085
1218,-1,-3,3,0,-1,0,-1,-1,6.09
1219,-1,0,11,0,-1,0,0,0,6.095
1220,0,-1,0,0,-1,-1,-1,-1,6.1000000000000005
1221,-1,0,-5,-3,0,-1,-1,-1,6.105
1222,-1,-1,-8,-3,-1,-1,1,-1,6.11
1223,-2,-1,-2,1,1,-1,-1,-1,6.115
1224,-2,1,10,-2,-2,0,-2,-2,6.12
1225,-1,-1,6,1,-2,0,-2,0,6.125
1226,-3,-1,-3,-1,-2,-1,-2,-2,6.13
1227,0,-1,1,-1,-1,2,0,-2,6.135
1228,-2,-2,1,0,1,0,-1,-1,6.140000000000001
1229,-1,-3,-1,-2,-2,-1,1,1,6.1450000000000005
1230,0,1,0,1,0,1,0,0,6.15
1231,-1,2,-3,-2,-1,-1,-1,-1,6.155
1232,1,-6,-5,0,-2,-3,0,-1,6.16
1233,-2,-1,4,-2,-1,-1,-3,-3,6.165
1234,-1,-4,-14,-2,-1,0,-1,-1,6.17
1235,1,2,4,1,1,1,1,1,6.175
1236,0,0,0,-1,1,1,-3,-1,6.18
1237,-2,-3,4,1,-1,-1,0,-2,6.1850000000000005
1238,-1,0,-10,1,0,-2,0,-1,6.19
1239,-1,-1,-2,-3,-2,-1,1,-1,6.195
1240,-3,-7,2,-1,-2,0,1,-1,6.2
1241,-2,-2,-5,-1,-1,-3,-1,-2,6.205
1242,-1,1,2,0,1,1,-2,0,6.21
1243,-1,-3,-19,-3,-2,-2,-2,0,6.215
1244,0,3,15,0,0,-1,0,1,6.22
1245,-1,-3,-3,-2,-1,-1,-1,-1,6.2250000000000005
1246,-1,-2,5,-1,-1,-2,0,0,6.23
1247,-1,0,1,0,1,-1,-1,-1,6.235
1248,1,-2,-4,-1,-1,1,-3,0,6.24
1249,0,-1,1,1,1,0,-1,-1,6.245
1250,0,1,2,-1,-1,0,-2,-1,6.25
1251,-1,1,4,0,-2,-2,-1,1,6.255
1252,-1,-6,-15,-1,0,-1,-1,0,6.26
1253,-2,-1,-16,-1,-3,1,1,0,6.265000000000001
1254,-1,2,39,1,-1,-1,-2,-1,6.2700000000000005
1255,-2,-3,-3,-1,0,0,-1,1,6.275
1256,-2,7,4,-3,-1,-2,-2,0,6.28
1257,1,-2,1,0,2,-1,0,1,6.285
1258,0,-2,-12,-4,-3,0,-1,-1,6.29
1259,-1,-2,7,-1,-1,-1,-3,-2,6.295
1260,-1,-2,-2,-1,-1,-1,0,-1,6.3
1261,-1,-2,-7,-1,-1,0,-2,0,6.305
1262,-1,3,11,0,0,-1,0,0,6.3100000000000005
1263,-1,-3,-2,-3,-1,-1,-1,-1,6.315
1264,0,-1,-5,0,-1,0,-1,0,6.32
1265,-3,-8,-7,-2,-2,-2,-1,-2,6.325
1266,0,0,5,-1,-1,1,0,0,6.33
1267,2,1,-1,-2,-2,-2,0,0,6.335
1268,1,0,2,1,-1,0,-1,-1,6.34
1269,-1,1,0,-1,-2,0,-1,-2,6.345
1270,0,0,-8,0,0,0,0,0,6.3500000000000005
1271,-1,-1,2,-2,-2,-1,-2,-2,6.355
1272,-1,-1,0,3,0,0,-1,-1,6.36
1273,0,0,2,-2,-1,0,-2,0,6.365
1274,0,-1,-12,-2,-1,0,0,0,6.37
1275,-1,0,5,0,1,0,0,1,6.375
1276,-1,-4,-1,-3,-1,0,0,1,6.38
1277,-1,-1,0,1,-3,-2,-2,-1,6.385
1278,-1,0,-4,-2,-2,-2,0,0,6.390000000000001
1279,-1,-1,-1,1,0,0,-1,-1,6.3950000000000005
1280,0,-3,-1,-3,0,-1,0,-1,6.4
1281,-2,-1,3,0,0,-1,-1,-1,6.405
1282,-2,0,-2,1,-1,0,0,-2,6.41
1283,1,-1,-4,-2,0,-1,1,0,6.415
1284,-1,-1,-4,-1,0,-1,-2,-2,6.42
1285,-1,0,8,0,-1,1,1,-1,6.425
1286,0,-1,-7,-3,-2,-1,-1,-1,6.43
1287,-1,1,0,1,0,0,-1,0,6.4350000000000005
1288,0,-1,-8,-2,-2,-2,0,0,6.44
1289,0,1,14,0,-2,-2,0,2,6.445
1290,-1,-1,-7,0,1,-1,0,0,6.45
1291,-1,-1,1,0,-1,-1,-2,-1,6.455
1292,-1,-1,-1,-3,-1,0,-2,-1,6.46
1293,0,-2,-5,-1,-1,-1,-1,-1,6.465
1294,-1,-1,-1,0,0,0,-1,-1,6.47
1295,-1,-2,-21,-2,-2,0,-1,-2,6.4750000000000005
1296,0,0,10,0,-1,-1,0,0,6.48
1297,-1,-3,0,-3,0,0,-2,-1,6.485
1298,1,3,2,1,-1,-2,-2,0,6.49
1299,0,0,-6,0,0,-1,0,-1,6.495
1300,0,-1,-5,-2,-2,1,-1,-1,6.5
1301,-1,-2,-2,-1,0,-2,0,-1,6.505
1302,-2,-2,-3,-1,0,-1,-1,0,6.51
1303,1,0,4,-1,1,-1,0,0,6.515000000000001
1304,-1,-3,-4,-1,-1,-2,-1,-1,6.5200000000000005
1305,-2,-1,2,-1,-2,-2,1,-2,6.525
1306,-1,0,-4,-1,-3,-1,-1,-1,6.53
1307,-1,1,5,-1,0,0,0,0,6.535
1308,1,-3,3,0,1,0,0,1,6.54
1309,-2,-2,-9,-2,-1,0,-1,-1,6.545
1310,0,0,-5,-2,1,-1,0,-1,6.55
1311,0,-1,9,1,-1,0,1,1,6.555
1312,-1,0,-6,0,0,-1,-1,-1,6.5600000000000005
1313,0,-1,-1,-1,-1,1,-2,-1,6.565
1314,-2,-1,-2,-2,-2,-2,-1,-1,6.57
1315,0,1,0,-1,-2,-1,-1,-1,6.575
1316,-2,-2,2,1,-2,-3,0,-2,6.58
1317,1,-3,-4,-2,-2,-1,-2,-1,6.585
1318,0,1,1,-2,-2,-1,-2,-1,6.59
1319,1,-1,4,-2,-2,1,0,-1,6.595
1320,-1,0,-1,0,0,0,-2,-1,6.6000000000000005
1321,-1,0,-3,-1,-1,-2,-1,-1,6.605
1322,-1,-2,-15,-1,1,1,1,0,6.61
1323,-2,-2,-2,0,0,0,0,-1,6.615
1324,-1,3,8,0,-2,0,-1,-2,6.62
1325,0,0,3,0,-1,-1,-2,-1,6.625
1326,-2,-1,-4,0,-1,-1,-1,0,6.63
1327,0,0,-3,-1,-1,-1,0,-1,6.635
1328,-2,-3,-2,-1,0,-1,0,-3,6.640000000000001
1329,-2,-2,-4,0,1,0,-1,1,6.6450000000000005
1330,-1,0,5,-1,-1,-1,-2,-2,6.65
1331,0,-1,1,-1,0,-1,0,0,6.655
1332,-2,-2,-3,-2,-1,1,-2,0,6.66
1333,-1,-1,1,-2,1,-1,0,0,6.665
1334,-1,1,4,-2,-1,1,0,0,6.67
1335,0,-1,1,0,0,-2,-1,-2,6.675
1336,-2,-3,-7,-2,0,0,1,-1,6.68
1337,-2,-1,0,-2,-3,-1,-1,-1,6.6850000000000005
1338,0,0,4,0,1,0,-1,-1,6.69
1339,-1,0,-3,-2,-1,-2,-1,-2,6.695
1340,1,-1,1,-2,-2,-1,-2,1,6.7
1341,-1,-2,0,0,0,-1,1,-1,6.705
1342,0,1,-5,0,-1,-2,-1,0,6.71
1343,-2,2,-4,-2,-1,-1,-3,-1,6.715
1344,-1,2,20,5,1,0,-1,-1,6.72
1345,1,0,-6,0,-1,-1,0,0,6.7250000000000005
1346,1,1,6,0,-1,-2,0,0,6.73
1347,-1,-3,-8,-1,-1,-1,-2,-1,6.735
1348,0,-3,-32,-4,-2,-2,0,-2,6.74
1349,-1,-1,21,2,-2,1,1,0,6.745
1350,2,1,2,1,0,0,0,-1,6.75
1351,-1,-1,5,-2,-3,-2,1,0,6.755
1352,-2,-5,-8,-2,-2,0,0,0,6.76
1353,-1,1,-10,0,-2,0,-4,-3,6.765000000000001
1354,-2,-3,1,0,-1,0,-1,-2,6.7700000000000005
1355,0,0,1,2,0,-1,0,0,6.775
1356,-2,-2,3,-1,-3,-2,-1,-2,6.78
1357,-1,-2,-3,-2,0,-2,0,-1,6.785
1358,0,2,4,-2,-2,-2,-1,-4,6.79
1359,0,-2,-1,-1,-1,-1,-2,-1,6.795
1360,0,-1,4,0,0,-1,2,0,6.8
1361,0,-2,0,-2,0,-1,-2,-2,6.805
1362,0,-1,-4,-1,1,-1,-1,0,6.8100000000000005
1363,-3,1,2,-1,0,0,0,-1,6.815
1364,0,-2,1,0,-2,0,-1,-1,6.82
1365,0,-1,-6,-1,-1,-1,-2,-1,6.825
1366,-2,2,-1,-3,-3,-1,1,1,6.83
1367,1,-1,0,-1,0,-1,0,-1,6.835
1368,-1,-3,3,0,0,-1,0,-1,6.84
1369,-2,-1,-4,-1,-1,-1,-1,0,6.845
1370,1,-1,-5,-2,-1,-1,1,-1,6.8500000000000005
1371,-3,-2,-8,-5,1,0,-1,-2,6.855
1372,-1,-4,3,1,-1,1,-1,-1,6.86
1373,-2,2,4,-1,0,-1,-1,-2,6.865
1374,-1,-4,0,-1,-1,-1,-1,-1,6.87
1375,0,-1,-31,-2,0,-2,-1,-1,6.875
1376,0,1,17,1,1,1,-1,-1,6.88
1377,-3,-4,-5,0,-3,-1,-1,0,6.885
1378,-1,1,1,0,-1,-2,-1,1,6.890000000000001
1379,1,0,0,-1,-1,0,0,1,6.8950000000000005
1380,-3,-2,-8,-2,-2,-3,-2,-3,6.9
1381,0,0,4,1,-1,-1,-2,-1,6.905
1382,0,1,-1,-1,-1,-2,-1,-3,6.91
1383,1,0,11,1,-1,1,-1,-1,6.915
1384,0,-1,-3,-1,-2,-1,-3,-1,6.92
1385,-2,-2,4,-1,-1,0,-1,-1,6.925
1386,-1,-2,-6,0,-1,-2,-1,0,6.93
1387,0,-1,8,2,-3,1,0,-2,6.9350000000000005
1388,-1,-2,-2,0,-1,-1,0,-2,6.94
1389,0,-2,-6,-1,-1,-2,-1,-1,6.945
1390,1,2,0,0,0,0,-3,-1,6.95
1391,-1,1,6,1,1,-1,1,-1,6.955
1392,-3,-2,-4,-2,-1,-3,0,0,6.96
1393,-2,1,-7,-3,-2,-1,1,-1,6.965
1394,-1,-4,9,1,0,0,-1,0,6.97
1395,0,1,4,-1,-1,0,-1,-2,6.9750000000000005
1396,-1,-2,-4,-1,-1,2,-2,-1,6.98
1397,-1,-2,1,-1,0,-1,1,1,6.985
1398,-1,1,-9,-1,2,0,3,-1,6.99
1399,1,-1,11,0,-1,-1,-2,-1,6.995
1400,-1,-2,-3,0,1,-1,0,-1,7.0
1401,-1,-2,0,0,0,-1,0,-2,7.005
1402,-1,0,0,-1,-1,1,-2,1,7.01
1403,-1,-2,-1,-2,0,-1,-1,0,7.015000000000001
1404,0,-3,-3,-1,-3,-2,1,0,7.0200000000000005
1405,-1,-2,1,-1,-1,-1,-3,0,7.025
1406,-2,3,3,0,-1,0,1,-2,7.03
1407,-2,-4,-6,-2,9,2,0,-1,7.035
1408,-6,-6,-4,22,3,-4,-12,-6,7.04
1409,13,-4,-3,1,16,-6,-21,-15,7.045
1410,15,2,0,-45,-27,1,11,10,7.05
1411,-68,1,11,33,-1,8,43,6,7.055
1412,12,2,-8,-38,-27,-5,-17,-4,7.0600000000000005
1413,-7,-13,-8,90,33,-3,15,30,7.065
1414,0,-29,-28,-99,-8,5,-6,-29,7.07
1415,-32,-5,3,2,-37,-16,-12,-29,7.075
1416,11,18,14,39,2,3,10,-32,7.08
1417,25,18,19,-25,-37,1,2,-17,7.085
1418,29,-4,-24,12,4,-9,-25,-6,7.09
1419,43,29,23,-6,33,11,8,80,7.095
1420,-28,-46,-8,35,14,-4,-4,17,7.1000000000000005
1421,8,-10,-21,-37,24,0,-4,2,7.105
1422,-69,7,13,-10,-35,1,34,3,7.11
1423,-30,-33,-27,-69,13,-3,-24,-80,7.115
1424,19,15,12,80,-14,-9,-12,66,7.12
1425,46,20,4,-17,-7,4,-5,1,7.125
1426,-87,-3,9,67,20,4,0,-41,7.13
1427,4,3,25,-22,-4,-7,-12,-23,7.135
1428,20,-17,-11,-23,34,6,20,-1,7.140000000000001
1429,42,15,6,-88,-83,-5,8,39,7.1450000000000005
1430,-25,-36,-4,28,65,18,11,20,7.15
1431,-4,-5,-28,-22,-97,-14,4,42,7.155
1432,-17,-9,-30,3,44,-3,-32,-97,7.16
1433,-18,3,46,71,62,14,-12,-59,7.165
1434,-3,-6,-12,-55,-79,-27,-4,100,7.17
1435,67,1,-16,-19,0,-1,-2,38,7.175
1436,-6,-14,-37,-118,-4,-1,6,26,7.18
1437,-20,3,7,30,-47,-14,0,-48,7.1850000000000005
1438,17,-2,44,64,72,5,-11,-70,7.19
1439,-12,12,-25,61,-6,9,6,-8,7.195
1440,3,30,18,-10,-11,4,15,18,7.2
1441,-21,-6,-11,-48,41,7,8,55,7.205
1442,63,21,18,44,-21,-4,-5,-14,7.21
1443,46,28,-13,-2,28,-1,-4,42,7.215
1444,-21,2,7,55,12,2,4,-49,7.22
1445,-19,-4,-13,-37,13,6,-9,-3,7.2250000000000005
1446,-16,26,11,-22,-66,-29,-36,-24,7.23
1447,59,18,16,8,8,-6,13,-52,7.235
1448,-59,0,18,80,36,28,-17,-43,7.24
1449,90,1,-38,-97,-88,-16,45,91,7.245
1450,-28,-4,2,63,47,8,16,50,7.25
1451,11,72,28,70,-27,-1,-9,7,7.255
1452,-28,-61,-15,-95,-15,-26,-6,64,7.26
1453,0,-21,-30,20,32,6,0,9,7.265000000000001
1454,17,-28,-15,22,21,3,-21,-55,7.2700000000000005
1455,-9,9,14,13,-30,8,9,42,7.275
1456,55,-26,24,3,42,13,21,81,7.28
1457,-60,-20,7,15,-4,-3,-4,-41,7.285
1458,-3,1,-20,-34,-3,-9,0,-31,7.29
1459,-17,-38,-29,-77,0,-3,-24,20,7.295
1460,34,40,27,25,-37,-8,-9,-78,7.3
1461,-46,-26,-11,-53,18,7,12,-15,7.305
1462,45,-4,-28,19,-24,-6,6,82,7.3100000000000005
1463,32,-36,34,99,-9,-3,-3,11,7.315
1464,33,20,-41,-20,13,-11,6,26,7.32
1465,-98,25,32,12,20,10,-6,-128,7.325
1466,29,10,-6,-21,-73,-9,-12,13,7.33
1467,-29,-88,-27,18,72,4,1,-21,7.335
1468,37,84,38,28,-8,-4,0,12,7.34
1469,-48,-54,-16,9,-45,-14,-23,-70,7.345
1470,-47,13,-19,-73,56,13,8,-10,7.3500000000000005
1471,-56,-14,10,58,9,5,2,6,7.355
1472,32,3,-16,-25,-22,6,10,-13,7.36
1473,26,6,23,65,-34,-1,8,56,7.365
1474,33,-9,-6,-3,56,5,-5,-22,7.37
1475,-25,16,13,-77,-80,-20,-23,-92,7.375
1476,-48,-7,4,-16,56,10,9,-29,7.38
1477,57,79,33,71,24,-5,-12,59,7.385
1478,-16,-67,-42,-24,-28,3,20,65,7.390000000000001
1479,-9,10,0,45,34,6,15,16,7.3950000000000005
1480,-13,-37,-44,-83,-64,-19,-25,-31,7.4
1481,-16,11,12,8,54,6,-9,-50,7.405
1482,58,37,63,127,34,15,13,55,7.41
1483,-117,-23,-20,-55,52,2,-5,-63,7.415
1484,95,-5,10,-21,-57,-6,15,57,7.42
1485,26,-8,-20,-28,-10,6,6,95,7.425
1486,78,-5,12,-31,-15,-9,-10,-29,7.43
1487,5,19,-11,1,-1,2,2,66,7.4350000000000005
1488,-21,11,33,111,40,7,-3,-27,7.44
1489,-40,-18,-20,-59,-34,-2,0,-49,7.445
1490,-54,30,-6,14,-18,-12,6,2,7.45
1491,72,0,-27,-121,13,1,-7,19,7.455
1492,-33,-18,5,-36,-27,-3,-6,-18,7.46
1493,-1,0,12,113,22,3,2,30,7.465
1494,-2,14,-32,-25,57,8,5,11,7.47
1495,-5,-25,6,-25,-96,-13,3,-59,7.4750000000000005
1496,10,33,24,-8,34,20,2,32,7.48
1497,-18,-18,-36,-19,35,1,-6,1,7.485
1498,-13,-20,-7,-30,-45,-20,-12,-68,7.49
1499,19,1,46,12,54,-1,-9,40,7.495
1500,-25,3,-35,-9,-79,-12,12,7,7.5
1501,5,-3,0,-26,-21,-5,-5,-16,7.505
1502,-76,24,16,-2,16,13,8,28,7.51
1503,36,21,5,-45,-10,-5,-3,-29,7.515000000000001
1504,56,-1,13,68,46,5,8,32,7.5200000000000005
1505,8,-13,-7,-16,-18,-11,-5,49,7.525
1506,-9,22,37,20,-14,4,-7,-109,7.53
1507,-28,-6,-30,-21,21,3,6,25,7.535
1508,-20,-4,9,24,14,7,3,25,7.54
1509,19,-3,31,94,-10,-13,6,-17,7.545
1510,-1,8,36,2,0,-1,-11,-51,7.55
1511,5,39,-32,-3,19,7,1,52,7.555
1512,-24,-10,-15,-41,5,4,-11,-31,7.5600000000000005
1513,103,-22,-2,-23,-14,-3,1,2,7.565
1514,-48,-1,2,-16,66,10,-7,-53,7.57
1515,-22,-36,9,54,-54,-8,1,24,7.575
1516,-15,-32,-8,-92,-34,-4,5,23,7.58
1517,2,26,-25,55,28,-10,-24,-48,7.585
1518,46,14,-8,-35,5,13,26,55,7.59
1519,18,8,19,-4,5,-2,-4,-96,7.595
1520,-52,-22,-15,31,5,5,4,59,7.6000000000000005
1521,48,-5,27,-48,-40,1,1,14,7.605
1522,55,13,22,37,-9,-3,3,89,7.61
1523,3,0,3,75,35,6,-12,-100,7.615
1524,63,9,13,-7,-17,-7,8,47,7.62
1525,-100,-2,-46,-60,14,-3,-7,-56,7.625
1526,2,7,9,17,-5,10,7,6,7.63
1527,15,8,12,-15,13,-2,6,51,7.635
1528,-37,-11,21,52,7,-2,-3,-82,7.640000000000001
1529,6,-11,-15,56,48,14,7,74,7.6450000000000005
1530,29,21,-17,-81,-74,-13,10,85,7.65
1531,-17,-14,-27,3,42,15,-2,-53,7.655
1532,19,3,-10,-52,-38,-10,-10,31,7.66
1533,-11,10,16,3,-29,-10,-1,21,7.665
1534,-27,9,-7,10,-11,-7,-12,-83,7.67
1535,32,-23,-34,5,17,10,9,20,7.675
1536,-62,9,9,-23,-11,-6,-4,-36,7.68
1537,110,16,37,-14,-33,4,12,84,7.6850000000000005
1538,-48,-25,3,23,5,-5,-6,32,7.69
1539,-18,3,2,35,-11,1,9,18,7.695
1540,28,3,-9,-39,39,6,-8,-68,7.7
1541,-43,-8,-3,35,-5,1,4,-25,7.705
1542,-30,-10,-26,13,11,1,-1,-19,7.71
1543,37,8,54,-77,-28,-11,-6,-7,7.715
1544,-17,-4,-41,32,-54,-20,-10,-66,7.72
1545,-41,-6,-14,-23,24,-1,-3,58,7.7250000000000005
1546,29,22,55,40,3,2,-1,-34,7.73
1547,35,5,4,-9,21,4,4,40,7.735
1548,7,-14,5,51,12,-1,-2,65,7.74
1549,15,-47,-6,-59,-25,-1,1,-49,7.745
1550,-92,-26,-11,42,-19,-8,-4,10,7.75
1551,17,22,-11,-27,56,11,3,-40,7.755
1552,50,4,2,22,-8,-2,-1,28,7.76
1553,-77,4,5,27,33,7,-1,-97,7.765000000000001
1554,75,-16,-20,-48,6,0,18,127,7.7700000000000005
1555,-48,16,-1,-45,-43,-9,-10,-73,7.775
1556,1,-12,-1,26,-19,-6,-7,33,7.78
1557,-10,9,-1,13,7,1,-2,-43,7.785
1558,38,4,6,-69,-17,-6,-18,-25,7.79
1559,7,1,-30,107,26,2,6,3,7.795
1560,-29,-4,-14,-83,-31,-6,-4,-30,7.8
1561,15,18,19,-21,16,14,5,3,7.805000000000001
1562,14,-16,-38,34,-28,-15,-9,-26,7.8100000000000005
1563,-23,13,28,-32,15,-2,-2,52,7.815
1564,-16,-22,6,35,29,8,4,-17,7.82
1565,-1,13,3,37,29,-8,0,0,7.825
1566,7,-1,-49,-82,-38,-7,-13,-6,7.83
1567,-12,7,4,-20,0,3,4,45,7.835
1568,-44,-20,-8,-3,-14,-9,-18,-76,7.84
1569,7,21,-43,-68,41,11,6,43,7.845
1570,54,1,20,86,-23,2,10,-13,7.8500000000000005
1571,-48,-34,15,-32,3,-13,-9,-18,7.855
1572,-2,-23,20,-8,3,8,14,96,7.86
1573,53,24,-29,11,-34,-11,-8,-8,7.865
1574,-56,-41,2,-51,32,6,2,15,7.87
1575,29,-3,1,49,-41,-12,-10,-19,7.875
1576,-73,14,-6,11,41,14,9,-30,7.88
1577,46,-20,3,-27,-33,-5,-2,5,7.885
1578,-7,14,-16,-93,-12,-1,-1,-38,7.890000000000001
1579,-17,1,28,91,-20,-4,5,1,7.8950000000000005
1580,33,16,15,-22,31,7,0,-1,7.9
1581,-36,8,1,-52,-23,-14,-8,-2,7.905
1582,69,38,38,84,78,13,3,-19,7.91
1583,-34,-42,-48,-108,-73,-23,-13,15,7.915
1584,16,12,-14,6,-23,-4,-3,19,7.92
1585,4,-4,3,12,22,9,9,76,7.925
1586,-20,15,20,14,5,6,3,-31,7.930000000000001
1587,53,0,-9,11,12,5,11,77,7.9350000000000005
1588,-5,5,6,35,5,-3,-2,-29,7.94
1589,-40,-16,-2,51,4,-5,-14,-61,7.945
1590,7,-23,11,28,-9,-5,0,11,7.95
1591,-8,26,-25,-56,-3,3,6,27,7.955
1592,26,25,-15,36,13,-1,-4,-9,7.96
1593,-2,9,52,3,11,10,3,8,7.965
1594,-19,-1,9,37,-29,-6,-5,-14,7.97
1595,-8,1,-22,-39,-13,-3,-2,-17,7.9750000000000005
1596,10,-13,1,8,28,1,3,0,7.98
1597,2,10,2,1,-13,-6,-5,-4,7.985
1598,-6,11,-6,4,3,-3,-3,-1,7.99
1599,-1,-3,3,-10,-4,-1,0,-10,7.995
1600,4,-1,-8,-29,-5,-2,3,8,8.0
1601,-5,-5,-9,6,-1,-5,-3,-15,8.005
1602,-11,-3,-12,-39,2,1,-3,3,8.01
1603,2,3,17,37,7,5,1,-1,8.015
1604,-5,0,-2,-8,7,1,-2,-8,8.02
1605,15,0,0,12,-11,-4,-3,-5,8.025
1606,-47,-4,-7,-27,0,-1,-2,8,8.03
1607,12,2,3,30,20,8,0,-2,8.035
1608,0,-1,-5,-27,-16,-5,0,-3,8.040000000000001
1609,-2,0,-6,-27,-12,-3,-3,-8,8.045
1610,11,4,-12,28,13,3,0,6,8.05
1611,-2,-3,13,47,3,-1,-2,-13,8.055
1612,-2,2,17,-12,-3,0,-1,-4,8.06
1613,-10,-4,-10,-12,-5,1,2,7,8.065
1614,3,-2,-17,-26,4,-1,0,-2,8.07
1615,-2,-1,1,-20,-5,-1,-1,-5,8.075
1616,3,-2,10,16,4,1,0,1,8.08
1617,-12,-1,-14,3,1,-2,-3,-3,8.085
1618,-2,-10,-2,-15,-10,-6,-3,-3,8.09
1619,7,-1,-6,27,-7,0,0,-1,8.095
1620,3,2,8,-43,2,4,2,5,8.1
1621,-3,14,49,22,2,-1,0,-3,8.105
1622,3,-3,-5,4,11,6,1,0,8.11
1623,-9,-17,-49,32,-11,-8,-5,-6,8.115
1624,-3,-4,8,-14,-10,-5,-2,-2,8.120000000000001
1625,-8,-8,-17,-8,1,-1,-1,0,8.125
1626,5,16,34,11,7,1,-1,1,8.13
1627,5,3,14,-3,16,5,3,0,8.135
1628,-6,-7,-15,5,-7,-4,-4,-4,8.14
1629,-2,-2,-10,-4,-2,-2,-1,-1,8.145
1630,2,-3,-7,-4,-1,-1,0,0,8.15
1631,-2,-4,-1,-6,2,1,2,0,8.155
1632,0,0,-16,-6,-5,-2,-1,-2,8.16
1633,-5,-10,1,-5,-4,-2,-2,-1,8.165000000000001
1634,0,-8,-9,-1,2,-1,-2,-1,8.17
1635,-1,-5,12,-9,0,-1,-2,-2,8.175
1636,-2,-2,7,4,-4,0,-1,-2,8.18
1637,-3,-9,-7,0,3,1,0,0,8.185
1638,1,-9,-5,2,1,-1,-1,-2,8.19
1639,-3,11,7,-5,0,-1,-3,-2,8.195
1640,-3,-13,-4,3,0,-2,-2,-4,8.2
1641,4,4,-13,-2,-5,2,10,10,8.205
1642,2,3,-3,-8,-5,-1,0,0,8.21
1643,4,-6,7,-7,0,4,3,0,8.215
1644,-4,2,-8,-2,-3,-4,-4,-5,8.22
1645,-3,1,2,-1,-1,-1,-4,-5,8.225
1646,1,1,4,2,-1,0,-1,0,8.23
1647,5,2,5,-1,2,2,3,0,8.235
1648,0,5,-3,-3,-4,-2,-1,-1,8.24
1649,-13,-36,-7,2,4,-2,-5,-8,8.245000000000001
1650,1,8,-3,-5,-2,-1,0,1,8.25
1651,3,8,2,-4,-3,-1,-4,-3,8.255
1652,-1,5,0,12,1,-3,-2,1,8.26
1653,-4,10,-9,-2,-4,-4,-2,-3,8.265
1654,-6,-15,-6,2,0,-2,-2,-3,8.27
1655,-1,-9,3,-8,3,1,0,1,8.275
1656,3,4,1,-6,-5,0,-1,2,8.28
1657,4,-1,2,0,2,1,2,2,8.285
1658,-1,1,-1,7,1,1,-2,1,8.290000000000001
1659,0,2,1,-2,-1,-2,-2,-3,8.295
1660,-2,-11,-6,0,0,0,1,-1,8.3
1661,0,4,-4,-1,0,-1,-3,-3,8.305
1662,-2,0,-3,-7,-3,-3,-3,-1,8.31
1663,-1,-2,1,0,-2,-2,0,0,8.315
1664,-1,-1,-1,0,0,-1,0,0,8.32
1665,0,2,3,-2,-3,1,-1,1,8.325
1666,3,13,6,-6,-3,0,1,0,8.33
1667,-5,-13,-8,12,5,-3,-2,-1,8.335
1668,-3,-5,-6,-1,-1,-1,-1,-4,8.34
1669,2,9,3,-4,-3,-3,-1,0,8.345
1670,1,-1,1,0,1,0,1,-1,8.35
1671,-3,-2,-3,-1,0,0,-3,-1,8.355
1672,-1,-5,-5,-7,-2,0,0,-1,8.36
1673,-1,5,0,-1,-2,-2,-1,-1,8.365
1674,-1,-1,-7,0,0,0,-2,-1,8.370000000000001
1675,0,-3,-1,-2,-2,0,0,0,8.375
1676,-2,-3,-16,2,2,-1,-1,-2,8.38
1677,1,5,11,2,-1,1,-2,0,8.385
1678,-1,-3,-32,-5,-2,-2,0,-1,8.39
1679,1,5,33,10,1,1,-1,1,8.395
1680,-2,-3,-3,-1,-2,-1,-2,-1,8.4
1681,-1,1,-9,-5,0,-2,0,-1,8.405
1682,0,-4,-8,-3,-5,-2,-1,0,8.41
1683,-3,0,-1,-6,-3,-2,-2,-1,8.415000000000001
1684,-3,-6,-3,2,1,1,-1,-1,8.42
1685,1,1,-2,1,-2,0,0,0,8.425
1686,1,3,7,0,0,0,-2,-1,8.43
1687,0,-2,-6,-6,-3,-1,0,-1,8.435
1688,0,-3,4,-1,-1,-1,1,-1,8.44
1689,-1,-3,-5,2,-1,-2,-1,-2,8.445
1690,0,2,6,1,1,-1,1,-1,8.45
1691,-1,-1,-12,-2,-3,0,-2,-1,8.455
1692,-2,10,-7,-4,-3,-1,-2,0,8.46
1693,1,-23,-7,-2,-3,-1,0,-2,8.465
1694,-1,-10,4,1,-2,-4,-1,-1,8.47
1695,-2,24,27,12,1,0,-1,0,8.475
1696,-4,0,-60,-16,5,-1,-1,-2,8.48
1697,1,-5,-9,1,0,-1,-1,0,8.485
1698,-3,-19,37,3,-1,-1,-2,-1,8.49
1699,1,10,-12,-3,2,1,1,-1,8.495000000000001
1700,0,13,24,4,-14,-4,0,0,8.5
1701,-1,-16,-31,-3,-1,1,0,-2,8.505
1702,-2,-20,21,-4,-1,-2,-2,0,8.51
1703,-1,9,-2,-2,-2,-3,-2,0,8.515
1704,-1,15,18,-6,-1,-2,-1,-1,8.52
1705,-4,-15,-1,5,-1,-3,-2,-2,8.525
1706,0,-6,-3,3,2,1,0,0,8.53
1707,-1,10,-4,-3,2,-2,0,0,8.535
1708,0,11,10,0,0,0,0,1,8.540000000000001
1709,0,-8,10,-6,-7,-2,-4,-2,8.545
1710,0,-6,-12,0,1,1,0,-2,8.55
1711,-1,6,0,-2,-1,1,-1,-1,8.555
1712,0,3,-2,-1,1,-1,0,0,8.56
1713,-3,-9,10,1,0,-2,0,-1,8.565
1714,1,-6,-5,3,3,1,-1,0,8.57
1715,0,4,-18,-8,-2,-1,0,-1,8.575000000000001
1716,0,4,14,-1,-7,-4,-2,-3,8.58
1717,2,0,20,8,14,5,0,1,8.585
1718,1,4,24,0,-1,-2,-2,1,8.59
1719,-4,-11,-9,2,-1,-1,-1,-1,8.595
1720,-2,5,-3,-1,-1,0,-2,-1,8.6
1721,-2,-6,-10,-3,-3,-3,-2,-2,8.605
1722,-1,-2,-11,-1,-2,1,-2,0,8.61
1723,0,8,1,-2,-1,-3,-2,0,8.615
1724,-1,0,5,4,0,-1,-1,0,8.620000000000001
1725,0,-7,2,-4,-7,-2,0,-1,8.625
1726,0,3,-9,1,9,5,2,-2,8.63
1727,-2,3,-4,-2,-3,-1,1,-2,8.635
1728,-2,-1,-1,-2,-3,0,-1,-1,8.64
1729,1,1,2,0,-2,0,1,1,8.645
1730,-2,-5,-2,-2,-8,-4,-2,-1,8.65
1731,0,1,3,-1,-1,-1,-1,-1,8.655
1732,1,-2,-5,1,0,0,0,0,8.66
1733,-1,-5,8,-5,-4,-3,-1,-2,8.665000000000001
1734,-2,-3,-8,1,0,-2,-1,0,8.67
1735,-2,0,-11,-1,-1,1,-1,-2,8.675
1736,1,-6,-29,-1,3,1,0,-2,8.68
1737,-1,8,36,4,0,-2,-3,0,8.685
1738,-2,-5,-26,-4,-3,-1,-1,0,8.69
1739,0,-14,7,1,0,-1,-1,0,8.695
1740,-1,-11,-10,-1,0,-1,-1,-1,8.700000000000001
1741,-2,25,-15,-3,0,1,-3,-3,8.705
1742,2,19,7,-1,-1,-2,-1,-1,8.71
1743,0,-17,-7,-1,0,-1,-2,1,8.715
1744,-2,-12,13,1,0,2,-1,-1,8.72
1745,-2,11,-9,-1,-1,0,1,0,8.725
1746,-1,15,2,-1,0,-2,-2,-2,8.73
1747,1,-11,-6,0,-2,0,-2,-2,8.735
1748,-2,-16,4,0,0,0,-1,-1,8.74
1749,-1,13,2,-2,-1,-1,-1,0,8.745000000000001
1750,1,12,-8,-3,0,-1,1,0,8.75
1751,-1,-4,4,0,0,0,-2,-2,8.755
1752,0,-5,11,-1,-2,-1,0,-2,8.76
1753,-1,-14,-12,-5,-6,0,-2,-1,8.765
1754,-2,-3,4,3,7,1,0,-2,8.77
1755,-2,6,-9,-3,-2,-1,-2,-1,8.775
1756,-1,8,19,5,-2,-1,-1,0,8.78
1757,-1,-9,-8,-4,-2,-1,1,-3,8.785
1758,0,-9,-41,-4,-5,-2,-1,0,8.790000000000001
1759,1,14,45,3,-1,-1,-1,-2,8.795
1760,-1,10,3,0,2,-1,-1,-1,8.8
1761,1,-10,-8,-6,0,-1,1,1,8.805
1762,-1,-8,12,3,-4,-1,-1,-2,8.81
1763,-2,5,-26,-2,1,0,1,-2,8.815
1764,-2,3,-7,-2,-2,-2,-1,-1,8.82
1765,0,-10,15,3,1,-1,0,0,8.825000000000001
1766,-2,-7,2,-5,-4,-3,-1,0,8.83
1767,0,9,-6,-1,-2,0,-1,0,8.835
1768,-1,0,5,-2,-1,-1,-2,-1,8.84
1769,0,-10,-13,0,2,0,-2,-2,8.845
1770,0,2,1,-1,-2,1,0,-1,8.85
1771,-1,4,7,-3,-1,-2,-2,0,8.855
1772,0,-5,-16,-1,0,-1,-1,0,8.86
1773,0,-5,7,2,1,-1,-2,0,8.865
1774,1,4,15,2,-1,0,-1,-1,8.870000000000001
1775,0,3,-8,-1,-3,-2,0,0,8.875
1776,-1,-2,-7,-2,-1,-1,-2,0,8.88
1777,-3,-6,-28,-2,-2,-1,-2,0,8.885
1778,1,6,33,4,2,0,-1,0,8.89
1779,-1,0,-13,-2,0,-1,0,-2,8.895
1780,0,3,6,-1,-1,-1,-2,-2,8.9
1781,1,-4,-5,1,2,0,1,0,8.905
1782,-2,-4,-15,-2,-3,0,-1,-1,8.91
1783,0,2,7,0,-2,-1,-2,-1,8.915000000000001
1784,-3,1,8,-1,0,-1,-1,0,8.92
1785,-1,-5,-8,-2,-1,-1,1,0,8.925
1786,0,-3,-8,-1,-3,-1,0,-2,8.93
1787,-2,2,4,1,-1,-3,1,0,8.935
1788,-2,-6,-5,-7,-1,0,-1,0,8.94
1789,0,-2,5,-3,-2,0,-1,-1,8.945
1790,-1,-1,6,-4,-1,-2,-1,0,8.950000000000001
1791,0,1,-11,1,-2,0,-1,-1,8.955
1792,-1,-4,-2,3,0,-1,-1,-2,8.96
1793,-3,-1,7,-1,1,-1,1,-2,8.965
1794,-2,-2,-12,-2,-1,-1,0,-2,8.97
1795,0,3,11,1,2,0,-1,3,8.975
1796,-1,-1,-9,-1,0,-1,0,0,8.98
1797,0,0,24,-1,-4,-2,-2,-1,8.985
1798,-1,0,-4,2,0,0,-2,-1,8.99
1799,-1,-6,-11,-3,-1,-1,-2,-1,8.995000000000001
1800,-3,-5,-7,-1,-2,-1,-2,-2,9.0
1801,1,1,9,4,1,0,0,1,9.005
1802,0,2,2,-1,-1,-1,-1,0,9.01
1803,-1,-2,7,-2,-2,-1,1,-2,9.015
1804,1,-1,-11,0,-3,-2,-1,-1,9.02
1805,-1,-2,-6,-1,2,0,0,-2,9.025
1806,1,-1,-7,-2,-1,-2,0,-1,9.03
1807,0,0,5,-1,-1,0,-1,-1,9.035
1808,0,-3,1,1,-1,-1,-1,-1,9.040000000000001
1809,-1,0,1,-2,-1,-2,-1,0,9.045
1810,-1,1,0,-1,-1,-1,0,-1,9.05
1811,-1,-2,-11,-1,0,-1,-2,-1,9.055
1812,-1,-1,8,-2,-1,1,0,-2,9.06
1813,0,-1,2,-1,-4,0,-1,-1,9.065
1814,-1,0,-5,-2,-6,-1,0,-1,9.07
1815,-2,-1,-4,2,5,0,-1,0,9.075000000000001
1816,0,-3,3,-1,-1,-1,-1,0,9.08
1817,-2,1,-3,3,0,-1,0,-1,9.085
1818,-1,-1,-2,0,-2,1,0,-1,9.09
1819,-1,-1,-2,-2,-3,0,-1,-1,9.095
1820,0,-1,2,1,2,-1,-1,-1,9.1
1821,0,0,-5,-4,-1,-2,0,1,9.105
1822,-1,-2,-16,-1,1,-1,0,0,9.11
1823,-2,4,23,1,0,0,-1,-2,9.115
1824,-1,-5,-8,0,-1,-1,0,-1,9.120000000000001
1825,0,3,6,-1,-2,-1,-1,1,9.125
1826,-1,0,-7,-1,0,-1,-1,-1,9.13
1827,-2,-4,-7,-2,-1,-1,0,-1,9.135
1828,-1,0,13,0,-1,-2,1,-3,9.14
1829,-1,1,3,2,-1,1,0,-1,9.145
1830,-1,3,7,0,2,0,-1,0,9.15
1831,-1,-4,-14,-4,-4,-1,0,-1,9.155
1832,0,-3,12,0,0,0,0,-1,9.16
1833,0,-2,-7,-2,0,-3,0,-1,9.165000000000001
1834,0,2,5,2,-1,0,-2,0,9.17
1835,0,-1,-2,-2,-1,-2,-1,-1,9.175
1836,0,-3,-5,-3,-2,1,-1,0,9.18
1837,-1,0,-3,-2,0,1,0,-1,9.185
1838,0,1,4,-2,-2,-2,-1,-1,9.19
1839,0,0,-1,-1,-3,-2,-3,-2,9.195
1840,-2,-5,-1,0,-1,0,-1,0,9.200000000000001
1841,1,-1,-15,1,1,-2,-2,0,9.205
1842,-1,2,-11,0,2,-1,0,0,9.21
1843,-3,1,16,0,-1,-1,-2,0,9.215
1844,-2,-6,-4,2,0,1,-1,0,9.22
1845,-1,1,-3,-1,0,0,-1,-1,9.225
1846,-2,1,-3,1,0,0,-1,-2,9.23
1847,0,0,-8,-1,0,-1,0,1,9.235
1848,-2,-3,-5,-5,-7,-2,-1,-2,9.24
1849,0,-3,0,2,7,2,1,-1,9.245000000000001
1850,0,3,5,2,0,0,-1,-1,9.25
1851,-2,-3,-3,1,-2,0,0,-3,9.255
1852,-1,-2,0,-2,-5,-5,-1,-2,9.26
1853,-2,-1,-1,-2,-4,0,1,-1,9.265
1854,-1,0,5,-3,-3,0,0,-2,9.27
1855,0,-1,-6,-3,-2,-1,0,-2,9.275
1856,0,-4,-5,0,2,0,0,-1,9.28
1857,-1,0,2,-2,-2,-2,-2,-2,9.285
1858,0,3,2,-2,1,1,-3,0,9.290000000000001
1859,-2,-1,-9,-2,-4,-2,0,0,9.295
1860,-1,-5,0,1,0,0,0,-1,9.3
1861,0,4,5,-1,-1,-2,1,0,9.305
1862,-2,-7,-20,-1,-1,-2,1,0,9.31
1863,1,2,22,2,-1,-1,-2,-1,9.315
1864,-1,1,-4,-2,2,2,-1,0,9.32
1865,0,-2,5,0,-1,0,0,-1,9.325000000000001
1866,0,3,-5,-2,-1,-1,-1,-2,9.33
1867,1,-3,-10,-2,0,-1,-1,-2,9.335
1868,-1,-4,-3,-1,-1,0,-1,0,9.34
1869,-1,-3,-3,-1,0,-1,0,-3,9.345
1870,0,5,7,-1,2,-1,-1,0,9.35
1871,-2,-3,-5,0,-2,-1,0,-2,9.355
1872,0,-2,3,-1,-1,0,-3,-1,9.36
1873,-2,0,-7,-2,-1,-1,-2,1,9.365
1874,-1,3,16,0,0,-1,0,0,9.370000000000001
1875,-1,-1,-4,-1,2,1,-2,0,9.375
1876,0,-4,-10,-3,0,-2,0,-3,9.38
1877,-1,1,16,0,-2,-1,-1,-1,9.385
1878,-1,3,0,0,1,1,0,-1,9.39
1879,0,-3,-8,-1,0,0,-1,-1,9.395
1880,-2,-1,-1,-2,-1,0,-2,-2,9.4
1881,0,-1,-10,0,-1,-1,-1,0,9.405
1882,-2,2,7,-1,-3,-3,-1,-2,9.41
1883,0,-3,-4,-1,-1,0,0,0,9.415000000000001
1884,0,-2,-2,0,-1,-1,-2,2,9.42
1885,0,0,6,-3,-3,-2,-2,1,9.425
1886,-1,0,-11,-2,-1,1,-2,-2,9.43
1887,-1,-3,-2,-2,0,-1,1,-2,9.435
1888,1,-4,1,-2,-1,-2,0,-2,9.44
1889,-1,6,6,8,0,0,-2,-1,9.445
1890,-1,-2,-4,-9,-1,-2,0,0,9.450000000000001
1891,-2,-4,-4,-2,-3,-1,0,0,9.455
1892,-2,-2,2,-2,-5,-2,0,-1,9.46
1893,0,-1,-3,0,3,1,-1,1,9.465
1894,0,6,4,5,-1,0,-2,-2,9.47
1895,-1,-5,-5,1,0,1,0,-2,9.475
1896,0,2,7,-2,-1,-1,0,-1,9.48
1897,0,0,5,1,-1,0,-2,-2,9.485
1898,-1,1,0,0,-2,-2,-1,-1,9.49
1899,0,-3,-9,-1,-1,-1,-1,-1,9.495000000000001
1900,-2,-2,-1,0,0,-1,2,1,9.5
1901,-1,0,-6,-4,-1,0,0,-1,9.505
1902,0,0,3,1,1,-1,0,-1,9.51
1903,-2,1,1,-1,-1,-3,-2,-1,9.515
1904,-1,-6,-12,0,3,-2,-1,0,9.52
1905,0,-1,15,-2,-1,-1,0,-1,9.525
1906,-2,0,-5,-3,-3,0,0,0,9.53
1907,-2,-2,0,0,0,-2,0,-1,9.535
1908,-1,-3,-1,-1,0,-1,-2,-2,9.540000000000001
1909,1,0,-14,-2,-2,-1,1,-2,9.545
1910,0,2,-3,3,-1,-1,-2,0,9.55
1911,-1,-3,2,-1,-1,0,0,-1,9.555
1912,-2,-4,-3,-1,1,0,-1,0,9.56
1913,1,1,4,0,0,0,0,0,9.565
1914,0,2,-1,-1,-2,-2,-2,-2,9.57
1915,-2,2,8,0,-1,-1,-1,-1,9.575000000000001
1916,-1,-6,-5,0,-1,-1,0,-1,9.58
1917,-1,-2,-13,-2,-4,-2,-2,-1,9.585
1918,-2,2,2,-2,-3,-2,-1,-1,9.59
1919,-1,-1,0,1,4,3,-1,-1,9.595
1920,-2,-2,7,0,1,-1,-2,-1,9.6
1921,-1,-1,-6,-3,-1,-1,-1,-2,9.605
1922,0,0,-2,-3,0,-1,-1,-2,9.61
1923,-1,1,18,0,-6,-1,-1,-2,9.615
1924,0,-3,-2,1,0,-2,0,0,9.620000000000001
1925,-1,1,0,-1,-4,-2,1,-1,9.625
1926,0,2,-6,-2,1,0,-1,0,9.63
1927,-1,-7,-15,0,0,-1,-2,-1,9.635
1928,0,0,10,2,-1,-1,-1,-1,9.64
1929,0,2,-8,-2,0,1,0,0,9.645
1930,0,-1,-8,-2,-1,0,1,-1,9.65
1931,2,0,10,-1,-1,0,0,0,9.655
1932,-1,1,12,3,-3,1,-3,-1,9.66
1933,-1,-5,-7,-1,-2,0,-2,0,9.665000000000001
1934,-1,5,4,2,1,1,-1,-2,9.67
1935,-1,2,-6,-1,-2,-3,-1,-2,9.675
1936,-1,-5,-8,-3,0,-1,-2,-2,9.68
1937,0,0,-4,0,2,0,-1,0,9.685
1938,0,-1,3,0,-2,-1,-1,-1,9.69
1939,-2,-3,-4,-1,-2,-1,-1,-1,9.695
1940,-1,-1,1,-1,0,0,0,-2,9.700000000000001
1941,-1,1,1,-1,-2,1,0,-3,9.705
1942,1,0,4,-1,-1,-1,-1,0,9.71
1943,-1,-4,-1,-4,-1,-3,-3,-1,9.715
1944,0,-1,-7,1,0,0,0,-1,9.72
1945,-1,-1,-9,-1,-1,-1,0,0,9.725
1946,0,1,15,1,-1,0,0,-2,9.73
1947,-1,-3,-6,-2,-1,0,0,-1,9.735
1948,-1,-2,-5,-2,-2,-1,-1,-1,9.74
1949,-1,-1,4,0,0,-2,-1,-1,9.745000000000001
1950,1,1,-19,1,0,-1,0,1,9.75
1951,-2,-4,-20,1,1,0,-1,0,9.755
1952,-1,-3,10,-2,-1,-1,1,2,9.76
1953,-2,4,8,-2,0,0,-1,-1,9.765
1954,-1,0,3,-1,-1,0,-1,1,9.77
1955,0,-1,-5,-2,-1,-1,0,-1,9.775
1956,-2,-4,-18,-4,-2,0,1,-1,9.78
1957,0,2,14,1,-1,-3,1,-2,9.785
1958,-1,-1,-5,-3,-5,-3,-2,-2,9.790000000000001
1959,-3,-1,7,2,6,2,0,0,9.795
1960,-1,-2,-10,-1,0,-2,0,-1,9.8
1961,0,3,11,1,0,1,-1,0,9.805
1962,-1,0,0,-1,-3,-2,-1,-2,9.81
1963,0,-2,5,-1,-3,-3,-3,-2,9.815
1964,-1,-3,-5,-2,0,-3,0,0,9.82
1965,-1,-1,-8,-3,-1,-1,-3,-2,9.825000000000001
1966,-2,0,-11,-1,0,0,0,-1,9.83
1967,-1,-3,8,-2,0,-1,-1,-1,9.835
1968,0,1,9,2,2,-1,-2,-1,9.84
1969,2,0,-3,-3,-2,-3,-2,0,9.845
1970,0,1,3,2,2,-2,0,-1,9.85
1971,-2,-5,-4,1,-2,0,0,-1,9.855
1972,0,-3,0,-3,-3,-1,0,0,9.86
1973,-1,-2,-8,-1,1,-1,0,1,9.865
1974,0,2,-19,-2,0,-1,-2,-1,9.870000000000001
1975,-2,0,11,0,0,0,0,-1,9.875
1976,-3,-4,0,0,0,0,-2,0,9.88
1977,1,0,-4,-2,-1,1,0,0,9.885
1978,-1,-4,-15,0,-1,-1,0,-1,9.89
1979,0,2,0,-2,-1,-2,-1,0,9.895
1980,0,-4,0,-1,-3,-1,-1,-1,9.9
1981,-2,1,9,0,-1,-2,-2,-2,9.905
1982,-1,1,0,-3,-2,0,-2,-1,9.91
1983,0,-5,-5,-2,-4,-2,-2,-1,9.915000000000001
1984,0,0,1,2,2,1,2,0,9.92
1985,0,1,-1,0,0,-1,-1,-2,9.925
1986,-1,2,13,-1,0,-1,-1,-1,9.93
1987,-2,-3,-21,-2,-4,0,-2,-1,9.935
1988,-1,1,21,-1,-2,-1,-2,-1,9.94
1989,-1,2,-5,-1,-1,0,0,-1,9.945
1990,-1,-2,2,0,1,0,0,-1,9.950000000000001
1991,-1,0,-1,-1,0,-2,0,1,9.955
1992,2,-3,-16,-2,-2,-1,-2,0,9.96
1993,-5,1,-33,-4,-5,-6,-2,1,9.965
1994,-2,-4,39,0,-2,-1,-1,-2,9.97
1995,0,-3,-3,0,-2,-1,-1,0,9.975
1996,-1,-2,-6,-2,-1,-1,0,-2,9.98
1997,-2,0,4,-1,-3,-1,-2,-1,9.985
1998,-1,3,-13,-3,-5,-2,0,1,9.99
1999,-3,-6,-10,2,8,1,-2,0,9.995000000000001
2000,-2,-4,1,-3,0,0,-2,-2,10.0
2001,0,2,4,-2,2,-1,0,1,10.005
2002,-2,1,3,0,1,0,-1,0,10.01
2003,0,-2,12,-4,-2,-2,0,-2,10.015
2004,-2,-2,-6,-1,0,-3,-1,0,10.02
2005,-1,0,3,0,-1,0,0,-1,10.025
2006,-2,2,-7,-3,-2,0,-1,-2,10.03
2007,-2,-4,13,-2,-4,-2,-2,-1,10.035
2008,0,-3,-8,3,5,-1,0,-1,10.040000000000001
2009,0,0,-4,0,-1,1,-1,-2,10.045
2010,0,1,6,1,0,1,0,-1,10.05
2011,-1,-3,-8,0,-3,-1,0,-1,10.055
2012,-1,-3,-3,-2,-1,-1,-2,0,10.06
2013,1,0,7,-1,1,0,-2,-2,10.065
2014,0,4,-4,1,1,-3,-2,-1,10.07
2015,-4,-8,-11,0,-1,-1,-3,-2,10.075000000000001
2016,2,4,19,-1,-4,-2,-1,0,10.08
2017,1,0,-8,-2,1,-1,0,1,10.085
2018,1,-2,-5,0,0,1,-2,-2,10.09
2019,2,-1,-4,-2,-1,-1,-1,-1,10.095
2020,-1,1,6,0,-2,0,-1,-1,10.1
2021,-1,1,2,1,2,-3,-1,0,10.105
2022,-1,0,2,0,-1,-1,-1,1,10.11
2023,-2,-3,2,-1,1,1,1,1,10.115
2024,-3,-3,-9,-1,-2,0,-3,-1,10.120000000000001
2025,-1,-1,3,-1,-1,-1,-1,-2,10.125
2026,0,2,7,0,-1,0,-1,-1,10.13
2027,-1,-5,-7,-3,-5,-5,-2,-1,10.135
2028,-1,-3,4,2,6,0,0,-2,10.14
2029,-1,3,4,-1,-1,0,1,0,10.145
2030,-1,-4,-24,-2,-1,-1,0,-1,10.15
2031,-2,0,20,-4,-5,0,-2,-1,10.155
2032,-1,1,7,-3,-3,-2,0,-1,10.16
2033,0,-3,0,2,1,0,-1,-1,10.165000000000001
2034,-1,0,-6,-3,-2,-2,-2,0,10.17
2035,1,-3,-1,1,0,1,0,0,10.175
2036,-3,-4,-4,-2,-2,-2,0,1,10.18
2037,-2,3,0,-1,0,0,1,-1,10.185
2038,-1,-1,-1,0,-2,-2,-2,-1,10.19
2039,2,-5,-6,0,1,-1,0,-1,10.195
2040,-1,-1,-6,-2,-3,0,-2,-1,10.200000000000001
2041,0,2,0,-3,-2,-2,-2,0,10.205
2042,-1,-1,-2,0,0,1,-1,-2,10.21
2043,-3,1,0,1,2,-1,1,-1,10.215
2044,1,0,-3,-1,-2,0,0,0,10.22
2045,0,0,-3,0,3,1,1,0,10.225
2046,-1,2,9,1,0,-1,-2,1,10.23
2047,0,-5,-1,-1,1,0,-2,-1,10.235
2048,0,-4,-3,-1,-1,-2,-2,-1,10.24
2049,-1,0,-11,-2,-4,-2,-1,-1,10.245000000000001
2050,-1,4,10,-1,1,-1,-1,-2,10.25
2051,1,-3,-2,1,-2,-1,-1,-3,10.255
2052,-3,-5,-15,-2,-1,-4,-1,-1,10.26
2053,0,3,-4,1,0,-1,-1,-1,10.265
2054,-1,0,4,2,0,-1,0,-1,10.27
2055,-1,-3,-21,-2,-1,1,-2,-1,10.275
2056,1,2,20,-1,0,0,1,-1,10.28
2057,-2,1,-3,0,-1,-1,-1,-2,10.285
2058,-2,2,2,-2,-4,-2,-1,-2,10.290000000000001
2059,0,-3,-5,0,1,-2,0,1,10.295
2060,-1,-3,-8,0,-1,0,-2,-3,10.3
2061,-1,4,4,-1,-5,0,-1,0,10.305
2062,0,-4,-5,-2,-1,0,-1,-1,10.31
2063,-1,-4,2,-2,-1,-1,-2,-3,10.315
2064,0,-3,-2,-5,-6,0,0,-1,10.32
2065,0,4,10,5,12,2,1,1,10.325000000000001
2066,-2,-1,-6,-1,-2,-1,0,-1,10.33
2067,-2,-2,2,0,-1,-1,-1,-1,10.335
2068,-1,-2,-7,0,-4,0,-2,1,10.34
2069,0,3,11,-2,-6,-3,-2,-2,10.345
2070,-1,-1,-5,3,2,1,-1,1,10.35
2071,-2,-6,-12,-1,1,0,0,1,10.355
2072,0,0,13,2,1,-2,1,-1,10.36
2073,0,-1,-16,-3,-5,-1,0,1,10.365
2074,1,-3,16,2,-1,0,1,-1,10.370000000000001
2075,-2,-3,5,-2,-2,0,0,-2,10.375
2076,-1,-3,-29,-1,0,-1,-2,-2,10.38
2077,1,3,12,0,-1,-1,1,0,10.385
2078,1,1,-3,-2,-2,-1,-3,-1,10.39
2079,-2,-3,-1,-3,-1,-2,0,-1,10.395
2080,-1,0,-5,1,-1,0,-1,-3,10.4
2081,-1,0,0,0,-2,-1,0,-2,10.405
2082,-1,-1,-5,-3,-1,-1,-1,0,10.41
2083,0,-2,4,0,-2,2,-1,-1,10.415000000000001
2084,0,0,5,-2,0,-1,-1,2,10.42
2085,-2,0,0,-2,-2,0,0,-2,10.425
2086,-1,-3,-1,-2,-2,-1,-1,0,10.43
2087,0,-1,-2,0,1,-1,-2,-2,10.435
2088,-1,-2,-2,-1,0,0,1,-1,10.44
2089,-2,5,7,0,-2,1,-2,-1,10.445
2090,-2,-2,-7,-2,-2,-1,0,0,10.450000000000001
2091,-1,-3,1,1,0,-1,1,0,10.455
2092,-1,3,-2,-2,-2,0,-3,-1,10.46
2093,0,-7,-12,-2,-1,-1,-3,-1,10.465
2094,0,1,-2,-1,-1,0,0,-1,10.47
2095,0,-2,2,-1,-3,0,-1,-2,10.475
2096,0,-1,-8,-2,0,-2,0,1,10.48
2097,0,4,3,-2,1,-1,0,0,10.485
2098,-1,0,4,-1,-5,0,-1,0,10.49
2099,1,-4,-4,2,5,1,1,0,10.495000000000001
2100,-1,-1,6,-1,-1,-1,0,1,10.5
2101,-2,2,-11,-1,-2,-1,0,-1,10.505
2102,2,1,-2,-2,-2,0,-1,-2,10.51
2103,-2,-2,5,-1,-4,-1,0,-1,10.515
2104,0,-1,-2,0,0,0,-2,-1,10.52
2105,1,1,2,-1,0,-1,-3,-1,10.525
2106,0,-2,-7,0,0,-2,-1,-1,10.53
2107,-1,1,7,-1,-4,-2,-1,-1,10.535
2108,-1,-2,5,0,0,0,1,-1,10.540000000000001
2109,0,2,-2,-2,-2,-1,1,0,10.545
2110,-1,-2,1,0,1,0,-2,-1,10.55
2111,-2,-3,-2,-1,0,-2,-3,-1,10.555
2112,-1,-1,-7,-2,-2,-2,-1,0,10.56
2113,0,3,22,2,-2,-1,0,-1,10.565
2114,-1,0,-5,1,1,-1,0,-1,10.57
2115,-2,-2,0,-2,-2,-1,-2,-1,10.575000000000001
2116,-2,-1,1,-1,0,-1,-1,0,10.58
2117,0,-2,-22,0,0,-2,0,-1,10.585
2118,-2,8,28,-1,-1,-2,-1,0,10.59
2119,-1,-8,-1,-2,-2,0,0,-2,10.595
2120,-1,-3,-20,-1,0,-1,0,-2,10.6
2121,-1,3,28,-1,-1,1,0,1,10.605
2122,0,0,-3,-1,-1,-1,-2,-1,10.61
2123,0,-3,-6,-2,1,-1,-2,-1,10.615
2124,-2,0,8,-1,-3,-2,-2,-2,10.620000000000001
2125,0,3,-10,-1,-2,0,-2,-2,10.625
2126,-1,-3,-8,-1,-1,0,0,-2,10.63
2127,0,1,7,0,0,-1,0,-1,10.635
2128,-1,-3,-1,0,-1,-2,-2,-1,10.64
2129,-1,1,-5,-2,0,-1,-1,-1,10.645
2130,-1,-2,-1,-2,-2,0,0,-1,10.65
2131,-2,-3,-5,-1,0,-1,0,-1,10.655
2132,-1,1,6,2,1,0,1,-2,10.66
2133,-1,1,-12,-1,-1,-2,0,-1,10.665000000000001
2134,-1,1,19,3,0,0,-1,-1,10.67
2135,-1,-4,-6,-2,-1,-1,1,0,10.675
2136,1,-1,3,-2,-1,-1,1,-1,10.68
2137,-1,2,-1,1,0,-1,-1,0,10.685
2138,-2,0,-11,-1,2,-1,0,-1,10.69
2139,1,-7,-21,-4,-2,-1,-1,0,10.695
2140,-3,3,16,1,-2,-3,-1,-2,10.700000000000001
2141,0,1,6,-1,0,0,1,-1,10.705
2142,-1,-2,-7,-2,-2,-1,-2,-1,10.71
2143,-2,-4,6,2,-2,0,-3,-1,10.715
2144,-1,-2,-17,-4,-1,0,-1,1,10.72
2145,-2,-1,-4,0,2,0,-2,-1,10.725
2146,1,0,-2,-1,0,-1,1,-1,10.73
2147,-2,-2,-1,-1,-1,1,0,0,10.735
2148,-1,0,4,0,-1,0,0,-1,10.74
2149,-1,2,-3,-1,-3,-1,0,1,10.745000000000001
2150,-1,0,-5,0,0,-1,-2,1,10.75
2151,-1,-3,0,-1,1,-1,-1,0,10.755
2152,1,-1,8,-1,-2,0,0,-2,10.76
2153,-2,1,0,-2,0,-2,0,0,10.765
2154,-1,-2,-11,-1,-2,0,-1,-2,10.77
2155,-2,-3,2,-2,-3,-2,0,0,10.775
2156,1,1,10,-1,-1,-1,-1,1,10.78
2157,0,-2,-29,0,-2,-1,-1,-2,10.785
2158,-1,1,26,0,0,-1,0,-1,10.790000000000001
2159,0,-4,-2,-1,-1,0,0,-2,10.795
2160,1,3,-4,-1,0,-3,0,0,10.8
2161,-1,3,8,0,0,0,-2,0,10.805
2162,-2,-3,-10,-3,-2,-2,-1,0,10.81
2163,-1,1,6,-1,-3,-1,-2,-2,10.815
2164,-2,-4,-14,-4,-1,-3,-1,-1,10.82
2165,0,6,17,1,-1,-2,0,0,10.825000000000001
2166,-1,-1,-6,0,-2,-2,0,0,10.83
2167,-1,0,9,0,0,-1,-2,-1,10.835
2168,1,-1,-5,-1,2,1,-1,-2,10.84
2169,0,3,6,0,-1,0,0,0,10.845
2170,0,0,-2,-1,-1,0,-1,-1,10.85
2171,0,-5,-5,-1,1,-3,-2,0,10.855
2172,-2,-1,3,0,0,0,-1,0,10.86
2173,1,1,1,0,0,-1,0,-1,10.865
2174,0,-6,-16,-3,-1,-3,-3,0,10.870000000000001
2175,-1,0,4,-2,-2,-1,0,-1,10.875
2176,0,0,13,3,-1,0,2,0,10.88
2177,-1,2,-4,0,-1,-1,0,-1,10.885
2178,-2,0,-6,-2,-3,-1,0,-2,10.89
2179,1,-5,-2,-2,-1,0,-2,-3,10.895
2180,0,-5,-9,-3,-2,-2,-2,-1,10.9
2181,0,4,10,3,1,0,0,0,10.905
2182,0,0,2,4,-2,0,1,-1,10.91
2183,-2,-2,4,0,-3,-2,0,-2,10.915000000000001
2184,-2,-3,-21,-7,-2,-1,-2,0,10.92
2185,0,-1,3,-2,-1,0,0,0,10.925
2186,-1,0,-3,-3,-1,-1,-2,0,10.93
2187,-2,-3,0,5,-1,0,0,1,10.935
2188,0,1,4,3,-2,0,0,0,10.94
2189,-1,-1,-8,-3,-1,-1,-2,-1,10.945
2190,-1,0,2,0,0,0,-1,0,10.950000000000001
2191,-2,-3,-3,-1,-3,-2,1,0,10.955
2192,0,1,5,-1,0,-1,-2,-1,10.96
2193,-1,1,0,-1,-1,0,0,-1,10.965
2194,-1,-2,-7,-1,-2,-1,1,-2,10.97
2195,1,-5,-10,-2,-1,0,-2,0,10.975
2196,-1,4,13,1,1,0,1,0,10.98
2197,-1,1,3,-1,-2,1,-2,-1,10.985
2198,-1,-1,1,-1,0,0,-2,0,10.99
2199,-2,-2,1,-1,-1,0,-2,-1,10.995000000000001
2200,0,-1,-7,1,-1,0,0,0,11.0
2201,0,-4,-38,-4,0,0,0,-1,11.005
2202,-1,0,20,3,0,0,-2,1,11.01
2203,-2,-4,3,0,1,-2,-3,-1,11.015
2204,-3,4,6,-1,-3,0,-1,-2,11.02
2205,-1,0,-5,0,0,-2,0,0,11.025
2206,0,-1,-14,-3,1,-2,0,0,11.03
2207,-1,-4,-1,1,1,0,0,0,11.035
2208,0,-2,-3,0,-1,-2,-1,0,11.040000000000001
2209,0,1,5,-1,-2,0,0,-1,11.045
2210,0,-2,-6,0,-2,0,-2,-2,11.05
2211,-1,-3,10,-1,-2,0,-1,-2,11.055
2212,-2,0,0,0,0,-1,-2,0,11.06
2213,-1,0,-1,-2,-1,-1,-1,-1,11.065
2214,-2,1,8,0,-1,-1,1,0,11.07
2215,1,2,-6,-1,-1,-1,-1,-2,11.075000000000001
2216,1,-3,-4,-1,0,-1,0,-1,11.08
2217,-1,1,4,0,-1,0,-1,0,11.085
2218,-2,-3,-8,-4,-1,0,-2,-3,11.09
2219,0,2,3,-2,0,1,0,0,11.095
2220,0,-3,-20,-1,-1,-1,1,1,11.1
2221,-2,3,30,0,-1,-1,-1,0,11.105
2222,-1,-4,-1,0,0,0,1,-1,11.11
2223,-2,-2,12,0,-2,-1,-2,0,11.115
2224,-1,0,-5,-2,-1,1,0,0,11.120000000000001
2225,-2,-2,-10,-6,-7,-2,-1,-1,11.125
2226,-2,0,1,13,10,0,-2,-3,11.13
2227,-1,-4,-14,-13,-1,-2,-1,0,11.135
2228,-1,-2,3,0,-1,0,-1,0,11.14
2229,-1,2,-7,-2,-2,-1,-1,-1,11.145
2230,-2,0,8,-4,-4,-1,-1,-1,11.15
2231,-1,-7,-5,3,0,-1,-1,-2,11.155
2232,-1,2,2,-2,-2,0,-1,-1,11.16
2233,1,5,3,1,3,-2,-1,-2,11.165000000000001
2234,-1,-3,-7,-3,-1,0,-1,-2,11.17
2235,-1,-3,-4,1,0,0,0,1,11.175
2236,-1,-1,3,-3,-2,-1,0,-3,11.18
2237,-1,1,0,2,2,-1,0,1,11.185
2238,0,-3,-5,-3,0,-1,0,-2,11.19
2239,-4,-8,-4,-2,-5,-2,-1,-1,11.195
2240,-3,0,5,1,1,-2,0,-1,11.200000000000001
2241,-1,1,-5,-1,-2,-1,-1,-1,11.205
2242,-1,0,-12,-3,-3,-2,-2,-3,11.21
2243,2,-3,6,1,-2,0,-1,-1,11.215
2244,1,1,9,1,2,2,0,-1,11.22
2245,0,0,-29,-1,1,-1,0,0,11.225
2246,-1,0,28,-3,-3,-2,-2,1,11.23
2247,-1,-3,-6,1,0,-1,0,-1,11.235
2248,-1,-1,-2,0,-1,0,1,-2,11.24
2249,0,0,-2,1,0,-1,-1,-2,11.245000000000001
2250,-1,-5,-13,-2,-3,-1,-1,-2,11.25
2251,-1,-1,0,0,0,0,-1,-2,11.255
2252,0,3,6,0,-1,-1,-1,0,11.26
2253,0,0,1,-1,-1,0,-2,-1,11.265
2254,-1,-4,-6,-2,-2,0,0,-1,11.27
2255,1,-2,5,0,1,1,-1,-1,11.275
2256,0,1,-6,0,0,0,0,-2,11.28
2257,-1,-2,-2,0,0,0,1,-1,11.285
2258,-1,0,0,-2,-2,-2,-2,-1,11.290000000000001
2259,-2,-1,-7,-2,-2,-2,-1,-2,11.295
2260,-1,-1,-3,-2,0,-1,-2,-1,11.3
2261,-1,3,8,1,1,1,0,2,11.305
2262,0,0,1,0,0,1,-1,0,11.31
2263,-1,-3,3,-2,-1,-2,-1,-2,11.315
2264,-1,2,-5,-1,0,-2,-2,-2,11.32
2265,-1,1,-1,-2,-2,-2,-2,-2,11.325000000000001
2266,-1,-3,6,1,-1,-2,-1,-1,11.33
2267,-1,0,-5,1,-1,0,-3,1,11.335
2268,0,-2,1,0,-2,0,-1,1,11.34
2269,0,1,10,-1,0,0,-1,0,11.345
2270,1,-1,-10,-1,-1,1,-1,0,11.35
2271,-1,-5,-6,-2,1,-3,-2,0,11.355
2272,0,-1,4,-1,-1,0,0,-1,11.36
2273,-1,0,-11,-2,-1,-1,-1,-3,11.365
2274,-2,-2,-3,-1,1,-1,-1,0,11.370000000000001
2275,0,-4,4,-2,-4,-2,-1,-1,11.375
2276,-1,1,-4,3,8,1,2,2,11.38
2277,0,-1,-3,0,-1,-2,0,-2,11.385
2278,-1,-2,0,0,-2,-1,-1,-2,11.39
2279,-1,-2,-4,-1,-3,-1,-2,0,11.395
2280,-1,-1,-3,-4,-2,-2,-1,0,11.4
2281,-1,2,0,-1,0,0,1,-1,11.405
2282,-2,-3,7,-1,0,-1,-1,1,11.41
2283,-2,-3,0,-2,-1,-1,0,-2,11.415000000000001
2284,-2,0,-1,-1,-2,-2,0,0,11.42
2285,0,1,5,0,1,1,0,0,11.425
2286,0,-2,-7,-2,-1,-1,-1,-2,11.43
2287,0,-2,-4,-2,0,-1,0,1,11.435
2288,-2,2,-6,-5,2,-2,-2,-1,11.44
2289,-3,0,3,-8,-11,-2,-1,-1,11.445
2290,-3,0,-7,44,15,1,-2,-1,11.450000000000001
2291,-1,-4,6,-23,-15,-2,0,-1,11.455
2292,1,1,-14,19,15,1,-1,0,11.46
2293,-2,3,22,0,-6,-1,-2,0,11.465
2294,-2,-4,-8,-18,6,-1,-2,-2,11.47
2295,1,-3,-1,18,1,-3,0,-1,11.475
2296,15,-13,-24,-64,-34,-7,-3,-1,11.48
2297,-8,11,4,62,31,4,4,5,11.485
2298,-58,-12,-2,-101,0,2,3,-8,11.49
2299,-16,-7,-3,-35,-31,-6,-7,-8,11.495000000000001
2300,-11,17,-3,-15,-11,-9,20,45,11.5
2301,79,-12,-15,-14,-21,-12,-11,28,11.505
2302,-13,-28,0,35,-2,4,-33,-32,11.51
2303,23,30,22,27,29,5,-10,-7,11.515
2304,2,33,17,-13,11,6,1,-16,11.52
2305,-6,-7,-16,-28,5,-1,-18,11,11.525
2306,12,-20,-47,-62,-62,-20,4,10,11.53
2307,-6,-11,18,79,41,9,1,-2,11.535
2308,-8,5,14,-41,-36,-9,2,-1,11.540000000000001
2309,-11,25,25,62,25,10,10,-11,11.545
2310,50,3,-34,-14,-6,-1,3,13,11.55
2311,-4,4,40,93,16,4,5,-4,11.555
2312,55,5,-4,34,46,6,-4,-5,11.56
2313,20,8,-14,-109,-54,-4,0,-17,11.565
2314,-87,-16,18,-22,-3,-8,-3,-2,11.57
2315,-19,-1,-54,13,-12,1,10,19,11.575000000000001
2316,-14,-8,21,10,33,9,-2,20,11.58
2317,0,0,12,80,14,1,-4,-48,11.585
2318,45,14,3,-18,-12,-2,8,20,11.59
2319,-59,-19,-33,-23,23,0,-5,-36,11.595
2320,-23,-23,5,-55,-60,-5,-5,-20,11.6
2321,-19,-24,-57,-69,-9,-4,-5,-14,11.605
2322,-39,26,46,127,40,10,6,12,11.61
2323,48,-4,27,-58,-1,0,4,10,11.615
2324,26,3,-39,34,-10,-3,-9,-18,11.620000000000001
2325,-7,1,-10,-17,-7,-7,2,-19,11.625
2326,19,9,11,53,35,12,4,20,11.63
2327,50,-11,-52,-73,-43,-8,-6,12,11.635
2328,-30,1,47,-25,-2,-4,-7,-8,11.64
2329,-40,-23,-5,-55,20,5,11,16,11.645
2330,46,-9,0,107,-24,-2,-1,-16,11.65
2331,-9,15,30,-49,22,0,-9,24,11.655
2332,-18,-5,-21,7,-19,-2,-2,-9,11.66
2333,-27,8,39,89,38,9,3,5,11.665000000000001
2334,18,-6,-14,-128,-63,-14,1,-6,11.67
2335,-25,-15,-24,26,27,1,6,2,11.675
2336,18,0,21,32,-26,0,3,60,11.68
2337,-50,0,-13,-21,-10,-11,-8,-48,11.685
2338,41,2,-16,-19,23,6,5,4,11.69
2339,18,2,14,28,4,4,-1,-13,11.695
2340,18,13,20,31,8,-1,-2,17,11.700000000000001
2341,79,18,39,86,22,4,4,2,11.705
2342,-73,-12,3,-50,-35,-8,-5,34,11.71
2343,-111,-15,-14,-15,-7,-3,-3,-92,11.715
2344,33,-9,22,4,33,8,4,-31,11.72
2345,-24,6,-54,-16,-2,4,6,29,11.725
2346,71,-12,-31,-24,-6,-13,-12,-49,11.73
2347,-40,-9,58,99,26,10,5,24,11.735
2348,16,-8,-24,46,13,4,2,5,11.74
2349,39,29,16,-55,-36,-8,-6,2,11.745000000000001
2350,-1,-10,-42,1,38,3,2,-2,11.75
2351,20,-13,28,-33,-41,-7,1,19,11.755
2352,-18,7,0,51,-3,-6,-7,-22,11.76
2353,-6,-11,-27,-80,-34,-8,-3,11,11.765
2354,-15,-1,16,79,56,18,9,-2,11.77
2355,35,6,-17,-79,3,0,-1,6,11.775
2356,-35,-4,5,59,6,9,6,12,11.78
2357,-26,-12,-14,-57,-26,-9,-5,-12,11.785
2358,-11,9,34,-5,9,3,2,-11,11.790000000000001
2359,16,-3,-23,71,2,-6,-9,20,11.795
2360,34,22,15,-43,-9,-5,-8,-17,11.8
2361,4,-2,-15,90,53,7,2,19,11.805
2362,5,3,50,-77,-74,-5,2,-3,11.81
2363,-10,-19,-70,-16,-11,-4,-4,-13,11.815
2364,-1,5,-8,-14,12,0,2,9,11.82
2365,85,8,-41,47,15,-2,-1,51,11.825000000000001
2366,-99,-3,40,79,14,4,-1,-40,11.83
2367,-14,-3,0,-25,-17,-4,-1,-4,11.835
2368,62,4,2,-5,12,0,1,13,11.84
2369,-27,1,1,73,24,2,-1,-37,11.845
2370,2,-8,-52,-72,-29,-5,0,13,11.85
2371,12,22,28,-37,-8,-3,-2,-2,11.855
2372,-41,-17,6,18,-17,-1,2,-2,11.86
2373,-12,8,41,8,9,0,0,9,11.865
2374,57,8,4,-5,16,2,-4,-3,11.870000000000001
2375,-12,-4,-14,-37,-31,-12,-4,-8,11.875
2376,-5,6,-7,71,23,-2,-3,-3,11.88
2377,-36,0,24,-53,-8,8,3,0,11.885
2378,-29,-24,-42,-14,60,1,-4,1,11.89
2379,27,1,2,-8,-69,-8,8,10,11.895
2380,3,23,-15,22,55,4,-2,-9,11.9
2381,-12,-2,22,-15,-52,-12,-16,1,11.905
2382,44,-1,12,-29,14,1,-3,14,11.91
2383,7,2,-28,25,8,4,0,6,11.915000000000001
2384,-36,-17,14,-16,-16,-1,5,16,11.92
2385,0,16,49,15,12,3,2,-16,11.925
2386,50,4,-10,1,-2,-1,0,14,11.93
2387,-21,-18,-3,11,-26,-10,-4,4,11.935
2388,-59,2,-19,-42,5,3,-1,-17,11.94
2389,-20,-15,-43,-25,7,2,2,15,11.945
2390,-11,-8,4,34,-32,-4,0,-22,11.950000000000001
2391,20,4,-2,19,43,6,0,-11,11.955
2392,6,4,4,-3,-8,-4,-6,1,11.96
2393,56,-7,-14,-8,-15,1,8,17,11.965
2394,-86,-4,-9,3,-8,-7,-4,-32,11.97
2395,53,1,-38,-41,24,6,-2,-31,11.975
2396,62,-8,14,-63,-30,-8,-8,-29,11.98
2397,-27,15,-2,23,31,4,4,-21,11.985
2398,4,-4,27,53,-33,-7,-2,29,11.99
2399,-10,-8,-25,-102,-33,-5,-2,43,11.995000000000001
2400,0,-6,-8,28,8,-2,-2,-22,12.0
2401,10,3,12,-16,-23,1,5,16,12.005
2402,-3,0,24,88,30,4,0,-3,12.01
2403,3,3,4,48,29,2,9,25,12.015
2404,-2,6,9,-68,10,2,-10,1,12.02
2405,-15,-5,-14,-18,-64,-8,-2,-1,12.025
2406,38,26,-5,-33,13,0,-6,14,12.030000000000001
2407,-28,-7,-12,-16,-2,-3,-2,-16,12.035
2408,-65,-1,-29,-5,-9,0,4,3,12.040000000000001
2409,-35,-3,22,13,33,3,0,-14,12.045
2410,61,11,-15,11,-3,-2,1,10,12.05
2411,20,-8,60,42,6,1,3,11,12.055
2412,54,-2,-77,-45,-17,-4,0,22,12.06
2413,-38,-7,-3,47,-1,-4,-7,-14,12.065
2414,9,-4,45,-22,-6,5,8,16,12.07
2415,72,11,-39,-24,24,6,1,12,12.075000000000001
2416,-17,-9,47,73,-7,-3,-2,-8,12.08
2417,6,-18,-19,-25,-14,-6,-9,-6,12.085
2418,-18,-14,16,73,15,4,7,3,12.09
2419,-32,-2,9,114,45,4,-3,-14,12.095
2420,41,10,-14,-118,-68,-8,-1,11,12.1
2421,-33,0,-38,0,17,4,3,-8,12.105
2422,-22,-13,11,-66,-53,-13,-7,-5,12.11
2423,-9,12,15,34,44,13,4,-1,12.115
2424,1,-6,-5,21,9,-1,7,5,12.120000000000001
2425,83,6,19,21,22,1,-3,-1,12.125
2426,-32,-14,-50,-77,-32,-6,-6,-1,12.13
2427,44,-11,5,-25,-19,-4,-1,1,12.135
2428,-70,-2,7,3,18,1,-2,-15,12.14
2429,6,1,38,57,-9,-5,-5,0,12.145
2430,30,2,-20,0,25,2,2,2,12.15
2431,-28,-18,-3,-68,-38,-6,-4,-5,12.155000000000001
2432,11,13,15,-21,22,6,2,5,12.16
2433,6,-1,-6,-33,13,1,-1,5,12.165000000000001
2434,-28,-21,-5,67,12,3,0,-14,12.17
2435,32,11,24,-23,-48,-8,0,13,12.175
2436,6,8,29,25,4,-2,-1,-1,12.18
2437,-22,2,-15,-21,-12,-2,-3,-9,12.185
2438,23,-8,-11,-13,15,4,8,41,12.19
2439,3,13,-45,53,21,2,3,-34,12.195
2440,-6,-5,58,32,2,6,-1,-21,12.200000000000001
2441,11,-13,1,-30,-2,6,6,3,12.205
2442,39,9,-32,85,14,-12,-16,36,12.21
2443,-72,-16,28,-26,-6,2,-6,-21,12.215
2444,-4,7,-102,-65,-16,-5,0,7,12.22
2445,-40,-5,-9,-40,-9,2,3,0,12.225
2446,-11,2,34,22,5,3,3,-16,12.23
2447,6,19,20,38,9,0,-6,20,12.235
2448,-16,-13,-25,81,4,-2,-7,-3,12.24
2449,-7,-9,-18,-30,3,-3,1,8,12.245000000000001
2450,23,17,50,61,47,14,5,-7,12.25
2451,3,-1,5,-100,-38,-12,-5,-3,12.255
2452,-17,-2,-13,37,-2,-6,-2,-5,12.26
2453,35,7,14,-2,10,7,1,10,12.265
2454,-62,-19,-36,-53,-20,-3,-1,-25,12.27
2455,48,4,41,48,24,1,-1,0,12.275
2456,-35,-13,-71,-63,-10,-8,-4,-4,12.280000000000001
2457,-13,-11,36,19,-7,-11,-10,-10,12.285
2458,46,3,8,6,19,5,1,29,12.290000000000001
2459,-16,3,15,-8,-7,3,3,-3,12.295
2460,37,21,15,-6,-7,-1,6,16,12.3
2461,3,0,-32,22,7,1,0,28,12.305
2462,20,4,24,-31,0,-8,-5,-50,12.31
2463,-20,-14,-2,-40,9,3,-2,10,12.315
2464,80,15,29,71,2,-3,-2,4,12.32
2465,-21,-15,5,-54,-37,-5,-2,25,12.325000000000001
2466,-30,22,32,-58,-25,-6,-2,-40,12.33
2467,-15,5,-11,119,44,6,8,7,12.335
2468,-43,-9,21,-67,-34,-8,-9,-5,12.34
2469,34,4,-12,-7,22,11,8,-2,12.345
2470,-24,-14,-53,-28,-39,-10,-5,-3,12.35
2471,3,3,7,-28,-14,-3,1,-8,12.355
2472,-61,-18,-5,-16,7,3,4,3,12.36
2473,16,7,12,69,36,4,3,-2,12.365
2474,-14,3,3,-9,-18,-2,-2,1,12.370000000000001
2475,-6,9,-7,3,-13,-3,-1,-3,12.375
2476,24,-1,13,34,8,-1,-5,1,12.38
2477,-5,0,-15,-36,-27,-5,-2,-19,12.385
2478,-4,-2,-17,46,26,2,-2,1,12.39
2479,-2,-20,-6,-6,-7,-6,-4,7,12.395
2480,16,3,5,-7,-3,1,3,-2,12.4
2481,-12,-11,8,-10,-14,-4,-3,-15,12.405000000000001
2482,5,1,4,-32,15,5,2,8,12.41
2483,54,5,-9,74,-9,-4,-3,-5,12.415000000000001
2484,-30,9,27,-15,4,3,1,-2,12.42
2485,6,-1,-99,-3,0,-5,-2,-4,12.425
2486,-8,1,61,20,-7,1,0,2,12.43
2487,-5,-6,-15,-51,3,1,3,11,12.435
2488,42,7,7,20,13,3,-9,0,12.44
2489,-7,13,51,44,4,-2,1,-3,12.445
2490,-22,-23,-13,-44,-10,-2,5,10,12.450000000000001
2491,2,-1,-24,4,-10,-1,-9,-32,12.455
2492,7,-8,-33,-9,7,2,5,4,12.46
2493,-40,0,-20,-19,-2,-5,-7,-8,12.465
2494,66,6,22,-9,-26,-6,1,10,12.47
2495,-22,2,79,43,15,4,4,17,12.475
2496,-12,-3,-42,-47,4,3,2,-5,12.48
2497,-3,-1,9,19,5,0,-3,-13,12.485
2498,-7,-3,-11,44,13,3,2,3,12.49
2499,-1,5,-54,-9,-7,-5,-6,-1,12.495000000000001
2500,7,5,8,-32,-14,-1,-1,-2,12.5
2501,8,4,8,-2,8,-1,-1,1,12.505
2502,-2,-8,-20,-4,11,5,-1,-3,12.51
2503,-2,3,8,-14,-13,-2,-2,4,12.515
2504,-14,1,6,13,9,0,0,-9,12.52
2505,16,4,5,-8,2,-1,0,9,12.525
2506,-11,-9,-19,17,-9,-4,-5,-8,12.530000000000001
2507,-14,-3,-5,-24,3,0,0,-2,12.535
2508,1,4,2,10,-3,-5,-1,-2,12.540000000000001
2509,11,1,9,-2,-11,3,-1,0,12.545
2510,-3,-4,-9,-8,-7,-2,-4,-5,12.55
2511,-8,-1,-5,-14,-3,-2,1,-2,12.555
2512,5,5,8,18,11,1,1,0,12.56
2513,7,3,10,5,-7,-1,-1,1,12.565
2514,-15,-7,-18,-13,-7,-4,-4,-8,12.57
2515,-1,1,-2,-13,1,2,0,4,12.575000000000001
2516,-1,-1,4,14,-6,-2,-1,-1,12.58
2517,1,-1,0,-5,-1,-1,-1,-2,12.585
2518,-5,-5,-10,-5,1,-1,0,-3,12.59
2519,-1,-3,0,-7,-6,-3,-3,-3,12.595
2520,2,5,15,11,8,4,1,-2,12.6
2521,-2,-5,-5,-6,-14,-6,-3,-5,12.605
2522,4,-1,-6,-2,8,4,1,4,12.61
2523,-1,-1,-3,-1,0,-2,0,0,12.615
2524,-3,4,3,1,0,-1,1,0,12.620000000000001
2525,0,-1,3,-1,-4,-2,-2,1,12.625
2526,-5,-5,-5,0,-1,-2,-2,-4,12.63
2527,-2,0,2,-4,1,4,1,-1,12.635
2528,-2,0,1,3,5,-1,0,1,12.64
2529,1,-4,-2,-3,-7,-3,-3,1,12.645
2530,-1,-2,-4,0,5,2,1,1,12.65
2531,-3,0,-3,-2,0,0,0,-2,12.655000000000001
2532,0,1,-4,2,0,-3,-3,-2,12.66
2533,1,2,-2,-1,-3,1,0,-1,12.665000000000001
2534,-5,-5,-5,-6,-2,-2,-3,-2,12.67
2535,0,1,-2,-2,-2,-3,-2,0,12.675
2536,-2,-1,1,3,0,0,0,-3,12.68
2537,0,-6,2,-2,1,-2,-1,-1,12.685
2538,-1,-7,-4,-2,-3,-2,0,-1,12.69
2539,0,0,3,-3,0,-1,0,0,12.695
2540,-1,-4,-2,0,2,0,-2,-3,12.700000000000001
2541,0,-5,4,0,-1,1,0,-2,12.705
2542,-1,-7,0,-2,-3,-3,-2,-1,12.71
2543,1,-3,3,-1,2,0,0,0,12.715
2544,-2,-5,-2,-1,-3,-1,0,0,12.72
2545,2,-3,15,0,-2,2,1,2,12.725
2546,0,-3,-2,-2,-2,0,0,-1,12.73
2547,-3,2,-3,0,0,-2,-1,-1,12.735
2548,0,1,-1,0,-2,-1,-1,-1,12.74
2549,-1,-2,7,-1,-1,-2,-1,-1,12.745000000000001
2550,-1,3,-2,-2,1,0,-2,-1,12.75
2551,-1,6,0,-1,-1,0,-1,1,12.755
2552,-1,6,2,-2,0,-1,-1,0,12.76
2553,1,1,-14,0,-1,-2,-2,-2,12.765
2554,-3,5,11,-2,-2,-2,0,-3,12.77
2555,0,6,-1,-2,0,-1,-2,0,12.775
2556,0,2,-5,2,-2,1,0,0,12.780000000000001
2557,-2,-6,-17,-4,-1,-1,0,-1,12.785
2558,-3,4,3,-1,-1,0,-2,-1,12.790000000000001
2559,-1,3,0,-1,-1,-1,-1,0,12.795
2560,1,3,0,-3,1,-2,2,1,12.8
2561,0,-3,-3,0,-1,1,-1,-1,12.805
2562,-1,-6,-26,-3,-2,-1,0,-1,12.81
2563,0,3,27,4,1,0,0,-2,12.815
2564,-2,-1,-4,1,-1,0,-2,0,12.82
2565,-1,-2,2,-2,0,0,2,-1,12.825000000000001
2566,0,-6,-13,-1,-1,-1,-2,0,12.83
2567,-2,2,-7,-6,-1,1,0,0,12.835
2568,0,2,12,2,0,-2,0,-1,12.84
2569,0,-2,2,1,-2,-1,0,-1,12.845
2570,2,0,0,0,-2,-2,-1,0,12.85
2571,-2,-6,-23,-4,-2,-2,1,-1,12.855
2572,-1,2,3,0,0,0,0,0,12.86
2573,-2,0,-5,0,0,2,-1,-3,12.865
2574,-1,-5,1,-2,-1,-1,0,-2,12.870000000000001
2575,0,3,0,-1,-2,-1,-1,1,12.875
2576,0,0,-4,-1,-1,-2,1,-1,12.88
2577,-1,-3,-1,-5,-6,-1,-1,-1,12.885
2578,-1,-2,5,5,4,1,-2,0,12.89
2579,1,0,-1,1,1,0,-1,1,12.895
2580,-3,2,1,-2,-2,-1,-2,0,12.9
2581,-2,-4,-15,1,-1,-2,-1,0,12.905000000000001
2582,-2,0,30,-1,-1,-2,-1,-3,12.91
2583,0,-1,8,1,-2,-1,0,0,12.915000000000001
2584,0,2,1,2,1,-1,-1,-2,12.92
2585,0,-2,1,-3,-4,-2,-3,0,12.925
2586,-1,-6,-16,0,-1,-2,0,0,12.93
2587,1,1,4,3,2,0,-1,-1,12.935
2588,-1,0,1,-3,-2,1,1,0,12.94
2589,0,-3,-8,1,0,-1,-3,-1,12.945
2590,-2,-3,7,-4,-4,0,0,1,12.950000000000001
2591,-2,1,-9,-3,3,1,-2,-2,12.955
2592,0,-2,-2,1,-1,1,-1,-1,12.96
2593,-1,-3,0,2,2,0,1,0,12.965
2594,0,-1,-3,-1,-4,-1,-2,-1,12.97
2595,-1,2,-1,-3,-5,-2,-1,0,12.975
2596,-1,-1,-4,0,-2,0,-1,-1,12.98
2597,0,3,6,-1,1,-1,0,0,12.985
2598,1,-3,-1,0,0,1,2,1,12.99
2599,-1,-2,-5,1,-2,-2,0,-1,12.995000000000001
2600,0,1,-3,-1,0,-2,0,-2,13.0
2601,-1,-1,5,-1,0,-1,-1,0,13.005
2602,-3,-2,-4,-1,-1,0,-1,0,13.01
2603,-1,1,-1,-1,-1,-2,0,-1,13.015
2604,0,1,2,-2,-2,0,0,0,13.02
2605,-2,0,3,-1,-1,-1,-1,-1,13.025
2606,0,-4,-5,-2,0,-1,-2,0,13.030000000000001
2607,0,4,0,-4,-4,-3,-2,-1,13.035
2608,0,-1,-10,3,6,1,-1,0,13.040000000000001
2609,-3,-2,-1,1,0,1,-2,-1,13.045
2610,0,-2,-6,0,-3,3,-2,-1,13.05
2611,-2,-1,-2,-1,0,0,0,-1,13.055
2612,0,-1,-3,-3,-7,-2,-1,0,13.06
2613,-3,0,-3,-5,-2,-1,-2,-2,13.065
2614,-1,-4,4,2,1,-2,-1,-2,13.07
2615,1,0,0,-2,-1,-2,-1,2,13.075000000000001
2616,-2,1,0,0,-1,-1,1,-2,13.08
2617,-1,-4,2,0,1,-1,-3,-2,13.085
2618,-2,-1,-3,-1,-3,1,5,-1,13.09
2619,2,2,1,0,-1,0,4,-1,13.095
2620,-2,-1,1,-1,-1,0,1,0,13.1
2621,1,-2,4,-3,-1,0,-1,1,13.105
2622,-2,-7,-6,-3,0,-3,-5,-2,13.11
2623,-2,-2,-3,2,0,-1,-2,-1,13.115
2624,-1,-1,1,1,0,0,-2,1,13.120000000000001
2625,-3,-5,-8,0,-1,0,-1,-1,13.125
2626,1,4,17,-1,1,-1,-1,0,13.13
2627,-1,-1,-1,0,-3,-1,1,1,13.135
2628,0,-3,-4,-5,-8,0,-3,0,13.14
2629,0,0,5,1,0,-1,-2,-2,13.145
2630,-2,-4,-8,0,-1,0,-1,-1,13.15
2631,0,2,-1,-3,0,1,0,-1,13.155000000000001
2632,-1,2,2,-6,-3,-3,-2,-1,13.16
2633,1,0,2,7,5,1,2,1,13.165000000000001
2634,-1,-1,-3,-2,-1,-1,-2,-1,13.17
2635,0,2,0,2,0,0,-1,-2,13.175
2636,-1,2,-5,-4,-5,-3,-2,-1,13.18
2637,0,-5,3,0,-2,1,1,0,13.185
2638,1,0,-2,-1,-2,-1,0,0,13.19
2639,-2,0,-2,-2,0,0,0,0,13.195
2640,1,0,-1,-1,2,0,0,-2,13.200000000000001
2641,1,1,7,2,0,-1,-1,-1,13.205
2642,0,-3,-26,0,0,0,1,-1,13.21
2643,-2,3,31,0,-3,-1,-3,-1,13.215
2644,2,-1,-5,0,4,0,-1,-1,13.22
2645,-1,-4,3,1,-4,0,0,-1,13.225
2646,-1,-2,-2,-3,-5,1,0,-1,13.23
2647,1,-1,-19,-3,-1,-1,0,-2,13.235
2648,-2,0,-10,1,3,1,-1,0,13.24
2649,0,-1,14,-3,-3,0,0,1,13.245000000000001
2650,-2,-1,-14,-2,-1,-3,-2,-1,13.25
2651,2,-2,1,-2,-1,0,0,1,13.255
2652,-2,9,45,3,-2,-2,-2,-1,13.26
2653,1,-2,-12,2,3,2,1,-1,13.265
2654,-2,-1,-1,1,0,-2,-1,-1,13.27
2655,0,2,-1,-3,-3,-2,-2,-1,13.275
2656,-2,2,-13,1,-1,-1,0,0,13.280000000000001
2657,-2,2,-8,-4,-3,-4,-3,-1,13.285
2658,0,3,14,0,-2,-3,-1,-1,13.290000000000001
2659,-1,-1,-13,-1,-1,-1,-1,-1,13.295
2660,0,-3,-1,-1,-1,-1,0,-1,13.3
2661,-1,-4,-3,-4,-3,-1,-2,0,13.305
2662,-1,-3,2,-1,0,0,-2,0,13.31
2663,0,2,0,0,-6,-3,-2,-2,13.315
2664,-1,0,-3,2,6,2,0,0,13.32
2665,0,-4,-10,0,-1,0,-1,-2,13.325000000000001
2666,0,2,19,-1,-2,0,-1,-1,13.33
2667,-3,-1,-3,1,0,-2,0,0,13.335
2668,-3,0,2,-2,-2,-1,-1,-2,13.34
2669,0,-2,-8,0,0,0,0,-1,13.345
2670,0,-1,1,-3,-3,-1,-2,-2,13.35
2671,-2,0,-1,5,6,1,0,-2,13.355
2672,0,0,-11,-2,-1,-1,-1,0,13.36
2673,-3,-2,25,-2,-1,-2,-4,-2,13.365
2674,1,0,2,-1,-1,0,-1,-1,13.370000000000001
2675,1,-1,3,1,-1,0,1,0,13.375
2676,-1,0,-2,-1,-3,-3,0,-1,13.38
2677,-1,-2,-7,2,2,-2,-2,-2,13.385
2678,-1,-4,-4,-1,1,-1,-2,-1,13.39
2679,-1,0,9,0,1,0,0,1,13.395
2680,1,-1,-6,-2,-1,-1,-1,-1,13.4
2681,-1,-2,-8,-4,-2,-3,-1,-2,13.405000000000001
2682,-1,-2,0,2,2,-1,0,-2,13.41
2683,0,-1,-9,-2,0,-2,-1,1,13.415000000000001
2684,0,0,-2,-2,-2,-1,-1,-1,13.42
2685,0,-1,0,0,-1,-2,1,2,13.425
2686,-1,-4,-8,-3,-2,1,0,2,13.43
2687,-1,-1,-4,0,0,0,-1,-1,13.435
2688,0,-1,-1,0,-1,0,-1,-1,13.44
2689,-1,-2,5,0,-4,-2,-2,-1,13.445
2690,0,-4,-3,-1,2,-1,-1,0,13.450000000000001
2691,-1,4,-2,-1,-2,-1,0,0,13.455
2692,0,-2,1,-2,-2,-1,0,-2,13.46
2693,-2,2,-3,-1,0,-2,-1,-2,13.465
2694,0,-2,-7,-2,-3,-3,-2,0,13.47
2695,-1,0,11,-1,1,-1,0,-1,13.475
2696,-1,3,-3,-5,-7,-2,-1,-1,13.48
2697,-3,-5,-5,4,7,0,-1,-2,13.485
2698,-1,0,1,0,-1,-1,-1,-2,13.49
2699,0,2,-8,-1,1,0,-3,0,13.495000000000001
2700,0,1,0,-1,0,-1,0,0,13.5
2701,-1,-5,-5,-1,-3,-1,-1,0,13.505
2702,0,0,4,-3,-1,0,-1,-3,13.51
2703,-4,-1,-5,-1,1,-1,-1,-1,13.515
2704,-1,0,1,2,0,-2,-1,-2,13.52
2705,0,-1,2,0,0,0,1,1,13.525
2706,0,-3,-3,1,0,-1,1,0,13.530000000000001
2707,-1,4,0,0,5,0,-1,-1,13.535
2708,0,0,0,-3,-2,-1,0,0,13.540000000000001
2709,-1,-4,-4,-3,-4,-1,-1,-1,13.545
2710,-2,-3,-2,0,0,-1,-1,0,13.55
2711,1,3,0,-3,-2,-1,-1,-2,13.555
2712,-3,0,2,2,2,2,-2,0,13.56
2713,-2,-6,-6,-4,-1,1,0,-2,13.565
2714,-2,-2,2,-2,-1,-1,0,-1,13.57
2715,-1,-3,0,0,-3,2,-1,-1,13.575000000000001
2716,-1,1,0,-1,0,-1,0,0,13.58
2717,0,-4,-5,1,-3,-2,-1,-1,13.585
2718,0,-3,-2,-2,-1,-1,-1,-1,13.59
2719,-2,1,0,0,0,0,-1,-1,13.595
2720,1,-1,1,-3,-2,0,0,1,13.6
2721,-3,-4,-3,-1,0,0,0,0,13.605
2722,-1,-2,0,1,-1,1,-1,0,13.61
2723,2,2,-2,0,-2,-1,1,0,13.615
2724,1,1,0,-3,-2,-1,-3,-1,13.620000000000001
2725,-1,-1,1,0,-1,-2,1,0,13.625
2726,0,-2,-2,0,-1,-1,1,0,13.63
2727,0,1,-1,1,-1,1,-1,-1,13.635
2728,-2,0,-4,-1,-2,-1,-1,-3,13.64
2729,-1,-1,0,-4,-3,0,-3,-3,13.645
2730,1,4,23,0,2,2,0,0,13.65
2731,0,1,3,1,-3,-3,1,2,13.655000000000001
2732,-2,-3,-5,-1,1,0,-1,0,13.66
2733,-1,-2,-9,-1,0,-2,-2,0,13.665000000000001
2734,-1,-4,-14,-3,-1,0,-1,0,13.67
2735,0,4,18,-3,-3,-1,0,-1,13.675
2736,0,-3,-6,4,6,1,1,0,13.68
2737,1,-1,6,-3,-1,-1,1,-1,13.685
2738,0,-1,-19,-1,-3,-2,-1,-2,13.69
2739,1,2,15,-9,-9,-3,0,-2,13.695
2740,-1,-1,2,12,10,3,-1,-1,13.700000000000001
2741,1,-1,-1,-2,0,-1,0,-1,13.705
2742,-3,1,2,-2,-2,1,-1,-2,13.71
2743,-3,-1,-12,-1,-1,0,-1,0,13.715
2744,-2,0,0,-5,-5,-2,-2,-1,13.72
2745,-1,0,7,-2,-1,0,-2,-1,13.725
2746,1,-1,-5,2,0,-1,-2,-1,13.73
2747,-2,0,0,-2,0,0,1,0,13.735
2748,-3,0,4,0,-4,-1,-1,-1,13.74
2749,0,-2,-5,-4,0,-2,-3,-1,13.745000000000001
2750,-3,-5,1,-2,-4,-2,-1,-1,13.75
2751,0,-2,-9,1,-1,-2,0,-3,13.755
2752,-1,1,-5,-2,-1,-1,0,0,13.76
2753,-2,-3,-16,-1,-2,1,-2,-3,13.765
2754,0,-1,25,-1,-1,-1,0,-1,13.77
2755,-1,4,0,1,2,0,-1,0,13.775
2756,0,-2,-6,-3,-4,-1,-1,0,13.780000000000001
2757,-3,-2,-1,4,1,-1,0,0,13.785
2758,-1,-1,-6,-2,0,-1,0,-2,13.790000000000001
2759,1,-3,-8,-1,1,-2,-1,-1,13.795
2760,-2,2,5,-5,-4,-2,1,-1,13.8
2761,-1,-7,-6,3,-2,-1,0,1,13.805
2762,0,0,-3,1,-1,-1,-1,0,13.81
2763,-1,0,-1,0,-1,-1,1,-1,13.815
2764,0,-1,-5,-1,1,-1,-1,-1,13.82
2765,0,0,1,-2,-2,0,0,0,13.825000000000001
2766,-2,-5,-1,1,2,1,-1,1,13.83
2767,-3,-2,-9,-2,1,2,-2,-1,13.835
2768,-1,0,-1,-4,-5,-2,-2,-3,13.84
2769,-1,2,19,4,3,2,-1,-1,13.845
2770,1,-2,-19,-4,-2,-2,-1,-1,13.85
2771,1,4,19,2,1,0,-1,1,13.855
2772,-1,-1,-9,-2,-3,-1,1,0,13.86
2773,0,-3,1,-5,-3,-1,-2,0,13.865
2774,-3,-3,-3,-1,-1,0,-1,-1,13.870000000000001
2775,0,-1,-10,0,0,0,1,-1,13.875
2776,1,1,2,1,2,-1,-1,0,13.88
2777,-2,-4,-1,0,-4,-2,-2,-1,13.885
2778,-1,0,-1,-3,-2,0,-1,-1,13.89
2779,0,2,-2,-3,0,-3,-3,-3,13.895
2780,-2,0,6,5,1,2,1,-1,13.9
2781,-1,-2,-1,-2,0,-2,0,-1,13.905000000000001
2782,-1,-3,0,-2,-1,-2,1,-1,13.91
2783,2,0,0,-1,-1,-1,-1,-1,13.915000000000001
2784,0,0,-3,-1,0,0,-2,0,13.92
2785,0,-2,-1,-3,-1,-2,0,-1,13.925
2786,-1,2,2,-5,-3,0,0,0,13.93
2787,-2,1,-9,1,3,0,-2,0,13.935
2788,1,1,6,2,1,-1,-1,0,13.94
2789,-1,-4,-6,-4,-6,0,1,0,13.945
2790,1,1,10,4,8,-2,-1,-1,13.950000000000001
2791,-2,-6,-17,-5,-4,-1,-1,0,13.955
2792,-1,-1,-8,-4,-3,-1,-2,-2,13.96
2793,-1,-3,7,1,0,-1,-2,0,13.965
2794,-2,0,0,0,-2,-3,-1,-3,13.97
2795,0,4,8,0,1,-2,1,1,13.975
2796,-1,-1,-2,-3,-4,-2,-1,-1,13.98
2797,-1,-2,-2,-1,1,-1,1,-1,13.985
2798,-1,-2,-7,1,-2,1,-1,0,13.99
2799,0,0,-3,1,2,1,0,-1,13.995000000000001
2800,-1,0,4,-3,-1,-1,-1,-1,14.0
2801,-2,-2,-8,-1,0,0,0,0,14.005
2802,0,-1,1,0,-1,1,-1,0,14.01
2803,-1,1,2,1,-2,-1,0,0,14.015
2804,-1,1,0,1,0,0,1,-2,14.02
2805,0,-2,-1,0,0,-1,-1,-2,14.025
2806,2,0,3,-1,-2,0,-2,0,14.030000000000001
2807,0,1,3,-1,-2,-1,-2,-2,14.035
2808,-2,0,-3,1,0,1,-1,-1,14.040000000000001
2809,-1,-6,-13,-1,-1,-1,-1,0,14.045
2810,0,-1,4,-1,1,0,1,0,14.05
2811,-1,2,11,-3,-1,0,1,-1,14.055
2812,0,3,-1,1,1,-2,0,0,14.06
2813,-1,-5,-12,-2,0,0,-1,-2,14.065
2814,-1,1,13,-3,-3,0,-1,1,14.07
2815,1,0,-4,-2,-1,-1,1,0,14.075000000000001
2816,-1,-1,3,4,2,0,-1,1,14.08
2817,0,0,-7,-1,-3,-2,-1,0,14.085
2818,0,0,4,0,0,-1,-1,-1,14.09
2819,-1,0,-1,-1,-2,-2,-1,1,14.095
2820,-2,-1,1,-3,-1,-1,0,-2,14.1
2821,0,-3,2,0,0,-1,-1,-1,14.105
2822,-1,0,-5,-2,-3,-2,0,-1,14.11
2823,-1,0,-2,0,1,-2,-1,-3,14.115
2824,0,-1,-1,0,0,-1,1,0,14.120000000000001
2825,-2,-3,-10,-1,-2,-2,-1,-2,14.125
2826,-2,0,6,2,1,-1,0,-1,14.13
2827,-1,1,-1,-1,-1,1,0,-1,14.135
2828,0,1,2,-1,1,0,-1,1,14.14
2829,-1,-4,0,-1,-1,1,-1,-1,14.145
2830,-1,-1,-5,-2,-2,-1,1,-2,14.15
2831,0,-4,-10,-1,0,-1,-2,0,14.155000000000001
2832,-2,4,10,-2,-3,-2,-1,-1,14.16
2833,-3,-6,4,-1,0,-2,-1,0,14.165000000000001
2834,0,1,-2,-3,0,-1,-2,-1,14.17
2835,-2,0,1,-1,-1,0,-2,-2,14.175
2836,0,-3,-5,1,1,1,0,0,14.18
2837,1,-2,2,-1,-2,0,-1,0,14.185
2838,-1,-2,-5,1,0,-2,1,-1,14.19
2839,-1,3,-3,-1,-1,-1,0,0,14.195
2840,-1,-4,-4,-2,0,-1,-1,-1,14.200000000000001
2841,-2,0,6,-3,-3,-2,-2,-1,14.205
2842,0,-3,-6,0,4,2,-1,0,14.21
2843,0,1,-1,-2,-1,-1,0,0,14.215
2844,-2,-2,-2,-1,-4,-1,-1,0,14.22
2845,0,0,8,2,3,2,1,-1,14.225
2846,-2,2,-3,-3,-4,-2,-2,-2,14.23
2847,-1,-1,1,1,1,0,-2,0,14.235
2848,-1,-1,-1,-4,-2,-1,-1,1,14.24
2849,-2,-3,0,-3,-1,-3,0,-1,14.245000000000001
2850,-2,-1,-6,-3,-2,0,-1,-1,14.25
2851,0,1,-1,-1,1,0,-1,-2,14.255
2852,1,5,10,1,-3,-3,1,-2,14.26
2853,-1,-1,11,-1,-1,1,-1,-1,14.265
2854,0,1,-4,0,0,-2,-3,0,14.27
2855,-1,1,0,-1,-3,0,-1,1,14.275
2856,-2,-5,-7,-1,0,0,0,-1,14.280000000000001
2857,-2,2,1,1,-1,0,-2,0,14.285
2858,-1,-2,-10,-2,-1,0,0,-2,14.290000000000001
2859,-1,-1,11,-3,-3,-1,-2,-1,14.295
2860,-1,-4,-7,4,2,-1,0,-2,14.3
2861,0,-2,-4,-2,-2,-1,0,1,14.305
2862,-2,-3,-1,-1,-1,-1,0,-1,14.31
2863,1,3,4,1,2,0,0,0,14.315
2864,1,0,-5,-3,-1,0,-1,-2,14.32
2865,-1,-3,3,-1,-1,-1,0,-1,14.325000000000001
2866,1,-1,0,-3,-2,-1,0,0,14.33
2867,-1,3,-2,1,-3,-1,0,-1,14.335
2868,-2,-1,-1,-2,1,0,-1,-1,14.34
2869,-1,-3,-1,-3,-5,-1,-2,-1,14.345
2870,0,2,2,5,2,0,0,1,14.35
2871,0,0,-6,0,0,0,-1,-1,14.355
2872,-2,-2,1,-1,-2,-2,-2,0,14.36
2873,-2,-5,-26,-2,0,-2,-1,-1,14.365
2874,-2,-3,23,-3,-1,-3,-1,-2,14.370000000000001
2875,0,7,12,1,-2,0,1,0,14.375
2876,-2,-3,-18,-3,-4,0,-1,0,14.38
2877,0,-1,17,4,1,0,1,1,14.385
2878,0,-2,-6,-1,-1,0,-1,0,14.39
2879,1,2,-6,-2,-1,0,0,1,14.395
2880,0,-5,-2,0,0,-1,-2,-1,14.4
2881,0,-6,-5,-1,-2,-1,-1,-2,14.405000000000001
2882,-1,-1,-4,0,0,0,0,1,14.41
2883,0,2,9,-1,-1,-1,-2,-1,14.415000000000001
2884,0,-1,1,-1,-1,0,-1,0,14.42
2885,-2,-5,-2,0,0,-2,-1,-1,14.425
2886,0,-1,-3,-1,-4,-1,1,-1,14.43
2887,-3,2,-7,-1,1,-1,-1,0,14.435
2888,-1,3,1,2,-2,0,-1,-1,14.44
2889,-2,-4,2,0,-2,-1,0,-2,14.445
2890,0,0,5,-2,0,-1,-1,-1,14.450000000000001
2891,0,0,-4,0,-1,0,-1,-2,14.455
2892,-1,3,0,0,0,-2,-2,0,14.46
2893,-2,-11,-12,-2,-1,-2,0,-2,14.465
2894,-1,-4,-30,-1,0,-1,-1,-1,14.47
2895,0,1,20,-3,-3,-1,0,0,14.475
2896,-1,0,8,9,9,1,0,-1,14.48
2897,1,0,-2,-1,-2,-1,-2,-1,14.485
2898,0,-1,-2,0,-1,-1,0,0,14.49
2899,0,-2,-10,-2,-2,-1,-1,0,14.495000000000001
2900,-1,-4,-6,-4,-4,-1,-1,1,14.5
2901,-1,-2,-6,0,-1,-2,-1,0,14.505
2902,0,1,6,-2,-2,-1,0,-1,14.51
2903,-2,1,-6,2,2,-1,2,-1,14.515
2904,0,-1,5,-2,-3,-1,1,-1,14.52
2905,-1,-2,-2,0,0,-1,-1,-1,14.525
2906,-1,1,3,-2,-1,-2,-1,-1,14.530000000000001
2907,0,0,-1,-1,1,0,-1,-3,14.535
2908,-2,-2,-7,-2,-2,-1,-1,-2,14.540000000000001
2909,0,0,2,0,-3,0,-1,0,14.545
2910,0,0,3,0,0,-1,-1,0,14.55
2911,-2,0,-5,0,-1,-2,0,1,14.555
2912,0,-2,0,1,0,0,1,1,14.56
2913,0,1,2,-1,-1,0,-2,-1,14.565
2914,1,4,4,-3,-2,-1,0,0,14.57
2915,-2,-3,-11,6,8,2,-1,0,14.575000000000001
2916,-1,-1,-1,-2,-3,0,-2,0,14.58
2917,-1,-4,1,-1,2,0,-1,-1,14.585
2918,-2,2,3,1,0,-1,-2,-1,14.59
2919,1,4,0,-1,-4,-2,-3,-1,14.595
2920,-2,-2,-8,-1,-4,-2,-2,-1,14.6
2921,1,-2,0,-2,1,0,1,0,14.605
2922,-2,-3,-3,-3,0,1,0,-1,14.61
2923,0,5,0,0,-1,-2,-2,0,14.615
2924,-2,-3,1,0,-1,-3,-3,-1,14.620000000000001
2925,0,0,2,-1,-1,-3,-2,-1,14.625
2926,0,-2,0,1,0,-1,1,-1,14.63
2927,-1,-1,-2,-2,-2,0,-1,-1,14.635
2928,-1,-2,1,-3,-2,0,0,-3,14.64
2929,-3,-2,-1,0,-2,-1,0,1,14.645
2930,1,1,-3,0,-3,1,-1,-2,14.65
2931,1,2,-1,1,-3,0,0,-1,14.655000000000001
2932,1,2,-1,-2,0,-2,-1,-1,14.66
2933,0,-5,-4,0,0,-2,-1,-2,14.665000000000001
2934,-1,-1,-14,0,1,1,-1,0,14.67
2935,-1,2,10,2,-2,-1,0,0,14.675
2936,0,1,0,1,-3,0,0,-2,14.68
2937,1,-5,-3,-2,-3,0,0,-1,14.685
2938,-2,3,6,-1,0,-1,0,-1,14.69
2939,0,-2,-14,-2,0,0,0,0,14.695
2940,-1,0,-7,-3,0,-1,0,-1,14.700000000000001
2941,-1,0,12,-1,0,0,-1,0,14.705
2942,-1,-1,-1,-1,0,-1,-2,-3,14.71
2943,1,3,8,1,-2,-1,-1,-2,14.715
2944,-1,-2,-1,-1,-1,1,0,-1,14.72
2945,0,0,-5,-3,0,0,-1,-2,14.725
2946,1,-1,0,0,0,-1,0,1,14.73
2947,-1,-1,0,0,-2,-2,0,-1,14.735
2948,-1,-2,-3,0,-1,-1,-2,-1,14.74
2949,1,-5,1,-1,-1,-1,-2,-2,14.745000000000001
2950,-1,-1,4,-4,-7,-2,0,0,14.75
2951,0,-3,-12,3,10,1,-1,-1,14.755
2952,-1,2,9,0,0,-2,-1,0,14.76
2953,-2,-2,-4,-1,0,-2,0,-1,14.765
2954,0,1,-2,0,1,0,-2,-1,14.77
2955,-2,0,1,-2,-3,0,-1,-1,14.775
2956,-1,-7,-23,-4,0,-1,-2,-1,14.780000000000001
2957,-2,2,32,0,-2,-1,1,-1,14.785
2958,0,1,-6,3,3,0,0,-2,14.790000000000001
2959,0,0,-7,-4,-2,-1,-1,1,14.795
2960,0,-2,8,1,1,0,-2,-1,14.8
2961,-2,-2,-10,-1,-1,-1,-2,-2,14.805
2962,0,1,0,-1,-1,-2,-1,1,14.81
2963,-2,-2,0,-3,-2,-1,-2,-1,14.815
2964,-3,-1,-2,-2,-4,-2,-1,-1,14.82
2965,0,-2,-6,0,-1,0,-1,1,14.825000000000001
2966,-1,1,1,0,1,0,-1,2,14.83
2967,-3,2,-1,-2,-2,-1,0,-2,14.835
2968,0,-2,1,-1,-3,-2,-1,-1,14.84
2969,-1,-2,-4,1,-1,0,-3,-1,14.845
2970,-2,1,0,0,1,-1,0,-1,14.85
2971,1,1,-1,-4,-3,-2,0,-1,14.855
2972,-2,-1,6,1,-1,-1,-2,-2,14.86
2973,-1,-3,-7,-2,-1,-2,-3,-1,14.865
2974,0,-1,3,-1,1,0,-2,-2,14.870000000000001
2975,1,1,-1,-1,-3,-2,-1,-1,14.875
2976,0,-2,-1,0,1,0,0,0,14.88
2977,-2,-2,-2,-3,-1,-2,-2,0,14.885
2978,0,0,0,3,0,-1,-1,-1,14.89
2979,-2,1,-17,-2,-1,-1,-2,-1,14.895
2980,0,0,18,-1,-4,0,0,0,14.9
2981,0,-2,2,1,4,0,1,-1,14.905000000000001
2982,-1,-1,4,-2,-2,-3,-1,-1,14.91
2983,-1,0,-5,2,0,0,0,-2,14.915000000000001
2984,0,-1,-8,-2,-1,0,2,-1,14.92
2985,-1,-7,1,-3,-4,-2,-1,-1,14.925
2986,0,0,-4,-2,-1,0,-2,-2,14.93
2987,-1,4,9,-1,-1,1,-1,0,14.935
2988,-3,-4,-9,-2,-1,-1,-1,2,14.94
2989,0,-6,-9,-1,-1,-2,0,2,14.945
2990,-1,6,9,-1,1,0,1,1,14.950000000000001
2991,1,2,6,0,-1,-3,-1,-1,14.955
2992,-2,-3,-2,0,0,0,-1,-2,14.96
2993,-1,-1,-8,0,0,0,0,-3,14.965
2994,-1,-3,-1,-2,-2,0,-1,-1,14.97
2995,-2,1,1,-1,-1,0,-1,-1,14.975
2996,1,-2,2,-2,-2,-3,-1,-2,14.98
2997,-2,-4,-3,0,1,-1,-1,-1,14.985
2998,1,0,-4,-1,0,-3,0,0,14.99
2999,-3,0,7,1,0,1,-2,-1,14.995000000000001
3000,-1,-4,-4,2,0,1,-1,-2,15.0
3001,-1,0,1,0,-1,-1,0,0,15.005
3002,0,0,0,-2,0,-1,0,1,15.01
3003,0,1,-3,-2,-2,-1,-1,0,15.015
3004,-2,-6,-28,-8,-6,-4,-2,-2,15.02
3005,2,3,29,7,10,2,-1,-1,15.025
3006,-2,0,1,3,0,0,0,-1,15.030000000000001
3007,0,2,2,-1,-1,-1,0,-1,15.035
3008,-1,-1,-2,0,-1,-1,-1,-2,15.040000000000001
3009,-1,-3,-11,-5,-4,-2,0,0,15.045
3010,-1,-1,-6,-1,-1,-2,0,1,15.05
3011,-2,-1,0,-1,1,0,0,0,15.055
3012,-1,-1,5,1,-2,-2,0,-2,15.06
3013,0,-2,-7,-3,-2,0,-1,-1,15.065
3014,-1,1,5,0,1,-1,-1,0,15.07
3015,0,0,-4,-1,-2,-1,-2,-1,15.075000000000001
3016,-1,0,3,0,1,-1,-2,0,15.08
3017,-2,-2,-3,0,-3,-1,-2,-1,15.085
3018,-1,1,-4,0,-2,0,-1,0,15.09
3019,-2,0,0,-3,0,-2,0,-2,15.095
3020,-2,-3,2,0,1,0,-1,1,15.1
3021,0,-2,0,-2,-4,-1,-1,-1,15.105
3022,-1,-1,-2,-1,-2,-1,-1,-1,15.11
3023,0,-1,-2,-1,-2,-1,-1,1,15.115
3024,-2,0,5,-1,0,0,-2,0,15.120000000000001
3025,-1,-5,-11,-1,-2,-1,0,-1,15.125
3026,-1,4,4,0,0,-1,0,-1,15.13
3027,-1,0,-1,-1,-1,-1,0,-2,15.135
3028,0,-4,-2,-2,-3,0,-1,-2,15.14
3029,-1,-1,-8,-2,-2,-1,-1,-1,15.145
3030,0,0,6,-1,-1,0,-1,-2,15.15
3031,0,1,5,3,1,0,-3,0,15.155000000000001
3032,-3,-4,-5,-1,1,-1,-2,-2,15.16
3033,0,0,1,0,0,-1,-2,1,15.165000000000001
3034,-1,0,-7,-3,-1,0,1,-1,15.17
3035,0,2,1,-2,-2,0,0,-2,15.175
3036,0,-6,-2,0,-2,-1,1,-1,15.18
3037,-2,-2,-6,0,-3,-2,1,-1,15.185
3038,0,1,0,2,2,1,-3,-1,15.19
3039,0,1,-2,0,-1,-3,-1,-1,15.195
3040,-2,-2,1,1,1,-1,-1,0,15.200000000000001
3041,-1,-2,1,-3,-3,-3,-1,0,15.205
3042,-1,0,-3,-1,-2,0,-1,0,15.21
3043,-2,1,-1,-2,-2,-1,-1,-1,15.215
3044,0,-3,1,0,-1,-3,-3,-2,15.22
3045,-1,-1,2,-2,0,0,0,-1,15.225
3046,-1,0,-3,-1,-1,0,0,0,15.23
3047,-2,-2,-6,-2,-1,-2,-1,-1,15.235
3048,0,-2,9,0,0,0,-2,0,15.24
3049,-1,-5,-19,-2,0,1,-1,-1,15.245000000000001
3050,-2,8,26,2,-2,-2,0,-1,15.25
3051,-1,-4,-3,0,0,0,-3,0,15.255
3052,-1,2,7,-1,0,0,0,0,15.26
3053,0,-3,0,-1,2,-1,1,0,15.265
3054,0,-4,-14,-3,-3,1,-1,-1,15.27
3055,0,0,-9,1,0,-1,-1,-2,15.275
3056,1,-3,2,2,1,0,-1,-2,15.280000000000001
3057,0,0,5,-2,-2,-1,-2,-3,15.285
3058,0,0,-4,1,0,-3,0,0,15.290000000000001
3059,-1,-1,2,-1,-1,1,-1,0,15.295
3060,-2,-3,-14,-7,-2,-2,-1,0,15.3
3061,-3,0,5,0,-1,0,1,0,15.305
3062,-1,-1,-6,-3,-2,-1,1,-2,15.31
3063,0,2,7,4,-1,-1,-2,1,15.315
3064,-1,-1,0,0,-2,-1,0,0,15.32
3065,0,0,3,-2,-1,1,-1,-1,15.325000000000001
3066,0,1,1,0,1,-3,-1,0,15.33
3067,-2,-2,-3,-4,-5,-3,0,-1,15.335
3068,-2,-1,-2,1,1,1,0,0,15.34
3069,0,1,1,1,-1,-1,-1,0,15.345
3070,0,1,-2,-1,1,0,0,-1,15.35
3071,-1,0,0,-2,-1,-2,-3,-1,15.355
3072,-1,-6,-8,-3,-3,-2,-2,0,15.36
3073,-2,0,-1,1,0,-1,-1,-1,15.365
3074,0,-1,-3,0,1,-2,-1,0,15.370000000000001
3075,-1,-1,-9,-3,-2,-1,0,0,15.375
3076,-1,3,27,-2,-1,-1,-1,-2,15.38
3077,-2,-4,-5,-1,-2,1,0,0,15.385
3078,-1,-1,-6,1,-2,-2,0,0,15.39
3079,-2,0,4,-1,0,0,0,-2,15.395
3080,-1,-4,-3,0,0,2,-1,1,15.4
3081,1,2,5,-2,-1,-1,0,-1,15.405000000000001
3082,-4,-4,-2,-3,-3,1,0,-2,15.41
3083,-1,1,-3,0,0,0,0,-1,15.415000000000001
3084,-1,-1,-10,0,-1,0,0,-2,15.42
3085,0,-2,7,-2,-1,-1,-1,-2,15.425
3086,0,2,-4,-1,-5,-1,0,-1,15.43
3087,0,1,2,-2,2,-1,-1,0,15.435
3088,0,-4,-4,-2,-2,-2,-1,-1,15.44
3089,-2,-2,-3,-2,0,-1,1,-1,15.445
3090,1,2,-4,0,1,-1,0,-1,15.450000000000001
3091,-1,1,6,2,0,-1,1,-1,15.455
3092,-1,-2,-3,0,0,-2,0,-1,15.46
3093,-1,0,-4,-5,-6,-2,-2,-2,15.465
3094,1,-1,-4,5,10,2,-1,1,15.47
3095,-1,5,12,0,-2,1,-1,-1,15.475
3096,-1,-3,-1,-1,-2,1,-1,-1,15.48
3097,-1,0,-1,0,-2,0,1,-2,15.485000000000001
3098,-1,-1,-22,-3,-3,-1,-1,-2,15.49
3099,0,2,14,0,0,-1,0,0,15.495000000000001
3100,-1,-3,-1,-1,0,-2,0,-1,15.5
3101,0,2,0,0,-1,-1,-2,0,15.505
3102,-1,-2,8,-3,-2,0,0,-1,15.51
3103,1,-1,-12,0,0,0,-1,-1,15.515
3104,-1,-4,-3,-1,-3,-2,0,-2,15.52
3105,2,0,-1,-1,2,1,0,0,15.525
3106,-2,3,5,0,-1,-2,-2,0,15.530000000000001
3107,0,-1,-4,-1,-2,-2,0,1,15.535
3108,1,-3,-2,0,-2,0,-1,-2,15.540000000000001
3109,0,-4,-4,-1,2,-1,0,0,15.545
3110,0,5,3,-3,-1,-2,-2,-2,15.55
3111,0,-1,1,-1,-1,0,1,-3,15.555
3112,0,-4,-5,1,1,0,-1,-1,15.56
3113,-1,-4,-1,1,0,-1,0,0,15.565
3114,0,2,3,-3,-4,-1,-1,-1,15.57
3115,-3,-1,-7,-2,-3,-2,-1,-1,15.575000000000001
3116,0,-4,-4,3,2,-1,-1,0,15.58
3117,-2,0,5,1,0,0,-1,0,15.585
3118,1,-1,2,-1,-3,1,-1,-1,15.59
3119,-1,0,-8,-2,-2,-2,-2,-2,15.595
3120,-1,-3,-8,-4,-3,-1,-2,-2,15.6
3121,-1,-4,2,1,0,0,-1,0,15.605
3122,0,1,-1,1,0,-1,0,-2,15.610000000000001
3123,-2,1,-2,-3,-4,-1,-2,-1,15.615
3124,-1,-7,-9,0,3,-1,-1,1,15.620000000000001
3125,0,1,-10,-1,-1,-2,-3,-2,15.625
3126,-1,2,10,-1,-1,0,-1,-1,15.63
3127,0,2,10,-2,-4,0,-1,-1,15.635
3128,-4,-7,-5,-2,-1,-2,-1,-1,15.64
3129,0,-2,-5,-1,-1,0,2,-1,15.645
3130,1,2,11,-2,-1,0,0,1,15.65
3131,-1,-1,-4,0,0,1,-1,0,15.655000000000001
3132,0,0,5,-1,-1,0,-1,-1,15.66
3133,-1,-3,5,0,1,-1,-2,-1,15.665000000000001
3134,0,0,-9,0,0,-2,-1,-1,15.67
3135,-1,-2,-3,1,1,-1,0,0,15.675
3136,0,-1,1,1,0,-2,0,-2,15.68
3137,-1,-4,0,-3,-1,-2,0,0,15.685
3138,0,6,2,0,-1,0,-1,0,15.69
3139,0,-3,-6,0,1,1,-2,-2,15.695
3140,-2,-2,3,0,-3,0,0,0,15.700000000000001
3141,-1,-3,-2,-2,-2,-2,0,-1,15.705
3142,-3,1,-4,-2,1,-3,-3,-2,15.71
3143,-1,-5,1,0,0,0,0,-1,15.715
3144,-2,-3,-11,-2,-2,-1,0,0,15.72
3145,1,2,6,3,-1,1,1,0,15.725
3146,0,1,-1,-1,-1,-1,0,-1,15.73
3147,0,1,-5,0,-1,-3,0,-1,15.735000000000001
3148,0,0,3,-2,-1,-3,0,0,15.74
3149,-1,-1,-2,-2,-1,0,0,1,15.745000000000001
3150,0,1,-6,-2,-1,1,1,-1,15.75
3151,0,0,-1,0,1,1,-1,0,15.755
3152,1,2,8,-4,-7,-1,0,-1,15.76
3153,-2,-6,-1,3,6,-2,-1,-3,15.765
3154,0,1,4,-1,-1,-1,-1,1,15.77
3155,-3,-1,-3,-2,0,0,-1,0,15.775
3156,0,-2,4,1,0,1,0,0,15.780000000000001
3157,-2,1,-5,-3,-5,-2,-2,-1,15.785
3158,-2,1,-2,-1,-2,-2,-1,0,15.790000000000001
3159,-1,-1,-3,1,-1,-3,0,-1,15.795
3160,-1,-2,1,-2,-2,-1,-3,-1,15.8
3161,0,1,-1,-3,-3,-1,-2,-2,15.805
3162,-2,0,1,1,1,-1,1,-1,15.81
3163,1,2,4,0,-1,0,-2,1,15.815
3164,-3,-4,-8,0,1,1,-3,-3,15.82
3165,1,0,4,0,-2,1,-3,-1,15.825000000000001
3166,2,2,5,3,0,1,0,1,15.83
3167,-1,-1,2,9,5,2,0,0,15.835
3168,0,2,-7,5,-4,-5,-1,-3,15.84
3169,-3,-13,-17,0,3,0,1,0,15.845
3170,-3,7,1,10,-9,-6,-4,-3,15.85
3171,4,-1,16,74,12,2,0,-3,15.855
3172,-8,3,-10,-71,-11,-5,-3,7,15.860000000000001
3173,-1,-4,-13,-70,-12,-1,-3,-2,15.865
3174,13,4,13,-1,26,7,3,2,15.870000000000001
3175,-4,6,-2,-99,-59,-14,-7,-5,15.875
3176,-83,-23,8,6,-3,3,0,-16,15.88
3177,24,0,-27,-47,-19,-8,0,40,15.885
3178,-8,10,26,88,49,12,4,-30,15.89
3179,21,5,35,46,-13,-5,3,-9,15.895
3180,26,0,-8,-70,-17,-6,14,16,15.9
3181,-15,1,1,25,9,-2,-23,-41,15.905000000000001
3182,1,2,-36,-4,-4,-12,-12,7,15.91
3183,46,9,4,58,26,14,-7,15,15.915000000000001
3184,-49,-14,0,36,12,3,0,20,15.92
3185,30,18,10,-19,-8,0,15,3,15.925
3186,4,6,1,-73,-32,-4,2,11,15.93
3187,14,5,-38,-49,18,-2,5,29,15.935
3188,-1,-16,29,41,-8,4,-5,-77,15.94
3189,-16,-2,-29,94,25,-3,-3,-7,15.945
3190,-6,1,-18,-25,7,1,-2,-6,15.950000000000001
3191,-30,-11,-8,-89,-40,-9,-3,-12,15.955
3192,25,7,-13,61,26,4,-1,18,15.96
3193,-13,-2,-26,-77,-18,1,-1,4,15.965
3194,10,-12,68,84,-25,-8,-4,-11,15.97
3195,29,-3,-22,20,25,6,2,1,15.975
3196,11,2,6,22,12,0,-1,16,15.98
3197,-14,-11,24,25,4,2,0,-10,15.985000000000001
3198,0,14,-41,-6,-2,-5,1,35,15.99
3199,45,17,30,-18,1,3,6,62,15.995000000000001
3200,-54,-16,-11,-38,-25,-6,-9,-53,16.0
3201,-7,1,8,24,10,-1,-2,-27,16.005
3202,3,8,23,-11,-9,7,2,-11,16.01
3203,27,3,-22,14,10,-10,-2,11,16.015
3204,-32,-4,3,10,14,-7,-9,-4,16.02
3205,-58,-6,16,-30,3,-1,-18,24,16.025
3206,63,9,-3,60,5,18,20,28,16.03
3207,21,-2,-11,25,0,7,19,-27,16.035
3208,11,11,11,-72,-2,4,10,39,16.04
3209,-34,-7,-6,-7,-22,-6,7,-32,16.045
3210,-78,-6,-21,22,-5,-11,-17,-1,16.05
3211,-20,-8,41,-3,10,1,-12,-51,16.055
3212,45,9,-26,10,-3,-5,-5,-2,16.06
3213,17,11,36,36,19,0,-7,10,16.065
3214,5,-11,-38,-39,7,-1,-2,-12,16.07
3215,-48,-19,-19,27,-32,-6,0,-9,16.075
3216,21,7,28,-29,-9,2,1,16,16.080000000000002
3217,10,14,-32,-48,-8,-3,3,-5,16.085
3218,-7,-14,-10,-9,-23,-3,1,-4,16.09
3219,-43,10,27,-5,38,6,2,-8,16.095
3220,35,2,31,18,-10,1,1,11,16.1
3221,18,6,-15,-8,-19,-2,7,18,16.105
3222,7,-13,-7,0,10,-1,-2,-10,16.11
3223,-95,-10,-15,-80,-41,-10,-12,-20,16.115000000000002
3224,43,7,51,65,25,10,12,33,16.12
3225,-22,-17,0,-10,-5,0,-2,-40,16.125
3226,19,8,-3,34,47,8,8,30,16.13
3227,50,-6,0,-25,-37,-6,-3,16,16.135
3228,-7,-7,-13,-94,-25,-1,1,-16,16.14
3229,-45,-10,11,95,14,2,2,6,16.145
3230,51,6,21,-20,9,1,-1,-12,16.15
3231,-13,4,12,60,12,4,1,11,16.155
3232,-49,-16,-47,32,24,-3,-2,26,16.16
3233,73,18,33,-107,-17,1,-1,-7,16.165
3234,-68,-12,-13,-56,-34,-8,-2,-5,16.17
3235,-27,-4,-3,70,-13,-5,-2,-8,16.175
3236,48,4,-3,20,20,7,-2,-18,16.18
3237,-17,-9,38,25,-9,-8,1,28,16.185
3238,4,10,-41,45,73,25,3,-7,16.19
3239,43,1,-14,-128,-34,-11,-3,21,16.195
3240,-17,2,1,120,6,-3,-1,-73,16.2
3241,31,13,-3,-77,13,0,-4,44,16.205000000000002
3242,18,-7,-4,35,-27,-13,-6,2,16.21
3243,-100,-25,-33,68,71,15,2,3,16.215
3244,70,2,-11,-91,-41,-4,9,34,16.22
3245,5,7,40,44,-9,-3,-1,42,16.225
3246,-1,3,11,55,-18,-10,-8,-13,16.23
3247,15,12,-20,-24,40,9,1,-19,16.235
3248,-71,-18,-31,-89,-54,-17,-12,32,16.240000000000002
3249,40,-8,-13,46,23,12,9,-30,16.245
3250,13,-7,13,-2,-45,-12,-8,-9,16.25
3251,7,7,17,16,-1,2,-3,-21,16.255
3252,65,-2,1,18,14,2,2,35,16.26
3253,-14,-16,-32,8,21,5,5,-1,16.265
3254,-59,17,23,-6,-12,-4,4,10,16.27
3255,70,-29,-12,-67,-36,-11,-1,-8,16.275
3256,-7,4,-10,65,31,5,-8,-11,16.28
3257,8,14,8,0,-36,-6,-1,-12,16.285
3258,-37,-18,-8,-43,1,-1,-3,-38,16.29
3259,19,6,-9,42,10,1,-1,18,16.295
3260,-68,-31,29,-20,-11,-3,-2,-5,16.3
3261,2,-7,-41,50,-23,-15,-8,-15,16.305
3262,11,-7,-75,-48,55,27,13,23,16.31
3263,-24,36,68,-4,-37,-8,-1,3,16.315
3264,58,-10,-42,61,73,11,1,-1,16.32
3265,-35,17,36,-79,-14,-6,-6,0,16.325
3266,25,11,9,-15,-50,-9,4,12,16.330000000000002
3267,-43,-7,-17,10,32,6,1,-1,16.335
3268,16,20,28,-21,-43,-8,-2,-5,16.34
3269,-76,-17,-4,17,36,5,-3,-28,16.345
3270,88,22,-13,-57,-22,-9,-4,8,16.35
3271,-45,-4,7,-50,22,5,-2,-6,16.355
3272,47,-7,-1,-30,-37,-7,12,48,16.36
3273,51,8,-2,10,7,4,-3,-55,16.365000000000002
3274,-47,-6,19,33,1,-5,-4,-36,16.37
3275,4,-9,-18,38,9,0,-2,-26,16.375
3276,9,8,-11,20,16,-2,-6,4,16.38
3277,-55,-15,6,20,2,5,8,30,16.385
3278,-30,9,36,-41,-18,-3,-3,1,16.39
3279,-8,-9,-33,-80,-35,-1,2,-2,16.395
3280,-22,-4,-3,7,30,8,1,-17,16.4
3281,21,0,-19,50,3,-3,0,16,16.405
3282,24,0,15,36,15,-5,-5,56,16.41
3283,10,-2,22,-30,-27,-3,-2,-26,16.415
3284,-82,9,13,12,-8,-5,-10,-5,16.42
3285,6,4,-25,-58,2,-2,-3,-17,16.425
3286,1,-3,-6,-15,9,1,2,-4,16.43
3287,56,24,29,101,2,-7,-4,15,16.435
3288,-68,-48,-10,-34,-3,1,2,-24,16.44
3289,75,-9,25,10,23,11,17,66,16.445
3290,-31,-2,0,49,6,-3,-7,-40,16.45
3291,28,-2,-26,-76,-21,1,2,-9,16.455000000000002
3292,23,12,2,-12,0,-2,-4,5,16.46
3293,2,18,29,120,39,8,1,-33,16.465
3294,-48,-19,1,-128,-37,-2,5,9,16.47
3295,32,4,16,74,19,0,3,2,16.475
3296,-13,0,-40,-6,8,-2,-5,-19,16.48
3297,-12,-2,-13,28,4,-2,1,17,16.485
3298,23,4,17,50,-7,-3,-4,-6,16.490000000000002
3299,-38,12,7,35,-5,-4,-3,10,16.495
3300,8,-7,0,-30,-41,-9,0,24,16.5
3301,70,10,-13,18,0,2,1,16,16.505
3302,11,-6,37,-51,2,-6,-9,-35,16.51
3303,-49,-4,-8,10,9,4,0,7,16.515
3304,34,1,-21,10,19,3,6,27,16.52
3305,-69,4,4,-26,-38,-7,-10,-57,16.525
3306,-10,9,19,43,-20,-2,4,26,16.53
3307,87,4,-2,25,18,0,-4,30,16.535
3308,15,-24,-39,-40,-6,-4,-8,-16,16.54
3309,23,15,-6,-58,-25,-10,-2,2,16.545
3310,-91,-3,-5,47,33,4,-3,-6,16.55
3311,-35,-7,16,5,-34,-4,-8,-21,16.555
3312,21,-11,12,42,0,-3,-2,6,16.56
3313,5,10,12,19,35,6,4,11,16.565
3314,10,10,17,-2,-15,-4,-3,3,16.57
3315,6,-27,-111,-86,-77,-24,-4,-5,16.575
3316,-18,11,43,27,56,26,4,-17,16.580000000000002
3317,-22,-19,0,14,-14,0,2,25,16.585
3318,16,24,7,-47,16,4,-4,-78,16.59
3319,20,-2,5,52,-1,-7,1,13,16.595
3320,-33,5,-18,-14,1,-3,-6,-33,16.6
3321,-22,-20,19,-46,-17,2,-2,-57,16.605
3322,33,22,-9,86,38,11,19,127,16.61
3323,-28,-35,9,-90,-32,-7,-7,-28,16.615000000000002
3324,-9,-15,-7,-35,-17,-2,7,18,16.62
3325,61,-2,18,74,9,-5,-4,14,16.625
3326,1,-9,-26,5,-16,-6,-9,-73,16.63
3327,-10,1,-12,-50,48,14,7,15,16.635
3328,13,20,26,62,-6,-3,-2,-16,16.64
3329,-3,-4,-5,-18,-27,-10,-4,-4,16.645
3330,-16,4,25,15,27,0,-3,13,16.65
3331,-25,-4,-2,-48,-11,5,5,-1,16.655
3332,7,-2,-72,-79,0,5,0,-14,16.66
3333,0,2,42,81,47,5,-1,20,16.665
3334,0,-10,-39,-103,-34,-5,2,32,16.67
3335,23,12,49,53,42,8,0,-67,16.675
3336,65,-2,2,-12,5,-3,0,5,16.68
3337,-105,-2,-36,-32,5,-1,-4,-10,16.685
3338,22,-8,19,1,-18,-1,3,-6,16.69
3339,-14,-9,19,53,21,3,-8,9,16.695
3340,18,16,18,8,-9,-4,4,15,16.7
3341,34,10,-29,-59,12,4,6,-2,16.705000000000002
3342,86,-13,-26,30,2,1,-5,16,16.71
3343,-66,2,-8,-67,-17,-1,0,3,16.715
3344,12,-9,28,14,16,0,2,-8,16.72
3345,-18,-4,9,79,14,2,-2,7,16.725
3346,9,8,-27,-65,-22,-6,-4,14,16.73
3347,28,4,-7,40,-15,-7,-5,9,16.735
3348,-40,-4,19,-18,-9,-4,-7,-10,16.740000000000002
3349,21,5,-25,-43,-23,-2,2,15,16.745
3350,-22,0,-3,-23,-6,-6,-5,-20,16.75
3351,-10,12,43,122,60,11,8,23,16.755
3352,-7,-22,0,-6,-40,-9,-8,-28,16.76
3353,18,-1,-20,12,14,0,1,11,16.765
3354,35,25,46,-7,-16,-3,0,-10,16.77
3355,-42,-20,-19,-14,0,-1,1,20,16.775
3356,-9,-6,13,42,1,0,-9,-11,16.78
3357,12,5,3,-40,-8,-1,2,8,16.785
3358,-17,-10,-32,-4,14,1,-3,-10,16.79
3359,81,4,11,52,1,1,9,19,16.795
3360,-85,-1,1,37,5,-2,-4,-4,16.8
3361,35,-4,-22,-32,2,6,3,-4,16.805
3362,-7,0,33,38,-31,-9,-2,-1,16.81
3363,0,-2,-25,-42,5,-2,-3,0,16.815
3364,13,5,-11,-21,-6,0,3,-1,16.82
3365,-19,7,29,47,-12,-6,-4,-4,16.825
3366,-19,2,-1,-15,12,3,3,2,16.830000000000002
3367,12,-5,-4,10,10,3,-1,-9,16.835
3368,-1,0,5,2,-4,-2,-1,4,16.84
3369,-13,-4,1,-38,-17,-6,-4,-3,16.845
3370,1,-4,-18,15,14,4,2,-7,16.85
3371,-11,-6,-5,-14,-9,-5,-6,3,16.855
3372,4,0,-5,-6,-5,-2,0,1,16.86
3373,2,3,-10,-29,-10,-2,-3,-1,16.865000000000002
3374,-6,0,-7,6,2,-1,-1,-2,16.87
3375,-9,-6,-10,3,-1,-3,-2,-3,16.875
3376,1,0,0,-12,-14,-5,-2,2,16.88
3377,8,3,-1,-1,8,1,2,-1,16.885
3378,-12,-4,-5,5,13,4,1,-1,16.89
3379,-6,-1,-4,-7,-7,-1,-1,-3,16.895
3380,9,1,-3,8,19,2,-1,-1,16.9
3381,-9,-4,-3,-18,-32,-6,-4,2,16.905
3382,-9,-1,-10,-5,-1,-1,0,-2,16.91
3383,1,1,-4,-2,4,0,-2,-3,16.915
3384,3,1,5,6,-3,0,1,2,16.92
3385,-7,-2,-3,-9,-4,-2,-3,-2,16.925
3386,-2,4,3,2,10,4,1,0,16.93
3387,0,-5,-2,-4,-7,-4,-3,-4,16.935
3388,0,-3,-1,-2,-10,-3,0,2,16.94
3389,0,2,4,-5,2,2,2,1,16.945
3390,1,-2,-2,-4,-5,-1,-4,-2,16.95
3391,-4,-3,4,-4,2,-1,-2,-2,16.955000000000002
3392,1,-1,5,-3,-12,-4,-3,-1,16.96
3393,-1,1,0,0,3,1,0,-2,16.965
3394,-2,1,2,3,9,3,1,1,16.97
3395,-2,1,2,1,1,0,1,-2,16.975
3396,0,0,1,-3,-5,0,0,1,16.98
3397,0,0,1,-3,-7,-3,-2,-2,16.985
3398,-4,-3,0,-3,-2,-2,-2,-2,16.990000000000002
3399,-2,-3,-1,1,0,1,-2,-1,16.995
3400,2,0,-1,1,0,-1,-1,-1,17.0
3401,-1,-2,0,-10,-4,-1,0,-1,17.005
3402,0,-3,-1,0,3,1,2,-1,17.01
3403,0,-3,-3,0,-1,-3,0,0,17.015
3404,2,1,1,2,0,1,-1,0,17.02
3405,-2,2,-2,-3,0,0,-2,-2,17.025
3406,-2,-2,-2,0,-1,-1,-1,-1,17.03
3407,0,-4,0,-4,-2,-2,-1,-1,17.035
3408,-1,3,1,3,3,1,0,0,17.04
3409,-1,2,-3,0,-1,0,1,-1,17.045
3410,-2,-3,-6,-11,-4,-4,-2,-1,17.05
3411,-2,-4,-3,-3,-4,-1,-2,1,17.055
3412,-1,2,-1,4,1,0,0,0,17.06
3413,-1,3,-2,-2,-2,0,-3,-2,17.065
3414,-1,-2,-2,2,-1,1,-1,-1,17.07
3415,0,-5,-4,0,0,-1,0,-2,17.075
3416,-1,2,0,1,-2,-1,-1,-2,17.080000000000002
3417,-1,1,-2,-4,-1,-3,0,-2,17.085
3418,-2,-3,-3,2,1,2,-1,-2,17.09
3419,-2,-4,-4,-1,-1,-1,-2,0,17.095
3420,-1,0,-1,-1,1,-1,-1,0,17.1
3421,-1,2,-2,-1,-2,-3,-2,-1,17.105
3422,-1,-2,-3,1,1,-2,0,-1,17.11
3423,-2,-3,-2,-2,-3,1,-1,-1,17.115000000000002
3424,0,1,-1,-1,1,-1,0,-3,17.12
3425,-1,1,-3,-5,-4,0,-1,0,17.125
3426,-2,0,0,4,4,0,-1,-1,17.13
3427,-2,-4,-2,1,1,-1,-2,-1,17.135
3428,-3,1,-1,0,0,1,0,0,17.14
3429,0,0,1,-5,-1,-3,-1,-1,17.145
3430,-1,-1,0,-2,-2,0,0,-1,17.150000000000002
3431,1,-4,-1,-2,-1,1,0,-2,17.155
3432,1,0,0,0,3,-2,-2,0,17.16
3433,-1,-1,0,-1,-1,-2,1,0,17.165
3434,-1,-2,-1,-2,-4,-1,-2,-3,17.17
3435,-1,-3,0,3,1,0,0,-1,17.175
3436,1,-1,1,-1,-1,1,-1,-1,17.18
3437,-1,0,-1,0,-1,0,0,-1,17.185
3438,-2,-1,0,-2,-3,-1,-2,0,17.19
3439,1,-2,-1,0,-2,0,-1,-2,17.195
