slno,emg1,emg2,emg3,emg4,emg5,emg6,emg7,emg8,Time
0,0,-1,1,2,0,1,-1,0,0.0
1,-3,-2,-3,-3,0,-1,-1,-2,0.005
2,-1,1,2,1,-1,0,-1,-1,0.01
3,-1,1,-2,-3,-1,-1,-1,0,0.015
4,0,-4,-5,-2,-3,-1,0,0,0.02
5,3,-3,-3,-2,-2,-1,-2,1,0.025
6,-8,-3,1,-1,1,1,0,0,0.03
7,-2,7,2,-1,0,-1,-1,-1,0.035
8,-2,-7,-3,0,0,-1,0,-2,0.04
9,1,-1,1,1,-1,-1,-1,-1,0.045
10,-2,-3,1,-2,-1,-2,1,-1,0.05
11,0,0,2,-2,-2,-1,-1,0,0.055
12,1,2,-3,-1,-3,-1,-2,-2,0.06
13,0,3,5,2,0,1,0,-1,0.065
14,1,4,-15,-5,-3,-4,-2,-1,0.07
15,0,-5,-1,-3,-2,0,0,-2,0.075
16,-1,0,-3,-3,-1,-2,-1,-2,0.08
17,-1,0,7,1,-1,0,-2,-1,0.085
18,2,5,2,0,0,1,-1,1,0.09
19,-2,-4,-2,3,0,1,-1,1,0.095
20,-1,-2,-2,-3,0,-1,0,0,0.1
21,1,-1,-3,-1,-2,-1,-1,1,0.105
22,1,8,2,0,0,-1,-3,-1,0.11
23,1,-7,-6,0,-2,-2,-2,0,0.115
24,-3,-12,5,1,0,0,0,-2,0.12
25,3,-3,-7,0,0,-2,-2,1,0.125
26,-3,-5,3,0,0,1,0,0,0.13
27,0,16,9,0,-1,1,-1,-1,0.135
28,0,-7,-11,0,0,-1,-1,0,0.14
29,0,-3,3,0,1,-1,0,0,0.145
30,-5,1,-2,-7,-3,-2,0,-4,0.15
31,-3,-11,-6,-3,-2,-1,0,-1,0.155
32,-1,9,-5,-3,-5,-1,-1,0,0.16
33,-2,15,15,3,-1,-2,-2,-3,0.165
34,2,-8,-6,6,5,2,1,0,0.17
35,-2,0,6,-2,-1,-1,0,0,0.17500000000000002
36,-1,-11,-3,-4,0,1,-1,-1,0.18
37,-3,-3,-10,-5,-3,-1,0,-1,0.185
38,2,-3,-7,-4,-4,-1,-1,0,0.19
39,2,13,6,4,1,1,1,1,0.195
40,0,-15,-17,-4,-3,-2,-2,-1,0.2
41,-1,9,9,1,1,-2,-2,-1,0.20500000000000002
42,-3,-8,0,0,-2,-1,-1,-3,0.21
43,-3,-1,-3,0,1,1,-1,0,0.215
44,1,6,6,1,-1,-2,0,0,0.22
45,0,0,2,0,-2,2,-1,0,0.225
46,-2,5,15,6,0,0,0,1,0.23
47,3,-5,-19,-5,-2,-1,0,-2,0.23500000000000001
48,-1,4,8,-2,-1,-1,-1,-1,0.24
49,-3,-15,-23,-4,-3,-1,-2,-1,0.245
50,2,8,14,2,-2,-2,-1,0,0.25
51,-2,-4,-6,-2,0,-2,-2,-1,0.255
52,0,6,8,4,-1,-1,-1,0,0.26
53,1,-3,-6,-1,1,0,1,0,0.265
54,0,-3,3,-5,-2,-1,-1,2,0.27
55,-1,-1,22,-3,-5,-1,0,-2,0.275
56,-6,-24,-22,0,-1,-2,-3,-2,0.28
57,4,8,-24,-5,0,-1,-1,1,0.28500000000000003
58,-10,-13,1,-2,0,-1,-1,-4,0.29
59,-1,-1,2,0,2,-2,-2,-1,0.295
60,1,12,16,2,0,-1,1,0,0.3
61,1,-8,8,4,-1,0,0,-1,0.305
62,1,0,-16,-5,-1,-1,0,0,0.31
63,1,2,0,0,0,-1,-1,0,0.315
64,-1,3,4,1,0,0,0,1,0.32
65,-2,1,0,-1,0,-1,-2,-1,0.325
66,6,0,-8,-1,-1,-3,0,0,0.33
67,-3,-4,0,1,-3,0,-1,-1,0.335
68,0,6,-2,-1,0,1,0,-1,0.34
69,-2,-1,5,-2,-4,-3,-1,-3,0.34500000000000003
70,1,0,-2,-1,-2,-2,-1,0,0.35000000000000003
71,-1,-7,-6,-4,-3,-1,0,0,0.355
72,2,6,0,-3,-2,1,-2,-2,0.36
73,-1,-2,6,2,1,0,0,-1,0.365
74,-4,-3,1,3,0,1,-1,-1,0.37
75,1,0,-8,-3,-2,-1,-2,1,0.375
76,-3,1,0,-3,-2,-3,-2,-3,0.38
77,-3,-6,5,2,-1,0,2,-1,0.385
78,2,1,-4,-1,2,0,0,0,0.39
79,0,-3,-5,0,-1,1,1,-1,0.395
80,-1,1,1,-1,-1,-2,-1,1,0.4
81,0,-2,-1,-2,-2,-1,0,0,0.405
82,0,0,-3,0,-1,-1,1,0,0.41000000000000003
83,-2,0,0,2,0,-1,0,-2,0.41500000000000004
84,-4,-3,2,2,3,0,0,-2,0.42
85,-2,0,0,-2,-1,-2,0,-1,0.425
86,-1,2,0,-1,-1,1,0,-1,0.43
87,-2,-2,0,2,0,-2,-1,-2,0.435
88,1,2,-4,-4,-5,-1,-1,1,0.44
89,0,-2,0,-1,1,0,-1,2,0.445
90,-5,0,0,1,-5,-2,-1,-1,0.45
91,6,-2,-5,2,5,1,1,1,0.455
92,-2,0,-2,-1,1,0,-1,-2,0.46
93,0,3,0,-3,-2,0,-1,0,0.465
94,4,3,-3,-2,-4,-1,-1,0,0.47000000000000003
95,-3,-14,-2,-1,-1,-1,-2,-2,0.47500000000000003
96,0,0,-1,-1,-2,-1,1,-2,0.48
97,-1,-4,-1,-1,2,-2,0,-1,0.485
98,-2,1,1,3,3,0,0,-1,0.49
99,-2,3,0,-2,-3,0,-1,-1,0.495
100,-1,-2,-1,-2,0,-2,-1,0,0.5
101,-4,0,3,-1,-1,-2,-1,-1,0.505
102,0,0,-2,-1,1,-2,-1,-1,0.51
103,1,2,1,1,-1,-2,-1,0,0.515
104,-1,-1,0,-1,-1,-2,0,0,0.52
105,-1,-1,-2,-1,-3,1,-2,0,0.525
106,-1,0,-2,-2,-2,-1,-2,-2,0.53
107,-1,1,0,1,1,0,-1,-2,0.535
108,-1,-1,-2,-4,-3,1,-1,-3,0.54
109,1,3,4,-1,0,-1,-1,-2,0.545
110,1,-6,-5,-3,-3,-1,0,-1,0.55
111,-1,5,-6,-2,-3,-2,-2,0,0.555
112,0,-5,-5,1,0,0,0,1,0.56
113,-4,5,2,3,1,1,1,-1,0.5650000000000001
114,-2,-9,-5,-3,-2,-2,-2,-2,0.5700000000000001
115,0,-15,1,-4,-4,0,-1,-1,0.5750000000000001
116,1,9,0,-5,-2,-3,-1,-1,0.58
117,0,-11,-4,-1,0,0,-2,0,0.585
118,-2,39,10,-3,-3,-2,-2,-1,0.59
119,0,12,13,4,0,0,0,0,0.595
120,0,3,-10,2,1,2,-2,0,0.6
121,-1,-19,2,0,-3,-3,-3,0,0.605
122,-2,14,-14,-3,-3,-2,-2,-2,0.61
123,-4,-13,3,0,0,-2,0,-3,0.615
124,-1,-9,-16,-5,1,-1,0,-2,0.62
125,2,7,0,-1,-3,-1,-1,-1,0.625
126,0,-3,9,5,2,0,-1,-1,0.63
127,-5,-2,-4,-5,0,-1,0,-4,0.635
128,0,-10,2,0,0,-1,-1,-2,0.64
129,0,9,1,-3,-2,1,1,1,0.645
130,0,-11,-4,-1,-1,2,1,1,0.65
131,0,11,10,4,0,-1,-1,1,0.655
132,0,-15,-15,3,0,-2,0,0,0.66
133,-1,-8,1,-4,-3,-3,-2,-3,0.665
134,0,-9,-15,-4,-1,1,-1,1,0.67
135,0,6,10,-5,-3,-1,-1,1,0.675
136,-2,3,9,1,-2,-1,0,0,0.68
137,0,7,-12,1,1,-2,-1,-6,0.685
138,3,-10,-4,1,0,1,-1,-1,0.6900000000000001
139,-1,5,11,2,1,0,-2,-3,0.6950000000000001
140,-22,-3,-6,1,-2,-1,-3,9,0.7000000000000001
141,-4,5,26,13,5,-3,-7,-38,0.705
142,12,-25,-33,-15,-3,0,3,13,0.71
143,-17,-23,-26,-5,-3,5,4,17,0.715
144,25,29,13,-5,-5,0,4,10,0.72
145,-23,-8,-1,-3,-3,-1,0,-12,0.725
146,-3,-8,12,6,5,-3,-3,-7,0.73
147,-2,-3,3,-1,-1,-5,-3,-11,0.735
148,-5,5,-1,-1,-1,1,-3,-1,0.74
149,7,2,-10,-2,-2,-2,-2,13,0.745
150,-3,-16,3,2,-2,-1,-2,-9,0.75
151,3,1,-8,-9,-5,-3,-1,6,0.755
152,1,10,10,0,0,-2,0,-6,0.76
153,7,1,2,0,1,0,0,6,0.765
154,-3,26,14,4,1,0,0,2,0.77
155,-10,-20,-7,1,0,0,0,-11,0.775
156,1,-10,-6,2,1,-1,0,-5,0.78
157,-2,-13,-9,-6,-2,0,1,26,0.785
158,-16,-9,1,1,1,2,0,-25,0.79
159,25,31,11,5,-2,-4,-1,10,0.795
160,-2,17,-2,-2,-1,0,-4,-7,0.8
161,2,-12,-10,-1,-3,1,2,8,0.805
162,-4,0,3,-1,0,-1,-1,4,0.81
163,-3,8,0,-4,-2,-2,-3,-8,0.8150000000000001
164,-2,-66,-12,-2,-1,-2,1,1,0.8200000000000001
165,-15,7,-1,-2,-2,-1,0,-13,0.8250000000000001
166,0,-11,1,-1,-3,0,-2,1,0.8300000000000001
167,2,17,2,0,2,0,0,-2,0.835
168,2,0,4,0,1,-1,-1,1,0.84
169,3,9,-2,-2,0,1,0,-1,0.845
170,-2,-9,4,2,1,-1,0,-1,0.85
171,1,-5,-8,0,0,0,-1,2,0.855
172,-3,8,1,-3,-1,-1,-2,-1,0.86
173,0,-9,-4,0,0,0,-3,-4,0.865
174,2,18,4,-1,-1,-2,-2,1,0.87
175,-4,-6,-5,1,1,1,-1,0,0.875
176,-5,6,3,0,-2,1,0,-3,0.88
177,0,0,0,-3,-4,-1,-1,0,0.885
178,3,3,2,-1,-1,-2,-2,4,0.89
179,-4,-7,-7,-1,-1,-1,-1,-5,0.895
180,-2,1,3,-3,-3,-3,-2,-5,0.9
181,3,6,-1,-2,-1,0,0,3,0.905
182,1,1,3,0,0,-1,-2,3,0.91
183,3,4,2,3,0,1,1,-3,0.915
184,-6,-14,-8,-5,-1,-2,-2,-2,0.92
185,1,6,3,0,3,-1,2,13,0.925
186,1,4,1,-2,-2,-1,-1,-8,0.93
187,-3,-2,3,2,-1,-1,-1,1,0.935
188,5,13,3,5,0,-2,3,14,0.9400000000000001
189,2,-8,-6,-1,-1,-2,-3,-18,0.9450000000000001
190,1,1,-1,-9,-5,1,1,21,0.9500000000000001
191,-5,-6,-4,1,4,-1,-5,-33,0.9550000000000001
192,-4,2,1,3,3,0,-8,-13,0.96
193,-1,-2,1,1,3,1,0,10,0.965
194,-1,2,-1,2,0,-3,1,-2,0.97
195,1,-4,-8,-10,-10,-3,0,8,0.975
196,-1,-1,2,1,0,-1,1,2,0.98
197,3,3,1,-2,-7,-1,0,-2,0.985
198,1,-3,-1,-3,1,1,1,1,0.99
199,-1,-2,-4,-3,-2,-2,1,5,0.995
200,1,0,0,-3,0,0,0,-7,1.0
201,0,-2,-2,-1,-3,-1,-2,0,1.0050000000000001
202,0,-2,-2,-3,0,-3,-2,-2,1.01
203,-1,-2,-3,-1,0,-1,-1,1,1.0150000000000001
204,0,3,3,3,1,0,-1,-3,1.02
205,3,1,0,1,2,1,0,-2,1.025
206,-6,-6,-2,3,-3,-1,-1,-6,1.03
207,-1,1,1,1,-1,-1,0,-1,1.035
208,1,1,1,-3,-4,2,0,3,1.04
209,-5,-2,1,-3,-3,-1,-1,-1,1.045
210,0,0,-1,1,1,1,0,-4,1.05
211,3,-3,-5,0,-2,0,2,3,1.055
212,-2,2,3,2,0,1,1,0,1.06
213,0,-1,-1,4,4,-1,0,-2,1.065
214,-2,4,1,-5,-2,-1,-1,-3,1.07
215,-2,-6,-4,-4,-2,-2,-3,0,1.075
216,-2,-1,-2,1,0,-1,-1,-1,1.08
217,0,0,-1,-2,-3,1,0,-1,1.085
218,2,-2,-1,0,1,-2,2,6,1.09
219,1,-1,-1,-3,-2,-1,-5,-14,1.095
220,2,2,-1,-2,-3,-2,-3,-1,1.1
221,1,0,-1,-6,-1,1,1,9,1.105
222,-1,3,-3,5,3,0,0,-2,1.11
223,-6,-16,0,1,-2,0,1,-1,1.115
224,1,2,1,-2,-2,-2,-4,-2,1.12
225,-1,-2,0,-1,-4,-1,-2,-3,1.125
226,1,0,-1,0,2,0,-2,1,1.1300000000000001
227,-4,4,2,4,3,0,0,6,1.135
228,-1,-4,-2,-3,-2,-1,-1,-2,1.1400000000000001
229,0,-3,-4,-3,-2,-1,1,0,1.145
230,-2,-2,0,1,0,-1,3,9,1.1500000000000001
231,5,2,-3,0,0,-1,-4,-13,1.155
232,-2,-3,-1,1,0,-1,0,5,1.16
233,-5,0,1,0,0,-2,-3,-7,1.165
234,-1,-2,-2,-3,-5,-2,-1,2,1.17
235,2,6,-2,-2,0,-2,0,1,1.175
236,0,-5,2,-1,-1,-1,1,-3,1.18
237,-1,0,-2,1,2,1,-1,-3,1.185
238,-3,-5,-4,-2,-2,-1,-2,-6,1.19
239,-2,1,1,-1,2,0,0,8,1.195
240,0,1,-1,-2,0,-1,0,7,1.2
241,0,-1,1,0,-1,0,-1,-10,1.205
242,-3,-3,-1,1,-4,-1,-4,-7,1.21
243,-2,0,-1,-2,-2,0,0,-2,1.215
244,-1,2,0,-2,0,1,1,-1,1.22
245,0,-3,-2,0,1,-1,0,8,1.225
246,3,2,0,-1,-1,-1,-5,-14,1.23
247,-3,-2,1,-2,-2,-2,-2,3,1.235
248,-1,-2,-2,-1,0,0,0,-4,1.24
249,0,1,1,1,-1,-1,1,6,1.245
250,1,-2,-2,0,2,1,0,-2,1.25
251,1,-1,-1,-1,-3,-2,-1,3,1.2550000000000001
252,-3,-4,1,-1,0,0,-1,-2,1.26
253,0,1,-2,1,2,0,0,0,1.2650000000000001
254,1,-2,-2,-3,-1,0,-4,-2,1.27
255,3,1,-1,-2,-1,-1,-1,2,1.2750000000000001
256,-2,4,-2,-3,-1,0,0,-2,1.28
257,-2,-10,-2,0,-4,-2,-3,-4,1.285
258,-6,0,1,-3,0,-1,1,-1,1.29
259,1,2,-1,0,0,0,2,3,1.295
260,0,0,-2,-1,-1,-2,-3,-1,1.3
261,-2,3,1,-1,-1,-1,1,-1,1.305
262,-2,-3,2,0,-3,-1,-1,0,1.31
263,0,-5,0,-1,-3,1,0,13,1.315
264,2,5,4,1,-2,0,-2,-6,1.32
265,-4,-2,-3,-1,0,-1,-5,-10,1.325
266,-1,-1,-1,0,1,-1,1,0,1.33
267,-2,-1,0,1,0,-1,1,-5,1.335
268,0,0,1,1,-1,-2,2,11,1.34
269,3,-2,-2,-2,-2,0,0,-1,1.345
270,-6,-2,0,0,2,1,-5,-12,1.35
271,-1,-2,-1,0,-1,-1,-1,1,1.355
272,-2,-3,-1,0,0,-3,-1,-3,1.36
273,0,3,1,-3,1,-2,-1,3,1.365
274,1,0,-3,-1,-2,0,-1,3,1.37
275,-2,-1,1,0,0,0,1,-2,1.375
276,-5,-4,0,1,-2,-2,-3,-3,1.3800000000000001
277,-2,-1,-3,-1,1,1,-2,-6,1.385
278,2,-2,-3,-2,-2,-1,0,3,1.3900000000000001
279,-1,-2,-3,-2,-1,0,-1,0,1.395
280,0,1,0,-1,-1,0,0,-3,1.4000000000000001
281,-2,-1,0,-2,-2,-2,-2,2,1.405
282,1,-2,-1,-1,-2,0,-1,2,1.41
283,1,-2,-1,0,0,-2,-1,-3,1.415
284,1,-1,-2,-1,-4,-2,0,-2,1.42
285,0,1,0,-2,-1,-1,0,0,1.425
286,-1,1,2,2,0,0,0,2,1.43
287,-3,-7,-4,-1,1,-1,-3,-6,1.435
288,2,-2,-4,0,0,0,-1,-2,1.44
289,-3,-1,-1,-2,-2,-1,0,1,1.445
290,-1,0,-1,-3,-2,0,1,0,1.45
291,-2,1,0,0,-1,-3,0,0,1.455
292,-1,-1,0,0,-2,1,-2,-2,1.46
293,5,2,-2,0,-3,-2,0,0,1.465
294,-1,-1,-2,-1,-1,-2,-1,-1,1.47
295,-1,0,0,0,1,0,-2,-2,1.475
296,0,-2,0,-2,-2,0,1,-1,1.48
297,1,0,1,0,2,0,-1,2,1.485
298,-1,-2,-4,-3,-2,0,0,-1,1.49
299,0,-3,-1,0,-1,-1,0,0,1.495
300,-2,1,-3,0,1,0,-2,-1,1.5
301,-1,-2,-1,0,-1,0,0,-1,1.5050000000000001
302,1,0,-2,2,1,-1,0,0,1.51
303,-2,2,2,-1,2,1,-2,-1,1.5150000000000001
304,-2,1,0,0,0,-1,0,-3,1.52
305,-2,2,0,1,1,-1,-1,0,1.5250000000000001
306,-1,-4,-3,-4,-3,-2,-1,1,1.53
307,1,-4,-2,-3,-4,-1,-1,-1,1.5350000000000001
308,0,-2,-1,0,0,1,-1,-1,1.54
309,-3,-1,0,1,1,0,-1,-1,1.545
310,2,5,0,-1,-2,-2,-2,-2,1.55
311,0,2,-1,-1,-4,-1,0,0,1.555
312,-2,-4,0,-1,0,-1,-1,-1,1.56
313,-1,-2,-1,-1,-2,1,1,-1,1.565
314,1,-1,-1,1,0,-1,0,0,1.57
315,0,0,1,-1,1,-2,0,-2,1.575
316,-5,-3,-2,-2,-1,0,-1,-2,1.58
317,1,-1,-3,-3,-1,-1,-1,-1,1.585
318,-3,-2,1,0,0,0,-1,0,1.59
319,0,0,0,1,0,-1,-2,-1,1.595
320,1,1,-1,-1,-5,-3,-1,0,1.6
321,-1,-2,-1,-2,-1,1,0,1,1.605
322,-3,-3,0,2,-1,-1,0,0,1.61
323,-1,-1,-1,0,-1,-1,-3,0,1.615
324,-1,0,-1,-2,0,0,0,0,1.62
325,-1,-2,-2,-1,-1,-1,-1,0,1.625
326,-1,-1,-3,-3,-1,0,1,-1,1.6300000000000001
327,0,3,-2,1,-1,-2,0,-1,1.635
328,1,-4,-1,-1,1,0,-2,-1,1.6400000000000001
329,0,-1,0,-1,-3,-2,-2,-2,1.645
330,0,-1,1,-1,-1,-2,-1,-1,1.6500000000000001
331,-3,0,-1,-1,-1,-1,0,2,1.655
332,2,0,-4,-4,-2,-1,-2,0,1.6600000000000001
333,-3,2,1,0,1,1,-1,-1,1.665
334,2,-1,-1,-1,-1,-3,-1,-1,1.67
335,-2,0,-1,-2,-3,0,-2,-2,1.675
336,0,-1,1,0,0,0,2,1,1.68
337,0,-3,0,-2,-2,-2,0,2,1.685
338,-3,-1,-2,2,1,-1,0,-1,1.69
339,-1,-1,-1,-1,0,1,1,-1,1.695
340,-3,-1,-2,-2,1,2,-1,-2,1.7
341,-1,-2,-2,-3,-2,0,-2,-1,1.705
342,0,-2,0,-2,-2,-1,0,-1,1.71
343,0,-1,0,1,0,-1,-1,-1,1.715
344,-3,0,1,1,-2,-2,-1,-2,1.72
345,-1,1,1,1,-2,-1,0,-2,1.725
346,-2,0,0,-1,0,-1,-1,0,1.73
347,1,1,-1,-2,-1,0,0,0,1.735
348,0,-2,-2,0,1,-2,-1,-3,1.74
349,-1,-4,-4,-3,-1,-1,-1,-1,1.745
350,-1,-1,-2,-1,-2,-2,0,-2,1.75
351,0,0,0,0,0,-2,-1,-1,1.7550000000000001
352,0,-1,0,-3,-1,-1,0,0,1.76
353,-2,-1,0,1,-1,0,-1,0,1.7650000000000001
354,0,2,0,-1,-1,0,-1,-1,1.77
355,-1,-2,-2,-1,-2,0,0,-2,1.7750000000000001
356,1,0,-2,0,0,-1,0,1,1.78
357,-2,-1,0,0,2,-1,-1,-2,1.7850000000000001
358,-3,-1,0,0,-2,0,0,0,1.79
359,-1,-1,-2,-1,0,1,0,-1,1.795
360,-1,0,0,-2,1,0,-1,1,1.8
361,-3,0,1,-1,0,0,-1,-2,1.805
362,-1,-1,-1,-2,-1,-1,-1,-1,1.81
363,-1,-2,-2,-2,-1,-2,-1,0,1.815
364,0,1,-3,0,-3,-2,-1,0,1.82
365,1,-3,-3,-2,-2,-2,1,0,1.825
366,0,1,2,1,-1,1,-1,-2,1.83
367,-4,-4,-1,-1,-1,-2,0,-2,1.835
368,-1,0,3,0,0,-2,-1,1,1.84
369,-1,1,-2,-1,-1,-2,-1,-1,1.845
370,-1,-3,-3,-2,-1,0,-1,0,1.85
371,1,-2,0,0,-3,-2,-1,1,1.855
372,0,0,-1,0,-1,1,1,-2,1.86
373,1,0,1,0,0,-1,1,0,1.865
374,-2,-1,-1,-2,-2,0,-1,-1,1.87
375,0,-2,-3,-1,-1,0,-2,-1,1.875
376,-2,-1,1,-1,0,0,-1,-1,1.8800000000000001
377,0,-1,0,0,-1,0,0,0,1.885
378,-1,0,-1,-1,-1,-3,-1,0,1.8900000000000001
379,1,2,0,-1,1,-3,-1,0,1.895
380,-2,-2,-1,0,-2,-1,-2,-2,1.9000000000000001
381,-1,-1,-2,-1,0,-1,-1,-1,1.905
382,2,-1,-3,-3,-3,-1,0,0,1.9100000000000001
383,0,0,-2,-1,-2,0,-1,-2,1.915
384,0,-1,0,-2,-1,-3,-1,-1,1.92
385,-3,-1,0,-1,-1,0,-3,-2,1.925
386,-1,-1,-2,0,1,0,-1,-1,1.93
387,-1,-1,-3,-3,-1,0,-1,-1,1.935
388,-1,-4,-2,-1,-2,1,0,-2,1.94
389,3,-2,0,0,-3,-1,0,1,1.945
390,-1,-1,0,1,1,-1,0,0,1.95
391,0,-2,-3,-2,-2,-1,-1,-1,1.955
392,-2,-3,-1,1,-1,-2,-1,-2,1.96
393,-2,-4,0,-2,0,-2,0,-2,1.965
394,0,-2,-1,-1,-1,1,0,0,1.97
395,-2,0,1,2,1,-1,-1,-1,1.975
396,-1,-1,-3,-1,-3,-1,-2,-1,1.98
397,-2,0,0,1,-1,1,-1,0,1.985
398,-1,-1,-2,-1,-1,-1,-2,-2,1.99
399,0,0,0,-2,-1,0,0,-1,1.995
400,-1,0,0,-1,-3,-1,-1,0,2.0
401,0,2,-1,2,-1,-2,-1,-1,2.005
402,-1,2,2,-1,-1,-1,1,-1,2.0100000000000002
403,-2,2,0,1,2,1,0,0,2.015
404,-1,1,-1,0,-2,-1,0,-2,2.02
405,1,1,-2,-1,0,-1,-2,-1,2.025
406,-3,0,0,1,-1,-1,0,-1,2.0300000000000002
407,-2,1,-1,-2,-2,-2,-1,-1,2.035
408,-1,0,-3,-2,-1,0,0,2,2.04
409,-1,-1,-1,0,0,0,1,-1,2.045
410,3,1,-3,-2,-1,-2,-3,1,2.05
411,0,0,0,1,3,0,-3,-2,2.055
412,0,2,0,1,1,-2,-1,-1,2.06
413,-1,0,-1,1,-1,-1,-1,-1,2.065
414,-1,-1,-1,-1,0,-2,0,0,2.07
415,0,1,-1,-1,-2,-1,0,-1,2.075
416,1,-2,-1,-2,1,-1,0,0,2.08
417,-1,1,0,0,0,-1,0,-1,2.085
418,-3,0,3,2,-1,-1,0,-2,2.09
419,0,-3,-4,-4,-2,-2,-2,-1,2.095
420,-1,0,1,-1,1,1,-3,0,2.1
421,-1,0,-3,-3,-2,-1,-2,0,2.105
422,0,0,0,-1,0,-1,0,-1,2.11
423,-2,-2,1,2,1,-1,0,-1,2.115
424,-1,-1,-1,0,-2,-1,0,-1,2.12
425,-2,-4,-1,-2,-1,0,0,-2,2.125
426,1,-1,-2,0,-1,-2,-2,0,2.13
427,1,-1,0,-1,0,0,-1,-1,2.1350000000000002
428,1,0,0,0,0,-2,0,-1,2.14
429,-1,-1,0,0,-2,-1,0,-1,2.145
430,-2,-3,-2,-1,0,-1,-1,-1,2.15
431,-2,-4,0,1,-3,-1,1,0,2.1550000000000002
432,-3,-3,0,-1,0,0,2,-3,2.16
433,-1,-3,-1,0,0,1,0,-1,2.165
434,0,-1,-3,0,0,0,0,-1,2.17
435,0,0,0,-2,-1,0,1,0,2.1750000000000003
436,1,-3,0,-2,-1,-1,-1,-1,2.18
437,0,0,0,-1,-2,0,-2,1,2.185
438,-2,-2,-1,0,-1,0,-1,0,2.19
439,-3,-3,-1,0,0,1,0,0,2.195
440,1,-2,-3,-3,-1,-2,-1,-1,2.2
441,-5,1,4,0,0,-1,0,-3,2.205
442,0,-6,-1,-2,-2,-2,-3,-2,2.21
443,-1,-2,-1,0,-2,-1,-1,-2,2.215
444,-1,-2,-2,-1,-2,-2,-3,-1,2.22
445,0,-2,-2,-2,-1,-1,-1,0,2.225
446,1,-2,-1,0,-1,1,0,0,2.23
447,0,-2,1,0,-1,-1,1,-1,2.235
448,1,-1,-1,2,-2,-1,0,-1,2.24
449,-1,-5,-5,-2,-2,-1,-3,-1,2.245
450,-1,-1,-3,-2,-1,-1,0,0,2.25
451,1,-2,-1,-1,-1,-1,-2,0,2.255
452,-1,-1,1,0,-1,-1,-1,0,2.2600000000000002
453,-1,-1,-1,0,1,1,1,0,2.265
454,-2,-3,0,-1,0,-1,0,0,2.27
455,-2,-2,-1,1,0,-1,1,0,2.275
456,0,1,-2,-2,0,0,0,1,2.2800000000000002
457,-1,-3,-2,-2,1,-1,-1,-3,2.285
458,1,-2,-4,-1,0,1,0,-2,2.29
459,-3,-3,1,-1,0,-1,0,-1,2.295
460,1,-3,-3,-2,-1,1,0,-1,2.3000000000000003
461,-1,-2,-2,-3,1,-1,0,-1,2.305
462,-1,1,-1,2,3,0,-1,-1,2.31
463,-1,-1,-1,-3,-3,-2,1,0,2.315
464,-1,-1,2,1,-2,-1,-1,-1,2.32
465,-2,-3,-1,-1,-2,-2,-1,-2,2.325
466,0,-1,-1,-3,-1,-1,0,-1,2.33
467,-1,1,-2,1,0,0,-4,-3,2.335
468,-2,0,-2,-2,-4,-3,-1,-1,2.34
469,1,2,0,-1,-2,0,-3,0,2.345
470,-2,-2,-3,-3,1,0,-1,-1,2.35
471,0,0,-2,-1,0,-1,-1,0,2.355
472,-2,-1,0,0,1,0,-1,-1,2.36
473,-1,1,-1,1,-3,-1,0,0,2.365
474,-1,2,-1,-2,-5,-3,-2,-2,2.37
475,-5,-1,1,-2,1,-1,0,-1,2.375
476,-1,1,-1,12,14,3,1,-1,2.38
477,0,1,0,3,4,2,1,1,2.3850000000000002
478,-1,-1,0,-4,-4,-1,0,0,2.39
479,3,3,-4,-3,-1,-2,-2,0,2.395
480,-1,1,1,-3,-4,-3,-2,-1,2.4
481,-1,0,-2,1,0,-1,-2,-2,2.4050000000000002
482,-1,1,0,0,0,-1,0,-1,2.41
483,0,1,-1,-2,-3,-2,0,1,2.415
484,-2,-1,1,-3,-3,0,-1,-1,2.42
485,-1,2,1,0,-1,-1,-1,0,2.4250000000000003
486,-2,1,0,0,-3,-2,-3,0,2.43
487,-1,2,3,3,2,0,1,-1,2.435
488,3,1,-4,-2,-4,-1,-1,0,2.44
489,0,1,0,-9,-7,-2,0,0,2.445
490,0,3,0,3,2,-1,-1,-1,2.45
491,-1,-3,-3,2,-1,0,-1,-1,2.455
492,-1,0,0,-2,-1,0,0,0,2.46
493,-1,2,0,2,-3,-1,0,0,2.465
494,-1,-1,-1,-4,0,1,0,0,2.47
495,-2,2,-1,0,-1,-1,-1,-2,2.475
496,-1,-3,-1,-3,-2,-1,-1,-1,2.48
497,1,-1,-3,-3,-2,0,0,-1,2.485
498,-3,0,0,1,-1,-2,0,-1,2.49
499,3,1,-1,1,0,-1,-1,-1,2.495
500,0,-1,-1,-2,1,-1,-1,-1,2.5
501,0,-1,-1,-1,1,0,-1,0,2.505
502,1,-1,0,1,0,0,-2,-1,2.5100000000000002
503,-2,-1,-1,-3,-2,-1,-2,0,2.515
504,-3,-1,-1,0,1,1,-1,1,2.52
505,-1,-2,-1,1,4,0,1,0,2.525
506,0,-2,0,-2,-1,0,0,-1,2.5300000000000002
507,-2,-1,-2,-1,-4,-1,-1,1,2.535
508,0,-1,-1,-2,0,-1,-1,0,2.54
509,1,-2,-1,0,-1,0,-1,-2,2.545
510,-1,-2,-1,1,0,1,-2,-1,2.5500000000000003
511,-5,-4,2,2,0,1,0,-1,2.555
512,1,-3,-2,-1,-4,-4,0,0,2.56
513,-2,-3,0,-2,-3,-3,-1,1,2.565
514,-4,-3,1,1,3,0,-2,-3,2.57
515,3,-2,-1,0,0,-2,-2,-3,2.575
516,1,-1,-1,-1,-1,0,-2,-2,2.58
517,-2,-2,-2,-1,-1,-1,-2,0,2.585
518,-1,-2,0,0,0,0,0,0,2.59
519,0,-3,-2,-3,2,1,-2,-1,2.595
520,-3,-1,1,0,0,-1,1,-2,2.6
521,1,-2,-1,-2,-1,-2,-1,-1,2.605
522,0,-2,-1,-2,-3,-1,-1,0,2.61
523,1,-1,-2,-1,-1,0,0,-1,2.615
524,0,-1,0,-1,-2,-1,0,-1,2.62
525,-1,-3,-2,1,-1,-2,0,-1,2.625
526,0,0,-1,1,0,-2,-1,-1,2.63
527,-1,-1,-2,-1,-3,-1,0,0,2.6350000000000002
528,0,-2,0,-1,1,-1,-2,-2,2.64
529,0,0,0,-2,0,-1,-1,-1,2.645
530,-3,-1,0,1,1,0,-1,0,2.65
531,2,0,-2,-2,-3,-1,-1,0,2.6550000000000002
532,-8,-2,2,1,0,0,-1,-2,2.66
533,1,1,-2,1,-2,-1,-1,-2,2.665
534,1,-1,-2,-1,-4,-1,0,0,2.67
535,0,-4,-3,0,0,1,-1,0,2.6750000000000003
536,2,1,-1,-3,-1,-3,-2,-1,2.68
537,-2,-3,0,-1,1,0,0,-1,2.685
538,-1,-2,-3,-2,-1,0,-2,0,2.69
539,-4,-4,-1,0,-2,-1,-1,-3,2.695
540,0,-2,-2,0,0,-1,-1,-1,2.7
541,-2,-2,-1,0,-3,-2,0,-1,2.705
542,0,0,-3,-7,-3,-1,0,-1,2.71
543,1,1,-1,2,3,1,-1,-1,2.715
544,-2,-2,0,0,1,1,-1,1,2.72
545,1,-3,-3,-1,1,0,-1,-1,2.725
546,-3,-1,-2,1,-2,0,1,-1,2.73
547,-3,0,0,-2,-1,-3,-1,0,2.735
548,2,-1,-3,-1,-3,-2,0,0,2.74
549,-6,-2,3,-1,-3,0,0,0,2.745
550,1,-2,-2,2,1,0,0,-2,2.75
551,0,0,-1,-1,-2,1,1,0,2.755
552,-2,-3,-2,-1,-2,-1,-1,-1,2.7600000000000002
553,-2,-1,-1,0,-1,0,0,-2,2.765
554,1,-2,0,0,0,-1,-1,-1,2.77
555,-1,-1,-1,-2,0,0,-1,-1,2.775
556,1,1,-1,-1,-2,-1,0,0,2.7800000000000002
557,1,0,-2,-4,0,0,-3,-2,2.785
558,-2,-1,-1,0,-1,-1,0,0,2.79
559,-1,-1,-1,1,0,-3,-1,-1,2.795
560,0,-3,1,-1,0,-1,0,0,2.8000000000000003
561,-7,-4,-3,1,1,1,0,-2,2.805
562,-1,-1,0,1,-1,0,-2,0,2.81
563,-1,-1,-1,-6,-5,-1,-2,0,2.815
564,0,2,-2,-1,-2,-3,-2,-2,2.82
565,1,0,0,-1,-3,-1,-1,0,2.825
566,1,-1,-3,-1,-1,0,-2,-1,2.83
567,-2,0,1,-1,0,-1,-1,-3,2.835
568,1,-2,-4,-1,1,-1,-1,0,2.84
569,2,1,2,0,-2,-1,-1,0,2.845
570,-2,3,4,-1,0,-1,-1,-2,2.85
571,1,-4,-7,0,0,1,-1,-2,2.855
572,-4,-2,0,-2,-1,0,-1,0,2.86
573,2,-1,-3,-2,-2,-3,-1,0,2.865
574,1,0,2,-1,-2,-1,-2,-1,2.87
575,-3,1,2,-2,-1,0,-1,0,2.875
576,-3,0,-1,-2,-1,1,-1,0,2.88
577,1,0,-2,0,2,0,-1,0,2.8850000000000002
578,0,1,-2,-1,-2,-1,0,-1,2.89
579,1,-1,-1,3,0,0,-1,0,2.895
580,-4,-1,1,-4,-1,1,2,-3,2.9
581,-1,-4,-2,-2,-3,-1,0,-1,2.9050000000000002
582,0,1,0,-1,0,-1,0,0,2.91
583,-2,-1,0,0,-1,-1,-1,-1,2.915
584,-3,0,0,2,0,0,1,0,2.92
585,0,-1,-2,-2,1,-1,0,0,2.9250000000000003
586,-3,0,-1,0,-1,-2,-2,-2,2.93
587,-2,0,2,1,2,-1,1,-1,2.935
588,-4,-1,-1,-3,-2,0,-1,-2,2.94
589,-1,0,-1,-2,0,1,-1,-1,2.945
590,0,-2,-2,1,-1,0,1,0,2.95
591,-1,1,2,1,-2,-2,-3,-2,2.955
592,0,0,0,0,1,-1,-2,-3,2.96
593,-1,0,-1,1,-1,0,-2,-1,2.965
594,-3,-2,1,0,0,-1,0,1,2.97
595,-4,0,1,-1,-2,-1,0,-1,2.975
596,2,0,-1,-1,-3,-1,0,0,2.98
597,0,1,-1,-2,-2,0,-3,-1,2.985
598,-1,-2,-3,0,-2,-1,0,0,2.99
599,1,0,-2,-3,-3,-3,-1,2,2.995
600,2,-1,-1,2,1,-1,-1,-1,3.0
601,0,1,0,-2,-2,0,0,-1,3.005
602,2,-3,-2,0,0,0,-2,-1,3.0100000000000002
603,0,-4,-3,-6,1,1,0,-1,3.015
604,-2,4,2,0,0,-2,0,0,3.02
605,-2,-2,-2,0,-2,-2,-2,-1,3.025
606,-2,3,1,1,-1,-2,-1,1,3.0300000000000002
607,1,0,-1,0,-1,1,0,-1,3.035
608,1,-2,-5,-2,-2,-2,-1,2,3.04
609,-3,-2,1,0,3,0,1,-2,3.045
610,-2,0,0,2,0,1,-1,-2,3.0500000000000003
611,1,-1,2,0,-3,0,0,-1,3.055
612,-4,-1,0,1,1,1,-1,-2,3.06
613,-2,1,0,0,-2,-4,0,0,3.065
614,-1,-2,0,-3,2,-1,-1,2,3.0700000000000003
615,0,1,0,-1,-1,-1,0,-1,3.075
616,-2,-2,-2,-1,-2,-1,-1,-2,3.08
617,0,-1,-1,3,-1,0,0,-1,3.085
618,-2,-2,0,-1,-2,0,-3,-2,3.09
619,0,0,-2,-3,-2,-2,0,0,3.095
620,-2,-3,-4,3,4,0,0,-1,3.1
621,1,1,2,-7,-2,1,-1,0,3.105
622,0,-2,-5,0,-1,1,1,-2,3.11
623,-1,-4,-1,-1,-1,-1,-2,-1,3.115
624,0,0,2,-3,-2,-1,-1,-1,3.12
625,0,-2,-4,-2,-1,-1,0,0,3.125
626,-3,2,2,0,-3,-1,0,-2,3.13
627,0,-1,-1,-2,0,-1,-1,0,3.1350000000000002
628,3,-1,-1,-1,0,0,0,0,3.14
629,-1,-1,0,1,1,0,-1,0,3.145
630,-2,-7,0,-2,-3,-3,0,-2,3.15
631,3,1,-3,1,-1,-2,-2,-2,3.1550000000000002
632,1,0,-1,-1,-3,0,0,-1,3.16
633,-1,2,-2,0,2,0,-2,1,3.165
634,1,0,-1,0,-2,-2,0,0,3.17
635,-3,-2,0,0,0,-1,1,-1,3.1750000000000003
636,-2,-2,0,-1,-2,0,-1,0,3.18
637,0,-1,0,3,-2,0,-1,-2,3.185
638,0,0,-2,-3,0,0,0,0,3.19
639,0,-1,-2,-2,-2,-1,-2,-1,3.1950000000000003
640,4,-1,-2,-1,0,1,-1,-1,3.2
641,-4,-1,0,0,-1,0,0,-1,3.205
642,3,1,-1,-2,2,0,-3,1,3.21
643,-3,-1,1,2,-4,-1,-1,-1,3.215
644,-2,-5,-8,-5,-3,-3,-2,-1,3.22
645,2,-2,0,-2,-1,0,-1,0,3.225
646,-2,-1,-1,-1,-1,0,-1,-2,3.23
647,-2,0,1,1,2,0,-1,2,3.235
648,-1,0,3,2,-2,-2,-2,-1,3.24
649,0,-3,0,-3,-1,-1,-1,1,3.245
650,-3,-3,-1,-5,-4,-2,-1,0,3.25
651,-1,-2,-1,0,2,0,-2,-2,3.255
652,1,-1,-2,-1,-2,-1,-1,0,3.2600000000000002
653,0,-3,-2,1,-5,-3,-2,-2,3.265
654,3,-2,-2,0,6,1,1,-2,3.27
655,-1,-2,0,-2,-3,-2,0,0,3.275
656,0,1,3,-1,-1,-3,-1,1,3.2800000000000002
657,0,-4,-4,-1,-4,-2,0,-3,3.285
658,-4,3,4,0,-3,0,-3,-1,3.29
659,-2,-3,-4,-1,1,1,1,-1,3.295
660,-1,-1,3,-2,-3,-1,-1,0,3.3000000000000003
661,-1,-1,-1,-1,1,-1,-1,2,3.305
662,-1,-4,-3,-1,-4,-2,-2,0,3.31
663,1,0,0,-1,-3,-2,0,-1,3.315
664,-2,-2,1,0,-1,-1,0,0,3.3200000000000003
665,1,0,0,0,0,0,0,-2,3.325
666,1,0,-2,0,-1,-1,-1,-1,3.33
667,-1,-1,0,-1,-2,-2,0,1,3.335
668,0,0,-1,-3,-1,-2,-1,-1,3.34
669,-1,1,-2,-1,-1,-2,-2,-1,3.345
670,-4,-3,-1,0,0,-1,1,-1,3.35
671,1,0,-1,0,1,0,-1,0,3.355
672,-3,-1,-1,0,0,1,1,-1,3.36
673,1,-1,-2,-3,-2,0,0,1,3.365
674,-1,0,-1,-2,-3,-1,0,0,3.37
675,-3,-2,1,0,3,1,-1,-3,3.375
676,-4,-1,-1,4,4,1,0,-1,3.38
677,-1,0,-3,0,-2,-1,-1,-1,3.3850000000000002
678,2,-2,-3,-6,-4,-2,-1,-1,3.39
679,2,1,-3,-2,-4,-1,-2,-2,3.395
680,2,1,-3,-3,-3,-2,0,-1,3.4
681,-3,-2,0,1,-1,-2,-1,-2,3.4050000000000002
682,-1,0,1,0,1,-1,-1,-2,3.41
683,2,-1,-4,-2,1,1,-1,0,3.415
684,-1,-1,-1,-1,-2,-2,-1,-1,3.42
685,-5,0,0,-2,0,-1,0,0,3.4250000000000003
686,-3,-3,-3,0,-3,-2,-1,0,3.43
687,4,-2,-1,0,0,-2,-2,-1,3.435
688,1,-1,-2,-3,-3,-2,0,-1,3.44
689,-1,-2,1,0,2,0,-3,-2,3.4450000000000003
690,0,0,-3,0,1,0,0,0,3.45
691,-6,-4,1,0,-1,-1,-1,-1,3.455
692,-2,-2,0,0,0,-2,0,-1,3.46
693,1,-1,-1,-4,-3,-1,-1,-1,3.465
694,2,0,-1,0,-1,-2,0,0,3.47
695,-1,1,0,1,-1,-1,-1,1,3.475
696,0,0,0,0,-1,0,0,-2,3.48
697,-6,-1,2,2,-1,-1,1,0,3.485
698,-1,0,1,-2,3,1,-1,-3,3.49
699,-1,-2,-4,-4,-2,-1,1,-1,3.495
700,-2,-1,1,0,-2,1,-2,0,3.5
701,1,0,-1,2,-1,0,1,-2,3.505
702,0,-2,-2,-3,-2,0,-1,0,3.5100000000000002
703,-2,0,2,0,-1,-1,-1,0,3.515
704,-2,-1,-3,-1,-1,0,-2,-1,3.52
705,2,1,-2,-3,-3,-2,-2,0,3.525
706,1,0,-1,3,0,-1,-3,0,3.5300000000000002
707,-1,0,-1,-1,-1,-3,1,-1,3.535
708,-1,1,-1,1,-3,-1,-1,0,3.54
709,-2,-2,-3,-3,0,0,0,-1,3.545
710,-3,-1,0,0,1,-1,0,-2,3.5500000000000003
711,-3,-2,-5,-2,-1,-1,0,-1,3.555
712,-1,0,-1,-2,-2,0,0,-1,3.56
713,0,1,0,0,-1,0,0,1,3.565
714,-2,0,-1,0,-1,-1,-1,-2,3.5700000000000003
715,2,0,0,-1,-3,-2,-2,0,3.575
716,-2,-1,0,-1,-1,-1,1,1,3.58
717,-1,-1,0,1,7,1,0,0,3.585
718,1,-1,-1,-1,-2,-1,-1,0,3.59
719,-1,1,0,-2,1,-1,0,-1,3.595
720,-1,-1,0,1,-1,0,1,-2,3.6
721,1,-1,1,-2,-2,-1,-1,0,3.605
722,-4,0,1,1,-1,-1,-1,0,3.61
723,-1,-4,0,-3,-2,0,-1,-2,3.615
724,1,-1,-3,3,4,-1,-1,-1,3.62
725,1,0,-1,2,-2,-1,0,-1,3.625
726,0,0,-1,-1,0,0,-1,0,3.63
727,0,1,-1,-1,0,0,-1,-2,3.6350000000000002
728,-1,0,-3,-2,-2,-1,-1,-1,3.64
729,-3,-2,0,0,1,-1,-2,-2,3.645
730,2,0,-3,-1,0,0,-1,1,3.65
731,-1,-1,-2,-1,-1,1,-1,1,3.6550000000000002
732,-4,-1,2,-1,2,0,-1,-2,3.66
733,-1,-1,-1,-4,-3,-1,-1,-1,3.665
734,-1,-2,-4,-3,-3,-2,0,-2,3.67
735,-4,2,1,2,2,0,0,-3,3.6750000000000003
736,2,0,-1,-2,-1,-1,-2,0,3.68
737,2,-1,-4,-3,-2,0,0,1,3.685
738,-3,-3,2,1,1,0,-1,-1,3.69
739,0,-1,1,2,0,0,2,0,3.6950000000000003
740,1,-2,-2,-2,-1,-2,0,-2,3.7
741,-1,1,-2,-1,-2,-2,-1,-2,3.705
742,1,0,-1,-2,-4,-1,0,-1,3.71
743,2,2,-1,0,0,-2,-3,0,3.715
744,-3,-3,0,-1,-2,0,0,0,3.72
745,-1,-3,0,1,-1,-2,0,0,3.725
746,-2,2,1,3,2,1,0,-2,3.73
747,2,2,-2,-4,0,0,1,-1,3.735
748,-2,-4,-2,-3,-1,1,-1,-1,3.74
749,0,0,0,-2,-1,-2,-1,-2,3.745
750,-2,-1,2,-2,-2,-2,-1,-1,3.75
751,1,-2,-1,0,-2,-1,-1,1,3.755
752,0,1,2,-2,-1,0,-2,0,3.7600000000000002
753,-2,-2,-1,-1,0,1,-1,-2,3.765
754,2,-3,-2,0,1,-1,-1,-2,3.77
755,-6,0,0,1,-3,-1,0,-2,3.775
756,2,-2,-3,-1,1,-2,0,1,3.7800000000000002
757,-2,-1,-1,1,-1,-2,-1,-1,3.785
758,-1,0,0,1,-1,-1,-1,-2,3.79
759,3,-1,-3,-3,-1,-1,-1,0,3.795
760,-2,-2,-1,-1,-1,-1,-1,-1,3.8000000000000003
761,-1,0,-1,0,-1,-1,-2,0,3.805
762,-2,-3,-2,0,2,-1,-1,-2,3.81
763,2,-2,-3,-1,0,0,-1,0,3.815
764,-4,-2,0,0,0,0,-1,0,3.8200000000000003
765,0,-3,1,-1,-1,-1,0,0,3.825
766,-1,-1,-1,-3,-2,-2,-1,-1,3.83
767,-2,-3,-1,-2,0,-1,-2,-1,3.835
768,0,0,-1,0,-3,-1,-2,-1,3.84
769,0,-3,-3,-2,-2,1,0,-1,3.845
770,-4,-1,1,-1,-1,1,2,1,3.85
771,-2,-1,1,-1,-1,1,-1,-1,3.855
772,1,-1,0,-2,-1,-1,-3,-1,3.86
773,1,1,-2,-1,-1,-2,-2,-1,3.865
774,-2,0,-2,0,-2,-1,-1,-2,3.87
775,-1,-1,-1,-1,-3,0,-1,-1,3.875
776,1,-1,-2,-4,-1,0,-1,0,3.88
777,-1,-1,-1,-2,0,1,-1,0,3.8850000000000002
778,-1,0,-3,-3,-3,-2,-1,-1,3.89
779,-3,-1,1,-1,1,-1,-1,-2,3.895
780,0,0,0,3,0,-1,-1,-2,3.9
781,-1,0,-1,-2,1,1,0,-1,3.9050000000000002
782,0,-1,-1,-1,-1,0,-2,1,3.91
783,-2,-1,1,0,2,-1,-1,-1,3.915
784,-1,1,1,3,0,-2,0,-2,3.92
785,0,-1,-2,-3,-2,-3,-3,-2,3.9250000000000003
786,0,1,0,-1,0,-1,-2,0,3.93
787,-3,-2,-2,-2,-1,-2,0,1,3.935
788,-1,0,-1,1,0,0,0,-1,3.94
789,0,1,0,1,0,0,0,-1,3.9450000000000003
790,-2,-1,0,0,-3,0,0,-2,3.95
791,0,0,0,2,-2,-2,-1,-1,3.955
792,0,-1,-2,-1,0,-2,-1,-1,3.96
793,-2,0,0,1,-3,0,1,-2,3.9650000000000003
794,0,0,-1,-1,0,0,-1,-1,3.97
795,2,-2,-2,-1,0,0,-2,0,3.975
796,-3,0,-1,-1,1,1,0,-1,3.98
797,-1,0,1,-2,0,-1,-1,0,3.985
798,1,-2,-2,-1,0,-2,0,0,3.99
799,0,0,-2,-2,-2,-2,-2,-2,3.995
800,2,1,-2,-3,-2,1,0,-1,4.0
801,1,1,-2,-2,-1,-1,-1,-2,4.005
802,0,-3,1,-2,-1,-2,0,0,4.01
803,0,0,-1,-2,-1,0,-1,-1,4.015
804,-1,-1,-2,-2,-1,-2,0,0,4.0200000000000005
805,-1,0,-2,1,-1,-1,-1,0,4.025
806,-1,-1,1,0,-1,1,-1,-2,4.03
807,1,2,0,0,-1,1,0,-1,4.035
808,-1,-3,-4,-3,0,-1,-1,0,4.04
809,-1,0,0,1,0,0,1,0,4.045
810,3,0,-2,-2,-1,-3,-2,0,4.05
811,-3,-1,0,1,-1,-1,0,-1,4.055
812,-1,0,0,-3,-1,1,-2,-1,4.0600000000000005
813,-2,0,1,0,-1,-2,-2,0,4.065
814,1,0,0,-1,-2,0,1,0,4.07
815,-2,-1,-4,-1,-2,0,-1,-1,4.075
816,0,0,-1,1,0,0,0,-1,4.08
817,0,-3,-3,-1,-2,-1,-1,-1,4.085
818,-2,-1,-2,0,0,-1,-2,-1,4.09
819,-1,-1,2,0,-1,-1,0,1,4.095
820,-5,0,3,3,2,2,1,-1,4.1
821,-4,-1,1,0,-1,1,-2,-2,4.105
822,-1,1,0,-1,1,-1,-1,-1,4.11
823,0,0,-1,-1,-1,-1,0,1,4.115
824,-1,-2,-4,-3,-6,-2,-1,0,4.12
825,1,0,0,-4,-2,-4,0,1,4.125
826,-3,0,1,-1,0,-1,0,-2,4.13
827,1,-1,-4,-1,-1,-2,-3,-2,4.135
828,0,2,0,-1,0,-1,0,0,4.14
829,-1,-1,-2,0,0,2,-1,-2,4.1450000000000005
830,0,-2,-2,-1,-3,-1,-1,0,4.15
831,0,-2,0,-2,0,-1,-1,1,4.155
832,0,0,-2,0,-2,-2,-1,0,4.16
833,-3,-2,-3,0,0,-1,-1,0,4.165
834,-1,-2,-1,-1,-2,1,-1,-1,4.17
835,-1,0,0,2,0,1,-1,-1,4.175
836,0,0,-1,-1,-2,0,-2,-3,4.18
837,0,0,1,-1,-1,-2,-1,-1,4.1850000000000005
838,-1,-1,-1,0,0,-1,-2,-1,4.19
839,-2,-1,-3,-1,0,-2,0,-2,4.195
840,-1,-1,1,-2,0,0,0,0,4.2
841,-1,-2,-2,0,0,2,0,-1,4.205
842,-1,-1,-1,-1,-1,0,-2,0,4.21
843,0,-2,-1,0,2,0,0,1,4.215
844,-6,1,3,2,0,0,-1,-2,4.22
845,0,-1,-2,0,-4,0,-2,0,4.225
846,-3,-2,-4,-3,0,-2,0,-1,4.23
847,-2,0,-2,2,1,0,-1,0,4.235
848,1,-1,1,-2,-1,-1,-1,0,4.24
849,-1,-1,1,-1,1,-1,0,-2,4.245
850,-3,-3,-6,0,-2,-1,-1,-2,4.25
851,-1,0,-2,-2,-3,-1,-1,-1,4.255
852,0,-3,-3,1,0,-2,-2,1,4.26
853,0,0,1,-3,-3,-1,1,-1,4.265
854,0,-1,1,-1,-2,0,-1,-1,4.2700000000000005
855,-1,-2,1,-1,-2,-1,-1,-4,4.275
856,1,1,1,0,1,0,2,0,4.28
857,-5,-3,-3,0,-2,0,-2,-1,4.285
858,0,0,-2,-1,0,-1,-1,-1,4.29
859,-2,0,1,0,-2,-1,1,0,4.295
860,3,1,-2,-3,-1,-1,-2,-1,4.3
861,-1,1,-2,-2,-2,1,-1,0,4.305
862,-2,0,2,0,-1,-1,0,-2,4.3100000000000005
863,-3,0,1,-1,-2,0,-1,1,4.315
864,1,-2,-4,0,-1,-3,-1,0,4.32
865,-1,0,-1,0,-2,-3,-1,0,4.325
866,2,1,0,-2,-3,-1,-1,-1,4.33
867,0,0,-2,-2,-2,-1,0,-1,4.335
868,-1,-3,0,-3,0,0,-1,0,4.34
869,0,-1,-1,0,-1,0,0,-1,4.345
870,0,0,0,1,1,-1,-2,1,4.3500000000000005
871,1,-2,-3,-1,0,-1,-1,-1,4.355
872,-3,-1,1,1,0,-1,1,-1,4.36
873,0,-1,-1,-2,1,-1,0,-3,4.365
874,1,0,-1,-2,0,0,0,-1,4.37
875,1,0,-1,-2,-2,0,-1,-1,4.375
876,-1,-1,0,-1,-1,-1,-1,-1,4.38
877,-2,-1,-1,-1,0,-1,-1,0,4.385
878,0,0,1,-1,-1,-2,0,0,4.39
879,-2,0,2,2,4,1,-1,0,4.3950000000000005
880,0,-1,-3,-2,-2,-1,0,-1,4.4
881,2,0,0,0,-1,0,-1,0,4.405
882,1,0,-2,-1,-1,1,-1,0,4.41
883,2,-1,-3,-3,0,-3,0,0,4.415
884,-3,1,-1,1,0,-1,0,0,4.42
885,-1,-1,-2,-2,-2,-2,-1,0,4.425
886,1,-1,-2,-1,-1,-1,1,-1,4.43
887,2,0,-2,-3,-2,1,0,0,4.4350000000000005
888,-2,-1,-1,1,1,0,-2,-1,4.44
889,-1,0,-2,-2,0,-1,-1,-1,4.445
890,-2,-1,0,0,0,0,0,0,4.45
891,2,-1,-2,-3,-3,-2,-3,-1,4.455
892,-1,-2,1,0,-2,0,-1,-1,4.46
893,-1,-1,1,1,0,1,1,-1,4.465
894,-3,-2,-4,-5,-2,-2,-2,-2,4.47
895,-1,0,0,1,-1,1,2,-1,4.4750000000000005
896,0,0,-3,-3,-2,1,0,-1,4.48
897,2,-1,-2,1,3,-1,0,0,4.485
898,-3,0,1,0,-2,1,0,-2,4.49
899,-3,-2,1,-1,-1,-3,-1,-1,4.495
900,1,-1,-2,-4,-3,-1,-1,-1,4.5
901,0,0,-2,1,-1,-1,-2,0,4.505
902,-1,0,0,-1,-2,-1,-1,1,4.51
903,-1,-2,-1,0,-2,0,0,-2,4.515
904,-4,-1,2,2,-2,-1,0,-3,4.5200000000000005
905,1,-2,-3,-4,-1,0,-3,0,4.525
906,-1,-1,-1,1,2,0,-2,-1,4.53
907,-5,0,1,1,-1,0,-1,-1,4.535
908,0,-2,-2,-1,0,1,-2,-1,4.54
909,-3,-1,1,1,-3,-1,0,-2,4.545
910,-2,0,0,1,-1,-2,0,-2,4.55
911,-2,0,0,-6,-3,-1,-2,0,4.555
912,0,-1,-2,0,1,0,0,-1,4.5600000000000005
913,-1,0,1,-2,1,-2,-2,-2,4.565
914,1,-2,-1,0,0,-1,0,-1,4.57
915,-2,-1,-2,-1,-1,-2,-1,-2,4.575
916,0,0,-2,0,0,0,0,0,4.58
917,-5,-2,0,2,0,-1,0,-3,4.585
918,0,1,0,1,1,-1,-1,-1,4.59
919,1,-2,-1,0,0,-1,-1,-2,4.595
920,0,-1,-1,-4,-2,-2,-2,1,4.6000000000000005
921,-1,-2,-3,0,-2,1,-1,-1,4.605
922,-1,-1,-2,-2,-4,-2,0,-1,4.61
923,-2,0,0,0,1,0,1,-3,4.615
924,-1,-3,0,-2,-1,-2,0,-1,4.62
925,-5,-1,1,0,-2,-2,0,-1,4.625
926,-1,0,0,-2,-1,0,0,0,4.63
927,-1,0,0,-1,-1,0,-1,0,4.635
928,0,0,0,0,-1,-1,0,-1,4.64
929,3,0,-3,0,-2,0,0,2,4.6450000000000005
930,-1,-2,-2,-3,0,-1,-1,-1,4.65
931,0,-2,-2,0,2,0,1,-1,4.655
932,-1,0,-1,0,0,-2,-1,0,4.66
933,1,0,0,-1,-1,-2,-2,-1,4.665
934,-1,-2,-1,1,-1,-2,1,-1,4.67
935,0,-1,1,0,-1,1,-1,-3,4.675
936,1,-2,-1,-3,-2,-2,-2,-2,4.68
937,1,0,-1,-2,-1,0,0,0,4.6850000000000005
938,0,-2,-1,-1,-1,-1,-1,-1,4.69
939,-1,0,0,0,-2,-1,0,0,4.695
940,0,-1,-2,-3,0,-1,0,-1,4.7
941,-1,-1,-2,-2,-1,-2,-3,-1,4.705
942,-2,1,1,-1,0,-1,0,-1,4.71
943,0,-3,-2,-1,-2,-2,0,1,4.715
944,0,-1,-1,2,0,2,-1,0,4.72
945,-3,-2,1,-1,0,0,-1,-1,4.7250000000000005
946,4,0,-3,-1,-1,-1,-1,0,4.73
947,-1,-1,-1,4,1,0,-1,-1,4.735
948,-2,1,1,-3,0,0,-1,0,4.74
949,0,-1,-3,-2,-2,-1,1,0,4.745
950,1,1,0,-1,-3,0,-2,0,4.75
951,-1,0,-1,-1,-4,-2,0,-1,4.755
952,0,-3,-3,1,-1,-2,2,0,4.76
953,0,0,0,-1,0,-1,-3,-1,4.765
954,-2,-2,-1,-1,-1,0,-1,0,4.7700000000000005
955,-3,-3,-2,-2,-1,0,-3,1,4.775
956,-3,-1,2,1,0,-1,0,-3,4.78
957,-2,-2,1,1,0,0,-1,-2,4.785
958,-2,-3,-1,0,2,-1,1,-2,4.79
959,-1,0,-1,-1,-1,-1,1,-1,4.795
960,0,0,0,-1,-2,-2,1,1,4.8
961,1,1,-1,1,-1,0,-1,1,4.805
962,-3,0,-1,1,-1,-1,-1,-1,4.8100000000000005
963,5,0,-3,-4,-3,-1,-2,2,4.815
964,-1,-1,-1,0,1,0,0,-3,4.82
965,-2,-1,-1,2,-1,-2,1,-1,4.825
966,-7,1,4,0,-1,-2,-1,-1,4.83
967,-1,-1,-4,-2,-4,-2,-1,-1,4.835
968,-1,3,1,1,2,2,0,1,4.84
969,0,-6,-6,-2,2,-1,0,0,4.845
970,2,2,0,0,-1,-1,1,-2,4.8500000000000005
971,-3,1,2,-1,0,0,0,-1,4.855
972,-2,-2,-3,-4,-5,0,-3,-1,4.86
973,0,-1,0,-1,-2,-1,-2,1,4.865
974,0,0,-1,1,0,1,-2,0,4.87
975,1,0,2,-1,1,-1,-1,-1,4.875
976,0,-2,-1,1,-3,-4,-1,-1,4.88
977,1,0,-4,-6,-3,-2,0,-1,4.885
978,0,-3,-4,0,-2,0,0,-1,4.89
979,-5,1,2,1,1,-1,-1,-2,4.8950000000000005
980,-1,0,0,1,0,-1,-1,0,4.9
981,-4,1,2,3,0,1,0,-3,4.905
982,0,-2,-3,-1,1,0,-2,-1,4.91
983,-3,-2,-2,0,2,0,0,-1,4.915
984,-1,0,0,0,-2,-3,0,2,4.92
985,0,1,2,-2,-2,-1,-1,-3,4.925
986,-2,-4,0,-1,0,-1,0,-2,4.93
987,-1,-5,-9,0,-3,-2,-1,0,4.9350000000000005
988,-2,-1,-1,-2,-1,-1,-1,-1,4.94
989,1,1,0,-2,-1,2,0,0,4.945
990,0,-1,1,-1,-2,-1,-1,0,4.95
991,-2,-4,0,-2,-1,-2,-3,-2,4.955
992,0,-1,-2,0,-2,-2,0,0,4.96
993,0,-1,-1,0,-1,-1,-2,0,4.965
994,-2,1,-2,2,1,-1,0,-1,4.97
995,0,-2,1,0,2,-2,0,-1,4.9750000000000005
996,0,-1,-2,2,-1,-1,0,-1,4.98
997,-7,-2,2,-6,-1,0,0,-1,4.985
998,0,-1,-3,-3,-2,-2,-1,0,4.99
999,1,0,1,3,0,0,-2,1,4.995
1000,-1,0,1,-1,-2,0,-1,-3,5.0
1001,5,-2,-5,-2,0,-2,0,0,5.005
1002,-2,-2,0,-2,-1,-2,0,-1,5.01
1003,-1,-1,2,-2,-2,1,0,-1,5.015
1004,2,-1,-1,-1,0,-2,-2,0,5.0200000000000005
1005,1,1,0,1,-2,0,-1,-1,5.025
1006,0,-2,-2,-3,-1,-1,-1,-1,5.03
1007,1,1,-1,0,0,0,1,0,5.035
1008,-1,-2,-1,-2,0,-2,-1,-1,5.04
1009,-1,0,-1,0,1,0,-1,0,5.045
1010,0,-1,0,0,-3,0,-1,1,5.05
1011,1,-1,0,-4,-2,-3,-1,-1,5.055
1012,0,0,1,-1,1,0,-1,-1,5.0600000000000005
1013,2,-3,-4,0,0,-1,-3,-1,5.065
1014,-3,-2,-1,0,1,-1,-1,-3,5.07
1015,-3,-1,-2,1,-2,0,1,0,5.075
1016,0,1,1,-1,-1,-1,0,1,5.08
1017,1,0,-3,-5,-4,-3,0,0,5.085
1018,0,-3,-2,-3,-4,-2,-1,1,5.09
1019,-1,-2,-1,-2,1,-1,-1,1,5.095
1020,-2,0,0,2,1,-1,1,-1,5.1000000000000005
1021,-4,-2,-2,0,0,-1,0,-1,5.105
1022,4,0,-2,-1,-4,-1,-1,-1,5.11
1023,-2,1,0,-2,-2,-1,-3,-2,5.115
1024,0,-1,-4,-2,0,0,-2,-1,5.12
1025,0,0,1,1,-1,-2,-1,-1,5.125
1026,-1,1,0,-1,-2,-1,1,-2,5.13
1027,0,-1,-2,3,2,0,0,-1,5.135
1028,-3,-1,-1,-3,-1,1,-1,-1,5.14
1029,-1,-3,-1,-2,0,-1,0,-2,5.1450000000000005
1030,-5,0,1,1,0,-1,0,-2,5.15
1031,1,-1,-1,-2,-4,-1,-2,0,5.155
1032,-2,-1,-1,2,-1,-1,-1,-2,5.16
1033,-1,0,-2,-5,-2,-1,-1,-1,5.165
1034,-2,-2,-1,0,0,-1,-1,0,5.17
1035,-1,1,-2,-1,0,-2,1,1,5.175
1036,0,-1,-1,-1,0,-1,0,1,5.18
1037,-1,-2,1,1,-2,0,-1,0,5.1850000000000005
1038,0,0,-1,-1,4,1,-2,-1,5.19
1039,-2,1,0,-1,-1,-1,-1,-1,5.195
1040,0,-2,-1,0,0,0,-1,0,5.2
1041,0,-1,0,0,1,0,0,-1,5.205
1042,-3,1,1,-2,-2,1,-1,-2,5.21
1043,-4,-1,0,-1,0,-1,0,-2,5.215
1044,0,-1,-1,-3,-2,-1,-2,-1,5.22
1045,-6,-1,1,2,2,0,1,0,5.2250000000000005
1046,0,-2,-3,-1,0,-1,0,-1,5.23
1047,0,1,-1,-2,-2,-2,-1,1,5.235
1048,-1,-2,-1,-1,-2,0,0,-2,5.24
1049,6,1,-3,-1,-2,-2,-2,1,5.245
1050,0,-2,-2,0,-1,-1,-2,0,5.25
1051,0,0,0,0,0,0,-1,-1,5.255
1052,0,-2,1,-1,0,-2,-1,0,5.26
1053,0,0,0,0,-2,-1,0,1,5.265
1054,1,1,-1,-1,-3,-1,0,-1,5.2700000000000005
1055,2,0,-1,0,-3,-1,-1,0,5.275
1056,0,2,1,-3,-2,1,-1,0,5.28
1057,-3,-2,-1,-2,-1,0,-1,-1,5.285
1058,-2,0,-1,0,-1,0,0,-2,5.29
1059,0,-2,-1,0,1,-1,1,-1,5.295
1060,-2,-1,0,0,1,1,0,-1,5.3
1061,-2,-1,0,1,1,0,-2,-1,5.305
1062,-3,0,1,1,-2,-1,0,-1,5.3100000000000005
1063,0,0,-1,1,-1,1,-1,0,5.315
1064,-1,-2,-3,-1,-1,-1,0,0,5.32
1065,0,0,-1,0,0,0,-1,-1,5.325
1066,-1,-2,-1,0,0,-1,-2,-2,5.33
1067,-2,-1,0,0,0,0,-1,-2,5.335
1068,2,0,-2,-2,-2,-2,-1,0,5.34
1069,0,1,0,-1,0,0,-1,-1,5.345
1070,4,-1,-2,-1,0,-2,-1,1,5.3500000000000005
1071,-2,0,2,-1,-1,-1,-1,-2,5.355
1072,-1,0,0,-2,-2,-1,-1,0,5.36
1073,0,0,-1,-1,-1,-2,-2,-1,5.365
1074,-2,-1,-2,-3,1,-1,-1,0,5.37
1075,0,-1,0,0,0,0,-2,0,5.375
1076,1,-1,1,4,-1,-1,0,-1,5.38
1077,-1,-1,-1,-3,-1,-1,0,0,5.385
1078,-1,-2,-1,-1,-2,-2,1,1,5.39
1079,0,0,-2,0,0,-2,-1,0,5.3950000000000005
1080,1,-2,-1,-2,-1,-3,-1,-1,5.4
1081,0,1,1,1,-2,-1,0,-1,5.405
1082,0,0,0,1,0,-1,-1,1,5.41
1083,-3,-1,-3,-2,-1,-2,-1,-1,5.415
1084,-1,1,0,1,2,0,-1,-2,5.42
1085,-2,-3,-1,-1,-2,0,-2,-2,5.425
1086,-4,-3,-2,-2,-1,1,0,-1,5.43
1087,2,1,-1,-2,1,1,1,0,5.4350000000000005
1088,-1,-1,-1,0,-2,0,-1,-1,5.44
1089,-3,2,-1,-1,0,1,1,-2,5.445
1090,1,1,0,1,1,0,-2,-1,5.45
1091,0,-1,-1,-1,-3,-1,-1,0,5.455
1092,-2,-2,0,1,2,2,0,-1,5.46
1093,-1,-5,-1,-1,-2,-1,0,0,5.465
1094,1,1,-3,2,0,-1,-1,-1,5.47
1095,-3,-1,0,0,-2,-2,0,1,5.4750000000000005
1096,2,1,-2,-3,-4,0,-2,-2,5.48
1097,-1,0,2,3,2,0,-2,0,5.485
1098,0,1,1,-2,-1,-1,1,-2,5.49
1099,1,-2,0,2,0,-1,0,0,5.495
1100,-3,-2,-3,-1,-1,-2,-1,1,5.5
1101,-1,1,-1,-1,-1,-1,0,0,5.505
1102,-2,-3,-5,0,0,0,-1,-1,5.51
1103,0,-2,1,-2,-1,-2,-2,-2,5.515
1104,3,-2,-5,-2,-4,-3,-1,-1,5.5200000000000005
1105,1,0,0,0,-1,-1,-2,1,5.525
1106,-1,0,-1,0,-1,-1,0,-1,5.53
1107,-1,0,0,-3,-1,2,-1,-1,5.535
1108,1,-1,-3,-3,-2,-1,-1,0,5.54
1109,-1,0,-1,1,-1,0,-1,-2,5.545
1110,-2,-2,0,-2,-3,-1,-1,0,5.55
1111,1,-1,-1,0,-1,0,-2,0,5.555
1112,-3,-2,-7,-2,-1,1,0,-1,5.5600000000000005
1113,2,-1,-5,0,-1,1,-2,0,5.565
1114,-1,8,15,2,1,1,0,-2,5.57
1115,-4,-1,-11,-2,0,-1,1,-2,5.575
1116,-6,-19,-20,-4,2,-1,0,-2,5.58
1117,0,1,6,-2,-2,-3,0,-2,5.585
1118,0,0,-2,0,-1,-2,-1,0,5.59
1119,-2,-3,2,-2,-1,0,-2,-3,5.595
1120,0,7,2,2,1,2,1,0,5.6000000000000005
1121,0,8,15,1,0,0,0,0,5.605
1122,2,-16,-32,-8,-4,-2,-2,-2,5.61
1123,1,1,5,0,-1,0,0,1,5.615
1124,-3,-3,-3,3,0,0,0,-1,5.62
1125,-2,-1,2,-4,-2,-1,-2,-1,5.625
1126,1,5,5,0,1,1,-1,0,5.63
1127,-2,0,-2,0,-2,-1,0,-1,5.635
1128,3,3,0,-1,-1,-2,-1,2,5.64
1129,1,5,7,2,-1,-1,0,-1,5.6450000000000005
1130,-1,-1,-3,0,-5,-1,1,0,5.65
1131,-2,-1,-5,-5,-2,-1,-1,-1,5.655
1132,-2,5,11,3,0,-3,-1,-3,5.66
1133,-2,-4,-6,-1,4,-1,0,-2,5.665
1134,-3,-9,0,0,0,-1,-1,-1,5.67
1135,1,-2,2,0,1,0,1,-1,5.675
1136,-1,5,4,-3,-1,0,0,-1,5.68
1137,-1,-3,-10,-1,-3,0,-1,-1,5.6850000000000005
1138,0,3,2,0,0,0,-2,-2,5.69
1139,1,-1,1,0,-2,0,-1,-1,5.695
1140,-5,0,4,-1,-1,-2,-1,0,5.7
1141,-4,-9,-11,-2,-3,-1,-1,-2,5.705
1142,-5,2,7,3,3,0,1,-1,5.71
1143,-1,-1,-1,-3,1,1,-1,-1,5.715
1144,0,-4,-1,1,3,1,-1,-1,5.72
1145,-1,-2,-1,2,-2,-2,-1,1,5.7250000000000005
1146,1,2,3,-2,-4,0,-2,0,5.73
1147,-2,0,-4,-1,-1,-2,-2,-1,5.735
1148,-1,-2,-4,0,-1,0,-2,-2,5.74
1149,3,-2,-2,-4,0,0,-1,1,5.745
1150,0,-1,-1,-3,0,-2,0,-2,5.75
1151,-1,-2,-2,2,0,0,-1,0,5.755
1152,1,1,3,-1,-3,0,-1,1,5.76
1153,-1,0,0,2,0,-1,1,0,5.765
1154,1,-1,-2,-3,-5,-2,0,1,5.7700000000000005
1155,-8,-4,1,2,2,0,0,-3,5.775
1156,1,2,3,1,1,0,0,0,5.78
1157,-1,1,-2,-1,0,-1,0,0,5.785
1158,-1,-1,1,-3,-1,-1,0,-2,5.79
1159,1,-3,-1,0,-3,-1,-2,0,5.795
1160,-2,-2,-2,0,-2,-1,0,-1,5.8
1161,-3,-2,0,-3,-2,-1,-1,0,5.805
1162,-5,1,2,2,2,1,0,0,5.8100000000000005
1163,0,3,0,1,2,0,-1,1,5.815
1164,1,0,-1,-2,-1,0,-1,0,5.82
1165,-1,-4,-2,2,2,-2,-1,-1,5.825
1166,1,0,0,-1,-1,-2,-2,-1,5.83
1167,2,0,-2,-3,-3,-1,0,-1,5.835
1168,2,0,1,0,-2,-2,-1,0,5.84
1169,-3,-1,-2,-1,0,-2,-3,-4,5.845
1170,-1,1,-1,-1,0,-1,-2,0,5.8500000000000005
1171,0,-1,-1,-2,0,0,1,0,5.855
1172,-1,0,-1,-4,0,0,1,0,5.86
1173,2,-1,-3,-1,-2,0,2,9,5.865
1174,1,-3,-4,1,2,1,-1,-9,5.87
1175,0,1,-1,0,-3,-1,-4,-3,5.875
1176,-1,0,-2,-2,-2,-1,-1,-2,5.88
1177,-2,-2,-2,-1,0,0,0,-2,5.885
1178,-1,0,0,-1,-3,-1,0,4,5.89
1179,2,-3,-2,0,-1,-1,0,2,5.8950000000000005
1180,-2,-1,1,-5,-2,1,0,0,5.9
1181,-1,0,-1,-1,-2,-1,0,-1,5.905
1182,-1,-3,2,1,4,0,3,5,5.91
1183,-1,-1,-1,3,0,-3,-5,-13,5.915
1184,-2,-1,-2,1,-2,-1,-1,1,5.92
1185,1,-2,-2,0,2,2,3,8,5.925
1186,-3,0,0,-1,-4,-1,-1,-6,5.93
1187,0,0,0,-2,0,-1,0,5,5.9350000000000005
1188,-6,-3,3,2,1,0,-3,-2,5.94
1189,-2,0,-1,-4,-6,-3,-4,-14,5.945
1190,0,-2,-1,-1,-1,-1,-1,1,5.95
1191,0,-1,-3,-1,1,-1,1,2,5.955
1192,0,0,0,0,-1,-2,-1,0,5.96
1193,1,0,0,-1,-1,-1,2,3,5.965
1194,1,-4,-4,-3,-3,-1,0,-2,5.97
1195,-2,0,0,0,0,-1,0,-2,5.9750000000000005
1196,0,-3,-4,-6,-3,-1,0,2,5.98
1197,-2,-1,-2,0,-1,0,-2,-3,5.985
1198,1,0,-1,-1,-1,1,-1,-1,5.99
1199,-1,-2,-1,-3,0,-2,0,1,5.995
1200,0,0,-1,-1,-1,1,-1,0,6.0
1201,0,-1,0,-3,-2,0,-3,-4,6.005
1202,-1,2,0,1,-1,-1,-2,1,6.01
1203,-2,-1,0,-1,1,-1,3,8,6.015000000000001
1204,-2,0,0,-1,0,0,-2,-10,6.0200000000000005
1205,2,-1,-1,-2,-2,-1,-2,1,6.025
1206,-2,-3,-2,-4,-1,0,-2,-6,6.03
1207,-3,1,0,-1,-4,-2,-3,-10,6.035
1208,0,0,1,4,4,-1,0,3,6.04
1209,0,-1,0,-1,1,1,1,1,6.045
1210,-2,-2,-1,-3,-2,-2,0,3,6.05
1211,0,1,0,-1,-2,3,1,2,6.055
1212,0,-3,-3,-1,1,-1,-2,-2,6.0600000000000005
1213,-1,0,0,2,0,-1,-1,1,6.065
1214,1,-1,-1,0,0,-2,-1,3,6.07
1215,-1,-2,0,-4,-3,0,-1,-2,6.075
1216,-1,-2,-1,1,-1,-2,0,1,6.08
1217,-2,-1,-2,-2,-2,-1,-1,-1,6.085
1218,-4,-1,0,0,2,1,-2,0,6.09
1219,-2,0,1,0,-1,-2,-2,-2,6.095
1220,2,-1,-1,1,-1,1,1,-2,6.1000000000000005
1221,-1,0,-1,-2,0,-2,-1,-1,6.105
1222,0,-2,-2,0,0,-1,-2,-2,6.11
1223,3,0,-3,-3,-1,1,3,11,6.115
1224,-1,-1,-1,-3,0,-2,-1,-7,6.12
1225,-2,-3,1,-2,0,-3,-6,-9,6.125
1226,0,1,0,-1,1,1,-2,0,6.13
1227,-2,-1,3,2,-3,-1,-1,-3,6.135
1228,-1,0,-4,-4,-5,-2,1,5,6.140000000000001
1229,2,-3,-3,1,0,1,1,0,6.1450000000000005
1230,0,0,-1,0,-2,-1,-1,-2,6.15
1231,1,0,-1,1,1,-1,0,0,6.155
1232,0,-1,0,0,-5,-5,-1,-1,6.16
1233,-1,0,-1,-2,-1,0,-1,-2,6.165
1234,1,0,-1,0,-1,-1,0,-1,6.17
1235,-1,-1,0,1,2,1,0,-1,6.175
1236,0,0,-1,0,-2,-1,-3,0,6.18
1237,-1,-1,0,-4,-4,-1,-1,-1,6.1850000000000005
1238,0,-2,0,0,5,-2,0,0,6.19
1239,0,0,-2,-1,-4,-2,3,6,6.195
1240,0,-3,0,-6,-1,-1,-4,-12,6.2
1241,-2,0,1,1,2,1,2,7,6.205
1242,-7,2,2,2,2,1,-4,-17,6.21
1243,-2,-2,-2,2,0,-2,-7,-6,6.215
1244,-2,-1,0,-5,-5,-1,1,2,6.22
1245,0,-1,-3,-2,-5,-3,1,1,6.2250000000000005
1246,3,-1,-4,-7,-9,-2,1,6,6.23
1247,2,-2,0,1,2,1,3,9,6.235
1248,-3,0,-1,1,2,2,-2,-6,6.24
1249,-1,0,-2,-3,-3,-2,-3,-4,6.245
1250,-4,-2,2,1,-3,-2,5,11,6.25
1251,-3,0,0,-5,-7,-3,-3,-14,6.255
1252,0,0,-1,-2,-4,-2,-3,3,6.26
1253,0,1,2,3,5,2,0,0,6.265000000000001
1254,0,0,-2,3,1,-2,-3,-4,6.2700000000000005
1255,1,-2,-3,-1,1,0,1,3,6.275
1256,0,0,-1,4,1,-1,4,2,6.28
1257,0,-2,-2,-1,-4,-3,-3,-2,6.285
1258,1,1,0,-2,0,0,1,4,6.29
1259,1,-1,-1,-1,1,-1,2,7,6.295
1260,-2,-1,-2,1,1,-1,-3,-8,6.3
1261,-2,-3,-1,0,3,-1,-1,-7,6.305
1262,-1,-2,-2,-1,-1,-1,-2,-4,6.3100000000000005
1263,-3,-1,-1,1,1,0,-4,-4,6.315
1264,2,-1,-3,-5,-2,-1,1,8,6.32
1265,0,0,-2,1,-4,-2,2,3,6.325
1266,1,5,0,-2,1,0,1,-2,6.33
1267,-1,-9,-2,-1,3,-1,-1,-3,6.335
1268,-7,-3,2,6,4,2,2,1,6.34
1269,-1,-2,0,-1,-3,0,-1,-3,6.345
1270,2,0,-2,-1,-4,0,-1,3,6.3500000000000005
1271,-4,5,0,-4,-5,-3,-1,-5,6.355
1272,1,-1,-2,-1,0,-1,1,0,6.36
1273,-1,0,-1,0,2,0,-2,-1,6.365
1274,0,2,0,-1,0,-1,-1,-1,6.37
1275,2,0,-2,-1,-1,-2,1,3,6.375
1276,-3,0,1,-3,-1,-3,-5,-10,6.38
1277,0,1,0,-3,0,0,-1,2,6.385
1278,3,-2,-3,-4,-4,-1,0,0,6.390000000000001
1279,0,0,1,3,1,0,4,13,6.3950000000000005
1280,2,1,0,0,0,-1,-4,-17,6.4
1281,-4,-3,-1,-2,-4,0,-3,-6,6.405
1282,-1,-3,-1,0,-1,-2,-3,-5,6.41
1283,0,0,-3,-3,-4,-1,-2,-2,6.415
1284,-1,0,0,-6,-4,-1,4,10,6.42
1285,-3,1,3,6,7,1,1,1,6.425
1286,-1,-2,-2,1,-3,0,4,5,6.43
1287,-1,-1,-2,0,-2,-1,-6,-12,6.4350000000000005
1288,0,-5,0,3,2,-2,-3,4,6.44
1289,0,-2,-1,-1,-5,-2,-3,-6,6.445
1290,-1,-3,0,-3,0,0,0,3,6.45
1291,-3,1,0,-3,-3,0,0,-4,6.455
1292,0,-1,-5,-3,-3,-1,-1,0,6.46
1293,0,-4,-1,1,-2,-1,3,3,6.465
1294,-2,-1,-1,-2,-1,0,0,-1,6.47
1295,0,-1,0,-1,0,0,0,-3,6.4750000000000005
1296,4,0,-3,0,-1,-3,-1,5,6.48
1297,1,1,-1,0,0,0,2,3,6.485
1298,-2,-1,-1,-3,-8,-3,2,11,6.49
1299,0,-2,0,-6,-5,-1,0,-1,6.495
1300,-2,0,1,7,8,1,-12,-19,6.5
1301,-2,4,-1,1,3,0,-4,-7,6.505
1302,-2,-8,-1,4,5,1,-4,-7,6.51
1303,-1,-2,-1,-1,-4,-3,-1,4,6.515000000000001
1304,1,0,-1,-4,-6,-1,4,13,6.5200000000000005
1305,2,-2,-5,-5,-2,-1,0,-2,6.525
1306,-3,2,1,-1,-4,-2,0,-2,6.53
1307,-2,-1,-1,4,10,4,1,3,6.535
1308,-2,-2,-2,1,-3,0,1,2,6.54
1309,3,0,-1,-3,-3,-1,-2,-3,6.545
1310,0,-1,-1,3,3,0,6,11,6.55
1311,1,0,-1,-4,-6,-2,-5,-15,6.555
1312,-4,0,1,3,2,2,0,0,6.5600000000000005
1313,-2,1,-1,3,8,0,3,2,6.565
1314,-3,-4,-1,-4,-3,-1,-2,-2,6.57
1315,-2,-2,0,0,-2,0,-1,-2,6.575
1316,1,-1,-1,-3,-1,-2,2,5,6.58
1317,1,-2,-1,-6,-7,-1,1,8,6.585
1318,1,1,-3,1,-2,-4,-6,-17,6.59
1319,-1,2,-1,7,4,1,-2,-5,6.595
1320,-1,-2,0,-1,1,-1,0,0,6.6000000000000005
1321,-3,-1,-1,2,0,0,4,11,6.605
1322,2,2,0,-7,-4,0,2,0,6.61
1323,-6,-2,2,-6,1,-1,-2,-7,6.615
1324,-2,-6,-1,15,-2,-1,-3,-4,6.62
1325,-1,7,0,-7,12,3,-8,-11,6.625
1326,1,0,-3,2,0,-2,-1,3,6.63
1327,2,0,-4,-6,-4,-4,2,6,6.635
1328,1,-2,-1,-5,-3,-1,4,4,6.640000000000001
1329,0,-5,1,0,-5,-2,2,3,6.6450000000000005
1330,-5,1,3,2,0,0,0,-6,6.65
1331,2,1,-3,-1,1,0,-1,3,6.655
1332,-1,1,-1,-3,0,-1,-1,0,6.66
1333,-1,-2,0,0,-4,-1,1,-3,6.665
1334,0,-1,-1,-8,-5,0,4,10,6.67
1335,0,6,0,4,-3,0,0,-5,6.675
1336,4,-3,4,5,-6,-2,1,9,6.68
1337,5,-9,0,12,13,3,1,0,6.6850000000000005
1338,-16,5,-7,-18,-6,-4,-16,-27,6.69
1339,-3,-13,-5,4,-2,-1,-6,-7,6.695
1340,-5,12,-5,-9,16,4,0,0,6.7
1341,6,-4,-2,0,-5,-1,4,15,6.705
1342,6,4,5,1,-4,-3,7,13,6.71
1343,-1,-1,0,-1,2,1,-5,-15,6.715
1344,-2,-1,-2,-5,1,0,-6,-6,6.72
1345,-1,-1,-2,-5,-5,-1,-2,-2,6.7250000000000005
1346,5,-5,-1,4,3,1,2,7,6.73
1347,1,2,1,-2,-8,-2,3,6,6.735
1348,7,-2,-1,0,-3,0,3,1,6.74
1349,-2,1,2,-1,-9,-3,-2,-3,6.745
1350,-4,6,0,3,13,3,-5,-5,6.75
1351,-5,-4,-3,-3,10,0,1,8,6.755
1352,-2,-5,-4,-2,-4,-2,2,1,6.76
1353,-2,9,4,0,-7,0,9,9,6.765000000000001
1354,9,-13,-1,6,-18,-2,5,-1,6.7700000000000005
1355,13,13,0,-7,-6,-3,-12,-11,6.775
1356,-11,-22,-11,-13,14,1,1,-1,6.78
1357,-14,-13,-8,-11,5,-4,-21,-38,6.785
1358,9,25,17,28,13,-1,-17,-8,6.79
1359,-1,17,2,6,4,3,10,28,6.795
1360,9,34,7,-3,-18,-1,37,54,6.8
1361,-15,-54,-16,-35,-31,-6,-13,-49,6.805
1362,-6,-1,-6,-3,13,-1,-13,-18,6.8100000000000005
1363,-7,3,-9,10,14,-3,-30,-37,6.815
1364,7,-11,6,10,-13,-7,-14,5,6.82
1365,-13,-3,1,-22,-12,-1,24,44,6.825
1366,12,-13,-3,-16,-8,-4,10,-16,6.83
1367,1,-45,0,42,8,6,15,14,6.835
1368,50,81,6,3,29,12,17,21,6.84
1369,-34,80,20,-34,-15,-1,-25,-34,6.845
1370,-28,-41,-23,-43,-33,-14,-19,-3,6.8500000000000005
1371,-2,-19,-7,-36,-39,-17,-14,0,6.855
1372,-37,-45,-4,71,53,-2,-14,-32,6.86
1373,57,4,16,3,-19,0,23,29,6.865
1374,71,111,29,38,-5,13,22,26,6.87
1375,-79,-48,-1,-32,-15,2,6,12,6.875
1376,-5,-18,-1,23,22,-6,-38,-49,6.88
1377,-9,-33,-32,-31,0,-12,-38,-34,6.885
1378,10,2,9,40,2,3,23,19,6.890000000000001
1379,35,5,-12,-82,3,8,32,18,6.8950000000000005
1380,3,27,4,-13,-6,4,3,10,6.9
1381,-45,25,1,42,4,-14,-27,-18,6.905
1382,16,6,18,34,4,-4,-6,4,6.91
1383,17,-5,11,-27,-55,-8,7,10,6.915
1384,-6,-50,-20,-9,29,7,-7,-12,6.92
1385,17,15,0,82,52,16,27,27,6.925
1386,-42,-47,6,-9,-15,4,17,11,6.93
1387,27,77,13,-1,7,-7,2,-12,6.9350000000000005
1388,18,103,-3,-61,-42,6,2,-2,6.94
1389,-64,-96,-66,-44,-25,-2,-1,1,6.945
1390,27,-31,7,41,78,8,-40,-30,6.95
1391,0,-48,10,90,-23,-30,-40,-14,6.955
1392,37,69,6,-15,-79,-9,39,59,6.96
1393,9,27,-28,-18,58,23,31,11,6.965
1394,-59,-57,-48,30,41,7,-36,-56,6.97
1395,-36,25,20,44,29,-11,-47,-52,6.9750000000000005
1396,-13,-56,8,-25,-13,-7,-2,-4,6.98
1397,24,19,27,-27,-88,-6,86,98,6.985
1398,8,-17,-24,-49,2,11,-19,-68,6.99
1399,15,38,67,3,13,1,-25,-11,6.995
1400,-13,0,-88,37,13,-2,-22,-13,7.0
1401,12,-20,49,-1,-72,-19,45,69,7.005
1402,6,-34,-13,-19,58,28,36,13,7.01
1403,11,38,-12,5,35,11,-6,-7,7.015000000000001
1404,-90,-42,22,21,50,-12,-59,-70,7.0200000000000005
1405,36,64,34,34,25,2,-25,-22,7.025
1406,13,126,11,1,-93,-11,83,116,7.03
1407,-4,-39,-57,-96,41,25,-6,-45,7.035
1408,-2,-41,35,-93,-43,-28,-44,-25,7.04
1409,5,75,26,99,70,3,-23,-24,7.045
1410,-56,-74,-4,10,-9,-3,-3,-2,7.05
1411,46,-76,18,21,-38,9,72,83,7.055
1412,-27,21,-1,0,-20,4,16,-26,7.0600000000000005
1413,-5,25,-16,-60,5,-15,-88,-70,7.065
1414,0,3,9,-14,-14,8,48,46,7.07
1415,10,7,-26,9,1,5,2,-7,7.075
1416,-2,-30,-6,-5,-15,-28,-60,-31,7.08
1417,37,64,46,44,12,-5,-4,8,7.085
1418,17,-37,0,-58,-38,-11,14,34,7.09
1419,-18,-73,-33,-47,-11,5,2,-11,7.095
1420,-13,19,6,58,27,31,62,35,7.1000000000000005
1421,-36,-35,-32,-44,-14,-9,-49,-62,7.105
1422,6,-1,45,69,25,-16,-23,24,7.11
1423,-11,127,-15,-30,38,11,28,5,7.115
1424,23,-59,35,-29,-38,-5,8,7,7.12
1425,-12,24,6,-33,-43,-13,-6,1,7.125
1426,66,-37,-23,-1,29,13,10,8,7.13
1427,-24,-10,4,25,0,-1,14,25,7.135
1428,-14,2,-4,66,16,0,-18,-28,7.140000000000001
1429,24,-11,-19,-37,-18,8,60,48,7.1450000000000005
1430,-40,-49,2,-16,-16,-19,-71,-82,7.15
1431,-37,-7,-17,-9,-4,-19,-27,-4,7.155
1432,44,-10,4,2,-45,-1,22,23,7.16
1433,16,3,28,34,12,12,44,50,7.165
1434,0,55,-6,-25,13,1,6,-9,7.17
1435,-31,2,20,105,30,-9,-63,-53,7.175
1436,-13,31,-34,-38,23,2,-16,-5,7.18
1437,1,-114,11,5,-22,-8,-15,-12,7.1850000000000005
1438,7,36,22,-42,-28,-4,23,25,7.19
1439,4,36,-55,-8,-18,7,59,40,7.195
1440,9,-46,31,35,35,16,14,0,7.2
1441,2,44,-9,21,88,16,-50,-50,7.205
1442,-25,-13,2,27,-12,-8,-24,-20,7.21
1443,9,11,8,-38,-17,0,11,14,7.215
1444,31,62,16,18,16,5,37,44,7.22
1445,33,21,29,62,-93,-14,67,81,7.2250000000000005
1446,-34,-35,-71,25,87,56,-65,-115,7.23
1447,-10,75,51,9,-50,-34,-63,-11,7.235
1448,2,21,-15,-14,-34,-4,11,8,7.24
1449,3,-81,-18,-41,1,-2,-1,-7,7.245
1450,8,48,19,-38,-61,-27,27,55,7.25
1451,40,-9,-4,-17,15,20,14,-14,7.255
1452,4,-5,-3,27,17,9,15,36,7.26
1453,-60,-100,-36,-5,17,0,-48,-79,7.265000000000001
1454,0,28,13,0,-24,-13,6,17,7.2700000000000005
1455,28,25,-11,11,35,13,18,18,7.275
1456,-5,-23,18,-70,-24,-12,32,52,7.28
1457,15,126,-2,64,86,35,4,-41,7.285
1458,12,56,9,37,-77,-33,-29,-21,7.29
1459,23,-18,13,-25,32,8,0,13,7.295
1460,11,-56,-54,-10,-18,-1,8,9,7.3
1461,-85,-71,-15,-14,1,-2,-3,1,7.305
1462,9,52,14,-38,-19,-19,-30,-23,7.3100000000000005
1463,-5,51,22,46,-30,-10,-16,-24,7.315
1464,39,-41,-13,-2,37,21,58,59,7.32
1465,11,39,10,-31,-32,-4,2,-25,7.325
1466,-17,54,4,40,12,-9,-36,-19,7.33
1467,-39,-69,-30,-48,-10,-3,15,31,7.335
1468,18,-30,-3,-31,-33,-5,-14,-36,7.34
1469,22,-10,-12,-2,25,-3,-22,-3,7.345
1470,-18,-74,3,-16,12,9,20,21,7.3500000000000005
1471,-1,5,29,61,2,2,12,-13,7.355
1472,-29,29,-11,-39,-4,-4,-32,-40,7.36
1473,52,66,10,12,-12,1,20,35,7.365
1474,-11,-30,-19,-55,-36,-18,-12,-1,7.37
1475,10,-13,15,14,59,18,26,37,7.375
1476,-25,13,6,42,-17,-7,-22,-35,7.38
1477,1,-3,-5,-30,-21,-9,-16,-20,7.385
1478,-21,-10,8,-35,6,7,9,-9,7.390000000000001
1479,28,-44,-21,42,13,1,-10,-2,7.3950000000000005
1480,-14,26,31,-14,9,12,19,12,7.4
1481,4,11,5,25,6,5,-6,-2,7.405
1482,-56,-12,-25,-10,-11,-24,-20,-15,7.41
1483,25,65,42,16,-31,3,17,6,7.415
1484,-23,13,-4,5,21,-2,-13,-1,7.42
1485,21,-89,-39,-14,12,10,10,5,7.425
1486,0,5,-19,-20,-40,-9,5,-2,7.43
1487,4,22,1,-24,3,-4,-5,14,7.4350000000000005
1488,31,4,34,59,-36,-5,14,2,7.44
1489,-15,-27,6,50,79,26,3,13,7.445
1490,51,80,-12,2,-8,6,6,4,7.45
1491,-63,-125,-40,-78,-26,-24,-36,-37,7.455
1492,4,36,14,-7,-14,5,11,9,7.46
1493,-3,-13,9,-25,-81,-34,-23,-13,7.465
1494,0,35,21,111,127,33,4,10,7.47
1495,9,25,-6,-25,-42,-3,34,51,7.4750000000000005
1496,34,27,7,30,-40,-14,-23,-59,7.48
1497,-58,21,-6,-18,60,18,12,29,7.485
1498,0,-47,24,-10,1,-10,-30,-36,7.49
1499,1,-57,-55,-13,-17,-16,-46,-43,7.495
1500,-11,-48,-17,-33,4,0,-3,10,7.5
1501,10,73,21,-52,-62,-6,26,8,7.505
1502,11,-73,-12,45,43,24,57,56,7.51
1503,-17,-4,19,6,8,2,3,1,7.515000000000001
1504,2,16,19,47,-3,-8,-19,-30,7.5200000000000005
1505,-12,13,-17,-65,0,1,0,1,7.525
1506,-7,23,16,29,26,9,25,36,7.53
1507,16,-7,14,-5,-28,0,-1,-34,7.535
1508,-9,-9,-48,-63,29,-8,-47,-10,7.54
1509,2,1,19,32,-11,-9,-6,0,7.545
1510,1,-96,-41,-47,-30,-2,19,21,7.55
1511,0,34,6,14,-1,-1,-1,-13,7.555
1512,-29,-50,-19,-7,-7,-5,7,17,7.5600000000000005
1513,29,-1,15,7,-27,0,24,17,7.565
1514,1,25,-1,-20,11,0,-43,-67,7.57
1515,4,28,17,39,24,4,-10,4,7.575
1516,-19,-24,-16,-6,24,6,-20,-19,7.58
1517,2,34,-5,-20,-38,-9,13,21,7.585
1518,14,-21,-6,-21,-4,5,24,17,7.59
1519,5,51,-7,-8,-36,-15,-11,-18,7.595
1520,30,-24,2,-18,45,17,39,57,7.6000000000000005
1521,-50,-38,-13,14,18,-6,-30,-27,7.605
1522,5,0,32,-9,-42,-14,-23,-27,7.61
1523,5,-15,-8,-10,17,8,17,9,7.615
1524,-49,-25,-37,-18,-23,-10,-20,-30,7.62
1525,20,25,9,15,2,0,4,16,7.625
1526,22,18,7,-5,16,15,11,-2,7.63
1527,-14,0,12,1,-12,-6,1,18,7.635
1528,13,-6,27,18,-1,-1,-3,-6,7.640000000000001
1529,-5,-56,-29,25,18,-8,-27,-28,7.6450000000000005
1530,23,67,-6,-7,7,3,7,22,7.65
1531,-8,-76,-18,-30,-12,6,21,6,7.655
1532,-20,64,19,-6,-18,-4,14,8,7.66
1533,-2,-55,-26,-12,-2,-9,-30,-35,7.665
1534,-17,25,12,8,-10,-7,-19,-2,7.67
1535,11,9,-5,14,10,7,20,20,7.675
1536,5,18,6,-2,-1,5,14,12,7.68
1537,29,7,23,-7,-24,3,36,49,7.6850000000000005
1538,-13,23,-19,53,45,-3,-27,-46,7.69
1539,-17,27,-7,-19,-1,-11,-54,-42,7.695
1540,1,-5,15,28,3,-5,-12,-11,7.7
1541,17,-1,3,-18,7,8,29,30,7.705
1542,-5,-16,-9,-18,-25,-1,29,35,7.71
1543,-11,11,-28,12,4,-1,-16,-18,7.715
1544,19,-4,12,-14,-5,-5,-3,3,7.72
1545,7,28,8,6,19,7,-2,-5,7.7250000000000005
1546,-21,-55,-2,0,-5,-2,10,6,7.73
1547,0,-10,1,-5,-16,0,17,11,7.735
1548,12,44,15,28,11,4,-2,-10,7.74
1549,-9,-21,-23,-7,24,-3,-30,-30,7.745
1550,-9,14,10,-5,-9,-7,0,10,7.75
1551,13,-1,2,9,-7,2,12,12,7.755
1552,-6,4,-3,-8,-8,0,20,31,7.76
1553,-2,-4,3,-3,-6,-5,-20,-30,7.765000000000001
1554,-18,-4,-13,-3,-4,-10,-23,-26,7.7700000000000005
1555,-2,-9,1,-8,8,1,3,5,7.775
1556,10,43,-1,5,7,1,6,6,7.78
1557,-4,-58,-1,0,-10,-2,5,2,7.785
1558,20,-1,8,-20,-17,-6,-6,4,7.79
1559,-19,-14,-20,15,6,1,-9,-13,7.795
1560,-2,-1,-10,-5,-1,0,-5,-5,7.8
1561,-6,32,3,6,-1,-1,5,3,7.805000000000001
1562,5,18,-30,-18,-12,2,13,6,7.8100000000000005
1563,10,28,27,17,12,3,8,17,7.815
1564,3,-9,-33,4,5,-1,-6,-4,7.82
1565,-2,9,-59,-7,-4,0,-13,12,7.825
1566,-18,-18,55,-2,-3,-4,-9,-29,7.83
1567,12,0,37,-4,-3,-3,-1,-8,7.835
1568,2,-28,-75,-14,0,3,10,7,7.84
1569,-3,-11,-16,3,-3,-2,7,16,7.845
1570,26,43,65,6,-4,0,-3,37,7.8500000000000005
1571,-22,-43,-47,-11,-1,-9,-2,-30,7.855
1572,-20,9,59,19,3,8,1,-38,7.86
1573,-13,0,-39,2,6,0,7,-21,7.865
1574,-11,-53,-23,-20,-8,1,-5,25,7.87
1575,8,42,23,8,2,1,7,12,7.875
1576,22,13,-2,-3,4,-2,-14,-2,7.88
1577,2,-24,5,14,3,1,-21,-10,7.885
1578,11,43,27,-12,-10,-3,-3,3,7.890000000000001
1579,3,-25,-12,-11,-1,5,31,17,7.8950000000000005
1580,-23,-21,-7,1,-2,-12,-11,8,7.9
1581,17,38,12,3,2,3,4,8,7.905
1582,-31,-64,-42,-9,-3,2,-3,-41,7.91
1583,9,-19,18,15,4,2,-8,-17,7.915
1584,-3,23,18,-7,-4,-3,-6,-12,7.92
1585,-5,23,24,-2,-3,-9,-11,4,7.925
1586,2,-10,-39,0,2,1,7,9,7.930000000000001
1587,-16,-18,9,2,0,3,3,4,7.9350000000000005
1588,0,-5,14,3,0,-6,-7,-7,7.94
1589,7,14,7,-2,-4,-3,-2,19,7.945
1590,8,33,0,2,2,3,15,-14,7.95
1591,-12,-5,-21,-1,-3,0,-7,11,7.955
1592,4,26,30,0,-4,-1,-5,0,7.96
1593,-12,-64,-4,-4,-1,-1,6,-9,7.965
1594,4,-10,-12,4,0,0,7,6,7.97
1595,0,17,1,-3,-2,-3,-8,4,7.9750000000000005
1596,5,19,7,10,3,1,-3,-1,7.98
1597,-7,-13,-14,-21,-7,-1,6,-15,7.985
1598,4,14,-10,0,-2,-2,2,7,7.99
1599,1,-5,14,3,-2,-3,-15,5,7.995
1600,-7,8,-11,-12,-8,-1,17,-1,8.0
1601,-6,10,18,3,3,0,-2,-7,8.005
1602,10,-3,-5,4,3,3,2,13,8.01
1603,6,17,2,2,0,1,-1,-1,8.015
1604,-6,-34,-3,-7,-1,-2,-3,-4,8.02
1605,-15,32,-4,7,-1,-1,0,-9,8.025
1606,-9,-72,-8,3,0,0,0,-1,8.03
1607,-8,-16,-3,-6,-3,-2,0,-1,8.035
1608,-1,6,10,-2,1,0,-7,-3,8.040000000000001
1609,12,26,19,0,-4,-4,1,0,8.045
1610,4,14,-6,-5,-3,1,3,5,8.05
1611,6,-5,4,15,9,2,0,-9,8.055
1612,-8,-23,-16,-18,-8,-5,-4,-6,8.06
1613,-4,-32,-3,2,0,0,-3,9,8.065
1614,7,27,-17,-9,-5,-2,2,0,8.07
1615,1,1,0,-4,-2,0,2,9,8.075
1616,5,19,6,2,3,1,-2,-3,8.08
1617,2,-27,9,11,4,5,5,-7,8.085
1618,-4,-17,-14,2,-3,-6,-7,-5,8.09
1619,-13,28,1,-8,-9,-5,-8,-3,8.095
1620,1,3,-27,-12,-2,0,-5,6,8.1
1621,4,5,17,2,-3,-2,16,4,8.105
1622,0,-30,3,5,2,-1,6,3,8.11
1623,4,5,-5,-3,-4,-1,0,-7,8.115
1624,-5,-12,-1,4,0,-2,-5,-5,8.120000000000001
1625,8,26,5,1,2,0,-6,3,8.125
1626,-3,32,-4,-6,-6,-2,-3,-2,8.13
1627,-1,-29,-3,-9,-4,0,0,-1,8.135
1628,-5,-5,5,5,8,2,-1,4,8.14
1629,2,8,0,1,0,-2,-2,-3,8.145
1630,-2,11,11,7,3,2,3,1,8.15
1631,0,0,-5,0,-2,-1,-3,2,8.155
1632,0,-5,-9,-11,-6,-2,2,0,8.16
1633,3,-7,6,6,4,2,-3,-2,8.165000000000001
1634,-6,30,-5,-7,-5,-3,-5,-4,8.17
1635,9,13,2,-2,-1,-2,2,5,8.175
1636,1,4,0,1,1,3,3,11,8.18
1637,-2,43,-7,-7,-5,-5,-2,-22,8.185
1638,-5,-27,1,-6,1,0,-2,5,8.19
1639,9,14,8,0,4,0,-1,-1,8.195
1640,1,-17,2,2,0,-3,0,-2,8.2
1641,1,-5,-2,7,0,1,-2,6,8.205
1642,-2,20,6,6,1,-1,1,-1,8.21
1643,-11,-5,-7,1,2,0,1,-6,8.215
1644,-4,-13,0,2,-1,0,0,-1,8.22
1645,-1,17,7,-2,-1,-1,-2,0,8.225
1646,1,-15,-6,-2,-2,-1,0,0,8.23
1647,1,-8,-3,-1,0,1,0,2,8.235
1648,1,2,0,0,-1,-4,-2,-3,8.24
1649,-5,-18,-5,-2,-3,-1,-1,-2,8.245000000000001
1650,3,6,3,-1,0,1,0,0,8.25
1651,-3,3,-4,-1,0,2,-1,0,8.255
1652,-1,-2,-1,-1,-3,0,2,-3,8.26
1653,-4,-10,-6,-7,-2,-2,-1,0,8.265
1654,1,5,3,0,1,0,0,3,8.27
1655,3,-3,2,6,3,-1,1,-1,8.275
1656,-2,-4,-5,-5,-2,-1,-4,-4,8.28
1657,-2,-8,-1,-1,-3,0,-2,1,8.285
1658,2,4,4,-2,2,-1,1,0,8.290000000000001
1659,-2,-4,-5,0,-3,-2,1,-2,8.295
1660,-1,2,1,3,-3,-1,1,-2,8.3
1661,0,0,-1,1,2,1,-1,1,8.305
1662,0,2,2,2,2,0,-1,2,8.31
1663,1,3,-2,-5,-2,-2,-1,-5,8.315
1664,2,5,-2,2,1,-1,0,0,8.32
1665,0,-19,-3,0,0,-2,-2,0,8.325
1666,-1,-9,-4,-1,-3,-1,0,-3,8.33
1667,-3,-6,-3,-5,-3,-1,-1,-1,8.335
1668,2,8,5,3,2,1,0,0,8.34
1669,-1,2,3,0,-1,0,0,0,8.345
1670,-4,-5,-6,-5,-3,-3,1,-2,8.35
1671,0,9,-1,-1,-3,-2,0,0,8.355
1672,-2,-7,-3,-3,-1,-1,-2,-2,8.36
1673,0,-8,-3,-3,3,1,-1,2,8.365
1674,3,-3,-1,1,-2,0,-2,0,8.370000000000001
1675,1,9,3,0,-3,-1,2,9,8.375
1676,-4,0,-1,3,0,-1,-4,-6,8.38
1677,-1,-2,0,-4,1,-2,-1,4,8.385
1678,0,3,1,-3,-2,0,-3,-10,8.39
1679,-2,-10,-3,2,1,0,-4,-7,8.395
1680,1,6,2,1,1,2,3,9,8.4
1681,-4,-9,1,-1,-5,-1,-6,-11,8.405
1682,2,16,4,5,5,1,1,5,8.41
1683,-1,-18,-6,-3,0,-1,-1,1,8.415000000000001
1684,0,-7,1,-4,-4,-1,-2,-2,8.42
1685,0,2,-9,-2,1,-1,1,2,8.425
1686,-1,4,5,-2,-1,-1,1,-3,8.43
1687,-2,3,1,1,3,0,0,-3,8.435
1688,-2,2,-2,-2,-3,-1,0,0,8.44
1689,-3,-6,-1,-2,-3,0,-1,-3,8.445
1690,0,-2,-1,2,-2,0,-2,0,8.45
1691,1,4,3,-1,0,0,1,2,8.455
1692,-2,-25,-8,0,-1,-3,0,0,8.46
1693,1,24,-1,2,-1,-1,-4,0,8.465
1694,-6,-20,-8,-5,-4,-2,1,5,8.47
1695,-2,2,3,-3,-1,-1,-2,-12,8.475
1696,3,4,-1,-1,1,-1,-3,-6,8.48
1697,-2,7,2,3,1,1,1,1,8.485
1698,-1,-20,-5,3,2,0,-2,0,8.49
1699,-2,-9,-4,-5,-4,-1,-1,3,8.495000000000001
1700,0,6,3,0,-1,0,0,0,8.5
1701,1,2,-3,-1,-1,-1,1,-1,8.505
1702,2,19,4,-3,-2,-2,1,1,8.51
1703,-3,-17,-3,-1,-2,0,-2,0,8.515
1704,-5,-7,-6,5,5,1,0,-4,8.52
1705,-1,6,6,-2,-4,-3,3,10,8.525
1706,3,5,1,0,-2,-2,-3,-10,8.53
1707,0,9,0,0,0,-2,-5,-3,8.535
1708,-2,11,0,-5,-4,-2,-2,-2,8.540000000000001
1709,-3,-31,-10,-1,3,0,7,19,8.545
1710,3,14,3,-2,-1,-1,-6,-14,8.55
1711,-2,4,-1,0,-2,-3,-3,-3,8.555
1712,-1,-4,1,0,-2,0,-1,-3,8.56
1713,-1,-1,0,-2,-1,1,0,-4,8.565
1714,1,2,-1,-2,0,0,3,10,8.57
1715,-1,3,-2,0,0,0,2,0,8.575000000000001
1716,-1,3,-2,-1,0,-1,-2,-2,8.58
1717,-1,-13,0,-2,-1,0,0,-4,8.585
1718,-1,5,3,2,2,1,2,2,8.59
1719,0,0,-4,0,0,-2,-1,-2,8.595
1720,0,-12,-4,-3,-2,-1,0,5,8.6
1721,-1,11,3,-1,-2,-2,-4,-7,8.605
1722,-1,8,1,3,3,-2,-2,-1,8.61
1723,-5,-11,3,3,0,1,2,2,8.615
1724,0,-6,-5,-1,-2,0,1,1,8.620000000000001
1725,-2,1,-1,-4,-4,-3,-3,-7,8.625
1726,-2,-6,-5,2,2,1,0,0,8.63
1727,0,-2,-1,0,-1,0,0,4,8.635
1728,2,11,5,0,2,-1,-1,-1,8.64
1729,0,-3,-1,1,-4,-1,-3,-7,8.645
1730,-3,-4,-3,-4,-3,-2,-1,2,8.65
1731,5,4,2,0,-1,1,2,11,8.655
1732,2,2,-1,-3,-3,-1,-2,-7,8.66
1733,-3,-3,-4,-2,-2,-1,-5,-6,8.665000000000001
1734,-2,2,1,-3,-2,-1,-1,-2,8.67
1735,-1,-8,-7,2,3,0,0,-3,8.675
1736,2,9,4,-2,-3,1,0,3,8.68
1737,0,-16,-5,-3,-1,1,0,1,8.685
1738,-1,-10,-4,-2,0,-1,-3,-1,8.69
1739,0,8,4,-2,-3,-2,-2,-6,8.695
1740,-2,6,0,-1,0,-2,0,0,8.700000000000001
1741,0,5,2,3,1,0,1,-1,8.705
1742,-1,-1,-2,0,-1,0,-1,1,8.71
1743,-3,-7,-2,-4,-4,-1,-2,-2,8.715
1744,-4,-1,0,0,5,2,5,11,8.72
1745,0,14,2,1,2,0,-3,-13,8.725
1746,-4,-15,-3,1,-3,-2,-3,1,8.73
1747,0,4,-2,-2,-2,0,-1,-5,8.735
1748,-2,-8,-2,-2,-4,0,-2,-3,8.74
1749,4,-6,-5,1,2,-1,2,9,8.745000000000001
1750,-2,9,1,-1,-2,-3,0,-1,8.75
1751,-2,-3,0,0,-1,0,-5,-10,8.755
1752,-1,-3,-1,-1,1,-2,-1,-1,8.76
1753,0,5,-1,-3,-1,-1,-3,-2,8.765
1754,0,-2,0,2,-3,-2,-1,0,8.77
1755,0,4,-3,-3,4,-2,3,4,8.775
1756,-3,-11,-3,-2,-3,-1,-2,-4,8.78
1757,-5,0,5,-2,-1,1,0,0,8.785
1758,-1,-8,-2,-2,1,-1,0,-3,8.790000000000001
1759,1,8,-1,-1,-1,0,0,0,8.795
1760,3,3,-2,3,0,-3,0,-1,8.8
1761,0,-2,-3,1,-4,0,0,0,8.805
1762,-4,-8,0,-4,-6,0,-2,-2,8.81
1763,-3,0,-4,3,2,-3,1,2,8.815
1764,0,-5,-4,-3,-4,-1,-2,0,8.82
1765,-4,-2,1,0,-2,1,-3,-10,8.825000000000001
1766,1,3,2,2,0,1,-2,-1,8.83
1767,0,5,1,0,-1,-1,-2,1,8.835
1768,-2,0,2,-2,-3,-3,2,3,8.84
1769,1,-3,-3,-3,0,-1,-8,-8,8.845
1770,-3,-3,-1,0,1,1,-1,-5,8.85
1771,-1,-4,-1,-2,-2,-1,-2,0,8.855
1772,-2,2,1,1,0,0,1,3,8.86
1773,0,4,1,1,-2,1,2,4,8.865
1774,1,3,0,-1,0,-1,1,0,8.870000000000001
1775,-1,-5,-4,-3,-4,-2,-1,1,8.875
1776,-1,4,3,6,10,1,-2,-4,8.88
1777,1,-3,-5,-2,-3,-3,0,2,8.885
1778,1,4,-3,-3,-1,0,1,0,8.89
1779,-2,-1,3,1,-1,-1,1,-1,8.895
1780,-1,-4,-1,-3,-4,0,-2,-5,8.9
1781,-1,3,0,2,1,-2,-1,2,8.905
1782,4,-4,-5,-3,0,-2,1,3,8.91
1783,-5,6,6,0,-1,0,-1,-3,8.915000000000001
1784,0,-4,-4,-1,-2,-2,-1,-3,8.92
1785,0,11,4,-2,-3,-3,1,3,8.925
1786,-3,-1,-1,-1,0,1,-1,-4,8.93
1787,0,-11,-3,2,0,-1,1,-2,8.935
1788,-1,-3,-2,0,1,-1,1,4,8.94
1789,-2,-7,-3,-5,-2,0,-2,-9,8.945
1790,-3,3,-2,-3,-1,-1,-2,1,8.950000000000001
1791,-1,0,0,0,2,3,-2,-2,8.955
1792,-2,-5,-4,-2,-1,-1,0,0,8.96
1793,1,8,-1,0,-1,-2,2,3,8.965
1794,-1,1,1,-2,-1,-3,0,-1,8.97
1795,1,-4,-2,1,-2,-1,1,12,8.975
1796,5,0,0,-1,0,-2,-4,-10,8.98
1797,-4,7,4,4,3,1,0,-3,8.985
1798,-3,-25,-5,3,1,-1,-2,-4,8.99
1799,1,-1,-3,-3,-2,-1,0,0,8.995000000000001
1800,-1,4,-5,-5,-5,-2,0,2,9.0
1801,0,-10,0,-3,1,0,-1,2,9.005
1802,-1,4,1,2,2,-1,0,1,9.01
1803,1,0,-2,-2,-1,-1,5,11,9.015
1804,-3,-2,3,-1,-4,0,-5,-14,9.02
1805,-3,8,2,2,-1,-1,-2,0,9.025
1806,4,1,-3,-5,-3,-2,-1,2,9.03
1807,0,-6,-3,0,-3,2,-1,-4,9.035
1808,-2,4,-2,-1,0,0,-1,2,9.040000000000001
1809,0,-9,-4,-5,-3,-2,1,2,9.045
1810,0,12,4,0,-1,0,0,-1,9.05
1811,-1,-10,-1,0,1,-2,-1,-4,9.055
1812,-2,-3,-1,-2,-3,-1,-2,1,9.06
1813,0,-6,-3,1,0,0,0,1,9.065
1814,-1,-3,-1,0,-3,-1,0,1,9.07
1815,0,10,0,0,-2,-2,-3,-6,9.075000000000001
1816,-2,1,-2,1,-1,0,-2,2,9.08
1817,-1,-11,-1,0,0,-1,-1,-1,9.085
1818,-3,18,1,-2,0,0,0,-4,9.09
1819,-1,-4,-2,-5,-7,-3,-2,-4,9.095
1820,-3,-5,1,6,7,2,2,1,9.1
1821,-1,2,0,2,4,0,1,2,9.105
1822,1,-6,-2,0,-2,0,-1,-1,9.11
1823,0,3,-2,-4,-2,0,-1,-3,9.115
1824,0,0,-1,-7,-7,0,2,12,9.120000000000001
1825,-4,-2,0,0,-2,0,-3,-11,9.125
1826,1,-2,-3,-1,0,-1,-4,-2,9.13
1827,-3,-3,2,0,0,-2,-1,-4,9.135
1828,1,-2,2,3,3,2,-1,-2,9.14
1829,1,3,-4,-1,1,-1,4,4,9.145
1830,1,-1,-1,-1,-3,-1,-2,1,9.15
1831,-3,0,-1,-4,-1,-2,-1,-1,9.155
1832,0,-5,-1,-1,-4,0,-1,0,9.16
1833,1,-4,-2,-1,-1,-1,-1,1,9.165000000000001
1834,0,-4,-2,-1,-1,-1,0,-2,9.17
1835,3,6,2,0,1,0,-1,-2,9.175
1836,-3,5,2,0,-1,-2,2,6,9.18
1837,1,-10,-3,-1,-2,0,-3,-8,9.185
1838,-4,-3,-2,-4,-2,-2,-3,-7,9.19
1839,-1,-3,-2,-2,1,-1,-1,-3,9.195
1840,1,5,0,-2,1,0,1,-2,9.200000000000001
1841,2,2,2,2,-2,-2,-1,4,9.205
1842,0,-2,-1,2,0,0,1,3,9.21
1843,-4,2,0,-2,-2,0,0,-3,9.215
1844,0,2,1,0,0,-1,-3,-4,9.22
1845,-1,-12,-8,-3,4,2,4,6,9.225
1846,0,-5,-3,0,-2,-1,-4,-12,9.23
1847,-3,0,-2,3,1,-1,-2,1,9.235
1848,-2,0,-1,0,-4,-2,-1,-5,9.24
1849,-2,3,1,-6,-5,-3,-2,2,9.245000000000001
1850,-2,2,3,5,4,2,2,3,9.25
1851,-1,-8,-3,0,1,0,-2,-2,9.255
1852,-2,0,-4,-3,-3,-1,0,-3,9.26
1853,-3,4,0,-1,-1,0,1,-1,9.265
1854,2,1,0,-6,-5,-2,0,3,9.27
1855,-1,1,1,-1,0,-1,-2,0,9.275
1856,-4,-2,2,3,-1,-3,-1,-2,9.28
1857,-3,-4,-1,-4,-1,-2,1,0,9.285
1858,-1,-4,0,1,-1,0,-3,-11,9.290000000000001
1859,-1,-3,-5,0,1,-2,-1,2,9.295
1860,-1,-3,-2,-2,-1,-3,-2,-3,9.3
1861,0,7,3,0,-1,-1,0,2,9.305
1862,-2,-2,-3,-1,2,0,1,6,9.31
1863,-1,-1,-1,0,-1,1,1,-2,9.315
1864,2,10,2,2,-1,-1,-2,-1,9.32
1865,-3,-19,0,1,-5,-1,-2,-2,9.325000000000001
1866,-2,-4,1,-5,1,0,2,3,9.33
1867,2,0,-1,1,0,1,-1,0,9.335
1868,0,-4,-3,-2,1,-2,0,1,9.34
1869,0,7,-1,2,1,-1,-3,-4,9.345
1870,1,1,0,0,-1,-2,-1,-1,9.35
1871,1,1,1,-2,-2,0,0,1,9.355
1872,-1,-1,-3,-1,0,1,1,-2,9.36
1873,0,-3,-2,-1,-2,-1,0,-1,9.365
1874,-1,2,1,-1,-4,-2,-2,0,9.370000000000001
1875,0,3,-3,-4,-5,-3,0,-1,9.375
1876,0,-4,-3,1,2,1,-1,0,9.38
1877,0,-3,-5,-2,-2,-2,-2,2,9.385
1878,1,0,0,-2,-1,1,-2,1,9.39
1879,-1,-2,0,0,0,0,0,-2,9.395
1880,4,-6,-6,-3,-4,-2,1,-2,9.4
1881,-3,-4,3,-1,-2,-3,-2,-1,9.405
1882,-1,7,1,5,3,0,1,2,9.41
1883,-1,-5,-2,0,3,-1,-1,-3,9.415000000000001
1884,0,-1,-1,-4,1,2,0,1,9.42
1885,1,3,-4,-2,-1,1,-1,-1,9.425
1886,0,-3,-4,-3,-1,-3,-1,0,9.43
1887,0,6,2,0,-2,-2,4,12,9.435
1888,1,9,1,1,-1,-2,-4,-14,9.44
1889,-3,-23,-4,1,0,-2,-2,-3,9.445
1890,-2,-5,-4,-3,-1,1,-2,-3,9.450000000000001
1891,1,-2,-2,0,-1,-1,-3,-1,9.455
1892,0,2,2,-2,-2,0,0,4,9.46
1893,1,14,1,-2,-1,-1,1,0,9.465
1894,0,-4,0,-2,-2,-2,-1,-1,9.47
1895,-1,-5,-3,-3,-1,-1,0,-1,9.475
1896,-1,-9,-8,-3,-1,0,1,3,9.48
1897,7,24,5,-1,-2,-1,-4,-2,9.485
1898,-4,-5,0,4,6,1,0,0,9.49
1899,0,7,4,1,-1,1,-2,-3,9.495000000000001
1900,-1,-11,-2,-2,0,-1,0,-2,9.5
1901,-2,-8,-6,1,2,0,-1,1,9.505
1902,-2,4,1,-3,-2,0,0,-2,9.51
1903,0,-2,-2,1,1,1,-1,-2,9.515
1904,-1,3,5,0,-2,-1,1,1,9.52
1905,-1,8,0,-1,1,0,1,1,9.525
1906,-2,-12,-3,-3,-3,0,1,-1,9.53
1907,-3,-5,-2,1,2,0,0,-4,9.535
1908,-1,-4,-1,-2,-3,0,3,11,9.540000000000001
1909,0,5,3,0,0,-2,-4,-12,9.545
1910,-2,9,0,-1,-5,-3,-2,1,9.55
1911,0,-2,-3,-2,-1,-2,-3,-2,9.555
1912,-1,1,2,0,1,-1,-3,-1,9.56
1913,-1,1,-5,-2,-1,0,3,3,9.565
1914,1,-10,-6,1,1,-1,0,2,9.57
1915,-2,3,5,-3,-2,-1,-3,-1,9.575000000000001
1916,-2,3,-8,-1,1,-2,-1,-3,9.58
1917,-1,-3,-1,0,-2,1,1,0,9.585
1918,1,4,-1,0,-1,2,1,-1,9.59
1919,2,-8,-3,1,-1,-2,2,2,9.595
1920,-4,3,6,-2,-2,-1,-2,-5,9.6
1921,-1,-4,-1,-3,-1,-1,-3,-4,9.605
1922,-1,1,0,-1,-3,-2,-2,0,9.61
1923,1,-3,-3,-3,-2,-1,0,1,9.615
1924,-3,-3,0,4,4,-2,-4,-12,9.620000000000001
1925,-2,-3,-3,0,-1,-1,0,0,9.625
1926,0,3,3,0,-1,-1,0,-2,9.63
1927,-2,-1,-4,-1,3,-2,0,1,9.635
1928,1,1,-2,-3,-2,-1,1,1,9.64
1929,-1,-1,1,-1,-3,0,0,0,9.645
1930,1,-6,-1,-2,-3,-1,0,1,9.65
1931,-2,2,1,-2,-2,0,-1,0,9.655
1932,0,-4,-4,-2,-1,0,0,-2,9.66
1933,-1,1,2,4,2,-2,-1,0,9.665000000000001
1934,1,-1,-1,-5,-1,-1,1,-1,9.67
1935,-1,1,2,-1,-1,0,1,-1,9.675
1936,-2,1,2,2,0,-2,2,1,9.68
1937,0,-3,-3,-1,-4,-1,2,23,9.685
1938,-2,1,-3,0,1,-1,-8,-26,9.69
1939,-4,7,1,-1,-1,-1,-5,-5,9.695
1940,-1,-2,0,0,0,1,-3,-1,9.700000000000001
1941,-1,-13,-4,-3,0,0,2,-1,9.705
1942,-2,-3,-1,-2,-2,-1,2,10,9.71
1943,1,2,1,1,-2,-1,0,1,9.715
1944,-2,4,0,-1,-5,-1,-1,1,9.72
1945,3,6,0,-3,-2,-2,-2,-1,9.725
1946,-1,2,1,5,4,1,-1,3,9.73
1947,-2,-8,-4,1,3,-2,-1,-7,9.735
1948,-1,-8,-6,-3,-2,0,-1,1,9.74
1949,-1,-4,-1,-2,-2,-2,-1,-6,9.745000000000001
1950,3,0,0,-5,-4,-2,1,0,9.75
1951,-1,2,1,-1,-1,0,-1,-2,9.755
1952,2,5,2,1,0,0,0,7,9.76
1953,-3,-11,-5,-2,0,2,-4,-10,9.765
1954,1,11,-1,0,-3,-2,0,8,9.77
1955,-5,-4,-2,1,-2,-3,-4,-14,9.775
1956,1,-4,-2,-3,2,-1,-4,-2,9.78
1957,-1,1,-2,-1,-1,-1,0,-3,9.785
1958,-1,-2,1,2,-1,-1,2,4,9.790000000000001
1959,-3,0,1,-1,-2,1,1,7,9.795
1960,-3,0,0,2,-2,-2,2,-4,9.8
1961,-1,5,3,2,3,-1,-1,0,9.805
1962,1,-3,-2,-4,-4,-3,-2,0,9.81
1963,-1,0,-2,-1,0,-2,-1,3,9.815
1964,-1,-6,-3,-1,0,-1,1,5,9.82
1965,-1,4,2,1,1,1,-2,-7,9.825000000000001
1966,-2,-3,-3,-4,0,-2,-5,-6,9.83
1967,3,-4,-2,0,1,1,-1,-1,9.835
1968,-1,-1,0,-1,-1,0,-1,-1,9.84
1969,-4,7,1,0,-2,-1,2,6,9.845
1970,-3,-5,-1,1,-1,-1,-1,0,9.85
1971,-1,-1,-1,1,1,-1,-1,0,9.855
1972,-1,-2,-2,-2,-1,-2,-1,0,9.86
1973,-1,6,1,0,2,-1,-1,-3,9.865
1974,-2,7,-2,-5,-1,2,-2,-5,9.870000000000001
1975,-2,-22,-4,-1,-1,0,6,19,9.875
1976,-3,-4,2,-1,0,-2,-4,-24,9.88
1977,1,-2,-2,1,-4,-3,-2,-3,9.885
1978,0,1,-1,3,2,-3,-3,-5,9.89
1979,-1,13,2,-1,-1,0,1,2,9.895
1980,-1,1,2,0,-3,-1,2,6,9.9
1981,-2,-6,-9,-4,-1,-1,0,-2,9.905
1982,-1,-4,0,1,0,1,0,1,9.91
1983,-1,-6,-4,-3,-3,-2,-2,-3,9.915000000000001
1984,2,7,-3,-2,-1,-2,-2,3,9.92
1985,-2,-3,2,0,-2,-1,-1,-2,9.925
1986,-6,-3,0,2,-1,0,2,0,9.93
1987,0,3,2,-2,1,0,-2,-5,9.935
1988,-1,0,-2,6,3,1,-1,-1,9.94
1989,0,-4,-1,-2,1,1,0,5,9.945
1990,0,-3,-2,-1,-3,-4,-5,-2,9.950000000000001
1991,-1,6,-1,-4,-4,-2,-3,-7,9.955
1992,-2,-2,-1,-2,1,1,4,13,9.96
1993,0,1,0,-1,-4,0,-3,-11,9.965
1994,0,-3,0,1,1,-1,1,0,9.97
1995,4,8,-1,2,-3,-2,-2,-4,9.975
1996,-3,-16,-4,-4,0,2,0,1,9.98
1997,0,0,1,2,1,0,2,7,9.985
1998,1,1,-1,-4,-1,-1,1,-1,9.99
1999,-3,0,1,-1,-1,-1,-2,-3,9.995000000000001
2000,1,4,3,1,-1,0,-1,-1,10.0
2001,0,4,1,-4,1,0,-1,-1,10.005
2002,0,-21,-7,-1,-2,0,-1,-3,10.01
2003,1,0,-1,0,-3,1,-1,1,10.015
2004,1,-3,-3,-2,-2,-2,0,-3,10.02
2005,-2,3,2,1,0,-2,0,-2,10.025
2006,2,8,1,1,-3,-1,4,12,10.03
2007,-1,-11,-4,0,-1,-1,3,3,10.035
2008,-1,-3,-1,-4,0,0,-5,-15,10.040000000000001
2009,0,12,1,-2,-2,-3,-6,-3,10.045
2010,3,3,-1,1,1,-1,-3,-1,10.05
2011,-1,1,-2,-1,-2,-1,0,1,10.055
2012,0,-6,0,-2,-5,-2,1,4,10.06
2013,2,-3,1,6,0,0,2,3,10.065
2014,0,11,-1,-3,-1,0,-1,-2,10.07
2015,-4,-14,-3,-4,-1,-1,-2,-3,10.075000000000001
2016,1,5,0,0,1,-1,-3,-2,10.08
2017,0,-8,-4,-5,-4,-2,-1,0,10.085
2018,-1,1,2,3,-3,-3,0,-1,10.09
2019,-2,5,3,2,3,2,0,-2,10.095
2020,0,2,-2,-4,-3,-1,4,10,10.1
2021,-2,-7,-1,-2,-1,2,-4,-10,10.105
2022,-2,-4,-2,-1,0,0,-4,-6,10.11
2023,-1,1,1,-1,0,1,-2,-3,10.115
2024,-1,1,1,0,-3,-1,-1,-1,10.120000000000001
2025,1,1,1,-2,-1,-3,3,14,10.125
2026,-1,-4,-3,2,4,0,-2,-11,10.13
2027,-1,-1,-3,-3,-4,-2,-3,-7,10.135
2028,-2,-2,0,1,2,0,-1,0,10.14
2029,-2,1,1,3,-2,-1,3,1,10.145
2030,3,-1,-6,-10,-1,-1,0,4,10.15
2031,-1,2,0,-1,-2,-1,-1,1,10.155
2032,-1,-1,-1,1,1,0,-1,-4,10.16
2033,-3,-2,-2,-1,-1,0,-3,-2,10.165000000000001
2034,-1,-1,0,0,-1,-1,0,1,10.17
2035,-1,4,0,-1,0,-2,0,0,10.175
2036,-1,-3,-2,-3,-1,-2,-1,-1,10.18
2037,-1,-2,0,0,-3,0,-1,-4,10.185
2038,-2,-1,0,-1,-3,1,2,1,10.19
2039,-1,0,-1,1,3,1,-1,-2,10.195
2040,-3,0,-1,-1,-3,-1,-1,-2,10.200000000000001
2041,0,-3,-2,-1,-1,-2,-3,1,10.205
2042,-4,1,2,1,-1,-1,0,-1,10.21
2043,-1,-3,-5,-1,0,-2,-2,0,10.215
2044,0,0,0,-2,1,0,2,6,10.22
2045,0,-2,-2,-1,-2,-1,-1,-7,10.225
2046,-3,-4,-2,1,0,1,-3,-4,10.23
2047,0,-1,-1,-3,-6,-2,-3,-4,10.235
2048,-1,1,0,1,1,0,-2,-3,10.24
2049,-3,-1,-4,1,2,-1,-1,1,10.245000000000001
2050,-1,-2,0,-4,-2,1,0,3,10.25
2051,0,-2,-2,3,5,1,1,1,10.255
2052,0,1,-1,-2,-4,-1,-2,1,10.26
2053,-2,-3,-2,-2,1,-1,0,1,10.265
2054,0,1,-1,-6,-9,-5,3,7,10.27
2055,1,-1,-1,7,6,1,-2,-11,10.275
2056,-1,-1,2,0,-1,0,0,8,10.28
2057,0,-2,-3,2,0,-1,-2,-13,10.285
2058,-6,-4,-3,2,4,1,-2,-6,10.290000000000001
2059,-1,1,3,-6,-9,-2,0,4,10.295
2060,-1,-2,-2,2,2,0,1,-6,10.3
2061,0,-1,1,0,3,0,0,6,10.305
2062,3,6,2,-1,-2,-3,0,13,10.31
2063,-2,-8,-6,-4,-5,-2,-4,-10,10.315
2064,-2,-3,-1,-5,0,-2,-4,-5,10.32
2065,-2,-1,0,-4,-7,0,1,3,10.325000000000001
2066,1,2,-1,3,2,1,0,-4,10.33
2067,-1,1,0,2,4,2,2,6,10.335
2068,1,-3,-4,-2,-1,-2,2,6,10.34
2069,3,1,-1,0,0,0,3,6,10.345
2070,0,-5,-3,-2,-1,-1,-4,-11,10.35
2071,-1,3,1,-3,-1,-1,-9,-9,10.355
2072,0,7,2,3,0,0,-6,-10,10.36
2073,1,-6,-3,0,0,0,1,3,10.365
2074,-7,-10,1,2,1,3,3,3,10.370000000000001
2075,1,7,1,0,-2,-1,5,5,10.375
2076,-2,-6,-1,-3,-3,-2,1,-2,10.38
2077,1,8,4,-1,0,0,-1,1,10.385
2078,0,2,-1,2,1,0,0,-3,10.39
2079,-1,-8,-3,-5,-5,-2,1,3,10.395
2080,1,1,2,2,-1,-1,5,14,10.4
2081,-4,8,-1,-1,-1,-4,-4,-17,10.405
2082,-5,-5,0,-3,-3,-4,-6,-6,10.41
2083,-8,-3,2,1,3,-2,-3,-3,10.415000000000001
2084,-1,-4,-6,0,-5,-2,0,2,10.42
2085,2,6,3,-5,0,3,9,21,10.425
2086,-3,2,-2,4,4,2,-5,-22,10.43
2087,0,-14,-7,1,2,1,1,3,10.435
2088,1,7,-1,-1,-1,-2,0,1,10.44
2089,-1,-15,-1,0,3,1,3,7,10.445
2090,0,12,0,-5,-4,-1,-1,-8,10.450000000000001
2091,-1,-1,2,-1,-2,0,-3,0,10.455
2092,1,-1,-2,-6,-4,-1,-4,-5,10.46
2093,0,3,0,1,-4,-3,-2,1,10.465
2094,1,2,-1,0,2,1,2,10,10.47
2095,2,3,-4,-5,-2,-1,1,-1,10.475
2096,-1,0,1,0,2,1,-2,-4,10.48
2097,-1,0,-1,-2,-1,-1,-3,-3,10.485
2098,1,-3,-1,-2,-1,-1,3,13,10.49
2099,0,-2,-1,-1,-7,-3,-4,-11,10.495000000000001
2100,-3,-4,-1,-2,2,1,8,12,10.5
2101,-4,-6,-4,1,0,0,-5,-18,10.505
2102,0,1,0,5,-6,-3,-7,-6,10.51
2103,9,22,2,-4,0,0,-1,7,10.515
2104,-1,-18,-5,-9,-4,-1,-3,-5,10.52
2105,-4,6,-1,-2,-2,0,9,11,10.525
2106,1,-26,-7,1,-11,-2,1,1,10.53
2107,-7,-3,1,-9,11,1,-1,3,10.535
2108,2,16,3,17,10,0,-10,-17,10.540000000000001
2109,1,-6,-4,-2,-2,-3,-6,-1,10.545
2110,1,12,3,2,-5,0,5,5,10.55
2111,2,-8,-6,-4,-6,0,6,11,10.555
2112,-7,-6,-4,-12,-3,-3,-10,-23,10.56
2113,0,-2,-3,1,-1,-2,-9,-9,10.565
2114,1,8,-1,5,1,-2,-2,0,10.57
2115,0,0,2,1,-6,-4,3,6,10.575000000000001
2116,1,1,-1,-1,5,2,3,8,10.58
2117,0,5,-1,-1,-1,0,1,-2,10.585
2118,-5,-12,-1,1,-3,-2,0,-1,10.59
2119,-5,-23,-6,-6,0,0,1,2,10.595
2120,1,-1,4,5,-3,-1,1,1,10.6
2121,-4,-8,-3,-4,3,-1,-3,-5,10.605
2122,0,1,-2,-2,7,2,4,15,10.61
2123,3,12,4,12,-4,0,1,-11,10.615
2124,-7,-8,0,-18,-10,-2,-5,-10,10.620000000000001
2125,11,1,-3,-5,-8,-3,0,12,10.625
2126,2,-1,1,0,-7,-4,-8,-14,10.63
2127,-16,8,-5,-6,13,1,-9,-18,10.635
2128,14,1,-3,7,8,5,6,8,10.64
2129,9,20,4,-2,-11,-2,6,1,10.645
2130,-18,1,2,-4,-5,-4,8,18,10.65
2131,7,-35,-10,21,27,9,2,1,10.655
2132,-5,-1,-1,-8,-8,-2,4,6,10.66
2133,-14,-19,-5,-20,-11,-2,8,19,10.665000000000001
2134,3,12,0,1,-10,-5,-37,-60,10.67
2135,-4,7,4,-22,-7,-5,-19,-12,10.675
2136,8,32,2,14,7,-1,-1,3,10.68
2137,-6,-19,-3,16,2,1,9,11,10.685
2138,1,8,3,-1,2,3,17,19,10.69
2139,11,12,-2,-7,-10,-3,-3,-9,10.695
2140,-4,-13,6,-3,-3,0,10,14,10.700000000000001
2141,14,-8,3,-15,-19,-5,8,8,10.705
2142,-1,-27,-3,5,-10,-1,7,-3,10.71
2143,-6,12,-3,-10,38,11,-21,-39,10.715
2144,-1,-5,-11,10,10,-4,-18,-1,10.72
2145,15,34,2,10,11,-1,-8,-4,10.725
2146,-8,-5,7,-2,-1,-2,9,22,10.73
2147,-12,4,-3,-10,-34,-7,17,16,10.735
2148,-7,1,3,-11,-18,-5,-4,-15,10.74
2149,14,-19,5,4,-6,-4,-3,-2,10.745000000000001
2150,-25,-35,-22,13,39,14,5,-6,10.75
2151,-7,38,1,20,8,0,-1,7,10.755
2152,8,33,-4,-6,23,6,-2,-1,10.76
2153,-7,-49,-6,13,-13,-7,5,16,10.765
2154,24,26,-4,-48,-16,2,25,29,10.77
2155,6,19,33,20,-30,-4,-4,-12,10.775
2156,-18,-35,-8,-9,-16,-12,-28,-23,10.78
2157,9,17,-13,-2,40,5,-24,-35,10.785
2158,-27,-100,-21,55,27,4,15,27,10.790000000000001
2159,-1,-13,-6,-5,-4,-4,14,5,10.795
2160,31,15,22,-14,-43,-2,28,45,10.8
2161,4,12,7,27,26,13,-16,-40,10.805
2162,12,2,-5,-42,-5,-10,-39,-22,10.81
2163,3,-41,-17,-4,-8,-4,-5,5,10.815
2164,-49,-36,-13,-18,-27,-14,13,2,10.82
2165,-43,-36,4,-12,-50,-1,40,25,10.825000000000001
2166,-7,88,12,72,79,15,-11,-35,10.83
2167,24,-24,10,-46,-22,10,16,24,10.835
2168,24,56,13,-76,-41,-8,-7,2,10.84
2169,17,-54,-16,11,9,-9,-5,25,10.845
2170,42,-7,-25,30,-25,-7,-6,-12,10.85
2171,0,-24,-38,5,32,-1,4,0,10.855
2172,-5,62,62,127,80,13,-32,-57,10.86
2173,-54,-60,-67,-58,-52,-20,-24,-20,10.865
2174,-25,-28,7,-75,-45,-5,44,59,10.870000000000001
2175,8,-89,27,35,-13,1,15,7,10.875
2176,58,-46,-29,-69,9,17,20,32,10.88
2177,-5,127,28,-2,7,2,-17,-33,10.885
2178,-6,-37,-3,-49,-15,-12,-39,-38,10.89
2179,-55,-31,19,51,-31,-5,44,59,10.895
2180,16,41,23,35,4,-5,-54,-78,10.9
2181,72,-21,-46,-65,1,-8,-20,-1,10.905
2182,-25,53,15,8,13,4,10,5,10.91
2183,-42,-21,-54,-56,11,10,71,73,10.915000000000001
2184,-19,43,13,45,-45,0,5,-20,10.92
2185,36,-48,9,-44,27,-3,-39,-38,10.925
2186,-43,21,36,73,-38,-4,-7,2,10.93
2187,-55,27,-7,-54,29,-13,-57,-47,10.935
2188,29,-54,-60,-20,-21,-4,20,30,10.94
2189,17,101,66,25,-46,-10,18,18,10.945
2190,-3,-48,-39,7,9,6,21,-7,10.950000000000001
2191,34,26,75,27,-18,5,-12,8,10.955
2192,7,65,65,-40,82,4,-31,-20,10.96
2193,-61,41,-18,71,5,-3,5,-11,10.965
2194,49,47,-51,-48,-47,-1,43,15,10.97
2195,-6,19,-36,-61,-42,2,57,57,10.975
2196,35,14,9,66,2,-4,-45,-43,10.98
2197,-8,55,83,-23,16,-12,-81,-35,10.985
2198,-18,-34,20,8,50,1,-21,-7,10.99
2199,27,23,-87,-24,-32,-2,8,-12,10.995000000000001
2200,-14,27,-25,-64,-70,13,101,74,11.0
2201,-16,-88,-8,120,51,15,3,3,11.005
2202,-1,-9,15,89,30,-16,-46,-31,11.01
2203,40,82,47,13,-42,-15,26,33,11.015
2204,-27,-120,-21,24,57,20,-16,-18,11.02
2205,-7,113,15,-24,-15,7,14,-22,11.025
2206,-31,76,16,-48,-11,3,-24,-15,11.03
2207,29,-94,-18,-9,-18,-8,-31,-24,11.035
2208,-19,30,-27,-53,-9,-2,49,52,11.040000000000001
2209,31,-128,-24,-14,-64,-13,23,35,11.045
2210,11,101,23,-33,45,24,27,10,11.05
2211,-51,-44,-21,124,101,19,-54,-64,11.055
2212,18,75,66,-3,-16,-16,-16,7,11.06
2213,6,15,-70,-99,-64,-2,24,7,11.065
2214,33,-83,87,61,-42,-21,-12,3,11.07
2215,0,-59,-10,-87,74,12,-35,-34,11.075000000000001
2216,-68,-30,-10,-48,11,-5,-28,-34,11.08
2217,11,43,-48,38,-12,-7,13,15,11.085
2218,-20,-34,-42,-37,-24,16,73,64,11.09
2219,63,66,29,40,1,-5,-25,-36,11.095
2220,3,10,31,44,7,-4,-27,-3,11.1
2221,-45,47,-7,-39,-5,2,20,19,11.105
2222,-4,-33,-26,13,-1,7,4,-21,11.11
2223,5,77,28,72,33,-13,-56,-35,11.115
2224,0,9,-41,20,-9,-22,-15,11,11.120000000000001
2225,38,53,61,22,-17,22,50,33,11.125
2226,27,35,-27,-106,81,17,-18,-13,11.13
2227,-10,-10,48,-7,-54,-15,-14,-5,11.135
2228,-3,77,-30,-29,-32,0,34,20,11.14
2229,-3,-117,-54,-14,18,-3,-15,-21,11.145
2230,-30,-39,51,65,13,1,3,5,11.15
2231,0,64,-19,-105,-37,-4,-12,-27,11.155
2232,16,-19,-9,-12,22,0,-43,-17,11.16
2233,14,-32,21,-11,-18,-14,10,39,11.165000000000001
2234,16,80,34,0,4,2,9,9,11.17
2235,-7,-61,-54,48,-1,0,3,0,11.175
2236,9,-105,-26,1,-31,8,92,71,11.18
2237,-10,-35,-5,4,36,17,-27,-70,11.185
2238,4,-9,31,12,-35,-21,-61,-33,11.19
2239,2,65,-22,-33,-35,-17,7,21,11.195
2240,3,-32,17,38,8,-1,-12,-6,11.200000000000001
2241,-30,16,-21,-78,70,18,21,30,11.205
2242,15,63,40,29,30,10,25,2,11.21
2243,14,19,-14,-5,-12,10,2,4,11.215
2244,-24,-44,-17,64,17,-3,-5,-13,11.22
2245,10,-6,34,53,0,-6,-17,-6,11.225
2246,34,-46,-13,-46,-80,-10,36,42,11.23
2247,-13,53,9,22,48,14,-10,-26,11.235
2248,-16,-46,-73,-32,-16,-12,-23,-21,11.24
2249,0,106,9,46,20,12,47,20,11.245000000000001
2250,-20,-58,-64,-29,-23,-7,-3,9,11.25
2251,-16,71,54,-9,-69,-33,-48,-18,11.255
2252,-15,-64,7,39,84,10,-2,17,11.26
2253,-9,4,-14,3,-14,-3,5,6,11.265
2254,18,-24,-33,8,42,11,-18,-47,11.27
2255,0,-21,22,37,27,3,4,-5,11.275
2256,-10,62,11,-24,-46,-9,-15,-19,11.28
2257,-19,13,46,-7,18,10,25,28,11.285
2258,27,22,-20,-59,-51,-7,18,26,11.290000000000001
2259,-28,8,7,27,65,8,-4,6,11.295
2260,13,-75,28,9,-2,-5,-14,-21,11.3
2261,17,-15,-5,-25,-81,-22,-3,5,11.305
2262,-3,20,-5,9,2,9,31,20,11.31
2263,-6,-54,10,-36,-17,8,16,-4,11.315
2264,41,2,46,7,-3,-2,-16,-27,11.32
2265,-38,-28,-46,78,2,-5,-5,6,11.325000000000001
2266,21,94,-12,-89,-19,-19,-59,-44,11.33
2267,-25,-36,-44,-22,37,-5,-20,8,11.335
2268,18,21,45,14,-15,12,108,107,11.34
2269,-32,-29,-1,-115,-60,-8,-62,-96,11.345
2270,46,-5,-3,53,-9,-14,-21,4,11.35
2271,-33,-32,-19,-47,-63,-10,-7,8,11.355
2272,-17,5,-14,-12,-24,-11,-33,-35,11.36
2273,7,27,-3,-17,11,12,26,29,11.365
2274,-10,44,37,48,-19,-15,5,-2,11.370000000000001
2275,31,-31,-14,-61,-43,-3,23,11,11.375
2276,-11,-27,-15,73,71,24,13,0,11.38
2277,-15,-66,-11,10,22,-5,-7,-2,11.385
2278,36,5,11,69,-2,7,39,41,11.39
2279,-12,17,-16,-61,-10,4,6,-15,11.395
2280,1,4,-30,45,-8,-19,-88,-58,11.4
2281,-31,10,53,38,59,-4,-32,-19,11.405
2282,-11,-35,-59,-23,-7,11,39,29,11.41
2283,-10,-53,30,-37,-45,-4,23,13,11.415000000000001
2284,15,77,8,23,43,6,-14,-27,11.42
2285,-2,3,-61,3,51,-1,-47,-26,11.425
2286,-16,4,20,5,2,-8,-19,5,11.43
2287,39,4,41,37,-11,10,50,21,11.435
2288,-52,-53,-30,-94,-67,-12,-6,-15,11.44
2289,22,-38,32,77,26,-1,-6,4,11.445
2290,-12,11,-52,-32,29,13,20,10,11.450000000000001
2291,23,21,13,65,12,16,43,37,11.455
2292,6,33,-5,-37,-4,-2,-24,-25,11.46
2293,1,13,28,-15,19,1,-9,-6,11.465
2294,-27,-9,-6,-18,-37,-12,-6,-10,11.47
2295,24,43,43,46,15,12,50,38,11.475
2296,-41,-3,-54,-63,-38,-12,-44,-37,11.48
2297,25,34,2,39,19,3,17,25,11.485
2298,-22,-108,25,31,-4,2,-2,-17,11.49
2299,11,40,-39,-5,33,-11,-55,-25,11.495000000000001
2300,8,12,32,33,-37,-12,22,38,11.5
2301,60,-24,-29,-71,-21,2,13,19,11.505
2302,-42,43,23,4,11,-3,-29,-23,11.51
2303,-45,-53,-6,24,-14,-4,13,-17,11.515
2304,41,-18,-7,38,13,12,37,24,11.52
2305,-64,40,15,-7,13,8,-35,-48,11.525
2306,44,69,20,-7,-14,2,22,17,11.53
2307,20,-99,-23,-21,-16,5,5,6,11.535
2308,-12,32,1,-56,-29,-23,-25,-12,11.540000000000001
2309,33,-6,6,32,35,6,2,15,11.545
2310,-21,-26,-39,-22,13,-4,-21,-14,11.55
2311,-7,47,18,25,-4,-4,-20,-12,11.555
2312,7,-18,5,-17,-8,2,37,16,11.56
2313,-26,-51,12,-10,-21,9,51,29,11.565
2314,-24,42,-29,-20,-6,-8,-50,-58,11.57
2315,11,-55,-20,40,28,-6,-26,-7,11.575000000000001
2316,5,-1,14,-32,3,4,20,23,11.58
2317,3,22,0,-8,-25,-17,-13,-4,11.585
2318,-8,-4,-11,-6,-1,6,23,15,11.59
2319,27,23,12,0,-2,3,9,-4,11.595
2320,-13,28,-11,3,14,1,-16,-12,11.6
2321,-14,-10,7,-22,-18,0,11,9,11.605
2322,12,-38,9,28,6,-3,-8,4,11.61
2323,-9,49,-2,9,7,-1,-2,-9,11.615
2324,12,8,7,-5,12,9,36,25,11.620000000000001
2325,8,-9,1,-8,-30,-4,-29,-33,11.625
2326,-43,-27,2,10,10,0,-12,-11,11.63
2327,-12,-2,-6,-14,0,-11,-41,-17,11.635
2328,-8,9,3,11,6,2,1,2,11.64
2329,21,37,12,15,-10,1,24,21,11.645
2330,13,-13,-20,-24,2,1,-1,4,11.65
2331,-6,18,0,-5,1,2,17,2,11.655
2332,-18,-6,5,8,-2,4,17,14,11.66
2333,12,8,-2,0,-2,-1,-12,-21,11.665000000000001
2334,13,-3,5,-4,-1,-5,-12,-5,11.67
2335,-6,-12,-10,1,1,-2,-6,-4,11.675
2336,3,-11,-5,-9,-2,1,-1,1,11.68
2337,-4,13,0,3,2,0,14,9,11.685
2338,-1,9,12,1,1,-1,-12,-6,11.69
2339,7,8,-1,0,1,-2,8,11,11.695
2340,-1,0,10,2,8,2,-1,-7,11.700000000000001
2341,-8,2,-4,2,-6,0,-4,-3,11.705
2342,8,-26,15,-8,-6,-4,1,1,11.71
2343,0,-34,2,1,4,0,-3,-1,11.715
2344,-11,-23,-14,-9,-2,2,1,-6,11.72
2345,3,13,-3,1,-3,-2,-3,2,11.725
2346,16,18,5,0,-1,-2,-4,10,11.73
2347,-10,32,11,0,5,2,-2,-7,11.735
2348,-13,-5,-6,-1,-1,0,-2,-17,11.74
2349,6,0,-9,0,-3,-2,1,15,11.745000000000001
2350,8,1,2,-5,2,1,-6,-45,11.75
2351,-10,17,3,1,0,-2,-1,27,11.755
2352,3,4,-5,1,-2,0,-1,17,11.76
2353,0,-3,-8,-3,-1,0,6,6,11.765
2354,5,-10,-1,0,0,-2,-3,12,11.77
2355,4,-1,-6,1,1,-1,-2,-8,11.775
2356,-3,-9,4,-3,0,1,-3,-6,11.78
2357,-4,-10,1,1,0,0,0,4,11.785
2358,-10,-10,0,0,1,0,-3,-7,11.790000000000001
2359,3,-10,-3,-2,0,-2,-3,-9,11.795
2360,2,-4,2,1,-1,0,0,6,11.8
2361,-4,-3,6,0,-2,-1,3,-7,11.805
2362,-5,-13,1,-5,-6,0,-3,-3,11.81
2363,2,-1,-2,2,0,0,1,5,11.815
2364,2,-1,0,-4,-2,-1,0,0,11.82
2365,-6,-2,-3,0,-3,-2,-1,-7,11.825000000000001
2366,-1,-1,-1,-2,-1,-2,-2,3,11.83
2367,-1,-7,-4,0,0,0,-2,4,11.835
2368,2,-1,15,3,2,0,-1,-8,11.84
2369,0,-6,8,-1,-2,-1,-3,-6,11.845
2370,-1,-4,7,-2,-1,-1,-3,5,11.85
2371,3,11,6,0,1,1,3,-2,11.855
2372,1,-1,-7,-1,-2,-2,-1,-5,11.86
2373,-1,-3,-10,-1,-3,-3,0,-1,11.865
2374,0,1,-7,2,0,0,-2,3,11.870000000000001
2375,1,2,-9,-2,-2,-1,-1,-2,11.875
2376,-1,0,-5,-1,-3,0,0,-1,11.88
2377,-3,1,-5,0,2,0,-1,1,11.885
2378,-1,-2,-5,-1,0,0,-1,0,11.89
2379,-1,-3,-3,-3,-1,-2,0,-3,11.895
2380,-1,1,-1,-2,-1,0,-1,2,11.9
2381,1,3,6,0,-1,-2,-2,-2,11.905
2382,1,-3,2,-1,0,-2,-1,0,11.91
2383,0,0,4,0,0,-2,-1,0,11.915000000000001
2384,0,5,5,0,0,0,0,-1,11.92
2385,0,0,-4,-1,-2,-3,-3,-1,11.925
2386,-3,-2,-6,-1,0,-1,-1,-1,11.93
2387,2,1,-4,0,0,-1,1,2,11.935
2388,0,1,1,0,-1,-1,-2,0,11.94
2389,-1,-2,1,-1,-1,-1,0,-1,11.945
2390,0,-3,-2,-2,-2,-1,-1,1,11.950000000000001
2391,0,1,-2,-1,-1,-1,-1,-1,11.955
2392,-1,0,-8,-1,0,-1,-1,0,11.96
2393,0,0,-5,0,0,0,0,-1,11.965
2394,-1,0,-1,-1,-3,0,-1,0,11.97
2395,2,-1,-4,-1,-1,-1,0,0,11.975
2396,-4,0,2,2,-1,-2,-1,-2,11.98
2397,-4,0,-3,0,1,1,1,-1,11.985
2398,-1,-2,-5,0,-2,-1,-2,0,11.99
2399,-3,-2,0,-2,-1,0,-1,-2,11.995000000000001
2400,-1,-1,-1,0,2,-1,-2,1,12.0
2401,2,-1,-3,-1,-1,0,-2,0,12.005
2402,-1,-2,-2,0,0,0,-1,0,12.01
2403,-2,0,7,-1,0,-2,0,-1,12.015
2404,0,0,0,-1,-1,0,1,0,12.02
2405,-2,0,0,-1,-1,0,-2,-3,12.025
2406,0,2,-4,-1,-1,-1,0,-2,12.030000000000001
2407,-1,4,0,1,-1,-1,-1,0,12.035
2408,-2,-10,-4,-2,-2,0,-1,-3,12.040000000000001
2409,1,1,-2,-2,-1,-3,0,1,12.045
2410,0,-2,0,0,-1,0,-1,-1,12.05
2411,0,2,-1,-1,-1,0,0,0,12.055
2412,0,3,-2,-2,-2,-1,0,0,12.06
2413,-3,-5,-2,-1,-2,-1,0,-2,12.065
2414,-1,0,1,-2,-1,-3,-2,-1,12.07
2415,-1,-1,-1,-1,-1,-2,-1,-1,12.075000000000001
2416,0,3,1,-2,-1,-1,0,-1,12.08
2417,0,0,-1,0,-2,-1,-1,-2,12.085
2418,-2,1,0,-1,1,-2,1,-1,12.09
2419,-1,-4,-3,2,0,0,-1,-1,12.095
2420,0,-1,-1,0,1,-1,1,0,12.1
2421,0,0,-1,-1,0,0,-1,1,12.105
2422,0,-1,2,-1,0,-1,-2,-2,12.11
2423,0,-1,-1,-4,-4,0,-2,1,12.115
2424,1,2,0,2,-1,0,-1,-2,12.120000000000001
2425,2,0,0,1,-2,0,1,0,12.125
2426,0,-1,-1,-1,-2,1,2,9,12.13
2427,-1,-1,0,1,0,-1,-3,-10,12.135
2428,-6,2,2,2,-1,-1,-4,-8,12.14
2429,-1,0,0,-2,1,-1,-2,-1,12.145
2430,-1,-1,-2,-4,-3,-2,-1,-1,12.15
2431,0,1,0,0,1,0,1,5,12.155000000000001
2432,2,0,1,1,1,1,8,13,12.16
2433,-1,-2,-4,-1,-3,-3,-3,-9,12.165000000000001
2434,-2,-2,0,-4,-5,-2,-4,-3,12.17
2435,1,1,-1,0,3,0,-1,1,12.175
2436,1,1,-1,0,-3,-1,-3,-3,12.18
2437,-2,-3,0,-2,-1,0,2,6,12.185
2438,1,0,-1,1,1,0,-1,0,12.19
2439,0,-2,-1,-2,-3,-1,0,-2,12.195
2440,0,0,-2,-3,0,-1,-2,-1,12.200000000000001
2441,0,-1,-1,0,-2,1,2,1,12.205
2442,-2,-1,0,-2,-1,0,1,-6,12.21
2443,-3,0,1,-1,-2,1,-2,-1,12.215
2444,-1,0,-1,-1,-1,-4,-4,0,12.22
2445,-2,1,0,-1,0,-3,-3,-3,12.225
2446,-1,-4,-3,4,1,0,5,13,12.23
2447,0,-5,-2,0,-3,0,-2,-11,12.235
2448,-2,1,-1,-3,-3,-2,-6,-10,12.24
2449,0,-1,-1,3,5,0,-2,-4,12.245000000000001
2450,0,0,0,-2,-1,-1,-1,-3,12.25
2451,1,0,-1,-2,-3,-1,2,9,12.255
2452,2,-3,-1,-1,0,1,-1,3,12.26
2453,-9,0,4,3,2,-1,0,-2,12.265
2454,-2,0,-1,0,1,-1,1,-1,12.27
2455,-3,-2,1,0,-2,-2,0,3,12.275
2456,1,-2,0,-1,-2,0,2,1,12.280000000000001
2457,2,0,-2,-5,-2,-2,-5,-5,12.285
2458,-1,-1,0,-2,-1,-1,-4,-5,12.290000000000001
2459,0,0,-2,1,-2,-1,-3,-3,12.295
2460,-1,-1,-1,1,-1,0,0,2,12.3
2461,1,-3,-1,-1,0,1,1,5,12.305
2462,-2,-1,-2,2,2,0,-1,-6,12.31
2463,2,2,-2,-1,-1,-2,-1,-1,12.315
2464,-1,-4,-2,-4,1,-1,3,8,12.32
2465,3,0,-3,-2,-3,0,0,-3,12.325000000000001
2466,-2,-3,-1,-1,0,-1,-5,-9,12.33
2467,-1,-1,2,1,0,-1,1,1,12.335
2468,0,-2,-1,-1,0,0,0,-4,12.34
2469,-2,-2,-1,-3,-3,-1,3,3,12.345
2470,1,0,-2,-1,2,0,0,5,12.35
2471,-1,-1,0,-2,-1,0,-1,-2,12.355
2472,-2,0,0,1,1,0,-1,-3,12.36
2473,-1,-5,-3,1,5,1,0,1,12.365
2474,0,0,0,0,0,0,0,0,12.370000000000001
2475,-1,-3,-2,-3,0,-3,-2,-1,12.375
2476,1,1,-1,-1,-2,0,-2,-2,12.38
2477,1,-1,-2,-1,-3,-1,-3,0,12.385
2478,-1,-2,-1,-3,0,0,0,0,12.39
2479,-4,0,0,1,1,-1,0,1,12.395
2480,-2,-2,0,1,-2,-2,-3,-2,12.4
2481,0,0,-3,-2,-4,0,0,-1,12.405000000000001
2482,1,-2,-2,-1,-1,-1,-1,-1,12.41
2483,2,-3,0,-1,0,0,0,-1,12.415000000000001
2484,1,0,2,1,1,-1,-1,1,12.42
2485,-1,0,2,-3,-3,-1,-1,-1,12.425
2486,-1,-1,-1,-2,-4,1,-2,-4,12.43
2487,1,-1,-3,-2,-1,-2,-2,-2,12.435
2488,1,-1,-3,0,0,1,-1,-3,12.44
2489,-1,0,-1,-1,-3,-3,0,1,12.445
2490,-1,-1,-2,3,1,-1,0,2,12.450000000000001
2491,-2,1,-1,0,-1,-1,0,-1,12.455
2492,-1,-4,-2,-4,-2,-1,0,0,12.46
2493,1,0,-1,-2,-1,1,-1,-2,12.465
2494,-2,0,-1,-3,-4,-2,-3,-1,12.47
2495,0,0,0,4,-1,-1,-1,0,12.475
2496,-3,-2,0,-4,0,0,1,-2,12.48
2497,-1,-2,-2,0,0,-1,0,-2,12.485
2498,-3,-2,2,0,0,-2,1,0,12.49
2499,0,-2,-1,-4,1,-1,-1,0,12.495000000000001
2500,-3,1,-1,1,-1,-1,-1,-2,12.5
2501,-1,1,1,3,0,-1,0,0,12.505
2502,2,-3,0,-3,-3,-1,-1,-2,12.51
2503,-2,2,-1,-3,-3,0,0,-2,12.515
2504,-2,-2,-2,0,-2,-1,-2,-2,12.52
2505,0,0,-4,0,0,-1,-1,0,12.525
2506,0,1,0,1,-2,-2,-1,0,12.530000000000001
2507,0,-1,-1,-3,1,0,-2,0,12.535
2508,0,0,0,1,0,1,-2,-2,12.540000000000001
2509,-2,-1,-1,0,0,-1,-1,0,12.545
2510,-1,-2,-1,-4,-1,0,0,2,12.55
2511,-1,-2,-1,-2,1,0,-2,-1,12.555
2512,-2,0,-3,-1,-2,-2,-3,-2,12.56
2513,1,0,-1,0,1,0,0,-1,12.565
2514,5,0,-3,-1,-3,-2,-3,2,12.57
2515,-2,-1,1,-2,-2,-2,-1,-1,12.575000000000001
2516,1,0,0,0,1,-1,1,0,12.58
2517,-1,0,2,3,1,1,-1,1,12.585
2518,0,0,-1,-1,-1,-1,0,-2,12.59
2519,0,-1,-2,0,0,-1,0,-1,12.595
2520,-1,-1,-1,-3,-3,-1,-3,-2,12.6
2521,-2,-1,-1,-3,-3,-1,0,-1,12.605
2522,1,-2,-2,2,0,1,1,-1,12.61
2523,-2,-2,0,0,-2,0,-1,0,12.615
2524,-2,-1,0,-2,1,0,-1,0,12.620000000000001
2525,1,-1,-1,-2,-2,-2,-2,-1,12.625
2526,-2,-2,1,-3,-2,-1,-2,-3,12.63
2527,1,-1,-1,5,3,1,1,0,12.635
2528,-1,-2,-1,0,-1,-2,0,1,12.64
2529,-3,0,-1,-3,-1,0,0,-2,12.645
2530,-3,0,0,1,0,-1,-1,-1,12.65
2531,-1,-2,-2,-5,-3,0,-2,-1,12.655000000000001
2532,-1,1,2,-4,-2,0,2,-1,12.66
2533,0,-4,-1,-1,1,0,0,1,12.665000000000001
2534,-3,-1,-1,1,3,0,1,-2,12.67
2535,-2,-3,0,1,-1,0,0,-3,12.675
2536,-4,0,1,0,1,0,0,-2,12.68
2537,1,-1,-2,-2,-4,-2,-1,0,12.685
2538,-1,2,1,1,-1,-1,0,0,12.69
2539,-1,-1,0,0,-3,-2,0,1,12.695
2540,1,0,-3,1,1,-1,0,2,12.700000000000001
2541,-2,-1,-2,1,1,2,-1,-3,12.705
2542,-3,-2,-4,-1,0,2,0,0,12.71
2543,-1,1,0,-4,-3,-1,-4,-3,12.715
2544,0,-1,0,-1,-1,-1,-1,-1,12.72
2545,-1,-1,0,0,2,-1,0,1,12.725
2546,0,0,0,-2,0,-2,-1,-1,12.73
2547,-2,1,1,1,2,-2,2,-2,12.735
2548,-1,-1,0,1,-1,0,-2,0,12.74
2549,-2,0,2,0,-1,-1,-1,-2,12.745000000000001
2550,3,-1,-2,-3,-2,0,-1,-1,12.75
2551,-5,-1,1,1,1,-2,0,0,12.755
2552,-2,-2,-2,-1,0,-1,-1,-2,12.76
2553,2,-2,-2,-1,-1,-2,-2,-1,12.765
2554,2,-2,-2,-4,-4,-2,-2,1,12.77
2555,1,0,0,-2,-3,0,1,0,12.775
2556,-3,1,1,1,0,0,0,1,12.780000000000001
2557,-3,-1,-1,-1,-1,0,-1,-2,12.785
2558,-3,0,0,0,0,-1,-2,-5,12.790000000000001
2559,0,-1,-2,-1,-1,1,-1,0,12.795
2560,0,0,-2,-2,-4,-2,-2,-1,12.8
2561,0,0,0,-1,-3,-3,1,1,12.805
2562,-2,3,3,1,0,-3,-3,-3,12.81
2563,-2,-3,-2,1,3,1,-1,-3,12.815
2564,0,-1,-1,-2,-1,-1,-1,-2,12.82
2565,-1,-1,0,1,1,1,0,0,12.825000000000001
2566,-2,-1,0,0,0,-1,-1,1,12.83
2567,1,-2,-1,-3,-4,-1,-1,0,12.835
2568,0,0,1,3,0,0,-2,0,12.84
2569,-1,-1,-2,-6,-3,-1,-2,0,12.845
2570,-1,-1,-2,-3,-1,-3,1,-1,12.85
2571,0,0,-2,0,1,0,0,-1,12.855
2572,-1,0,-1,1,0,3,-1,-2,12.86
2573,-2,-2,-2,-1,-3,-1,-2,-2,12.865
2574,-1,0,0,-1,-2,0,-2,1,12.870000000000001
2575,-3,-1,-1,-1,-1,-1,-1,-1,12.875
2576,0,-2,0,3,1,0,-2,-2,12.88
2577,-1,1,0,0,1,-1,0,-1,12.885
2578,-2,-1,0,0,-2,0,0,1,12.89
2579,0,-1,0,-2,-2,-2,0,0,12.895
2580,0,-1,-1,-4,-3,-3,0,0,12.9
2581,3,-2,-2,-1,0,-2,-2,0,12.905000000000001
2582,-5,-1,2,-1,-1,2,-2,-1,12.91
2583,0,-1,-1,2,0,0,0,0,12.915000000000001
2584,-1,-1,-1,-2,-2,-1,2,-2,12.92
2585,0,-1,-2,-2,-2,0,-1,0,12.925
2586,3,0,0,4,6,0,0,1,12.93
2587,-3,-4,-2,0,-1,-1,-2,0,12.935
2588,-4,-1,-1,-2,-1,0,-2,-1,12.94
2589,-1,2,0,1,-4,-2,1,-2,12.945
2590,-2,-1,2,-1,0,0,-1,-2,12.950000000000001
2591,-1,1,0,0,-1,1,-2,-1,12.955
2592,1,0,-2,-1,0,-3,-1,-1,12.96
2593,-1,0,-1,-1,-2,-3,-1,1,12.965
2594,0,-3,-3,-1,-6,-2,-3,-1,12.97
2595,-1,1,-1,-1,1,2,-1,-1,12.975
2596,-1,0,-1,-2,-2,0,-3,1,12.98
2597,-2,-4,-1,-2,0,-1,-1,-3,12.985
2598,1,0,-3,1,1,1,1,0,12.99
2599,0,-1,1,-2,-2,-2,-1,0,12.995000000000001
2600,2,2,-4,-2,-4,1,-2,-4,13.0
2601,-1,3,0,0,2,2,0,0,13.005
2602,0,0,-2,-1,-2,1,-1,-2,13.01
2603,-1,-1,-1,1,-2,-2,-2,0,13.015
2604,0,0,-1,-4,-3,-1,0,2,13.02
2605,0,-2,-1,3,0,0,-1,-1,13.025
2606,-1,0,-2,0,-1,-1,-1,-2,13.030000000000001
2607,1,0,-1,-2,0,0,0,-1,13.035
2608,-1,0,1,-3,-2,-2,-2,-1,13.040000000000001
2609,-1,-2,-1,2,7,1,-1,0,13.045
2610,-1,0,-1,0,0,0,-1,1,13.05
2611,-3,0,-2,0,-1,-1,0,0,13.055
2612,-4,0,1,1,-2,-1,0,-1,13.06
2613,-5,1,1,-1,-2,1,-1,-2,13.065
2614,0,-1,0,0,-1,0,1,0,13.07
2615,0,-2,-1,-1,-4,0,-1,-1,13.075000000000001
2616,1,-2,0,2,1,1,0,-3,13.08
2617,-1,0,-1,-2,-2,-1,-2,0,13.085
2618,-1,1,2,2,0,-4,-1,0,13.09
2619,0,-1,-2,-7,-3,-1,-1,1,13.095
2620,1,-1,-2,0,-1,0,-1,-2,13.1
2621,1,0,-1,-1,-1,-1,-1,0,13.105
2622,1,-2,-3,-3,-4,-2,-1,0,13.11
2623,-1,-3,-3,0,3,-1,-1,-3,13.115
2624,1,-2,-4,-3,0,-1,-2,0,13.120000000000001
2625,-2,1,-2,0,-4,0,-1,-1,13.125
2626,-2,-1,-2,-1,-2,-2,1,0,13.13
2627,1,2,0,-3,-3,-4,-1,-1,13.135
2628,0,-1,-1,0,1,1,0,0,13.14
2629,1,-1,0,-1,2,0,0,-1,13.145
2630,-1,-2,-3,-3,-2,0,-3,-3,13.15
2631,-2,-3,1,1,-1,1,-1,-1,13.155000000000001
2632,0,-1,-2,0,-1,-2,-1,1,13.16
2633,-1,0,-1,-1,-1,-3,1,1,13.165000000000001
2634,1,1,-1,-1,0,0,-2,-1,13.17
2635,1,0,-2,2,2,1,-1,2,13.175
2636,-1,0,-1,-1,-1,0,-2,-2,13.18
2637,-1,-2,0,-1,-2,-2,-1,0,13.185
2638,-1,-1,-2,0,1,-2,-1,-2,13.19
2639,0,0,-1,-3,-1,0,1,0,13.195
2640,-3,0,1,1,1,-1,1,0,13.200000000000001
2641,-2,1,0,-2,-4,-1,-1,-2,13.205
2642,-1,-3,-1,3,3,0,0,0,13.21
2643,0,0,-2,-1,-3,-1,0,-1,13.215
2644,-2,2,0,1,2,-1,0,1,13.22
2645,-1,-2,-1,-2,0,-1,-2,-4,13.225
2646,-1,0,-1,-2,-1,-1,-1,2,13.23
2647,1,-1,0,-2,-1,0,0,-1,13.235
2648,0,-3,-1,-3,-4,-2,-1,-2,13.24
2649,0,-2,-2,0,-2,-2,-1,1,13.245000000000001
2650,-3,-3,1,0,1,0,0,-1,13.25
2651,-3,-1,0,1,0,-2,0,-1,13.255
2652,-1,-1,-1,-1,-2,-1,0,0,13.26
2653,0,0,-1,0,-1,-3,-1,0,13.265
2654,1,1,-3,-5,-2,-2,-1,0,13.27
2655,-1,0,-1,-1,-1,0,-2,0,13.275
2656,0,-2,-2,-1,-1,0,0,-1,13.280000000000001
2657,0,-1,-2,-2,-1,1,0,-1,13.285
2658,1,0,0,0,-1,-1,0,-2,13.290000000000001
2659,-1,0,0,2,-1,0,-2,-2,13.295
2660,0,-1,-1,-5,-1,-2,0,-1,13.3
2661,-1,0,-1,-1,0,-1,0,0,13.305
2662,-2,0,0,1,2,0,0,-1,13.31
2663,0,-1,-2,0,-1,-1,0,-1,13.315
2664,-1,-3,0,4,2,1,-2,-1,13.32
2665,-3,0,0,-2,0,1,1,-1,13.325000000000001
2666,1,-2,-1,-2,-3,-1,0,1,13.33
2667,-1,1,0,0,-1,0,1,0,13.335
2668,-1,-1,-2,0,-1,-3,-2,-4,13.34
2669,1,0,-2,-2,-2,-2,-1,-1,13.345
2670,0,2,-2,0,0,1,0,-1,13.35
2671,-1,-1,1,-1,3,0,-1,0,13.355
2672,1,-1,-2,-1,-2,0,1,-1,13.36
2673,-2,-1,0,1,-3,-1,-1,-1,13.365
2674,-2,-2,-1,-2,-1,-2,-1,0,13.370000000000001
2675,-3,0,-4,-1,1,0,0,0,13.375
2676,-4,0,1,1,0,-1,-1,-3,13.38
2677,1,-1,-1,-3,1,-1,0,-3,13.385
2678,0,-1,-2,-1,0,-2,0,-2,13.39
2679,1,0,-1,-1,-2,-1,-2,-1,13.395
2680,1,-1,-2,0,3,-1,0,1,13.4
2681,-1,-2,-2,-1,-1,0,-1,0,13.405000000000001
2682,-2,-1,1,-1,-2,0,-2,-1,13.41
2683,-1,-2,-3,-3,2,0,0,-3,13.415000000000001
2684,-1,1,-2,-1,-3,0,1,-1,13.42
2685,-1,-2,0,1,0,0,0,0,13.425
2686,1,-1,0,-1,-5,-2,0,-2,13.43
2687,2,-1,-1,-1,1,-2,0,1,13.435
2688,-1,-2,-2,-1,-1,0,1,0,13.44
2689,-1,-1,-1,0,-1,-1,1,0,13.445
2690,0,0,-1,-2,-1,0,1,1,13.450000000000001
2691,-4,-2,0,-2,-3,-2,-3,-4,13.455
2692,1,-3,-1,0,-2,-2,-3,-2,13.46
2693,1,0,0,1,-1,-2,-1,-1,13.465
2694,-3,-1,0,-3,1,0,0,-1,13.47
2695,0,-1,-1,0,-3,-1,1,0,13.475
2696,-2,-1,2,3,2,0,-1,0,13.48
2697,0,1,1,-1,-3,0,-2,0,13.485
2698,-2,0,-2,-1,1,1,1,0,13.49
2699,-1,-3,-3,-4,-6,-2,-1,0,13.495000000000001
2700,-1,-2,2,-2,1,0,0,-1,13.5
2701,-3,-1,-1,2,1,1,0,0,13.505
2702,-2,0,1,3,1,1,-1,-1,13.51
2703,-1,1,0,-3,-2,0,0,0,13.515
2704,-1,0,-2,-3,-3,-3,0,-1,13.52
2705,-1,-2,-1,-2,1,0,-2,-2,13.525
2706,-1,-4,-2,1,-2,-1,-1,-2,13.530000000000001
2707,3,0,-1,0,0,0,-1,-2,13.535
2708,-1,-1,-1,-3,-1,-1,-1,2,13.540000000000001
2709,1,2,-2,0,0,-1,1,1,13.545
2710,-1,-1,0,-1,-3,-3,1,0,13.55
2711,2,-2,-2,0,2,0,-1,1,13.555
2712,0,2,0,3,1,0,1,-2,13.56
2713,-3,-2,-1,-1,0,-2,-4,-2,13.565
2714,2,-1,-2,-1,-1,-1,-2,-1,13.57
2715,-4,-2,-1,-1,2,0,1,-2,13.575000000000001
2716,0,-1,-1,-3,0,0,0,0,13.58
2717,-1,-3,-1,0,-2,-1,1,1,13.585
2718,-1,-1,1,-5,-5,-2,-1,-1,13.59
2719,-1,1,2,4,1,-2,0,-1,13.595
2720,0,0,-1,-4,1,1,-1,0,13.6
2721,0,-1,1,-1,1,-2,2,-2,13.605
2722,-2,-1,-2,1,-1,-2,-1,0,13.61
2723,0,1,-2,-3,-2,-2,-3,0,13.615
2724,-1,-1,-1,0,-2,0,-3,-1,13.620000000000001
2725,2,-1,-3,-2,-1,-1,0,0,13.625
2726,-1,-1,0,-1,0,0,0,-1,13.63
2727,0,1,2,0,-2,-1,-1,-2,13.635
2728,0,0,0,1,-3,-3,0,1,13.64
2729,-1,0,-1,-1,3,1,-1,-1,13.645
2730,-1,0,-1,-1,-1,-1,-1,0,13.65
2731,-1,-4,-1,-1,0,0,1,2,13.655000000000001
2732,-1,-2,-2,-4,0,-1,2,1,13.66
2733,-2,0,0,-1,-5,-3,-3,-4,13.665000000000001
2734,-1,-1,0,0,1,0,-1,-2,13.67
2735,-1,0,-1,-3,-2,-1,-1,0,13.675
2736,-2,-1,-1,2,-2,1,0,-1,13.68
2737,-2,1,-1,-1,-2,-1,1,1,13.685
2738,0,-2,1,2,2,1,-1,0,13.69
2739,0,1,-2,0,0,1,-1,-1,13.695
2740,0,0,-1,-2,-1,-1,0,1,13.700000000000001
2741,0,1,0,-4,-2,-1,-1,-2,13.705
2742,-1,-1,-1,-3,2,0,-1,-1,13.71
2743,-2,-1,1,2,-2,-1,0,-1,13.715
2744,-5,-1,-1,1,-1,1,-3,-1,13.72
2745,1,0,2,-1,-3,-1,0,0,13.725
2746,-1,1,-1,-2,-2,0,-2,-1,13.73
2747,0,-1,-2,-2,-1,1,0,0,13.735
2748,1,0,-1,-1,-1,0,-1,-1,13.74
2749,0,0,-1,-2,-1,1,-3,-1,13.745000000000001
2750,-1,-2,-1,1,-2,0,-1,-2,13.75
2751,0,-1,-1,1,-1,0,2,-1,13.755
2752,-2,-2,0,0,3,-2,-1,-2,13.76
2753,-2,-3,-1,-1,0,-1,-1,1,13.765
2754,0,2,2,-3,-3,-1,0,-1,13.77
2755,-1,-2,-2,-2,-2,-1,-1,0,13.775
2756,0,-2,-6,-1,-2,-2,0,0,13.780000000000001
2757,-2,0,0,2,0,0,-3,-2,13.785
2758,-2,1,-2,-2,-3,-2,-1,-2,13.790000000000001
2759,0,-1,1,1,-1,-1,-1,-2,13.795
2760,0,0,1,-10,-2,0,0,1,13.8
2761,3,1,0,5,3,0,1,0,13.805
2762,-2,-4,-5,-3,-3,0,0,0,13.81
2763,0,-1,0,-1,1,-2,-1,-1,13.815
2764,0,-1,-1,2,0,1,0,-1,13.82
2765,2,-2,-2,-3,-3,-3,-2,0,13.825000000000001
2766,-3,0,1,-1,0,0,-1,-1,13.83
2767,-1,-1,-2,0,1,-2,-1,0,13.835
2768,1,1,0,0,0,-2,-1,-1,13.84
2769,-2,-3,-4,0,0,1,1,1,13.845
2770,-1,-1,0,1,-1,-1,-1,0,13.85
2771,-2,-1,-2,-2,-2,-1,-2,-3,13.855
2772,-2,0,0,1,1,0,-1,-2,13.86
2773,-1,0,0,-2,-1,-1,-1,0,13.865
2774,1,-2,-1,-2,-2,-1,0,-1,13.870000000000001
2775,0,1,1,0,2,-1,-1,0,13.875
2776,-4,0,-1,0,-1,-2,-1,-2,13.88
2777,-3,-3,0,1,2,0,1,-2,13.885
2778,-1,0,0,2,4,0,0,1,13.89
2779,-1,1,2,-1,-1,0,-2,0,13.895
2780,-1,-3,0,-1,-3,-2,-3,-1,13.9
2781,-2,-3,-3,-6,-2,-1,-1,0,13.905000000000001
2782,0,-1,-1,-1,1,0,0,0,13.91
2783,-1,-2,-1,1,-2,-2,0,0,13.915000000000001
2784,-3,-2,-1,-3,-5,-2,-1,-1,13.92
2785,1,0,0,3,4,1,0,-1,13.925
2786,-1,1,-2,1,-1,-1,0,0,13.93
2787,-1,-1,-1,0,-3,-1,0,0,13.935
2788,0,0,1,0,-1,-2,-2,-1,13.94
2789,1,-2,-3,-4,0,-2,-1,-3,13.945
2790,-3,-4,-1,-2,0,-1,-1,-2,13.950000000000001
2791,0,0,-1,-2,1,-1,-1,-1,13.955
2792,1,-1,-1,0,1,1,-1,4,13.96
2793,-1,-2,0,-3,-3,-2,-2,-1,13.965
2794,1,2,1,-2,-1,-1,0,-1,13.97
2795,-2,-2,-1,-2,-3,0,-1,-3,13.975
2796,0,0,-2,1,1,1,1,1,13.98
2797,-1,0,0,-1,-4,0,-1,1,13.985
2798,-3,0,1,-1,-3,-2,-2,-3,13.99
2799,-1,0,1,-1,-1,-2,-1,0,13.995000000000001
2800,-1,0,-1,0,0,0,-1,-2,14.0
2801,-3,-2,-2,0,0,0,-1,0,14.005
2802,0,-1,-3,-1,-1,-3,-1,0,14.01
2803,-1,-1,0,-1,1,1,-2,0,14.015
2804,0,-2,0,3,2,1,1,-1,14.02
2805,0,0,1,-1,-2,-2,-2,0,14.025
2806,-1,-2,-2,0,-2,-1,-2,0,14.030000000000001
2807,0,-2,-3,-3,0,-1,-1,0,14.035
2808,1,-1,-1,-3,0,0,-1,-4,14.040000000000001
2809,-3,-2,-1,0,-1,-2,1,0,14.045
2810,-2,0,-1,0,2,-1,-2,-1,14.05
2811,-2,-1,-1,-1,-2,-2,-3,-4,14.055
2812,1,-2,-2,0,-1,-1,0,0,14.06
2813,-4,0,1,-1,-1,0,0,-1,14.065
2814,-1,-3,0,-2,-2,0,1,0,14.07
2815,2,-2,-1,-3,-2,-1,-1,0,14.075000000000001
2816,1,0,1,1,-1,-2,0,-2,14.08
2817,-2,-4,-1,-1,-1,-1,-1,0,14.085
2818,-1,-2,1,3,1,0,-1,-1,14.09
2819,1,-2,0,0,-1,0,1,0,14.095
2820,-2,-1,0,0,-5,-3,-2,0,14.1
2821,-1,0,0,4,2,1,-2,0,14.105
2822,1,0,-3,-7,-1,0,0,-3,14.11
2823,0,-1,-1,5,2,1,1,-1,14.115
2824,-1,-2,-2,-3,-1,-1,-1,0,14.120000000000001
2825,-2,1,-1,-1,-1,0,0,0,14.125
2826,-2,0,-2,-1,0,0,-1,0,14.13
2827,-1,1,-1,-3,-3,-2,-1,-4,14.135
2828,-1,-1,-1,2,5,-1,-1,-1,14.14
2829,2,-2,-2,-1,-1,-1,-1,-1,14.145
2830,1,-1,1,0,0,0,1,0,14.15
2831,2,0,-1,-5,-3,0,-1,1,14.155000000000001
2832,-2,0,-2,-3,-5,1,-2,-2,14.16
2833,1,-1,-1,1,5,1,1,-3,14.165000000000001
2834,0,-1,-2,-1,1,0,0,-1,14.17
2835,-1,-2,0,-2,-1,-1,-1,0,14.175
2836,1,-1,-2,-2,0,-1,-1,1,14.18
2837,0,-2,-1,1,-5,-2,-3,1,14.185
2838,-1,-1,-1,2,-2,-1,-1,0,14.19
2839,0,-1,-2,-3,1,-2,0,-1,14.195
2840,-3,0,-1,-2,-3,-1,0,-2,14.200000000000001
2841,-1,0,-1,0,0,-1,0,0,14.205
2842,0,0,-1,1,1,-2,-2,-1,14.21
2843,-3,0,-1,-1,-3,-2,-1,-4,14.215
2844,-1,-1,-1,-1,0,-1,-1,0,14.22
2845,-1,-1,0,-2,-2,1,0,-2,14.225
2846,0,0,0,-1,-1,-1,0,0,14.23
2847,-1,-3,-1,0,2,-2,-1,0,14.235
2848,-1,0,1,-1,-2,0,-1,0,14.24
2849,0,0,-2,-2,-2,-2,-1,-1,14.245000000000001
2850,1,-2,0,0,-2,-1,1,-2,14.25
2851,-2,-2,-1,0,-2,1,0,0,14.255
2852,-2,-1,0,-2,1,-1,-2,-1,14.26
2853,0,0,-2,-1,0,-1,-1,-1,14.265
2854,-2,0,-1,-2,-2,-1,-1,0,14.27
2855,0,-2,-1,2,1,1,-1,-1,14.275
2856,2,-2,-3,-1,-4,-1,-1,0,14.280000000000001
2857,-2,0,-1,-5,-1,0,-2,-1,14.285
2858,-3,-1,1,-2,-1,-1,-1,0,14.290000000000001
2859,-2,1,1,1,0,0,-2,1,14.295
2860,-2,-1,-2,2,0,-1,0,-2,14.3
2861,-1,0,1,0,-1,-2,-2,0,14.305
2862,-1,0,-3,-3,-4,-2,-2,-6,14.31
2863,1,-1,-1,1,0,0,-1,1,14.315
2864,-2,-1,-3,-3,-3,-1,-1,-1,14.32
2865,-1,-2,-1,2,0,-1,0,-2,14.325000000000001
2866,-4,-1,1,1,2,1,0,-1,14.33
2867,-1,-2,-1,-2,-1,-1,-1,1,14.335
2868,-1,-3,-2,-1,1,-2,0,0,14.34
2869,2,-1,-1,-5,-3,-1,-1,0,14.345
2870,0,-1,-2,-1,-4,0,-2,0,14.35
2871,-2,-5,-4,-2,-2,-1,0,-2,14.355
2872,1,-1,2,-2,-1,0,-1,1,14.36
2873,-1,0,-1,2,1,0,0,-1,14.365
2874,0,0,0,-1,1,0,-2,0,14.370000000000001
2875,-1,2,0,-1,0,0,-1,-2,14.375
2876,1,-2,-2,0,-1,1,-1,0,14.38
2877,-1,-1,0,0,-3,-1,1,0,14.385
2878,-4,1,2,3,-2,0,-3,-5,14.39
2879,-2,-1,-1,-3,-2,-1,0,-4,14.395
2880,2,-1,-2,0,-1,-1,-3,-1,14.4
2881,-1,-2,-2,-2,-2,-3,1,1,14.405000000000001
2882,0,-1,-1,-2,3,0,0,3,14.41
2883,1,0,-3,0,0,-3,-1,1,14.415000000000001
2884,-2,0,0,-1,-2,-2,2,-2,14.42
2885,-1,-1,-2,-2,-2,-1,-2,-3,14.425
2886,-1,-1,0,2,3,0,0,-2,14.43
2887,0,-1,1,0,-1,0,-2,-1,14.435
2888,-2,-1,-1,-4,1,-1,0,-2,14.44
2889,-3,0,0,1,2,-2,-2,-2,14.445
2890,2,-1,-2,-3,-4,-1,-3,0,14.450000000000001
2891,0,0,-1,3,-3,-1,4,10,14.455
2892,2,0,0,-3,0,1,-1,-4,14.46
2893,-2,0,1,1,-2,-2,-8,-10,14.465
2894,0,-1,0,-1,-2,-1,-2,-1,14.47
2895,-1,-1,0,-1,-1,-1,-1,-2,14.475
2896,-2,-2,-2,0,-1,-2,1,3,14.48
2897,-1,-2,-2,-5,-3,-1,0,0,14.485
2898,0,1,-2,2,1,-2,0,-1,14.49
2899,0,-6,-3,-1,-1,1,2,5,14.495000000000001
2900,-4,-1,-1,2,-1,-1,-5,-10,14.5
2901,0,-1,-2,-3,-3,0,3,9,14.505
2902,-1,-2,-1,3,3,-1,-4,-9,14.51
2903,-2,0,-1,-3,-1,-2,-5,-3,14.515
2904,0,1,-1,1,0,-1,-1,3,14.52
2905,-1,-1,-1,-1,-2,-1,-1,-1,14.525
2906,2,-1,-2,-4,-4,1,5,6,14.530000000000001
2907,0,0,0,4,1,-1,1,1,14.535
2908,-1,0,-2,-2,3,0,-1,-2,14.540000000000001
2909,1,-1,2,-1,1,-1,1,1,14.545
2910,0,-1,-1,-1,-1,-1,-2,-6,14.55
2911,-5,1,2,0,-1,-1,-1,-7,14.555
2912,-4,0,0,-1,-4,-1,-1,-1,14.56
2913,-1,1,0,4,0,2,2,2,14.565
2914,1,0,-2,-1,0,-1,0,3,14.57
2915,2,-2,-2,-4,-4,-3,-2,-3,14.575000000000001
2916,-1,-3,-2,3,3,-1,0,4,14.58
2917,-1,-1,-1,-1,-3,0,0,-2,14.585
2918,-1,-4,-1,0,-2,-1,-2,-1,14.59
2919,-1,0,-1,-2,-2,1,-2,-1,14.595
2920,-1,-1,-2,-4,-2,-2,-1,1,14.6
2921,-3,-1,-1,-1,1,0,-2,-4,14.605
2922,-1,-3,-1,0,-3,-2,1,-1,14.61
2923,0,0,0,-1,2,-1,2,-1,14.615
2924,0,-2,0,1,-2,-2,-1,0,14.620000000000001
2925,0,-1,-1,0,1,-1,-2,-3,14.625
2926,-1,1,-1,-3,-2,0,0,2,14.63
2927,-1,-1,-2,-2,-1,-2,-1,0,14.635
2928,-1,2,0,0,-2,0,0,-1,14.64
2929,-1,-2,-2,2,-1,-2,-1,-1,14.645
2930,-2,-2,-4,-6,0,0,-1,1,14.65
2931,1,0,-2,0,-1,0,-1,-1,14.655000000000001
2932,-3,0,0,-3,-3,-1,-1,-2,14.66
2933,1,1,-1,-4,-2,1,0,0,14.665000000000001
2934,-2,-1,0,1,-3,-1,0,-1,14.67
2935,2,0,-1,-2,1,-1,0,-2,14.675
2936,0,-1,0,1,-1,-1,-1,0,14.68
2937,-2,0,1,-3,-2,-1,-2,0,14.685
2938,1,-1,-1,-1,-2,-1,-1,-2,14.69
2939,-1,0,-2,0,-1,1,0,1,14.695
2940,-1,-1,-1,-1,-1,-1,-3,-2,14.700000000000001
2941,-3,-1,0,0,0,-2,0,-1,14.705
2942,1,0,-1,-4,2,0,-2,-1,14.71
2943,-4,-1,0,4,-2,-1,-1,-2,14.715
2944,0,-1,-2,-3,-1,1,0,0,14.72
2945,-4,-1,-2,-1,-2,0,-1,-1,14.725
2946,1,-1,-1,-3,-2,-2,-1,0,14.73
2947,-1,-2,0,-3,-1,-2,2,7,14.735
2948,-1,-1,1,3,-1,0,-1,-6,14.74
2949,1,1,-1,1,1,-2,-7,-5,14.745000000000001
2950,0,-1,0,0,1,0,2,2,14.75
2951,-2,-1,-1,-6,-4,0,-2,-5,14.755
2952,0,-2,0,-1,0,-1,-5,-2,14.76
2953,0,2,0,0,0,0,2,0,14.765
2954,-4,-1,-1,0,-6,-3,-4,-1,14.77
2955,1,-1,-1,2,4,-1,1,5,14.775
2956,0,-1,-2,1,1,-1,1,-7,14.780000000000001
2957,-3,-3,0,-7,0,2,2,0,14.785
2958,-3,-1,1,1,1,-1,-4,-8,14.790000000000001
2959,-2,0,-1,-1,-3,-2,-1,1,14.795
2960,2,2,-2,-3,-7,-2,0,4,14.8
2961,2,-2,-4,-3,-1,-2,0,2,14.805
2962,0,0,-2,2,1,0,2,5,14.81
2963,0,0,0,2,1,1,-2,-6,14.815
2964,-1,-1,-1,-2,2,-1,0,0,14.82
2965,0,-1,-1,0,-8,-1,0,3,14.825000000000001
2966,-3,-2,0,-7,-1,1,1,1,14.83
2967,-1,-1,-1,1,4,2,8,8,14.835
2968,-1,0,1,-2,-3,-2,-6,-10,14.84
2969,-1,-3,-1,-1,0,-3,-6,-5,14.845
2970,0,0,1,6,1,1,-2,-3,14.85
2971,0,0,-1,1,-2,-2,-1,-4,14.855
2972,-2,-2,-2,0,1,-1,9,18,14.86
2973,2,2,1,0,0,0,0,-4,14.865
2974,3,-3,-3,-4,-4,-3,-5,-3,14.870000000000001
2975,-8,-2,-2,-5,-1,0,0,3,14.875
2976,0,-2,-1,2,1,0,2,-1,14.88
2977,-4,-2,-3,-2,-1,-1,-7,-12,14.885
2978,4,0,-1,-1,-2,-1,5,10,14.89
2979,-11,2,0,0,-1,-2,3,4,14.895
2980,0,-8,-3,-8,-7,-6,-18,-32,14.9
2981,-1,-6,-1,3,1,-3,-1,5,14.905000000000001
2982,-3,5,2,3,6,1,-4,-12,14.91
2983,7,-6,-3,13,-9,-3,-4,5,14.915000000000001
2984,4,16,1,-3,17,3,9,11,14.92
2985,-6,-22,-8,-14,-5,-1,4,3,14.925
2986,-2,-8,1,-9,-5,-2,21,35,14.93
2987,1,-2,3,-11,-20,-4,-6,-24,14.935
2988,4,2,-2,7,21,5,-10,-8,14.94
2989,4,9,1,18,7,-3,-16,-15,14.945
2990,-15,1,-2,-4,0,-1,-6,-7,14.950000000000001
2991,-1,-1,-2,7,8,3,3,2,14.955
2992,-2,-3,2,-15,-20,-5,8,10,14.96
2993,12,8,2,-5,1,1,11,5,14.965
2994,-5,-6,-4,6,-4,2,-1,1,14.97
2995,-9,-9,0,5,0,-2,5,11,14.975
2996,-13,3,1,-12,1,2,4,12,14.98
2997,21,14,1,16,-1,-2,-2,7,14.985
2998,2,9,2,-7,-1,-3,-12,-21,14.99
2999,-3,-15,-9,-7,2,-1,-13,-25,14.995000000000001
3000,-9,-25,-9,11,7,1,1,6,15.0
3001,-5,4,4,-5,-3,-1,13,20,15.005
3002,0,-21,0,7,-10,-2,-3,-17,15.01
3003,7,18,0,-10,9,3,4,8,15.015
3004,7,18,8,6,-23,-3,20,24,15.02
3005,18,0,-1,-20,-13,-7,-11,-10,15.025
3006,-6,-12,-6,25,17,2,1,1,15.030000000000001
3007,-33,20,-6,-24,20,-1,-23,-25,15.035
3008,0,-11,-3,-8,-30,-8,3,19,15.040000000000001
3009,-3,-33,-5,12,28,8,-2,-22,15.045
3010,19,16,1,4,-8,-4,-6,17,15.05
3011,7,-5,4,11,-11,-3,18,13,15.055
3012,12,-12,-7,-12,-2,-1,-7,-11,15.06
3013,-25,-43,-4,-40,-40,-11,-16,-15,15.065
3014,-3,13,-1,-21,2,4,32,26,15.07
3015,26,27,7,-30,-3,5,11,5,15.075000000000001
3016,10,30,-3,29,3,-1,-28,-25,15.08
3017,-24,-39,1,12,10,0,5,13,15.085
3018,14,18,-3,5,29,6,-26,-36,15.09
3019,-37,23,-2,17,-15,-8,19,26,15.095
3020,38,-24,10,-36,-32,-3,0,-3,15.1
3021,-48,51,-12,16,18,0,-14,-14,15.105
3022,18,-120,-14,20,-26,-9,11,22,15.11
3023,16,46,-1,-38,12,9,11,2,15.115
3024,-28,-35,-5,39,6,0,-4,-9,15.120000000000001
3025,-16,16,1,-49,-30,-8,-7,-25,15.125
3026,11,4,-9,-60,-43,-7,-13,-3,15.13
3027,19,-8,11,65,26,3,-7,12,15.135
3028,11,-20,-20,60,10,-5,13,8,15.14
3029,52,50,2,-19,4,7,-29,-44,15.145
3030,-44,27,-7,-20,24,5,-8,-8,15.15
3031,6,-58,-10,-47,-1,0,-16,0,15.155000000000001
3032,25,21,21,-18,-29,-7,28,27,15.16
3033,1,-11,33,53,29,12,47,37,15.165000000000001
3034,-7,21,-22,66,-6,7,12,-18,15.17
3035,-19,-33,-39,29,43,6,-16,-11,15.175
3036,-38,-25,-6,1,13,-20,-41,-20,15.18
3037,31,76,7,-26,-12,-2,5,26,15.185
3038,18,49,69,-27,-27,0,0,5,15.19
3039,-32,-36,-5,-75,-84,-26,-17,-13,15.195
3040,33,72,83,42,74,28,12,-1,15.200000000000001
3041,-24,-88,-87,-86,-4,1,0,10,15.205
3042,4,-13,-30,43,63,10,9,7,15.21
3043,47,86,5,-1,-27,-3,12,-7,15.215
3044,-44,50,28,18,-14,13,54,17,15.22
3045,8,-64,15,-26,16,12,16,8,15.225
3046,-55,93,95,52,-5,-16,-57,-29,15.23
3047,-49,-92,-97,-97,-32,-26,-47,-23,15.235
3048,0,0,14,59,-33,2,54,28,15.24
3049,112,-15,87,127,96,48,56,52,15.245000000000001
3050,-58,-70,-75,19,52,-29,-77,-87,15.25
3051,5,40,-22,36,-1,-25,-24,-32,15.255
3052,69,-8,-88,-84,-9,3,48,34,15.26
3053,-20,39,21,-98,-128,-18,77,59,15.265
3054,76,-52,14,11,42,33,18,14,15.27
3055,10,66,127,78,67,24,-24,-18,15.275
3056,-119,57,-112,32,39,-9,-57,-33,15.280000000000001
3057,29,-107,-90,-10,-14,-15,-14,-9,15.285
3058,7,78,56,-15,-23,5,60,59,15.290000000000001
3059,50,-55,-23,-54,-25,10,64,48,15.295
3060,-16,10,4,29,-3,-9,-98,-92,15.3
3061,-57,72,-5,41,69,-4,-57,-43,15.305
3062,93,-21,-127,-50,-30,-7,33,40,15.31
3063,24,19,69,55,-12,20,83,53,15.315
3064,34,-33,64,-89,-13,2,-8,-4,15.32
3065,69,34,-33,30,-27,-28,-71,-44,15.325000000000001
3066,-128,-13,72,-29,18,1,34,18,15.33
3067,127,6,-6,12,13,1,-73,-44,15.335
3068,-35,-11,-81,-24,-24,-8,13,0,15.34
3069,-113,-5,25,1,-3,-5,-38,-41,15.345
3070,88,102,-35,-17,-51,3,111,100,15.35
3071,25,-87,34,32,15,7,-28,-20,15.355
3072,-76,56,82,-7,30,-20,-107,-62,15.36
3073,-53,-87,-99,2,-18,-8,22,17,15.365
3074,55,85,-42,69,-41,2,10,2,15.370000000000001
3075,-17,-51,-67,-103,-4,31,106,92,15.375
3076,-16,-43,-26,-50,-8,-20,-72,-72,15.38
3077,43,79,127,107,71,-2,4,14,15.385
3078,-47,-60,5,-78,-6,3,-18,-31,15.39
3079,-35,27,-37,-7,-31,-10,6,-19,15.395
3080,49,-128,26,-3,-71,-4,51,48,15.4
3081,-21,28,21,-58,76,16,-38,-36,15.405000000000001
3082,34,62,127,46,-2,-9,-65,-38,15.41
3083,50,88,104,75,21,0,-6,7,15.415000000000001
3084,-23,-40,20,-18,-27,-3,34,41,15.42
3085,16,64,61,-105,-106,-27,6,9,15.425
3086,-15,-61,-68,42,-30,-2,86,57,15.43
3087,-16,-98,66,73,116,55,-20,-34,15.435
3088,-26,-92,-65,-74,-70,-20,-86,-61,15.44
3089,-15,114,-75,78,26,4,-8,-11,15.445
3090,8,57,82,-71,-101,-27,-16,2,15.450000000000001
3091,-30,101,-59,97,68,13,55,44,15.455
3092,83,-1,127,52,19,16,59,54,15.46
3093,26,-51,-44,-44,-13,5,16,9,15.465
3094,-45,-105,-55,-70,4,5,-6,-19,15.47
3095,-52,10,57,5,-51,-29,-21,-20,15.475
3096,50,3,61,-33,-13,0,11,41,15.48
3097,-23,0,-34,-22,21,11,2,-12,15.485000000000001
3098,6,4,7,72,54,0,-23,-31,15.49
3099,20,39,15,-44,-34,-2,-8,-17,15.495000000000001
3100,24,118,-59,73,11,8,23,21,15.5
3101,-102,-51,25,-64,-61,-4,32,12,15.505
3102,61,-12,4,92,71,9,-22,5,15.51
3103,-102,-3,-34,-47,-2,-27,-106,-97,15.515
3104,-31,32,-86,-19,-28,-6,45,8,15.52
3105,59,46,71,46,-8,16,10,9,15.525
3106,-11,-74,-83,-70,-25,-18,-52,-47,15.530000000000001
3107,23,60,54,-19,20,-7,21,42,15.535
3108,35,-27,-6,-26,33,20,68,42,15.540000000000001
3109,22,4,30,27,25,10,-3,2,15.545
3110,-61,-27,-8,-59,-65,-22,-54,-43,15.55
3111,-42,-95,-31,94,36,7,5,6,15.555
3112,-26,-67,-39,-28,28,3,-1,-9,15.56
3113,90,9,30,35,-25,11,114,111,15.565
3114,-64,40,72,22,18,9,-42,-48,15.57
3115,31,-16,30,-17,-64,-37,-94,-59,15.575000000000001
3116,-4,-33,-61,-72,-25,15,103,94,15.58
3117,-29,-59,47,47,91,16,-128,-110,15.585
3118,-2,-70,-106,17,-2,-35,-54,-25,15.59
3119,-37,-3,-57,-24,-52,-12,36,26,15.595
3120,51,90,58,124,86,28,34,16,15.6
3121,45,29,-50,-89,-67,-3,35,47,15.605
3122,32,-38,106,42,2,2,14,17,15.610000000000001
3123,-44,-75,-128,-26,-6,1,0,-9,15.615
3124,35,90,77,26,2,1,-12,-2,15.620000000000001
3125,-3,63,-64,-7,6,-4,2,-15,15.625
3126,-4,45,36,-27,-21,6,46,20,15.63
3127,29,51,8,-29,-2,6,18,18,15.635
3128,-10,-23,-47,7,5,-19,-85,-65,15.64
3129,-24,-28,13,-81,-108,-31,75,62,15.645
3130,-1,24,20,61,110,43,-74,-71,15.65
3131,6,61,25,29,-46,-34,-46,-28,15.655000000000001
3132,-12,-42,-6,-67,-11,2,35,17,15.66
3133,-17,-69,-3,66,18,-1,-32,-18,15.665000000000001
3134,62,25,-6,-45,-80,-4,127,117,15.67
3135,-10,65,52,-94,36,24,19,-5,15.675
3136,-43,-55,-76,52,59,-3,-103,-82,15.68
3137,5,82,15,23,-2,-7,20,23,15.685
3138,2,-9,-27,-18,7,4,4,6,15.69
3139,49,55,36,31,-12,-5,-1,8,15.695
3140,-34,20,23,-94,-87,-21,25,7,15.700000000000001
3141,3,18,36,40,63,20,-5,-12,15.705
3142,2,-13,-18,11,7,-1,12,14,15.71
3143,78,51,30,10,19,14,25,39,15.715
3144,-80,38,37,63,21,-20,-100,-90,15.72
3145,-53,-39,-59,6,-19,-14,-14,-27,15.725
3146,-9,-5,23,-40,1,0,-28,-40,15.73
3147,20,-42,-2,-4,-21,-4,71,81,15.735000000000001
3148,53,20,21,30,-6,8,-20,0,15.74
3149,-55,-28,-1,10,-21,-27,-69,-67,15.745000000000001
3150,1,43,31,54,23,7,16,25,15.75
3151,-33,-94,-73,-113,0,10,26,-5,15.755
3152,20,-4,0,-58,-2,17,63,48,15.76
3153,52,-12,19,16,0,-13,-51,-25,15.765
3154,-89,-2,5,-4,-16,-7,0,0,15.77
3155,-27,2,23,64,2,2,8,-10,15.775
3156,31,67,11,-5,-1,6,11,10,15.780000000000001
3157,25,18,7,27,-14,1,42,43,15.785
3158,35,-77,-24,-58,25,1,-64,-40,15.790000000000001
3159,14,72,20,13,-38,-11,10,9,15.795
3160,-22,-74,-14,23,32,8,-32,-21,15.8
3161,-78,37,-25,-1,-17,-7,-17,-14,15.805
3162,45,11,15,25,-3,9,65,37,15.81
3163,6,10,-7,-6,5,9,7,3,15.815
3164,10,-2,20,-8,-21,-20,-37,-21,15.82
3165,16,-28,31,-23,11,9,11,5,15.825000000000001
3166,11,-61,12,55,-6,-8,3,18,15.83
3167,10,10,3,-40,23,-3,-45,-46,15.835
3168,-42,-42,6,35,32,12,38,11,15.84
3169,28,-1,66,-18,10,0,-41,-28,15.845
3170,-55,38,-2,-74,-61,-7,42,9,15.85
3171,52,-32,5,11,24,12,11,31,15.855
3172,17,26,-10,14,8,-5,-13,2,15.860000000000001
3173,7,25,-11,29,25,-2,5,-2,15.865
3174,17,45,51,6,16,10,-2,0,15.870000000000001
3175,-18,-48,-100,-26,-44,-9,8,-1,15.875
3176,-23,22,37,42,14,0,-5,-4,15.88
3177,-3,-18,-100,-32,24,8,-6,4,15.885
3178,27,19,-17,-16,-9,-9,-13,-14,15.89
3179,-11,3,-3,22,-4,-11,-36,-28,15.895
3180,-23,24,-6,-4,-14,1,15,14,15.9
3181,20,-29,26,16,-26,3,45,41,15.905000000000001
3182,6,-14,-53,-11,26,6,-28,-11,15.91
3183,-47,-7,13,12,-27,-21,-19,-30,15.915000000000001
3184,44,5,-18,-4,-4,-5,-13,-18,15.92
3185,-5,13,17,17,-1,6,29,22,15.925
3186,-5,35,10,-2,9,0,-19,-15,15.93
3187,-7,-52,-34,14,34,8,13,13,15.935
3188,36,18,8,-15,-4,8,51,44,15.94
3189,-40,8,9,-8,-15,-11,-44,-36,15.945
3190,-8,-27,-15,-13,-16,-15,-24,-17,15.950000000000001
3191,-14,-19,1,6,-8,-3,-1,1,15.955
3192,-5,-10,19,-3,-1,1,6,4,15.96
3193,15,-3,-22,-3,5,4,20,14,15.965
3194,9,-11,-15,-6,3,3,4,7,15.97
3195,-11,3,19,6,-4,4,37,15,15.975
3196,7,15,1,-7,-9,-2,-21,-15,15.98
3197,-15,-24,4,-5,-4,-12,-42,-29,15.985000000000001
3198,-11,25,-11,-4,-8,-11,-11,-6,15.99
3199,-11,-17,-3,7,-2,-2,-13,-8,15.995000000000001
3200,6,10,2,8,3,5,22,19,16.0
3201,22,-9,-16,-10,-1,7,36,16,16.005
3202,-9,8,-18,-3,0,0,-5,-6,16.01
3203,-6,18,13,7,1,1,1,5,16.015
3204,3,22,15,-5,3,-1,2,1,16.02
3205,2,-2,-34,-8,-4,-1,-12,0,16.025
3206,-8,14,20,-3,1,0,3,0,16.03
3207,-3,14,-8,-2,-3,-2,-5,-7,16.035
3208,0,28,27,2,-2,-3,-9,-6,16.04
3209,-1,6,-3,8,0,-4,-5,-7,16.045
3210,12,10,-10,13,5,3,16,12,16.05
3211,-9,-14,-10,-20,-5,-3,-9,-5,16.055
3212,-1,-3,0,-1,-1,-4,-13,-9,16.06
3213,-2,-1,6,-1,0,-1,8,2,16.065
3214,2,-13,-3,3,5,5,5,4,16.07
3215,-8,0,3,8,-1,-1,-14,-7,16.075
3216,2,-23,-31,-8,-4,-1,0,1,16.080000000000002
3217,10,-18,15,2,-1,2,8,8,16.085
3218,-9,-40,-18,-4,-1,0,-3,-9,16.09
3219,-5,-33,-12,-2,-2,-1,-8,-8,16.095
3220,3,-18,-6,0,-2,-1,5,6,16.1
3221,6,-40,12,1,-2,2,2,2,16.105
3222,1,13,7,-3,-1,0,-1,3,16.11
3223,-3,8,10,4,0,-3,-1,0,16.115000000000002
3224,-5,17,-7,1,-2,-1,0,-3,16.12
3225,0,0,-6,-1,1,0,-4,-3,16.125
3226,-2,-15,-13,-2,-3,-2,2,1,16.13
3227,-3,-2,-2,-6,-2,-1,-3,-3,16.135
3228,-3,14,-1,-2,-2,-1,-1,-1,16.14
3229,7,8,-5,-2,1,-1,0,0,16.145
3230,-3,26,9,-4,-1,0,2,0,16.15
3231,3,-14,16,8,2,-1,-5,0,16.155
3232,-3,3,-5,-3,-3,-3,-3,-2,16.16
3233,-1,-7,-4,-8,-4,-1,4,-1,16.165
3234,0,-11,3,-1,-1,-1,0,-1,16.17
3235,4,13,10,2,0,-1,-2,0,16.175
3236,-2,-28,-2,2,0,-2,-1,1,16.18
3237,0,-8,7,3,-1,-3,-2,-3,16.185
3238,3,7,5,-1,-2,0,0,2,16.19
3239,2,1,8,2,-2,0,-2,-2,16.195
3240,0,-10,-4,0,0,-1,-1,0,16.2
3241,2,7,6,-1,-1,-1,0,0,16.205000000000002
3242,-1,14,7,-3,-2,-2,-1,0,16.21
3243,-5,-28,16,4,0,-1,0,-1,16.215
3244,0,-8,1,0,0,1,0,-2,16.22
3245,-3,-2,3,-1,0,-1,-2,-2,16.225
3246,1,11,-1,-3,0,-1,-2,0,16.23
3247,2,13,-3,3,1,0,-2,-1,16.235
3248,-1,4,-8,-7,-3,-2,-2,-1,16.240000000000002
3249,3,-2,-4,0,-1,0,-2,-1,16.245
3250,0,-5,-6,-1,0,-2,1,0,16.25
3251,1,7,0,1,-2,0,-1,0,16.255
3252,-1,-3,-3,1,0,-1,-4,-2,16.26
3253,0,6,0,3,-1,1,-2,-1,16.265
3254,0,-8,-6,-5,-3,0,0,0,16.27
3255,-1,6,-3,-1,-1,-2,-1,0,16.275
3256,1,1,-3,0,-2,1,-1,0,16.28
3257,1,4,3,0,-1,-1,1,-2,16.285
3258,0,-2,-1,5,2,0,0,-1,16.29
3259,0,1,-8,-5,-3,0,-2,-1,16.295
3260,0,-2,-2,0,1,0,-1,-2,16.3
3261,-1,0,1,0,-2,-2,-1,0,16.305
3262,0,-4,-3,-2,0,1,-1,0,16.31
3263,-2,6,0,-1,0,-1,-1,-1,16.315
3264,0,-2,-3,0,-2,0,-1,-2,16.32
3265,-1,-1,-1,-2,-1,-1,-1,-4,16.325
3266,2,4,-1,0,-2,1,-1,0,16.330000000000002
3267,0,3,1,0,0,-2,1,-1,16.335
3268,-1,-2,-3,-1,0,-1,0,0,16.34
3269,0,1,-4,-1,1,1,0,-1,16.345
3270,-1,-2,-1,-2,-3,-1,-1,0,16.35
3271,-1,0,0,1,-1,1,0,-2,16.355
3272,-2,-2,-1,1,-1,0,0,0,16.36
3273,1,2,1,-3,0,1,0,-1,16.365000000000002
3274,-2,-3,0,1,1,0,-1,-1,16.37
3275,-1,2,-2,-1,-2,-1,1,1,16.375
3276,-1,0,5,0,0,0,0,0,16.38
3277,-2,-1,2,-1,-1,-1,-2,-1,16.385
3278,-1,-1,-2,-3,-2,-1,-1,0,16.39
3279,0,-2,0,-1,1,-1,-1,-1,16.395
3280,0,-2,-3,-1,0,-1,-2,-1,16.4
3281,-1,-1,-1,-1,-4,-1,-1,1,16.405
3282,1,-1,-1,0,-1,-1,-1,0,16.41
3283,1,3,-3,-1,-1,-2,0,-1,16.415
3284,0,-2,-2,-3,0,-2,-3,-1,16.42
3285,0,-1,-2,-3,-2,-2,0,-1,16.425
3286,-1,-1,-3,-1,0,1,-2,-1,16.43
3287,-1,-1,1,-1,-2,0,-2,0,16.435
3288,0,-1,6,0,1,1,0,-3,16.44
3289,-2,0,3,-1,0,0,0,0,16.445
3290,-2,-1,2,0,1,-1,-1,0,16.45
3291,-2,-1,12,0,-1,-1,-1,0,16.455000000000002
3292,-2,-2,5,-2,-1,0,-1,0,16.46
3293,0,-1,-1,-1,-1,-1,-1,0,16.465
3294,-1,-1,-4,0,-2,-1,-1,-2,16.47
3295,1,3,-1,-1,0,0,-1,-2,16.475
3296,-2,-6,-5,-2,-3,-1,0,0,16.48
3297,-1,0,-6,-1,-1,0,0,-1,16.485
3298,0,-1,-4,-2,-1,-1,-2,0,16.490000000000002
3299,-2,1,-10,-1,0,-1,0,-1,16.495
3300,0,3,-8,-1,-1,-1,0,-1,16.5
3301,-1,1,-5,0,-1,-1,-1,-1,16.505
3302,0,1,-3,-2,0,-1,0,0,16.51
3303,-2,-2,-3,-4,-2,-2,-1,-3,16.515
3304,0,-2,-4,0,-1,-2,-1,-1,16.52
3305,-2,4,18,0,-1,0,1,-1,16.525
3306,1,0,8,1,-2,-2,0,0,16.53
3307,-2,-1,0,-1,-2,-2,-2,-1,16.535
3308,-3,-1,-7,0,0,-1,-1,0,16.54
3309,-1,-2,-12,-1,0,-2,-1,-1,16.545
3310,0,-1,-4,0,1,0,-1,0,16.55
3311,-1,-1,-6,-1,-1,1,-1,1,16.555
3312,1,-2,-6,-1,0,-1,-2,-3,16.56
3313,-1,-1,-4,-2,0,-1,-2,-2,16.565
3314,-2,-1,0,-1,0,0,-1,-1,16.57
3315,-1,-2,-1,-3,-1,-1,-1,-1,16.575
3316,1,0,4,-1,-2,-1,2,0,16.580000000000002
3317,-2,0,-2,-1,-1,0,1,-1,16.585
3318,-1,-4,-7,-1,-1,-2,-3,-2,16.59
3319,0,0,-1,-1,-2,-2,-1,0,16.595
3320,-2,-1,-1,-1,-2,0,0,-1,16.6
3321,-1,-1,-2,-1,1,2,-1,1,16.605
3322,-1,-1,0,0,-1,-1,0,-1,16.61
3323,-2,0,-1,0,0,-2,-4,0,16.615000000000002
3324,0,1,0,0,1,-1,-1,0,16.62
3325,-2,-2,-2,0,0,-3,-2,0,16.625
3326,0,1,-1,-2,0,0,-1,0,16.63
3327,-2,0,-1,1,0,1,-1,1,16.635
3328,-2,-1,0,-1,-2,-2,-1,0,16.64
3329,-2,0,0,-1,-1,1,-2,0,16.645
3330,-1,0,0,-2,0,-1,-2,-1,16.65
3331,-1,0,2,-1,-1,-1,1,-1,16.655
3332,-2,-2,0,-2,-2,1,-1,-1,16.66
3333,1,-3,1,1,-2,-1,-3,-1,16.665
3334,-3,0,1,-1,-1,-1,0,-1,16.67
3335,0,-1,-2,0,1,0,0,-2,16.675
3336,-1,0,-1,0,0,1,-1,-2,16.68
3337,1,-1,-1,-1,-2,-1,1,-1,16.685
3338,-2,-1,-2,-1,-1,1,1,-2,16.69
3339,1,-1,-3,1,1,-2,-1,0,16.695
3340,0,0,1,-1,0,-2,-1,-1,16.7
3341,-1,-1,-1,-1,-1,-2,-1,-1,16.705000000000002
3342,2,-2,-1,0,-1,1,0,1,16.71
3343,-2,-2,2,0,0,0,0,-2,16.715
3344,-1,-2,0,-1,-1,1,-1,-1,16.72
3345,0,-1,0,-1,-1,0,0,-1,16.725
3346,-2,-3,-3,-2,0,-2,0,-2,16.73
3347,-2,-2,0,-1,0,-2,0,-1,16.735
3348,0,-2,-1,-2,-2,-3,-1,-2,16.740000000000002
3349,-1,0,0,-1,-2,0,-1,-1,16.745
3350,0,-2,1,-1,-1,-1,-2,-1,16.75
3351,-1,-1,0,0,-1,0,-1,0,16.755
3352,-2,-1,0,-2,-1,0,0,1,16.76
3353,-1,-1,-1,-1,-1,1,0,0,16.765
3354,0,0,1,-1,0,0,-1,-2,16.77
3355,-3,-2,0,-2,-2,0,-2,-1,16.775
3356,-1,0,-1,-1,-2,-1,-1,0,16.78
3357,-1,0,-2,-2,0,-2,-1,-1,16.785
3358,1,0,0,0,-1,-1,0,0,16.79
3359,-2,-2,0,-1,0,0,-2,-1,16.795
3360,-1,-1,-2,-1,-1,-1,0,-1,16.8
3361,-2,-4,-2,-2,-1,-1,-1,0,16.805
3362,-1,-1,-2,1,3,-1,0,0,16.81
3363,1,0,1,0,0,-1,0,-1,16.815
3364,0,1,0,0,-1,-1,0,0,16.82
3365,1,0,-1,0,-1,-3,-2,1,16.825
3366,-1,-3,-2,-3,-3,-1,0,0,16.830000000000002
3367,-2,-2,-2,0,0,1,-2,-1,16.835
3368,0,-1,-2,-2,0,0,-2,0,16.84
3369,-2,0,-2,-1,0,-1,-1,-2,16.845
3370,-2,-1,0,0,-2,-1,-2,-3,16.85
3371,1,0,-1,-1,-4,-1,0,-1,16.855
3372,-1,-2,-1,-1,-2,1,0,-2,16.86
3373,0,-2,-2,0,-1,1,1,0,16.865000000000002
3374,1,-1,0,-1,-1,-2,-1,0,16.87
3375,-1,0,-1,-2,-1,-1,1,-1,16.875
3376,-3,-2,-1,-3,0,1,-2,-1,16.88
3377,-2,0,0,0,-1,1,0,-2,16.885
3378,-1,1,-2,0,0,0,-1,0,16.89
3379,0,-1,-1,-2,0,-2,-1,-1,16.895
3380,1,0,1,0,-2,-2,0,2,16.9
3381,-2,-1,1,-1,-2,1,-1,1,16.905
3382,-1,-2,0,-3,-3,0,0,0,16.91
3383,0,0,0,1,-1,-1,-1,-1,16.915
3384,0,0,-2,0,1,-1,-2,-1,16.92
3385,1,-1,-2,1,0,-4,0,-2,16.925
3386,0,1,-1,-1,-1,0,0,-3,16.93
3387,-3,-1,-2,-1,0,0,-1,-1,16.935
3388,-1,-2,0,-1,-1,-1,-1,-3,16.94
3389,-1,-2,0,-1,-1,-2,-1,0,16.945
3390,-3,-2,0,0,0,-3,-1,0,16.95
3391,0,-1,-2,-2,-1,0,0,0,16.955000000000002
3392,-1,2,-1,1,0,-1,-1,-1,16.96
3393,-1,1,0,-1,-2,0,0,-1,16.965
3394,0,-2,0,1,-2,-1,-2,-2,16.97
3395,-2,0,1,-1,-2,-1,0,1,16.975
3396,-2,0,1,-1,-2,0,-1,1,16.98
3397,-1,-1,0,-2,1,0,-2,0,16.985
3398,0,0,-2,0,1,0,1,0,16.990000000000002
3399,0,0,-2,-2,-1,0,-1,-1,16.995
3400,1,0,0,0,-1,0,1,-1,17.0
3401,1,-1,-1,-1,-1,-1,-1,0,17.005
3402,-1,0,2,-1,-1,0,-1,0,17.01
3403,2,-1,-1,0,2,0,-2,-1,17.015
3404,-3,-2,-1,-1,-1,-2,-1,0,17.02
3405,-2,-1,-2,-1,-1,1,-1,0,17.025
3406,0,0,-1,0,-2,-1,-2,-1,17.03
3407,0,0,-3,-1,0,-1,1,-2,17.035
3408,0,-2,-3,-1,-1,0,0,-1,17.04
3409,-2,-1,2,-1,2,0,0,-2,17.045
3410,-1,0,-1,-2,-1,-3,-1,0,17.05
3411,-1,-1,-1,-1,-1,0,1,-1,17.055
3412,0,-2,0,-1,-2,-1,-4,-1,17.06
3413,0,-1,-2,-1,0,-1,0,-1,17.065
3414,1,-1,-2,0,-2,-1,-1,-1,17.07
3415,-3,0,-3,0,-2,-2,0,0,17.075
3416,-2,-2,-3,-2,1,0,0,1,17.080000000000002
3417,-2,-3,-1,-2,0,-2,0,-1,17.085
3418,-2,-3,-3,-2,0,-1,0,-1,17.09
3419,0,0,-3,1,0,-2,0,0,17.095
3420,-1,0,0,0,-2,-3,-1,-1,17.1
3421,1,-1,-1,0,1,-3,-1,-1,17.105
3422,-4,-2,-1,-2,-1,0,-1,0,17.11
3423,0,-1,0,0,0,0,-1,-1,17.115000000000002
3424,-1,-1,1,0,-1,1,-1,-2,17.12
3425,-1,0,-1,0,-1,0,1,0,17.125
3426,0,2,1,0,-1,-1,0,-2,17.13
3427,0,-1,0,0,0,0,-1,1,17.135
3428,1,1,-1,1,-1,0,-1,0,17.14
3429,-2,-2,-3,-2,-2,-2,0,-3,17.145
3430,-2,-1,-2,-1,-1,-1,1,0,17.150000000000002
3431,-1,1,-1,-3,-1,-1,-1,1,17.155
3432,1,0,-1,-1,-3,-2,0,-1,17.16
3433,-1,0,-1,-1,-1,-2,-1,-1,17.165
3434,-1,-2,-1,-1,0,1,0,0,17.17
