slno,emg1,emg2,emg3,emg4,emg5,emg6,emg7,emg8,Time
0,2,-11,-11,-13,-3,-1,-1,-1,0.0
1,-9,0,6,1,6,2,2,-1,0.005
2,-1,1,-2,4,1,1,0,-1,0.01
3,-1,2,0,-1,-2,-2,0,-1,0.015
4,2,3,-5,8,1,-1,-1,0,0.02
5,4,3,8,-1,-6,-3,-1,0,0.025
6,-9,-8,-2,-7,2,0,-2,-1,0.03
7,-1,8,5,1,-2,-3,-1,-2,0.035
8,2,0,-5,-4,4,0,-2,0,0.04
9,-2,-6,1,3,0,-2,-4,-1,0.045
10,1,4,0,0,-2,-1,-1,-1,0.05
11,1,-5,-9,-4,-4,1,-3,0,0.055
12,-7,5,23,14,9,0,2,-1,0.06
13,-1,1,-16,-13,-7,-4,0,-3,0.065
14,-2,9,10,0,-1,0,1,-2,0.07
15,-2,-9,-2,-3,1,-1,0,-1,0.075
16,-1,12,-2,1,-5,-2,-1,0,0.08
17,3,7,-5,-6,3,1,-1,1,0.085
18,-2,-16,-9,3,0,-1,-2,-1,0.09
19,3,7,13,1,-3,-2,0,0,0.095
20,-3,-10,-8,-5,-1,-1,-2,-2,0.1
21,7,-2,1,0,-4,-3,-1,0,0.105
22,3,-8,-19,-9,-3,0,0,2,0.11
23,1,14,-1,-2,0,-1,0,0,0.115
24,0,-3,-8,-7,-1,0,0,-2,0.12
25,2,3,5,6,-4,-1,1,1,0.125
26,0,-4,-8,-3,8,3,0,1,0.13
27,1,12,15,6,1,-2,-1,2,0.135
28,1,-4,-7,2,1,-1,0,0,0.14
29,-3,-6,-4,-5,-2,-1,-1,-2,0.145
30,1,-8,1,2,-4,0,-2,-1,0.15
31,2,2,-5,-6,-5,-1,-1,0,0.155
32,-2,-14,9,4,0,0,-1,-1,0.16
33,0,8,-2,-5,-1,-3,-1,1,0.165
34,-1,-1,9,2,2,-1,1,0,0.17
35,-2,6,1,-2,-3,0,-1,-2,0.17500000000000002
36,-2,-8,-4,1,-1,0,-1,-2,0.18
37,2,-10,-4,1,5,3,2,-1,0.185
38,-5,5,-3,-13,-9,-5,-4,-4,0.19
39,-2,-13,-11,2,2,0,-1,-1,0.195
40,3,10,12,-5,-1,0,-1,0,0.2
41,-7,4,3,5,-2,-2,0,-1,0.20500000000000002
42,2,6,-14,-1,1,1,-1,-1,0.21
43,2,-1,-3,5,2,-1,-1,0,0.215
44,3,6,19,5,-6,-4,-1,1,0.22
45,-2,1,-18,-26,2,1,-1,-2,0.225
46,-3,-8,-3,3,1,-1,1,0,0.23
47,-2,0,0,2,-1,-1,-1,-2,0.23500000000000001
48,-3,3,-10,7,3,1,-2,-2,0.24
49,1,4,14,-4,-14,-5,-2,1,0.245
50,2,-3,-17,4,1,0,0,-1,0.25
51,-1,-6,14,-5,0,-1,-2,0,0.255
52,-6,-15,0,-9,-8,-4,-1,-2,0.26
53,1,2,0,6,3,0,-1,-2,0.265
54,0,-15,-2,-7,-7,-3,0,2,0.27
55,3,13,-10,-4,2,0,0,0,0.275
56,1,8,3,5,6,2,0,1,0.28
57,-7,-6,-24,-4,-4,-1,0,-2,0.28500000000000003
58,-2,2,24,-1,0,-1,-2,-2,0.29
59,1,13,14,3,-3,0,1,-2,0.295
60,1,-4,-8,-1,0,1,0,2,0.3
61,2,-10,-9,9,4,0,-2,0,0.305
62,-1,10,7,12,-5,-3,-2,-1,0.31
63,-5,-2,-9,-26,6,2,1,-3,0.315
64,1,-4,0,1,0,-2,-1,-4,0.32
65,0,-4,16,3,-5,0,-2,0,0.325
66,-2,3,-1,1,2,0,-1,0,0.33
67,-1,-6,11,6,0,-1,-2,0,0.335
68,-5,-2,-14,-5,0,-2,0,-2,0.34
69,2,7,6,1,3,-1,0,0,0.34500000000000003
70,-3,0,3,-7,-6,-3,-2,-1,0.35000000000000003
71,0,-2,-19,0,-3,0,-3,-1,0.355
72,1,10,3,0,2,1,1,-1,0.36
73,-1,-1,7,0,-3,-1,0,-1,0.365
74,4,2,3,0,-3,-1,1,0,0.37
75,0,-6,-10,2,-1,1,-1,-1,0.375
76,-3,-5,0,-7,-2,-3,-2,-3,0.38
77,2,3,3,-3,-1,-3,-2,-1,0.385
78,2,-1,0,2,3,2,0,0,0.39
79,-8,-5,-5,1,0,-1,3,-1,0.395
80,-6,4,1,2,-4,-2,-1,-3,0.4
81,-1,16,20,4,-4,-2,-2,-1,0.405
82,-1,-20,-13,-9,5,4,0,0,0.41000000000000003
83,-7,-5,8,6,-6,0,0,0,0.41500000000000004
84,3,1,-11,-7,-4,-1,-1,1,0.42
85,-2,-5,-15,9,9,1,1,1,0.425
86,5,14,21,0,-3,-4,-2,-1,0.43
87,-3,-13,1,-3,1,1,0,-1,0.435
88,2,-1,-9,0,-1,0,1,2,0.44
89,7,15,-3,-10,-5,-3,-3,1,0.445
90,-1,-1,9,7,0,0,1,1,0.45
91,4,6,-6,-4,5,1,-1,0,0.455
92,-3,-14,-2,1,0,0,-1,-1,0.46
93,-3,-4,-2,0,0,0,0,-2,0.465
94,-4,-13,-11,-5,-3,1,0,-2,0.47000000000000003
95,2,23,21,6,-1,-3,-2,-2,0.47500000000000003
96,0,15,9,-7,1,0,-1,-3,0.48
97,-2,-32,-16,0,1,0,2,-2,0.485
98,-2,14,-1,-2,-2,-1,0,-1,0.49
99,-1,14,6,4,0,-2,0,2,0.495
100,-8,-28,-11,-6,-4,-1,-2,-2,0.5
101,0,13,10,-5,2,1,-1,-1,0.505
102,-2,-5,-6,3,0,0,-2,-1,0.51
103,5,1,1,-1,-1,-2,-1,0,0.515
104,4,17,0,-1,-3,0,0,1,0.52
105,-5,-12,-10,5,2,0,-1,-3,0.525
106,-2,-14,-8,-20,-4,-1,0,-2,0.53
107,1,9,4,11,-3,-1,-2,1,0.535
108,2,1,-6,-12,0,1,2,2,0.54
109,0,1,20,12,6,2,-2,0,0.545
110,-1,-4,-3,11,3,-1,-1,-1,0.55
111,1,-16,-7,-14,-8,-2,-1,-1,0.555
112,0,-14,-9,-2,-4,-1,-2,-1,0.56
113,1,15,2,-7,-5,-1,0,-1,0.5650000000000001
114,7,27,11,6,2,1,-2,2,0.5700000000000001
115,-5,-32,2,1,-2,-2,-2,-1,0.5750000000000001
116,-6,-5,-8,4,1,-2,-3,-1,0.58
117,0,3,-7,-3,1,-1,0,-1,0.585
118,1,-6,-5,-4,0,-1,0,-2,0.59
119,2,26,-2,-2,-4,-1,0,0,0.595
120,-3,-13,20,8,3,0,-3,-1,0.6
121,-3,-17,-10,-10,-2,1,2,-1,0.605
122,-4,-13,-8,-5,0,-1,0,-1,0.61
123,1,-1,-13,3,2,-1,-1,1,0.615
124,4,17,5,-5,-7,-3,0,0,0.62
125,-2,11,11,6,4,2,-1,-1,0.625
126,-1,-2,-1,7,6,2,-1,-1,0.63
127,2,3,-7,-12,-2,0,0,-3,0.635
128,1,-10,-3,18,4,0,0,0,0.64
129,1,-9,-5,-18,-5,-1,-2,-1,0.645
130,-4,9,-9,2,-2,-1,-1,-1,0.65
131,-5,-2,16,5,4,2,1,-1,0.655
132,1,2,2,-5,0,-1,1,-1,0.66
133,0,-3,-8,-1,-1,-2,-2,-1,0.665
134,-4,13,-8,7,0,-2,-2,-1,0.67
135,2,-19,3,-4,-2,-3,-2,0,0.675
136,1,5,4,-5,6,0,1,1,0.68
137,1,18,2,-5,-2,-1,-1,1,0.685
138,-2,-29,-5,-4,-5,-1,-3,-2,0.6900000000000001
139,-5,-14,-9,5,1,0,-1,-3,0.6950000000000001
140,0,48,14,3,0,1,1,0,0.7000000000000001
141,-2,-28,-14,3,-7,-2,-1,-1,0.705
142,-4,3,11,0,4,1,1,-2,0.71
143,-1,-3,-11,-1,-4,1,1,1,0.715
144,1,-2,-2,-5,2,0,-1,-2,0.72
145,-2,-5,-7,-2,-2,-2,-1,-1,0.725
146,1,-1,6,2,-8,-3,-1,-1,0.73
147,5,-3,-3,-8,-2,-1,-2,0,0.735
148,-1,12,3,5,-4,-2,0,-1,0.74
149,-4,-6,-14,-17,-1,-4,-1,0,0.745
150,-1,-33,5,4,0,-1,-2,0,0.75
151,1,29,8,-1,1,-2,1,1,0.755
152,7,-22,-14,-2,-6,-1,0,1,0.76
153,4,25,17,11,3,2,0,1,0.765
154,2,1,-25,-17,-2,-1,0,1,0.77
155,-4,-2,2,-5,-5,-1,-1,-2,0.775
156,1,-11,11,0,-4,-2,-2,-2,0.78
157,0,-6,-12,3,1,0,1,0,0.785
158,-4,-3,-1,1,-2,-2,-1,-1,0.79
159,-2,-3,-3,1,3,1,0,-1,0.795
160,-1,9,3,-2,4,1,-1,0,0.8
161,-4,-26,-25,-3,-2,0,-1,-1,0.805
162,1,18,10,-1,-7,-3,-1,-1,0.81
163,-2,-9,-2,10,11,1,1,-1,0.8150000000000001
164,-7,-22,0,2,1,0,-2,-2,0.8200000000000001
165,-4,32,24,5,-2,-1,0,-1,0.8250000000000001
166,0,-18,-26,-5,-5,0,2,0,0.8300000000000001
167,-3,-9,-10,-11,-8,-2,-2,-3,0.835
168,2,16,9,0,3,1,-1,-1,0.84
169,2,14,2,10,4,1,0,-1,0.845
170,1,10,1,0,-1,1,-1,-1,0.85
171,-7,-38,-14,-8,-6,-4,-3,-2,0.855
172,-3,-1,-4,0,-1,0,-1,-2,0.86
173,-2,-13,10,5,-6,-4,0,-3,0.865
174,3,18,10,-1,7,2,1,1,0.87
175,2,-4,-18,-11,-5,-1,-1,0,0.875
176,1,6,0,0,-3,-1,1,0,0.88
177,-2,-19,-10,-4,-4,-2,-3,-1,0.885
178,1,7,11,-5,-4,-2,0,1,0.89
179,0,-7,5,10,4,0,1,-1,0.895
180,4,8,-13,-7,7,2,1,-1,0.9
181,2,4,7,4,1,-1,-1,-1,0.905
182,1,12,20,7,0,-2,0,-1,0.91
183,1,-15,-31,9,-2,1,-1,1,0.915
184,-8,15,1,-24,-3,-3,-2,-4,0.92
185,-1,-18,-7,-5,-4,-2,-3,-2,0.925
186,-2,13,4,5,3,1,1,0,0.93
187,1,6,16,5,0,0,0,-1,0.935
188,0,-16,-10,5,-10,-3,0,0,0.9400000000000001
189,-3,-2,6,-4,8,2,0,0,0.9450000000000001
190,-3,-12,9,1,-6,-3,-1,-2,0.9500000000000001
191,-1,17,1,1,5,2,1,0,0.9550000000000001
192,-4,-4,-1,9,1,-2,-1,-1,0.96
193,-4,12,8,-7,-1,-2,-2,-1,0.965
194,2,-33,-28,-10,-2,-2,-1,-1,0.97
195,2,27,9,4,0,-2,-1,-1,0.975
196,-4,-6,0,-2,2,0,1,2,0.98
197,-11,-22,-8,-3,-3,-1,-1,-4,0.985
198,-2,23,18,4,0,1,-2,-3,0.99
199,-1,-10,-2,-7,-4,-1,0,0,0.995
200,-4,-10,5,3,-4,-1,-2,0,1.0
201,10,-1,0,0,-5,-2,-1,0,1.0050000000000001
202,-4,19,-12,-2,2,-1,0,-1,1.01
203,4,18,-1,-13,-3,-3,-2,-1,1.0150000000000001
204,2,1,10,10,-1,-1,-1,-1,1.02
205,3,-1,2,-5,2,0,-1,1,1.025
206,-1,-13,-18,-7,-1,1,-1,0,1.03
207,-1,-2,10,5,-1,-1,-1,-1,1.035
208,0,-2,-11,4,-5,-3,-3,-3,1.04
209,0,6,-1,1,-3,-1,0,0,1.045
210,-2,0,3,-3,0,0,-1,-3,1.05
211,-3,-8,-3,-1,-1,0,0,0,1.055
212,1,-5,2,-2,-3,-2,-1,0,1.06
213,3,10,-3,2,0,-3,0,0,1.065
214,-1,13,-5,-3,-1,0,1,-1,1.07
215,-3,-6,5,1,-1,0,-1,-2,1.075
216,-1,-12,-4,-3,-1,1,-3,-3,1.08
217,-1,2,-6,6,0,2,0,0,1.085
218,6,-4,0,-2,3,2,1,0,1.09
219,9,14,6,-1,-3,-4,-1,1,1.095
220,-2,12,2,-4,0,0,1,-1,1.1
221,-4,0,-2,3,6,1,0,-2,1.105
222,-4,-11,-2,1,2,-1,-3,0,1.11
223,-2,-23,-5,0,-5,-3,-2,-2,1.115
224,4,19,-2,-6,-1,-1,2,0,1.12
225,0,-9,-9,-5,0,0,-2,-1,1.125
226,-2,-6,7,4,-1,-2,0,0,1.1300000000000001
227,-2,18,-10,-2,2,0,0,-3,1.135
228,-3,-14,-6,-4,3,0,-1,-2,1.1400000000000001
229,-1,8,3,-1,-3,-2,-1,0,1.145
230,-1,-6,6,6,2,0,-1,-1,1.1500000000000001
231,-1,-1,-5,0,-3,-1,-1,1,1.155
232,0,12,1,1,-3,1,-1,0,1.16
233,-1,-23,-4,0,-5,-3,-2,-2,1.165
234,1,2,-13,-18,1,2,1,-1,1.17
235,4,-6,-6,1,1,0,0,-1,1.175
236,0,5,11,1,-2,-1,0,0,1.18
237,1,-4,-13,-4,-4,-1,-1,-1,1.185
238,3,31,7,5,-4,1,1,1,1.19
239,-6,-32,-5,-6,1,-2,-1,-4,1.195
240,0,-12,-1,3,2,-2,-3,0,1.2
241,1,-3,4,2,-1,-1,0,0,1.205
242,1,1,16,10,-2,0,1,1,1.21
243,0,9,-6,-15,3,1,-1,0,1.215
244,2,-2,-8,-3,-1,-1,1,0,1.22
245,-8,-9,5,0,-1,-1,-1,-3,1.225
246,0,0,-12,-1,2,1,-1,0,1.23
247,-3,4,1,7,1,0,0,0,1.235
248,-2,3,13,-2,-5,-2,-2,-2,1.24
249,-1,4,-4,-6,1,1,0,-1,1.245
250,-2,-16,-15,-5,-5,-2,0,-2,1.25
251,-5,2,9,3,0,0,1,0,1.2550000000000001
252,-2,-1,-7,-6,4,1,-2,-1,1.26
253,-2,9,13,6,1,-1,-1,-1,1.2650000000000001
254,-3,-6,0,-8,-5,-4,-1,0,1.27
255,1,-6,-2,4,0,0,0,-2,1.2750000000000001
256,4,-14,-23,-16,0,2,0,1,1.28
257,3,16,25,5,-3,-1,-1,1,1.285
258,-2,-24,-13,-3,3,0,0,-2,1.29
259,0,13,15,7,-5,0,0,1,1.295
260,-3,-4,-1,3,-1,0,0,-2,1.3
261,-3,-5,-10,-16,-3,-2,1,0,1.305
262,-1,-1,1,6,2,-1,-1,-1,1.31
263,-5,-9,-3,-5,-1,-2,-2,0,1.315
264,1,3,4,9,1,-2,-2,-2,1.32
265,1,3,-2,4,3,1,1,0,1.325
266,1,2,-5,-5,0,0,0,0,1.33
267,1,2,7,-2,-3,-1,-1,0,1.335
268,-3,-7,6,6,4,-1,1,-1,1.34
269,-2,3,-6,-5,-4,-2,-4,-2,1.345
270,2,-4,4,1,-3,-2,-1,-2,1.35
271,1,4,-4,-5,3,0,-3,-3,1.355
272,-6,-27,4,1,-5,0,-3,-2,1.36
273,4,1,-4,5,0,-1,0,-3,1.365
274,-1,13,-8,-2,-1,-1,-2,0,1.37
275,-2,-3,7,-1,-1,-1,-1,-1,1.375
276,-1,-2,7,-2,-1,-3,0,0,1.3800000000000001
277,-6,-2,-14,-7,-2,0,-1,0,1.385
278,-2,-23,-5,5,-3,-4,-2,-1,1.3900000000000001
279,1,1,-3,-2,5,0,0,-1,1.395
280,2,6,-15,-7,0,1,-1,2,1.4000000000000001
281,-4,-8,19,2,-1,-1,0,-2,1.405
282,-5,11,12,-5,-2,-1,-1,0,1.41
283,0,15,-5,1,-8,-3,-1,-2,1.415
284,-4,2,-2,8,9,3,1,-2,1.42
285,6,-5,-11,-3,-1,2,0,-2,1.425
286,-6,-5,16,6,-1,0,0,-3,1.43
287,-3,-5,-14,5,0,0,1,-1,1.435
288,1,11,-12,-4,-2,-3,-1,0,1.44
289,-4,2,0,-8,1,-1,1,0,1.445
290,0,-1,0,3,2,-2,-2,-2,1.45
291,2,-10,-5,-5,0,0,-1,0,1.455
292,-3,2,5,2,-4,-1,-1,-2,1.46
293,-5,1,-3,15,5,1,-2,0,1.465
294,2,2,6,-5,1,3,0,1,1.47
295,-6,-17,-17,-9,-8,-3,-3,-2,1.475
296,2,19,-4,-5,6,1,2,0,1.48
297,-1,-27,7,2,-4,-5,-2,-2,1.485
298,2,-4,-12,-9,1,0,-1,1,1.49
299,-4,16,20,7,5,-1,1,0,1.495
300,1,-1,0,0,-2,-2,-1,0,1.5
301,-2,-26,-11,-11,-5,-1,0,1,1.5050000000000001
302,4,38,-2,6,5,0,-1,-1,1.51
303,-3,-3,13,-9,-8,-2,-2,-3,1.5150000000000001
304,-1,-7,-5,-1,-3,0,-1,0,1.52
305,4,8,5,5,4,0,0,1,1.5250000000000001
306,-2,-10,-11,-8,-4,-2,0,0,1.53
307,8,9,10,10,0,-2,0,1,1.5350000000000001
308,-5,-9,-17,-7,-1,-1,-1,-4,1.54
309,-4,-4,17,0,4,-1,0,-2,1.545
310,0,-9,-4,2,2,0,-1,0,1.55
311,-5,13,2,-4,-3,-3,-1,-1,1.555
312,6,9,1,1,-3,-2,0,0,1.56
313,0,-3,-11,-1,-3,-3,-3,-1,1.565
314,-2,-3,18,10,7,1,2,1,1.57
315,-2,-9,-8,-7,-3,1,-1,0,1.575
316,-2,0,0,-3,-3,-3,-2,0,1.58
317,-6,-1,-6,-4,-2,-1,0,-2,1.585
318,0,2,0,-3,-7,-1,0,-1,1.59
319,1,-1,-1,7,5,2,1,-1,1.595
320,0,-9,-2,7,-5,-2,-1,0,1.6
321,2,14,3,-6,5,2,0,-1,1.605
322,-1,-6,-4,-2,-4,-2,-1,-2,1.61
323,-3,-2,15,-9,-3,-1,2,-3,1.615
324,-1,-4,-14,-12,-2,-2,1,-1,1.62
325,1,-2,-5,4,-1,0,-3,-3,1.625
326,0,7,-2,0,0,0,0,0,1.6300000000000001
327,1,-4,5,5,0,0,-1,0,1.635
328,-3,1,9,8,-2,0,-3,0,1.6400000000000001
329,4,5,-5,-9,-11,-2,1,2,1.645
330,-2,4,5,-2,3,-3,-1,-4,1.6500000000000001
331,3,5,-13,5,7,1,0,0,1.655
332,-2,-21,-3,3,3,0,-2,0,1.6600000000000001
333,3,17,0,3,5,1,-1,0,1.665
334,-5,-4,-8,-7,-9,-3,-3,-5,1.67
335,-5,1,18,3,-4,-2,-2,-1,1.675
336,0,3,-4,-12,-1,0,0,-1,1.68
337,-7,-22,-3,4,3,0,-1,-2,1.685
338,1,11,-9,1,-4,-1,-1,0,1.69
339,2,-2,-9,-7,0,0,1,2,1.695
340,-4,14,23,7,-1,0,-1,-1,1.7
341,-2,-10,-8,-7,-5,0,-1,-1,1.705
342,-4,-24,0,12,2,-1,0,0,1.71
343,-5,-10,-16,-9,1,0,-3,-3,1.715
344,1,-15,-9,-7,-3,-1,0,1,1.72
345,-4,18,6,-4,-5,-2,0,-1,1.725
346,4,3,-1,7,0,0,0,-1,1.73
347,1,2,-13,1,0,1,0,0,1.735
348,0,-3,9,-2,-3,-3,-2,0,1.74
349,4,17,18,-1,-1,1,0,-1,1.745
350,-2,-7,-3,-9,-5,-1,0,-3,1.75
351,-4,9,2,3,-4,-2,-2,-2,1.7550000000000001
352,-2,-3,-8,-3,0,1,2,-1,1.76
353,0,-6,-6,-1,0,-3,-1,0,1.7650000000000001
354,0,6,4,1,-2,-2,-2,1,1.77
355,-2,-14,-3,5,6,1,0,-1,1.7750000000000001
356,-5,1,5,-14,-7,-3,0,-2,1.78
357,-3,-2,3,0,-1,-2,1,-2,1.7850000000000001
358,-2,-5,-5,-1,0,1,-1,-3,1.79
359,0,-3,-5,-1,-1,0,-1,0,1.795
360,4,1,0,8,3,0,-1,-1,1.8
361,-1,8,-13,-11,-2,1,-1,0,1.805
362,0,-2,6,9,-2,-2,-1,1,1.81
363,-3,-8,-7,-12,0,-1,-1,-2,1.815
364,6,-3,3,5,0,-2,-1,1,1.82
365,2,-10,5,-1,-2,-1,0,0,1.825
366,-7,3,-2,-6,-2,0,-1,-2,1.83
367,1,10,4,-4,-3,1,0,0,1.835
368,1,9,-2,4,0,-1,0,1,1.84
369,3,-1,-5,2,0,-1,-2,0,1.845
370,-6,6,12,-2,2,0,1,-3,1.85
371,-2,-20,-25,1,4,3,0,0,1.855
372,-3,-2,0,-1,-1,1,0,-1,1.86
373,-4,-3,10,1,-1,0,-1,0,1.865
374,5,-4,7,2,-1,-2,-1,-1,1.87
375,-4,5,8,-5,-2,-4,-1,-2,1.875
376,-2,7,-8,6,1,-2,-2,-3,1.8800000000000001
377,-2,-5,-11,2,1,-1,-2,0,1.885
378,0,10,4,-3,2,0,-1,1,1.8900000000000001
379,-1,-11,2,9,-3,-2,0,0,1.895
380,1,2,-1,5,1,1,1,0,1.9000000000000001
381,0,18,-3,-1,11,2,1,0,1.905
382,-2,-14,-2,-8,-6,-3,-4,0,1.9100000000000001
383,0,1,5,2,0,0,0,-2,1.915
384,-3,9,-2,-5,-4,0,-1,-1,1.92
385,-2,-7,-1,8,-4,-2,-2,-1,1.925
386,0,16,-10,-1,6,0,0,2,1.93
387,6,-17,1,-13,-9,-4,-1,0,1.935
388,-4,-9,4,11,11,0,0,0,1.94
389,4,0,10,9,1,0,-2,0,1.945
390,-5,-9,-9,-8,-4,-2,-2,-2,1.95
391,4,13,6,-7,-5,-5,-2,0,1.955
392,0,7,3,-6,-2,-2,-1,-1,1.96
393,-4,-3,4,5,0,-2,0,-2,1.965
394,3,-16,-3,-2,-1,-1,0,0,1.97
395,-7,7,-8,5,0,-1,0,-2,1.975
396,-3,-4,-6,-9,-2,2,0,-1,1.98
397,-2,2,-7,-1,0,-2,0,-1,1.985
398,4,13,10,5,-1,-1,-2,-1,1.99
399,-2,-9,-16,-6,0,0,-1,-1,1.995
400,-1,-4,3,-4,-5,-1,-1,-2,2.0
401,-1,-2,3,7,-2,-1,-1,-3,2.005
402,0,11,0,-5,2,1,0,-1,2.0100000000000002
403,3,-8,4,-2,1,0,0,-1,2.015
404,-2,-3,-5,4,2,0,-2,0,2.02
405,-1,-2,-5,-16,-7,-1,1,-2,2.025
406,0,6,-6,6,-1,0,0,1,2.0300000000000002
407,1,7,9,0,-4,-1,0,-1,2.035
408,4,14,-5,2,2,1,0,-1,2.04
409,-7,-30,-11,-7,-4,-2,-2,-3,2.045
410,0,-2,4,10,-1,1,-1,-1,2.05
411,-4,1,1,-12,-4,-1,-2,-2,2.055
412,3,7,9,0,-6,-3,-1,0,2.06
413,4,13,5,-7,1,-1,-1,1,2.065
414,-7,-4,4,-2,-2,-1,-1,-2,2.07
415,3,4,-9,10,1,0,-1,1,2.075
416,-4,-8,-3,-6,3,1,-1,-3,2.08
417,3,7,8,5,1,-2,-1,-1,2.085
418,0,-17,-7,-7,2,0,-1,-3,2.09
419,0,-1,-4,3,3,2,0,0,2.095
420,-5,9,9,-2,-4,-1,-1,0,2.1
421,-1,-3,-10,-6,-5,0,-1,-1,2.105
422,2,-3,-2,-6,-4,-2,-2,1,2.11
423,-5,-12,7,-1,2,-1,-1,-1,2.115
424,-1,-6,-7,10,1,-2,-2,-3,2.12
425,3,23,-2,5,1,-1,0,1,2.125
426,-3,-9,-6,-10,-3,-1,0,-3,2.13
427,3,0,-11,-17,-3,-1,-1,0,2.1350000000000002
428,-2,-5,-3,-6,-3,-4,-1,-1,2.14
429,0,-1,8,8,0,0,0,0,2.145
430,1,15,12,8,-4,-3,-2,-1,2.15
431,3,-5,-32,-4,2,1,1,0,2.1550000000000002
432,1,3,7,0,-3,-1,-1,-2,2.16
433,0,-5,-4,1,-3,-2,-1,-3,2.165
434,2,-1,-2,-8,2,1,1,1,2.17
435,-3,2,22,8,-2,0,-1,-2,2.1750000000000003
436,2,6,-3,-1,-3,0,-2,1,2.18
437,-5,-27,-9,2,-5,-1,-1,2,2.185
438,-7,10,1,-4,6,1,-1,-3,2.19
439,-7,3,5,13,7,1,-1,-2,2.195
440,-1,-10,-15,-8,-3,-2,-1,-1,2.2
441,-3,-4,12,-4,-2,-1,1,-1,2.205
442,2,-9,-2,4,-5,-3,-2,-1,2.21
443,1,3,4,-1,-2,-1,0,1,2.215
444,-2,8,-1,-2,-1,2,0,-1,2.22
445,2,0,-5,-2,-1,-1,-1,0,2.225
446,3,6,-10,-7,-6,-2,0,0,2.23
447,-3,-29,2,7,4,0,1,-1,2.235
448,0,1,-3,1,5,0,1,1,2.24
449,3,-14,-2,-9,-3,-3,-3,-3,2.245
450,-1,2,-13,-3,-2,0,-1,-4,2.25
451,0,24,13,1,-3,-1,-1,-3,2.255
452,-3,-15,5,5,-4,-2,-1,-1,2.2600000000000002
453,-1,8,-7,-8,2,0,0,1,2.265
454,-2,-27,-5,7,0,1,-2,-2,2.27
455,4,27,5,-7,-3,1,-1,0,2.275
456,-5,-14,-11,-1,0,0,0,-1,2.2800000000000002
457,-3,29,24,8,-1,2,0,-1,2.285
458,-1,-9,-33,-9,0,-1,2,1,2.29
459,-3,-2,6,-3,-3,0,-1,-2,2.295
460,1,-4,8,1,0,-2,-1,-2,2.3000000000000003
461,3,-2,-4,-2,-1,-1,-2,0,2.305
462,-1,1,11,6,0,-1,0,-1,2.31
463,-1,-1,-6,-4,-2,-3,-1,-1,2.315
464,-4,-5,-4,-3,-4,-2,-2,-2,2.32
465,-4,-2,5,0,2,2,-1,0,2.325
466,-2,-11,-7,5,8,3,1,0,2.33
467,3,6,-12,0,0,1,1,0,2.335
468,2,-3,20,-3,-5,-2,-1,-2,2.34
469,-11,7,-6,-1,-1,-3,-3,-4,2.345
470,1,0,5,-3,-2,-3,-1,1,2.35
471,-2,7,3,12,5,0,-3,-3,2.355
472,5,1,-12,0,-4,-2,-1,-1,2.36
473,3,-12,-4,-11,1,1,-2,-1,2.365
474,-1,12,11,4,-4,-3,-1,-3,2.37
475,-2,-11,-1,-6,-3,-1,0,0,2.375
476,-6,10,-1,5,1,0,0,-1,2.38
477,3,12,-5,7,0,1,0,0,2.3850000000000002
478,-2,-8,14,-5,0,0,0,-1,2.39
479,1,-1,-10,-6,-7,-3,-3,-2,2.395
480,-2,3,-4,-9,3,-1,0,-2,2.4
481,0,-21,-8,-3,-4,-2,-1,-1,2.4050000000000002
482,-4,1,13,8,3,0,0,-1,2.41
483,-1,-6,-7,-11,-3,-2,-1,1,2.415
484,1,-7,0,3,4,0,0,0,2.42
485,3,20,17,11,2,2,0,-1,2.4250000000000003
486,1,-12,-22,-7,0,0,-1,1,2.43
487,-2,-8,2,2,-3,-1,-2,0,2.435
488,-2,2,-5,-4,2,0,-1,-1,2.44
489,1,-1,9,-5,-3,-3,-2,0,2.445
490,-4,6,0,7,-1,-1,-2,-3,2.45
491,-1,-10,-22,-21,-1,-1,0,0,2.455
492,2,6,15,5,-2,-1,-1,0,2.46
493,1,-7,-17,-6,0,0,0,-1,2.465
494,1,-5,1,0,-1,-1,-2,-1,2.47
495,-4,14,12,5,1,0,-1,-2,2.475
496,1,12,9,5,-2,-1,0,-1,2.48
497,-4,-6,-24,-6,2,-1,-2,-1,2.485
498,-2,-7,2,-10,-4,-1,-1,0,2.49
499,0,-24,-4,1,5,-1,0,0,2.495
500,2,26,14,0,-5,-3,1,0,2.5
501,-1,2,-3,-2,-1,-1,0,-1,2.505
502,1,-1,-8,-2,-2,-1,-2,0,2.5100000000000002
503,-2,3,-4,6,-2,-3,-1,-1,2.515
504,-5,-8,-11,-16,-4,0,-3,-3,2.52
505,-2,6,-2,6,2,0,0,-1,2.525
506,4,-4,1,-1,-4,-1,2,3,2.5300000000000002
507,-2,5,1,-6,-4,0,-1,-1,2.535
508,-1,-19,-7,0,-1,0,-1,-3,2.54
509,1,7,-13,-5,-1,-1,0,0,2.545
510,-2,1,2,-1,1,1,-1,1,2.5500000000000003
511,2,4,-12,4,0,-1,-1,-1,2.555
512,-8,-12,17,7,3,-1,-2,-1,2.56
513,-2,2,7,-2,-1,-3,-1,-1,2.565
514,0,-1,0,-5,-2,-1,-1,0,2.57
515,-5,4,7,2,2,4,0,-1,2.575
516,-2,-4,-22,-5,0,1,-2,-1,2.58
517,-1,-9,10,5,1,-1,0,0,2.585
518,-6,-10,-7,0,-1,-2,-1,-1,2.59
519,0,-2,3,-1,2,0,-1,-1,2.595
520,7,27,10,7,2,0,-1,0,2.6
521,-6,-20,-3,-3,-3,-1,-1,-2,2.605
522,2,8,5,0,2,1,0,0,2.61
523,0,-15,-7,6,-3,-3,-2,0,2.615
524,2,7,-6,-7,1,0,0,0,2.62
525,2,-14,-21,-6,-6,-2,0,1,2.625
526,-1,7,13,6,4,1,-1,-1,2.63
527,0,-4,10,8,0,-3,-1,-2,2.6350000000000002
528,0,-5,-11,-1,0,-2,-1,2,2.64
529,-2,-1,4,-7,-4,0,-1,-2,2.645
530,4,6,-1,4,1,0,1,-1,2.65
531,-2,12,7,2,5,2,2,0,2.6550000000000002
532,-4,-27,-14,-6,-4,-2,-2,-1,2.66
533,-3,8,12,-4,-1,-1,-2,-2,2.665
534,-2,-7,-10,-11,-7,-4,-2,-3,2.67
535,0,4,8,-3,-6,-3,-1,-3,2.6750000000000003
536,7,-2,-9,-5,1,2,1,2,2.68
537,2,-4,7,5,-4,0,-1,-1,2.685
538,-4,-2,-21,2,4,1,0,-2,2.69
539,-7,-22,8,6,-1,-3,-2,-1,2.695
540,-1,-4,0,-10,-1,-2,0,0,2.7
541,-4,-4,0,3,6,-1,-2,-2,2.705
542,4,8,4,5,-4,-2,-3,0,2.71
543,-2,-8,-8,-18,2,-3,-1,0,2.715
544,-4,-18,-16,14,3,-1,0,-3,2.72
545,3,13,9,-6,-3,-1,0,2,2.725
546,-4,3,-4,-2,-3,-2,-1,-3,2.73
547,0,-1,2,3,-1,-2,-2,-1,2.735
548,-2,1,-5,-8,-7,-2,-2,-2,2.74
549,-5,-10,2,13,6,3,1,-2,2.745
550,1,10,6,-2,1,1,-2,0,2.75
551,-1,6,5,-10,-4,-1,-2,-2,2.755
552,-1,2,-1,1,-3,-1,0,-1,2.7600000000000002
553,0,-9,-16,-1,-2,0,0,0,2.765
554,0,12,15,3,1,-2,1,-1,2.77
555,-21,-16,4,6,-1,0,0,-4,2.775
556,-4,-5,1,-4,0,-1,-1,0,2.7800000000000002
557,3,3,1,2,-1,-1,0,0,2.785
558,-2,-6,-9,-10,-3,0,-1,0,2.79
559,8,19,4,3,3,-1,-1,1,2.795
560,-3,-2,0,-2,-1,-1,0,-1,2.8000000000000003
561,-5,-3,-5,-3,-6,-1,0,0,2.805
562,1,8,7,9,6,0,0,1,2.81
563,5,4,-16,-8,-9,-2,1,0,2.815
564,-2,-12,0,-10,-3,-2,-2,-2,2.82
565,5,33,10,0,2,-2,-1,-1,2.825
566,-8,-8,3,-1,-3,0,-1,-2,2.83
567,-1,-4,2,12,-1,-2,0,-2,2.835
568,-2,-13,-21,-3,1,-1,-1,-1,2.84
569,4,7,-15,-10,1,1,-1,0,2.845
570,1,-6,-10,3,-2,-2,0,1,2.85
571,-1,-6,8,6,0,0,0,0,2.855
572,-1,9,11,-6,-6,-1,-1,-1,2.86
573,-4,-14,-4,1,1,1,-2,-1,2.865
574,5,0,-4,-5,-3,0,-2,1,2.87
575,3,22,2,3,1,0,1,0,2.875
576,0,-10,-7,-1,-3,-2,-2,-2,2.88
577,4,0,16,1,-1,-1,-1,1,2.8850000000000002
578,-2,-29,-5,3,4,0,-2,-2,2.89
579,3,23,0,-10,-3,0,0,2,2.895
580,0,1,6,5,1,1,1,0,2.9
581,-4,-7,-11,-7,-3,0,0,-1,2.9050000000000002
582,-1,-3,0,-1,-5,-1,-1,-1,2.91
583,2,7,9,1,3,0,-1,0,2.915
584,-3,2,9,1,0,0,0,0,2.92
585,0,5,-1,-2,2,0,0,0,2.9250000000000003
586,-1,-4,-1,0,-2,-2,-1,-2,2.93
587,-2,-10,-14,-10,-3,-1,-1,-2,2.935
588,0,7,13,13,6,-1,-2,-2,2.94
589,0,2,-4,6,2,-1,1,0,2.945
590,-6,-3,1,-7,-5,-4,-3,-4,2.95
591,3,-4,-18,-5,2,3,0,1,2.955
592,2,5,5,10,-2,-1,0,0,2.96
593,-7,-17,-10,-10,-4,-2,0,-2,2.965
594,3,21,10,3,-4,-2,-2,-1,2.97
595,0,-8,-9,-8,-1,-1,-2,-1,2.975
596,1,-13,-1,-2,-1,1,1,1,2.98
597,-2,5,13,11,2,0,-1,0,2.985
598,-1,0,-1,-4,0,1,0,0,2.99
599,-3,-5,-6,-5,-3,-2,-3,-1,2.995
600,1,10,-6,-1,0,1,0,0,3.0
601,0,-2,2,1,-1,-1,-1,-3,3.005
602,-2,-1,-1,1,1,-1,1,1,3.0100000000000002
603,-2,-2,-1,6,-3,-2,-2,-2,3.015
604,-5,-16,-6,-17,-4,0,-2,0,3.02
605,0,6,0,-3,-7,-2,-2,-1,3.025
606,0,1,-3,-2,2,-1,0,-1,3.0300000000000002
607,-2,-4,6,6,1,0,0,1,3.035
608,2,11,5,0,-4,-1,-1,0,3.04
609,2,-1,-12,-4,0,-2,1,0,3.045
610,-2,-16,14,6,-3,0,-1,0,3.0500000000000003
611,2,5,6,-6,-3,-2,-1,1,3.055
612,-2,17,21,11,1,1,-1,-1,3.06
613,2,5,-5,1,-4,-2,-2,1,3.065
614,1,-8,-4,2,5,1,-1,-2,3.0700000000000003
615,0,-16,-18,-6,0,3,1,0,3.075
616,-2,-10,-2,-13,-4,-2,-2,-1,3.08
617,-2,7,5,0,-4,-1,-3,1,3.085
618,-4,4,4,7,3,0,1,0,3.09
619,-2,-11,-5,4,-2,-2,-2,-2,3.095
620,-5,0,-11,1,3,-1,0,-2,3.1
621,2,22,4,-4,0,1,1,0,3.105
622,-7,-24,0,-4,-2,0,-3,-2,3.11
623,-2,3,1,2,-1,0,-1,-2,3.115
624,2,-9,-1,2,0,-1,0,3,3.12
625,1,5,2,-2,-3,-1,-2,0,3.125
626,-1,5,1,-2,1,0,0,-1,3.13
627,2,9,14,7,0,0,-1,1,3.1350000000000002
628,-5,-19,0,-10,-5,0,-3,-3,3.14
629,5,-9,-6,-2,0,0,-2,0,3.145
630,-7,8,4,-4,-4,-3,0,-3,3.15
631,-4,-16,-4,2,5,-1,-2,-2,3.1550000000000002
632,8,17,7,3,-1,-3,-1,0,3.16
633,-6,-31,-10,-1,-2,-3,0,-3,3.165
634,3,3,-17,-13,0,2,0,0,3.17
635,0,1,21,5,-4,-1,-1,-2,3.1750000000000003
636,-6,-2,-2,3,2,-1,0,-1,3.18
637,-2,-17,-4,0,-3,-2,0,1,3.185
638,4,11,-9,-3,-4,-3,-1,-1,3.19
639,-3,7,-1,3,0,1,0,-2,3.1950000000000003
640,1,-1,-12,-4,-2,0,-1,-1,3.2
641,-5,-10,-3,2,-1,-1,-1,-2,3.205
642,2,0,1,0,0,-1,0,0,3.21
643,2,3,-8,-10,-3,-1,-1,0,3.215
644,2,9,2,2,1,-1,0,1,3.22
645,-5,-1,-6,-5,2,-1,-1,-1,3.225
646,0,3,8,9,-5,-5,-2,-1,3.23
647,-4,9,-8,-18,3,0,0,-1,3.235
648,-3,-33,-3,6,-1,-2,-1,0,3.24
649,1,4,-10,0,0,1,-1,1,3.245
650,1,0,17,-9,-7,0,-2,1,3.25
651,3,-1,2,5,-2,-1,-1,1,3.255
652,-4,8,-7,5,10,3,0,-1,3.2600000000000002
653,-4,0,9,5,2,-1,0,-1,3.265
654,2,-7,-8,1,0,0,0,0,3.27
655,-4,-11,-6,-7,-5,-1,-2,-1,3.275
656,-5,5,-22,-9,-2,-2,-2,-1,3.2800000000000002
657,-5,5,23,9,4,1,0,-2,3.285
658,-3,8,-17,1,1,0,-2,-2,3.29
659,1,-1,-9,-3,-1,0,1,-1,3.295
660,-2,-7,1,-7,-2,-1,-1,-1,3.3000000000000003
661,3,3,24,11,-1,-1,-1,0,3.305
662,-2,-2,-3,9,3,0,-2,-1,3.31
663,-3,1,1,-10,-5,-2,1,-2,3.315
664,2,11,-8,-7,0,0,-1,0,3.3200000000000003
665,-2,0,-15,-6,-4,1,0,-1,3.325
666,1,-3,9,0,-2,-1,-1,0,3.33
667,0,3,0,6,0,-3,-2,-1,3.335
668,1,-3,18,5,-2,-3,0,-2,3.34
669,-1,3,7,-4,-1,-1,-2,-1,3.345
670,-8,-4,-15,-9,0,-2,-1,-3,3.35
671,3,-1,-7,7,2,-2,0,0,3.355
672,2,18,-6,3,-3,0,0,0,3.36
673,-3,-19,15,-4,-1,-2,-2,-2,3.365
674,-3,-2,-13,-1,-2,-1,0,-2,3.37
675,2,-4,11,-1,0,1,0,-1,3.375
676,-5,2,-4,-12,-6,0,0,-1,3.38
677,7,-29,-21,0,1,-1,1,1,3.3850000000000002
678,-6,4,-3,-2,0,1,1,0,3.39
679,-2,2,8,9,-3,-2,-3,0,3.395
680,1,-6,-2,0,-3,-1,-2,-1,3.4
681,1,5,-3,3,3,1,0,1,3.4050000000000002
682,2,3,8,1,3,2,-1,-1,3.41
683,-1,0,-17,-3,-1,-2,1,0,3.415
684,1,4,16,18,-1,0,-2,-2,3.42
685,-4,-12,-23,-32,-1,-1,-3,-2,3.4250000000000003
686,2,-13,5,1,-2,-1,0,0,3.43
687,-3,7,-10,-7,-3,0,0,1,3.435
688,-4,-6,-2,-5,-7,-3,0,-1,3.44
689,-2,30,10,12,-1,-1,-2,-1,3.4450000000000003
690,-2,-19,0,4,-2,0,-1,-1,3.45
691,2,-11,-4,-9,2,-1,-1,0,3.455
692,-2,-2,-2,-1,2,0,0,-1,3.46
693,2,7,-6,-3,-4,-1,1,-1,3.465
694,-1,3,-8,-10,-2,-1,0,0,3.47
695,-4,9,19,10,1,1,-2,-2,3.475
696,2,4,4,-2,2,1,2,1,3.48
697,-2,9,-5,2,0,-2,-1,-3,3.485
698,5,3,-10,6,5,2,1,1,3.49
699,0,-1,17,-10,-7,-2,0,-1,3.495
700,0,-11,-15,-4,3,-1,-1,-2,3.5
701,2,8,5,-10,-3,1,1,2,3.505
702,0,1,-4,2,-4,-3,2,-1,3.5100000000000002
703,1,2,3,7,1,0,-1,0,3.515
704,0,-8,2,-3,-2,-1,-1,-1,3.52
705,1,-5,-4,4,4,0,-1,0,3.525
706,1,7,-10,-5,-1,0,-1,0,3.5300000000000002
707,-5,-10,-4,-8,-1,0,0,-1,3.535
708,5,12,18,16,2,0,-1,1,3.54
709,-5,-7,-8,-10,-4,-1,-1,0,3.545
710,3,10,11,2,0,-1,0,1,3.5500000000000003
711,-1,-13,-19,-4,0,0,0,-1,3.555
712,-2,4,-1,-2,-4,-1,-2,-2,3.56
713,-4,-18,12,8,-2,-1,0,-2,3.565
714,2,14,3,0,0,-1,-2,-2,3.5700000000000003
715,1,3,0,5,1,-2,-2,-2,3.575
716,-2,-3,-3,-17,-1,0,-1,0,3.58
717,0,6,-11,5,1,0,2,-2,3.585
718,-2,3,6,-2,-2,-1,0,-2,3.59
719,-1,-12,-13,4,-1,0,0,-1,3.595
720,-1,-6,1,-3,2,0,-1,-1,3.6
721,-2,8,15,-1,-2,-2,-1,-3,3.605
722,0,-2,-8,0,-3,-2,-2,-1,3.61
723,1,2,8,2,3,-1,-1,0,3.615
724,-5,1,-7,7,2,0,0,-2,3.62
725,1,-13,-22,-6,0,0,-1,0,3.625
726,-4,-10,3,-3,-1,-2,-2,1,3.63
727,4,8,8,4,-2,-1,0,1,3.6350000000000002
728,-4,-4,-8,-6,-4,-2,0,-2,3.64
729,1,7,7,0,-3,-1,-1,1,3.645
730,0,7,-12,-2,2,0,0,0,3.65
731,-6,-17,-13,-1,0,-1,-1,-3,3.6550000000000002
732,-1,-2,5,2,0,-1,0,0,3.66
733,-1,5,14,9,-1,0,-2,-2,3.665
734,-1,-2,-13,-11,-5,-2,-1,0,3.67
735,-1,-14,-4,-1,-1,-2,-2,-1,3.6750000000000003
736,2,-15,-23,-4,-1,-1,0,0,3.68
737,-4,17,25,2,4,-2,-2,-4,3.685
738,-3,-5,6,8,-1,-1,-3,-2,3.69
739,2,19,8,-2,2,0,-2,1,3.6950000000000003
740,-2,-5,-11,-4,-4,-4,1,0,3.7
741,-3,-11,-4,0,-1,-1,0,1,3.705
742,-1,-1,4,-15,-5,-3,-1,-1,3.71
743,-1,-1,-12,-2,3,1,0,-1,3.715
744,-1,19,22,2,-3,-2,-2,-2,3.72
745,2,-8,-8,10,1,0,-1,0,3.725
746,-4,-14,-11,-10,-6,-2,-2,-3,3.73
747,2,4,9,4,0,-1,0,0,3.735
748,1,-1,3,3,7,1,1,0,3.74
749,-4,-32,-16,-6,-4,-2,-1,-1,3.745
750,1,39,15,9,2,0,-1,1,3.75
751,1,24,11,-1,-3,0,-1,-1,3.755
752,-3,-34,-25,-7,-2,-2,-2,0,3.7600000000000002
753,-2,7,15,3,3,-2,-2,-3,3.765
754,-3,-22,-8,-6,-4,-2,-2,-3,3.77
755,1,5,-2,0,-1,0,-1,2,3.775
756,6,24,11,2,-2,2,0,-1,3.7800000000000002
757,0,-24,-17,-3,6,1,1,2,3.785
758,-1,-11,-11,1,-2,-4,-2,-2,3.79
759,-1,3,1,-5,-3,-2,-1,-1,3.795
760,-5,0,0,4,5,2,-1,-3,3.8000000000000003
761,0,8,-9,-10,-6,-1,0,0,3.805
762,3,-5,9,10,2,1,1,1,3.81
763,-4,7,-2,2,-5,-2,-1,-3,3.815
764,2,2,5,-6,-7,-3,-1,1,3.8200000000000003
765,1,-7,-8,1,-2,-3,-1,-2,3.825
766,-5,9,-1,-7,1,0,0,1,3.83
767,2,8,3,7,0,0,-1,1,3.835
768,5,-2,3,-2,1,-1,-1,-1,3.84
769,-1,3,-2,0,-1,-1,-2,1,3.845
770,0,-15,-4,4,2,-1,0,0,3.85
771,-4,-4,3,-5,-1,-4,-1,-1,3.855
772,-1,5,-4,3,0,-2,-1,0,3.86
773,1,1,-6,-5,-1,0,0,0,3.865
774,-2,3,3,-3,-3,-2,-1,-1,3.87
775,-4,-23,-9,1,-3,0,1,-3,3.875
776,0,-2,5,6,7,1,1,-1,3.88
777,-1,4,-11,9,1,1,-1,-2,3.8850000000000002
778,0,-13,-27,-15,-2,0,-2,-1,3.89
779,-4,4,5,1,-3,-1,-3,-3,3.895
780,3,25,33,10,-4,-2,0,0,3.9
781,-4,-41,-18,-15,0,-3,-2,-2,3.9050000000000002
782,-6,-2,4,12,3,1,0,-1,3.91
783,5,1,-17,-16,0,0,-1,0,3.915
784,-4,-9,-8,-8,-4,0,-2,-1,3.92
785,0,21,16,5,-3,-1,-1,-1,3.9250000000000003
786,-1,-1,0,0,-1,-1,-2,0,3.93
787,-2,-16,-1,1,1,-1,-1,-1,3.935
788,2,16,15,5,-2,-1,-1,0,3.94
789,-6,0,8,-1,-3,0,0,-1,3.9450000000000003
790,3,-10,-1,3,-1,-1,-1,-1,3.95
791,0,9,-5,-3,-2,0,-1,-2,3.955
792,3,-6,5,-4,-5,-2,-1,0,3.96
793,0,6,0,-1,1,-2,-2,-1,3.9650000000000003
794,1,4,-7,-3,2,-1,-2,-1,3.97
795,-9,-10,23,0,1,-2,0,-2,3.975
796,-4,-14,-45,-4,-2,-1,-2,-2,3.98
797,-4,-1,14,1,-4,-2,-3,-4,3.985
798,2,28,39,12,3,1,1,0,3.99
799,1,4,-11,2,1,0,0,-1,3.995
800,-7,0,-1,-9,-3,-2,-3,-1,4.0
801,-1,-2,-3,-5,0,0,0,1,4.005
802,-2,-20,-14,-5,-3,0,-2,-1,4.01
803,-3,-12,-7,-2,-4,-3,-1,-1,4.015
804,0,-12,-6,12,6,0,0,-2,4.0200000000000005
805,1,23,3,-3,-8,-1,-2,1,4.025
806,1,-1,-12,-17,5,0,-1,2,4.03
807,-1,-6,4,5,-2,0,-1,0,4.035
808,1,5,-3,-6,-4,-1,-2,-2,4.04
809,1,-2,7,5,-7,-5,-2,0,4.045
810,-1,2,0,4,2,0,0,-1,4.05
811,0,2,-11,-9,-1,0,-1,0,4.055
812,-1,-3,-7,-4,8,1,1,-1,4.0600000000000005
813,0,5,0,-9,-8,-2,0,-2,4.065
814,-2,-15,19,19,-3,-2,-2,-1,4.07
815,-1,26,-3,-8,8,3,1,1,4.075
816,3,-5,4,8,-8,-3,-1,-1,4.08
817,3,13,-29,-5,8,2,0,0,4.085
818,0,-3,0,-4,-6,-1,0,-2,4.09
819,-9,9,11,6,-7,-4,-4,-4,4.095
820,-3,-35,-12,-6,8,2,0,-1,4.1
821,0,9,10,3,-2,-1,-1,-2,4.105
822,3,5,-4,2,-1,-2,0,1,4.11
823,3,-7,-17,-13,-10,-4,-3,0,4.115
824,-1,12,9,-4,-2,-3,0,0,4.12
825,-7,-19,-14,2,2,-2,-2,-1,4.125
826,-3,3,2,-1,1,-1,-1,-3,4.13
827,0,-13,3,4,0,0,1,0,4.135
828,0,14,20,-6,-4,-1,1,0,4.14
829,5,-4,0,3,3,0,1,-1,4.1450000000000005
830,-5,-2,-8,2,-1,1,0,-3,4.15
831,1,-14,-6,-3,-2,-1,-2,2,4.155
832,-3,15,4,1,8,0,-1,-1,4.16
833,3,17,3,5,1,0,2,1,4.165
834,1,16,-1,-3,-6,-3,0,1,4.17
835,-5,-33,-7,-3,1,-2,-1,-4,4.175
836,-4,-20,-4,-8,-6,-1,-2,-2,4.18
837,-4,10,-1,-10,0,0,-1,0,4.1850000000000005
838,-7,-27,-18,-8,0,0,0,-2,4.19
839,6,26,26,10,-5,-1,0,0,4.195
840,0,3,-11,4,-4,-2,-1,0,4.2
841,1,-7,6,4,3,-1,-2,-3,4.205
842,0,17,14,-1,2,3,1,0,4.21
843,-2,-13,-28,-10,1,-1,-1,-1,4.215
844,-6,-11,-4,3,0,0,-1,-1,4.22
845,0,5,8,4,-2,-2,-2,-1,4.225
846,2,-11,-11,-5,-6,-3,-2,0,4.23
847,-2,8,23,1,5,0,-1,-2,4.235
848,3,-5,1,6,3,1,1,-1,4.24
849,-1,24,1,2,-3,-1,0,-1,4.245
850,-1,-3,-5,-2,-2,-3,-1,-2,4.25
851,2,1,-9,-10,4,1,1,0,4.255
852,1,-2,-8,-3,-7,-2,-1,0,4.26
853,-4,2,13,3,-1,1,0,-2,4.265
854,-9,-37,-7,0,7,2,-1,-3,4.2700000000000005
855,5,24,5,4,1,0,0,0,4.275
856,-3,-1,0,-10,-4,-2,-3,-2,4.28
857,-2,-24,-9,-2,-1,-3,0,1,4.285
858,-2,29,12,-2,-7,-3,-2,0,4.29
859,1,-40,-20,-1,2,0,0,0,4.295
860,0,7,0,-2,2,0,0,-1,4.3
861,-2,-10,-11,-7,-4,-1,-3,-2,4.305
862,1,6,14,5,-1,0,0,0,4.3100000000000005
863,3,5,3,1,-1,0,-1,0,4.315
864,3,1,-10,3,-2,0,-2,-1,4.32
865,1,-4,-6,-5,0,2,1,0,4.325
866,3,9,9,-2,-2,0,0,0,4.33
867,-4,-6,-7,-1,-1,1,-1,-1,4.335
868,0,0,6,4,-1,-4,0,-1,4.34
869,-2,-3,-9,4,-2,-4,-1,-2,4.345
870,7,12,4,-9,1,-3,-1,0,4.3500000000000005
871,-1,4,4,5,-3,-3,0,-3,4.355
872,-4,6,5,-9,-3,-1,-3,-1,4.36
873,-2,-20,-7,5,9,1,0,0,4.365
874,-1,-4,-17,2,-4,-3,1,-1,4.37
875,3,11,17,-7,-1,-2,-2,0,4.375
876,-6,-4,6,-5,-6,0,-1,-3,4.38
877,2,4,-2,0,1,-1,-1,-2,4.385
878,2,-1,12,13,-1,3,-1,0,4.39
879,-6,-36,-33,-11,-3,-1,0,-1,4.3950000000000005
880,3,6,4,1,-2,0,0,0,4.4
881,-3,9,6,-3,-4,-1,-2,-1,4.405
882,-2,-7,0,3,6,0,-1,-1,4.41
883,1,8,8,4,-3,-1,0,0,4.415
884,-5,-1,-15,-3,-1,1,-1,0,4.42
885,-2,-2,4,-2,-5,0,-1,-2,4.425
886,-3,7,9,1,0,0,0,-1,4.43
887,2,33,6,14,3,1,0,2,4.4350000000000005
888,-6,-34,-4,-8,1,-1,-2,-1,4.44
889,2,-11,-8,-3,-1,0,-1,-1,4.445
890,-2,7,-12,-9,0,-2,1,-1,4.45
891,0,-22,15,4,3,2,1,-1,4.455
892,2,19,-3,7,-1,-2,0,-2,4.46
893,1,-11,-18,-1,2,1,0,-1,4.465
894,-1,0,8,-1,-2,-2,-2,0,4.47
895,-2,12,-2,2,-6,-2,1,0,4.4750000000000005
896,1,6,-1,4,3,-2,-1,0,4.48
897,-3,-7,2,-7,-2,-1,0,-2,4.485
898,-2,-12,-10,-4,-3,-1,0,-1,4.49
899,-1,5,3,-4,-4,-2,-1,-2,4.495
900,6,-4,-20,1,5,2,1,2,4.5
901,-2,18,29,7,-3,-1,0,0,4.505
902,-1,-1,0,-8,0,-2,-3,-2,4.51
903,-2,-14,-5,-2,-1,-1,-3,-2,4.515
904,-3,7,3,1,-5,0,2,-2,4.5200000000000005
905,1,-10,-13,3,4,2,0,0,4.525
906,2,5,-5,-9,-4,-1,0,2,4.53
907,-11,-16,-7,9,0,0,0,-3,4.535
908,-3,-4,-3,-2,7,0,-1,-2,4.54
909,1,1,-13,-9,-3,0,-1,0,4.545
910,1,-6,-1,-2,-1,1,1,-1,4.55
911,5,9,4,3,3,-2,-2,1,4.555
912,1,-2,2,1,-3,-2,0,-1,4.5600000000000005
913,-6,-6,7,0,-1,-2,-3,-2,4.565
914,1,10,11,5,-9,-2,0,-1,4.57
915,0,6,-40,5,21,5,1,-1,4.575
916,-2,15,43,0,-9,-1,-2,-2,4.58
917,-3,-24,-16,-3,-7,-3,-1,-2,4.585
918,-1,-4,-6,-9,-3,-4,-1,-1,4.59
919,-1,0,3,1,-1,-1,1,0,4.595
920,7,17,-7,-3,0,0,1,2,4.6000000000000005
921,0,16,11,12,2,0,0,0,4.605
922,-3,-11,-2,-8,1,0,-2,-2,4.61
923,3,-15,-12,-2,1,1,1,1,4.615
924,0,-9,7,3,0,0,-2,-1,4.62
925,2,10,10,-11,-4,-2,0,1,4.625
926,-3,0,-7,8,2,0,-1,-2,4.63
927,-1,5,9,-7,-7,-2,-1,0,4.635
928,4,-13,-10,-10,-4,-2,-1,0,4.64
929,-6,3,8,13,2,-1,0,0,4.6450000000000005
930,-2,2,-13,-4,4,1,-2,-2,4.65
931,-1,0,17,-5,-2,-1,-2,-2,4.655
932,-1,-17,-3,-1,-4,-1,0,-2,4.66
933,-5,-19,7,-3,1,-3,0,-1,4.665
934,3,-6,-27,-1,1,-1,0,0,4.67
935,2,8,5,0,-2,0,0,0,4.675
936,2,10,1,0,-4,-4,-2,0,4.68
937,1,-9,-5,-11,-3,0,0,1,4.6850000000000005
938,2,0,9,15,5,3,-2,-1,4.69
939,-9,-10,-4,3,-7,-5,-4,-4,4.695
940,0,-22,-10,-19,2,1,1,0,4.7
941,3,15,5,-4,-4,-2,-1,-2,4.705
942,0,-1,1,-3,-4,-1,1,0,4.71
943,1,9,1,0,-5,-2,0,-1,4.715
944,-4,4,4,12,7,0,-2,-1,4.72
945,0,-4,-23,1,1,0,-2,0,4.7250000000000005
946,-2,-6,27,-6,-3,-2,-1,-1,4.73
947,0,-4,-4,-2,-1,-1,0,-1,4.735
948,-7,7,0,-2,-3,-2,-1,-3,4.74
949,8,16,-13,1,1,0,0,1,4.745
950,5,22,-1,0,-2,0,1,1,4.75
951,-3,-39,-4,-2,-1,-3,-2,-1,4.755
952,-10,-23,-9,13,7,1,-1,-3,4.76
953,0,0,-4,-9,-2,-1,-1,-2,4.765
954,-2,-4,6,-1,-2,-2,-1,-1,4.7700000000000005
955,3,16,3,-6,-2,-1,-1,0,4.775
956,1,16,-1,7,-5,-1,1,0,4.78
957,-7,-25,1,10,5,1,-1,-2,4.785
958,-2,-6,15,-11,-1,1,0,-1,4.79
959,-1,2,-41,-1,0,0,-1,0,4.795
960,3,16,1,4,-2,-1,0,1,4.8
961,-1,5,18,-4,-3,-1,-2,-1,4.805
962,-4,-8,-14,-1,-3,-2,-2,-2,4.8100000000000005
963,1,9,24,7,5,-1,0,-1,4.815
964,-5,-12,-13,-10,-4,-2,-1,-1,4.82
965,1,2,8,9,-2,-1,-2,0,4.825
966,-5,3,-9,-1,-2,-1,-1,-2,4.83
967,0,2,-2,-7,-4,2,1,0,4.835
968,0,4,-8,-19,0,0,-1,-1,4.84
969,-1,15,1,-3,-1,-3,-1,-2,4.845
970,2,-18,4,14,8,3,-1,-1,4.8500000000000005
971,-8,-6,8,-1,-5,-2,-1,-1,4.855
972,4,3,1,2,5,1,-1,0,4.86
973,1,20,7,-4,-6,-1,-3,-2,4.865
974,-2,-31,-7,6,0,1,-1,-1,4.87
975,-1,2,-32,-9,-2,-2,-3,0,4.875
976,-3,-4,22,7,-1,-1,0,0,4.88
977,1,9,-2,-6,-2,-1,0,0,4.885
978,1,14,5,1,-1,-1,1,0,4.89
979,2,-21,9,1,0,-1,0,-1,4.8950000000000005
980,-1,10,-3,5,1,-1,-2,-2,4.9
981,-4,-12,-14,-3,6,1,0,-2,4.905
982,2,-4,-2,-5,-1,-1,-1,1,4.91
983,-3,10,9,-7,-3,0,1,-2,4.915
984,0,-2,3,6,0,-3,-2,1,4.92
985,-1,0,-1,-7,-6,-2,0,-2,4.925
986,-1,2,-8,1,-4,-3,0,-1,4.93
987,4,7,5,1,2,-2,-1,0,4.9350000000000005
988,-4,-7,4,5,-2,1,-1,-2,4.94
989,0,-3,-2,-4,-6,-3,-2,0,4.945
990,-3,-6,-18,-5,4,3,0,-2,4.95
991,2,8,13,2,-1,-1,-2,-1,4.955
992,6,-2,-19,-13,-6,0,-2,0,4.96
993,0,-5,7,11,1,1,-1,0,4.965
994,-1,11,18,-6,-7,-5,-2,-3,4.97
995,1,15,7,2,1,-2,1,0,4.9750000000000005
996,-1,-11,-1,-1,-1,0,-2,-2,4.98
997,-2,2,-6,-6,-1,-1,0,0,4.985
998,0,4,-4,2,-1,-2,1,1,4.99
999,1,5,4,1,-1,0,-1,0,4.995
1000,-2,-6,-6,-8,-2,-2,0,-2,5.0
1001,-7,-19,-9,-2,-1,1,0,-2,5.005
1002,-1,9,-3,-4,-7,-1,0,0,5.01
1003,-2,0,18,14,10,2,-2,0,5.015
1004,1,13,-2,4,-2,-1,0,1,5.0200000000000005
1005,0,-14,-9,-4,-1,-1,1,-2,5.025
1006,1,7,14,2,-1,-2,-4,-1,5.03
1007,-3,6,-12,-13,-4,-4,0,-2,5.035
1008,0,-9,-4,-2,2,0,1,1,5.04
1009,1,7,10,1,1,-2,-1,0,5.045
1010,0,2,-20,-1,3,1,-1,0,5.05
1011,-3,-6,15,10,-8,-1,-2,0,5.055
1012,-7,-19,-14,-11,10,-1,-3,-4,5.0600000000000005
1013,0,-4,5,4,-2,-1,-1,-1,5.065
1014,7,17,7,-9,-3,-1,-2,1,5.07
1015,-1,-9,-13,3,-4,-2,-1,0,5.075
1016,0,-8,-3,-7,-5,-3,-2,0,5.08
1017,1,2,-1,2,-1,0,-1,-2,5.085
1018,1,3,3,5,1,1,0,-1,5.09
1019,3,-18,-20,-9,-5,-2,-1,0,5.095
1020,-4,-5,17,6,2,1,0,-2,5.1000000000000005
1021,0,11,18,7,4,-2,-1,0,5.105
1022,-7,-4,-12,-3,-2,-2,2,-2,5.11
1023,3,-8,0,-2,1,0,-2,-1,5.115
1024,4,6,-10,-1,-2,2,1,0,5.12
1025,-6,-10,-9,-1,2,2,-1,-2,5.125
1026,-2,-9,8,-6,-6,-3,0,-2,5.13
1027,-3,5,-10,-4,-2,-2,0,-3,5.135
1028,1,3,1,-1,-2,-3,-1,1,5.14
1029,0,7,-3,2,-4,-2,-1,1,5.1450000000000005
1030,1,-10,-1,-6,4,2,0,-1,5.15
1031,2,14,0,0,4,-1,-2,-2,5.155
1032,-3,-30,-1,0,-9,-2,-1,-2,5.16
1033,-4,-7,-9,0,5,0,-2,0,5.165
1034,-3,4,5,4,-2,0,-1,-2,5.17
1035,-2,4,-4,-9,-2,-1,1,-2,5.175
1036,-1,-10,9,7,-2,-1,-2,-1,5.18
1037,1,1,-4,-9,-3,-1,-1,-2,5.1850000000000005
1038,-3,-6,-19,-7,1,-1,-2,-3,5.19
1039,-4,-12,30,9,-1,0,0,-2,5.195
1040,2,24,-9,0,-1,0,-1,0,5.2
1041,-2,-6,6,-4,0,-1,0,-2,5.205
1042,4,1,-2,11,1,1,0,1,5.21
1043,-1,18,2,-10,-4,-1,0,0,5.215
1044,-4,3,-1,5,0,-1,-1,-1,5.22
1045,1,1,-4,-13,-1,-1,0,0,5.2250000000000005
1046,-2,-13,-9,2,-2,-1,-2,-1,5.23
1047,2,-5,-2,8,-3,-2,0,0,5.235
1048,4,22,11,-8,5,1,2,0,5.24
1049,-3,-1,-6,1,0,0,-2,-2,5.245
1050,-3,-3,6,5,0,-1,-1,-1,5.25
1051,3,-11,-2,-6,-4,0,-1,0,5.255
1052,-2,12,2,1,-2,-1,-1,-1,5.26
1053,0,3,-7,1,-2,-1,0,-1,5.265
1054,0,2,6,4,3,1,0,1,5.2700000000000005
1055,-2,-15,-17,-22,-3,0,-2,-2,5.275
1056,0,13,-4,0,2,-2,-1,-1,5.28
1057,-1,9,10,3,5,1,0,-1,5.285
1058,-1,3,0,9,-1,-5,-2,0,5.29
1059,-3,-1,2,-1,6,0,1,-1,5.295
1060,-6,-16,-8,-4,-4,0,-1,-1,5.3
1061,-4,0,0,3,-3,-1,-2,-1,5.305
1062,4,15,12,6,0,0,1,0,5.3100000000000005
1063,1,0,-30,-13,-4,-1,-3,-1,5.315
1064,0,-4,25,-3,-4,-3,-1,-2,5.32
1065,1,-4,-9,5,0,-2,2,0,5.325
1066,-4,-5,3,-1,1,0,-3,-2,5.33
1067,-1,-3,-5,1,0,1,1,0,5.335
1068,3,23,6,10,5,1,-2,-1,5.34
1069,-6,-8,-1,-17,-3,-1,-2,-3,5.345
1070,-2,-14,-9,1,0,-2,-2,-1,5.3500000000000005
1071,-1,-5,5,-5,0,0,-1,-1,5.355
1072,-2,-1,-5,3,0,1,0,-1,5.36
1073,2,5,12,8,-3,-3,-1,-2,5.365
1074,-4,-14,-27,-15,-2,-1,0,-1,5.37
1075,-3,10,20,4,-5,-2,-1,-1,5.375
1076,-1,-6,-1,6,-1,-2,-1,-2,5.38
1077,4,-1,-12,4,3,1,0,-1,5.385
1078,-2,11,17,-6,-9,-2,-1,-4,5.39
1079,0,-3,7,19,22,5,2,0,5.3950000000000005
1080,-4,-24,-16,-1,-4,1,0,-2,5.4
1081,1,16,-5,-2,-7,-3,-2,0,5.405
1082,5,-3,-10,-17,-5,-1,-2,2,5.41
1083,-1,13,19,6,-6,-2,-1,-2,5.415
1084,0,9,2,1,-1,0,-1,-1,5.42
1085,-3,-25,-7,4,-1,2,-1,0,5.425
1086,1,-11,5,-8,-2,-1,-1,-1,5.43
1087,0,-6,-11,1,-6,-4,-4,-3,5.4350000000000005
1088,2,13,4,1,5,0,-1,1,5.44
1089,-5,-20,-12,-17,-8,-1,0,-3,5.445
1090,-1,10,3,6,2,0,0,-1,5.45
1091,-6,-16,-2,3,-1,0,-1,-1,5.455
1092,4,4,6,1,-1,-2,1,1,5.46
1093,-1,26,5,-4,-4,0,-3,-1,5.465
1094,-1,-19,-22,-3,4,-1,-2,-1,5.47
1095,-2,6,0,-2,1,0,-1,-1,5.4750000000000005
1096,-3,-7,-11,-10,-7,-3,1,-2,5.48
1097,0,-14,0,5,4,0,-1,1,5.485
1098,0,15,8,-4,-1,0,-1,-1,5.49
1099,1,6,-13,5,-5,0,0,1,5.495
1100,-4,9,20,-1,3,1,-2,-1,5.5
1101,-1,-20,-4,3,-1,1,-1,1,5.505
1102,-2,-7,3,-1,0,-1,-1,1,5.51
1103,0,13,-7,-10,-2,-2,-2,-3,5.515
1104,2,-7,-7,-6,-6,-1,0,1,5.5200000000000005
1105,2,-1,-26,-4,-1,-2,0,0,5.525
1106,-1,5,19,7,3,1,-1,0,5.53
1107,-1,-12,-6,-5,-2,-2,0,1,5.535
1108,-3,9,1,-1,-4,-2,-2,-2,5.54
1109,-1,12,3,0,3,-3,-1,0,5.545
1110,1,2,-8,-5,2,0,1,-1,5.55
1111,2,-9,-3,2,-2,-2,-3,0,5.555
1112,-4,-2,-7,-8,-7,-2,-2,-2,5.5600000000000005
1113,-4,-13,29,12,10,0,0,-3,5.565
1114,-5,6,-13,1,-2,0,0,-5,5.57
1115,0,4,12,-4,-1,-1,1,0,5.575
1116,4,-12,-14,-9,-1,-1,-1,0,5.58
1117,-4,19,8,-3,-8,-2,-2,-2,5.585
1118,2,-2,3,2,2,0,-1,0,5.59
1119,-7,-4,1,11,4,1,0,-3,5.595
1120,-1,-9,-11,-11,0,1,1,0,5.6000000000000005
1121,4,5,-1,-2,-3,-1,0,0,5.605
1122,1,15,9,0,-4,0,-1,-3,5.61
1123,-1,-12,-11,-3,-3,-2,-1,-1,5.615
1124,-1,-7,-5,2,1,-1,-1,-1,5.62
1125,-2,8,1,-11,-3,-3,-1,0,5.625
1126,-1,-10,10,12,4,0,-2,0,5.63
1127,-2,5,2,-6,0,0,0,1,5.635
1128,-2,-2,10,8,4,0,0,-2,5.64
1129,0,-3,-7,3,-2,0,0,-2,5.6450000000000005
1130,-5,1,0,-15,-10,-3,0,-1,5.65
1131,-2,-2,-8,-2,-3,0,1,-1,5.655
1132,0,-4,2,13,9,1,0,0,5.66
1133,1,6,4,-9,-4,0,-2,0,5.665
1134,2,-6,-11,-1,-3,-3,-3,0,5.67
1135,0,3,0,1,2,1,-2,-1,5.675
1136,-2,4,-8,-8,-5,-1,-2,-2,5.68
1137,-2,-1,4,10,8,3,0,0,5.6850000000000005
1138,-1,-14,-14,-4,-4,-2,-3,-2,5.69
1139,-2,15,10,-3,-4,-3,0,-1,5.695
1140,2,-7,-3,-5,0,-3,-1,1,5.7
1141,3,3,2,7,-3,-1,-1,-1,5.705
1142,0,0,4,8,7,2,0,1,5.71
1143,1,5,3,-8,-6,-2,-3,-2,5.715
1144,-1,-24,-8,-1,-6,-3,-3,-1,5.72
1145,-3,-4,-24,-3,0,1,-1,-2,5.7250000000000005
1146,-1,-13,6,-7,-3,-2,-1,-1,5.73
1147,-2,-5,-6,10,3,0,-1,-1,5.735
1148,-4,14,8,4,0,-1,0,-1,5.74
1149,0,-7,-5,-1,0,-1,-1,0,5.745
1150,-3,11,-2,-4,-4,-1,-1,-2,5.75
1151,2,-2,-5,4,6,0,0,0,5.755
1152,4,7,14,-4,-4,-4,0,0,5.76
1153,-7,-41,-14,-1,-3,-3,-3,-3,5.765
1154,-2,25,3,3,1,2,1,-1,5.7700000000000005
1155,-2,-17,3,2,-1,1,-1,0,5.775
1156,2,16,-9,-18,0,-2,-1,1,5.78
1157,1,-9,7,-1,-3,-4,-2,-2,5.785
1158,1,23,-1,1,-6,-3,-1,-1,5.79
1159,-2,-37,-13,-8,0,-1,-1,-1,5.795
1160,-4,6,8,6,3,2,0,-2,5.8
1161,3,13,14,-8,-5,0,0,1,5.805
1162,-3,-19,-22,2,-2,0,-2,-3,5.8100000000000005
1163,3,17,4,-9,-4,-1,0,0,5.815
1164,-1,-8,-4,13,5,1,1,1,5.82
1165,2,7,14,0,-2,0,1,0,5.825
1166,0,11,-11,0,1,0,0,0,5.83
1167,0,-1,7,2,-1,-1,-2,1,5.835
1168,-6,-20,-16,-6,-3,-1,-1,-3,5.84
1169,3,21,11,0,2,1,1,0,5.845
1170,3,-5,11,7,-1,-1,2,0,5.8500000000000005
1171,2,15,-11,-1,4,1,0,1,5.855
1172,6,-13,6,-4,-4,-1,-2,1,5.86
1173,0,-9,-1,-4,-4,-2,-2,-2,5.865
1174,4,33,3,8,8,1,0,2,5.87
1175,-1,-8,5,-5,-4,-1,-2,-2,5.875
1176,2,4,-1,0,1,1,-1,-1,5.88
1177,-2,-7,4,3,0,0,-1,0,5.885
1178,-5,4,-7,-5,-5,-1,-1,-3,5.89
1179,-2,-24,-6,5,-4,-4,0,-2,5.8950000000000005
1180,-3,0,6,4,-1,-2,0,0,5.9
1181,-2,0,-5,-8,-1,-1,-1,-1,5.905
1182,-4,-20,-5,5,0,-1,-1,-2,5.91
1183,-1,3,4,-4,-2,-1,-1,-3,5.915
1184,-3,15,1,-8,-5,-3,-2,-2,5.92
1185,-1,-1,-4,5,4,0,0,0,5.925
1186,1,5,-5,-1,0,0,-1,-1,5.93
1187,-4,-24,-9,-8,3,1,0,-1,5.9350000000000005
1188,-3,11,16,2,-7,-4,-2,-2,5.94
1189,-5,14,-10,8,8,1,1,-2,5.945
1190,1,-21,1,-6,-2,-1,-1,0,5.95
1191,2,46,0,-1,-5,-1,-1,-1,5.955
1192,1,-20,-10,4,-2,-1,-2,1,5.96
1193,-8,-4,-5,-9,-6,-1,-1,-2,5.965
1194,-3,-22,-3,-3,-2,1,-2,0,5.97
1195,0,11,19,10,5,1,1,0,5.9750000000000005
1196,2,7,-18,2,0,-1,-1,-2,5.98
1197,2,-2,-4,3,-3,-2,0,-2,5.985
1198,-2,-5,1,4,2,-1,-1,-1,5.99
1199,-2,-25,-16,-17,-10,-3,-1,-2,5.995
1200,-5,8,5,2,5,0,1,-2,6.0
1201,2,-3,3,-4,2,0,0,1,6.005
1202,-1,3,6,7,-3,-1,-2,1,6.01
1203,1,6,-1,4,-1,0,0,0,6.015000000000001
1204,-2,-7,-16,-6,-3,-1,-1,-2,6.0200000000000005
1205,-2,-24,1,-9,-3,0,-3,-3,6.025
1206,0,5,18,4,0,-3,-1,-1,6.03
1207,-5,1,-4,1,-4,1,-1,0,6.035
1208,1,-5,-2,2,4,2,0,1,6.04
1209,0,19,5,9,1,-1,-2,0,6.045
1210,2,11,-2,-18,-3,-2,-2,-1,6.05
1211,-6,-31,-10,-7,-7,-5,-2,-1,6.055
1212,7,-1,-3,5,5,0,1,2,6.0600000000000005
1213,-1,2,-2,-3,3,1,0,-2,6.065
1214,-2,-14,5,5,-3,-1,0,0,6.07
1215,2,11,9,-8,-2,-1,1,-2,6.075
1216,0,5,-8,-3,-1,-1,-2,-3,6.08
1217,-2,-15,-3,9,3,1,-1,0,6.085
1218,1,-4,-3,-5,-5,-3,-1,0,6.09
1219,2,-2,4,7,7,1,-1,0,6.095
1220,1,9,8,-5,-2,-1,-2,0,6.1000000000000005
1221,-1,-1,-13,-7,-4,-4,0,-1,6.105
1222,-1,3,2,3,-2,-1,1,-2,6.11
1223,-1,0,-7,-8,2,0,-1,-1,6.115
1224,1,9,5,0,-2,1,0,-1,6.12
1225,-3,-8,-4,2,-1,-1,-2,-2,6.125
1226,1,-13,-3,-4,-1,0,1,-1,6.13
1227,-3,12,1,9,2,1,1,0,6.135
1228,-1,15,7,-1,8,2,0,-1,6.140000000000001
1229,6,9,-10,-8,-4,-2,-1,1,6.1450000000000005
1230,-6,-17,-1,-6,-1,-2,-1,-1,6.15
1231,5,12,9,6,-5,-2,-2,0,6.155
1232,-5,-9,-20,-7,-4,-1,-1,-2,6.16
1233,-8,-31,5,7,0,-1,-2,-3,6.165
1234,-2,8,-4,-9,0,-2,0,-4,6.17
1235,2,0,4,-4,-3,0,-1,1,6.175
1236,2,8,12,18,3,0,-1,2,6.18
1237,5,-6,-12,-8,-2,-1,0,0,6.1850000000000005
1238,2,3,-4,-2,2,2,-1,-2,6.19
1239,-7,0,3,-2,-3,-3,0,-4,6.195
1240,-4,-5,7,0,-3,-1,1,-2,6.2
1241,3,8,6,-3,2,0,-2,1,6.205
1242,-2,-1,-3,-1,4,3,0,-1,6.21
1243,2,-1,-6,5,1,0,-1,-1,6.215
1244,-4,-16,-13,-8,-3,-2,-2,0,6.22
1245,-2,32,26,10,-3,-1,0,0,6.2250000000000005
1246,-1,-8,-12,-15,-5,-2,-1,0,6.23
1247,4,11,4,17,0,-2,-4,0,6.235
1248,-4,-18,-13,-17,2,2,1,-2,6.24
1249,1,1,-4,-1,6,1,1,1,6.245
1250,2,12,12,4,1,-1,0,-1,6.25
1251,-4,-10,-8,-6,-4,-1,0,-2,6.255
1252,1,-7,-5,3,-6,-3,-1,0,6.26
1253,-7,14,4,-3,-5,-2,-2,-1,6.265000000000001
1254,0,13,1,1,1,0,0,1,6.2700000000000005
1255,-3,-15,-6,-5,-1,0,-1,-1,6.275
1256,2,17,15,12,0,0,-1,-1,6.28
1257,0,-35,-14,-9,-6,-2,-2,-2,6.285
1258,-2,-7,-20,1,0,-2,-2,0,6.29
1259,-3,12,12,0,-1,1,0,0,6.295
1260,-2,3,-2,-3,0,-1,-1,-3,6.3
1261,0,9,4,2,0,1,0,0,6.305
1262,-1,-8,-1,0,-2,-1,-1,1,6.3100000000000005
1263,-8,0,3,-5,-3,-1,1,-2,6.315
1264,-4,2,8,5,0,-1,-2,-2,6.32
1265,4,7,-11,1,4,-2,1,0,6.325
1266,0,-21,-9,-8,-4,-2,-2,-2,6.33
1267,2,6,7,-4,-1,-1,-2,-1,6.335
1268,1,-7,-9,5,-1,0,-1,0,6.34
1269,-3,4,19,1,-2,1,-1,-3,6.345
1270,-2,-6,0,1,-1,-1,-1,-1,6.3500000000000005
1271,6,25,0,5,1,0,-1,1,6.355
1272,-7,-38,-16,-11,-8,-5,-2,-3,6.36
1273,6,-11,0,0,-1,0,0,-1,6.365
1274,0,20,6,9,1,1,0,-1,6.37
1275,0,-8,3,-3,3,0,0,1,6.375
1276,4,3,-2,-7,-2,-2,1,2,6.38
1277,1,1,-10,-8,-3,-1,-2,-2,6.385
1278,-1,-10,3,4,-3,-1,-2,-2,6.390000000000001
1279,-2,5,2,5,3,0,-1,-1,6.3950000000000005
1280,-1,20,1,4,0,0,0,1,6.4
1281,-4,-3,7,-11,-6,-2,-1,-1,6.405
1282,2,9,14,7,3,0,0,-1,6.41
1283,1,-8,-16,-4,-3,-2,0,-2,6.415
1284,-4,-21,-10,1,2,0,0,-1,6.42
1285,1,19,10,1,-3,-1,-1,-3,6.425
1286,-8,-15,-14,-9,-4,-2,-2,-2,6.43
1287,2,-4,-8,-2,0,-2,-1,0,6.4350000000000005
1288,-3,-1,31,6,0,-2,-1,-1,6.44
1289,-2,2,0,1,-2,0,-8,-1,6.445
1290,1,20,-26,-10,-4,1,12,0,6.45
1291,-9,-31,-1,1,1,-1,-12,-3,6.455
1292,0,8,-8,-2,-1,0,9,3,6.46
1293,3,5,-4,1,1,-2,1,5,6.465
1294,-2,3,10,-2,-2,0,-4,-4,6.47
1295,1,2,-10,-3,-3,-2,8,-1,6.4750000000000005
1296,-5,-7,-1,-7,-1,1,-4,-3,6.48
1297,0,7,-2,5,-1,1,5,1,6.485
1298,0,-1,5,2,1,0,-2,1,6.49
1299,-2,1,3,-1,-3,-1,-1,-1,6.495
1300,5,-12,-5,0,-4,-1,-8,0,6.5
1301,-6,9,-10,-10,0,-3,0,-2,6.505
1302,-1,-15,4,5,5,1,-3,0,6.51
1303,-2,0,0,-1,1,-2,-1,-1,6.515000000000001
1304,1,10,8,0,1,0,0,-2,6.5200000000000005
1305,2,-12,-8,0,-4,-1,0,0,6.525
1306,-4,2,7,5,2,-1,0,-2,6.53
1307,4,6,0,-16,-2,1,0,0,6.535
1308,-1,0,-7,-3,-2,-1,2,0,6.54
1309,3,-9,-8,-5,-2,0,7,9,6.545
1310,0,0,4,5,-2,-1,-4,1,6.55
1311,1,-1,-1,1,-3,-2,-3,-7,6.555
1312,-1,3,-2,3,11,3,-8,-10,6.5600000000000005
1313,3,3,0,3,-1,-2,-8,-4,6.565
1314,-7,-21,1,-3,-6,-3,2,4,6.57
1315,-1,3,-5,-3,-3,0,4,4,6.575
1316,0,9,3,-5,-5,-3,4,5,6.58
1317,-2,-4,2,9,-1,0,2,-1,6.585
1318,3,-10,-7,-5,4,2,13,18,6.59
1319,0,20,0,8,5,-4,-12,-16,6.595
1320,-7,-3,2,-1,1,-3,-18,-24,6.6000000000000005
1321,-4,-7,-6,-5,-1,-3,-3,1,6.605
1322,3,-4,-1,-2,-8,-1,8,11,6.61
1323,3,-7,-4,-8,-1,1,18,23,6.615
1324,2,0,0,16,-3,1,-6,-12,6.62
1325,-3,2,3,-4,2,-1,-20,-23,6.625
1326,5,8,-3,-1,0,-7,-7,7,6.63
1327,-9,-11,-2,7,0,1,-5,-6,6.635
1328,-15,8,1,-14,-9,-5,3,5,6.640000000000001
1329,0,-24,-2,-4,-16,-5,9,11,6.6450000000000005
1330,-2,16,5,22,21,9,13,5,6.65
1331,16,3,2,-18,-3,3,3,16,6.655
1332,7,-3,-3,0,9,1,-7,-20,6.66
1333,-4,1,-4,7,-3,-9,-33,-38,6.665
1334,-16,-18,2,-9,-13,-7,11,16,6.67
1335,19,20,9,22,-5,0,15,16,6.675
1336,6,4,-7,2,34,14,1,9,6.68
1337,4,-17,-3,22,5,-5,-15,-10,6.6850000000000005
1338,-13,39,-5,-45,-16,-3,-34,-49,6.69
1339,-21,-44,-6,27,10,0,-4,-6,6.695
1340,32,-5,19,-35,-20,-4,17,27,6.7
1341,-31,-9,-6,21,37,16,21,10,6.705
1342,63,-1,-1,-36,-40,-12,-7,-2,6.71
1343,-56,-10,-9,31,25,2,-5,-6,6.715
1344,8,4,-1,12,-18,-8,1,6,6.72
1345,46,23,16,21,1,2,12,19,6.7250000000000005
1346,43,-38,-1,-15,10,3,1,5,6.73
1347,15,44,28,27,-38,-8,0,-2,6.735
1348,-35,-77,-26,-24,0,-7,7,7,6.74
1349,-44,51,5,-47,-19,3,9,5,6.745
1350,-9,-46,-13,18,56,14,-29,-58,6.75
1351,-1,37,-1,-20,18,4,0,14,6.755
1352,-8,-6,37,83,-50,-15,-7,5,6.76
1353,-37,-1,-38,-61,43,14,3,-16,6.765000000000001
1354,-21,-9,-11,54,24,-1,-5,1,6.7700000000000005
1355,34,16,-20,-56,-53,-15,-3,-3,6.775
1356,46,66,25,58,41,9,24,34,6.78
1357,0,-15,2,-21,-4,-1,-18,-21,6.785
1358,18,69,23,51,17,0,5,16,6.79
1359,52,-2,-31,-41,-4,15,17,6,6.795
1360,-102,-2,7,-36,-102,-20,3,0,6.8
1361,-20,-49,-27,19,67,0,-26,-31,6.805
1362,-65,0,39,75,5,-3,-12,-16,6.8100000000000005
1363,67,26,-16,-38,-18,-14,5,27,6.815
1364,44,50,-38,-16,43,27,9,1,6.82
1365,24,101,9,-57,-10,8,49,35,6.825
1366,41,-63,24,-1,-80,-36,-45,-34,6.83
1367,-126,-66,3,95,45,11,-14,-39,6.835
1368,-1,-111,-47,-80,-7,-9,-37,-38,6.84
1369,62,36,15,103,-30,-15,-11,6,6.845
1370,-2,-9,-4,-15,62,23,39,44,6.8500000000000005
1371,-46,-71,10,-63,53,10,21,30,6.855
1372,-25,1,-4,66,-7,1,-2,-16,6.86
1373,15,-25,11,25,-24,-1,-20,-35,6.865
1374,33,23,23,-3,-90,-20,11,15,6.87
1375,-28,-38,51,39,30,3,21,27,6.875
1376,18,36,-81,6,86,27,-29,-51,6.88
1377,-56,-38,75,-116,4,-4,1,30,6.885
1378,-7,1,-66,-27,-34,-13,-19,-31,6.890000000000001
1379,8,33,33,-51,-23,-9,-10,-4,6.8950000000000005
1380,40,21,47,19,-44,-9,46,48,6.9
1381,42,16,-1,28,-26,11,41,40,6.905
1382,-90,-78,-26,-61,62,10,-10,-17,6.91
1383,47,2,-26,-11,-7,3,-33,-31,6.915
1384,-35,107,29,-58,-85,-23,31,56,6.92
1385,53,-70,-21,102,8,-3,-27,-20,6.925
1386,-92,99,15,-99,35,4,-29,-51,6.93
1387,-34,11,3,119,-45,-19,-26,-42,6.9350000000000005
1388,23,-25,-13,-31,97,18,-13,-11,6.94
1389,-8,61,-2,10,-55,-11,36,45,6.945
1390,28,-37,12,-35,-64,-3,34,51,6.95
1391,49,-19,-58,-6,4,11,-5,-17,6.955
1392,3,8,34,4,-48,-9,-2,-4,6.96
1393,-39,20,5,-7,28,4,15,20,6.965
1394,78,20,19,91,-55,-10,-1,1,6.97
1395,-24,-29,-32,-74,63,12,26,11,6.9750000000000005
1396,-42,26,-8,-59,-65,-19,-57,-54,6.98
1397,-23,-118,-29,-56,16,-25,-67,-60,6.985
1398,9,59,-1,87,10,-12,-14,15,6.99
1399,29,92,14,-32,-70,-10,19,17,6.995
1400,10,-59,28,-56,-21,18,85,74,7.0
1401,36,-24,-44,89,15,8,-53,-79,7.005
1402,-39,-5,-32,-82,36,-3,-25,-14,7.01
1403,7,7,18,15,12,-1,-6,-7,7.015000000000001
1404,17,23,19,-1,-59,-23,4,20,7.0200000000000005
1405,92,123,15,-95,-104,1,83,90,7.025
1406,-61,-125,-53,103,119,47,-6,-25,7.03
1407,-77,9,-47,4,-31,-16,-59,-55,7.035
1408,16,-44,8,-57,-2,0,9,7,7.04
1409,36,-65,72,42,-51,-11,23,31,7.045
1410,-13,95,-51,-93,58,12,8,-1,7.05
1411,-85,-25,8,5,-38,-13,-22,-23,7.055
1412,15,34,40,113,-13,0,10,12,7.0600000000000005
1413,6,77,-39,-13,23,9,-10,-21,7.065
1414,5,1,2,-31,0,-5,-7,-18,7.07
1415,71,4,12,66,35,18,31,40,7.075
1416,9,-2,6,-58,23,-5,-20,-19,7.08
1417,-100,9,-23,-4,-21,-15,-23,-11,7.085
1418,15,-11,28,-52,-78,-12,18,29,7.09
1419,71,31,3,44,36,13,14,6,7.095
1420,-72,10,-7,80,93,20,12,19,7.1000000000000005
1421,12,48,-8,-21,35,12,-12,-23,7.105
1422,12,-30,23,-52,-19,-3,-9,-22,7.11
1423,3,-13,30,-19,-47,-15,10,23,7.115
1424,54,96,40,95,-5,5,19,12,7.12
1425,-39,-128,-36,-58,42,24,35,30,7.125
1426,-11,10,-6,12,-2,-16,-35,-33,7.13
1427,29,-37,35,3,-38,-18,-6,9,7.135
1428,9,29,-18,2,42,5,-18,-15,7.140000000000001
1429,-63,-51,-14,29,-60,-16,7,-2,7.1450000000000005
1430,0,-33,-25,-44,-6,11,2,-9,7.15
1431,28,66,36,4,38,19,42,42,7.155
1432,-41,-128,-48,-55,-52,-32,-110,-126,7.16
1433,14,90,-4,-3,6,-9,-22,17,7.165
1434,6,14,6,15,-88,-7,56,58,7.17
1435,-44,98,-2,-33,-3,-7,-31,-37,7.175
1436,-16,-76,-24,-44,-54,-21,-2,20,7.18
1437,60,47,49,99,-20,0,1,-8,7.1850000000000005
1438,-2,-6,-26,7,82,36,14,6,7.19
1439,29,8,-9,-17,-34,5,20,13,7.195
1440,7,29,45,45,-66,-6,22,19,7.2
1441,-44,-29,-2,41,92,28,-7,-20,7.205
1442,9,34,-28,4,0,0,14,12,7.21
1443,-8,-43,-10,-16,2,-4,-18,-15,7.215
1444,14,-27,-41,19,10,4,35,49,7.22
1445,-53,-71,-30,-121,1,1,-6,-25,7.2250000000000005
1446,-19,7,34,12,-24,-25,-78,-77,7.23
1447,-10,-69,-9,-10,14,-8,-45,-17,7.235
1448,-14,51,4,2,2,-3,-7,-6,7.24
1449,38,59,11,-87,-74,-10,49,54,7.245
1450,28,-39,-19,63,-19,3,62,59,7.25
1451,-34,-109,-10,-52,18,9,-14,-23,7.255
1452,-6,-5,-4,7,32,3,-28,-42,7.26
1453,42,41,59,79,38,-2,18,33,7.265000000000001
1454,21,25,-15,-35,-55,-14,-6,-9,7.2700000000000005
1455,-2,-2,17,-61,-44,-4,7,6,7.275
1456,17,-11,-23,-86,14,12,25,36,7.28
1457,7,71,0,105,30,5,-36,-59,7.285
1458,39,-1,-14,21,83,19,35,45,7.29
1459,-59,-41,-18,69,-5,-17,-12,-27,7.295
1460,-69,-69,-32,-28,-43,-24,-47,-37,7.3
1461,24,-11,-12,-29,29,6,10,36,7.305
1462,47,44,40,26,11,6,-9,-24,7.3100000000000005
1463,-4,59,9,35,-23,-2,18,18,7.315
1464,-10,25,-12,-2,23,7,-18,-32,7.32
1465,-7,-37,-20,-6,-15,-10,0,17,7.325
1466,1,-31,19,-14,-56,-10,11,28,7.33
1467,-28,-13,-16,-6,81,10,-4,-17,7.335
1468,20,55,24,-8,19,3,-4,-8,7.34
1469,-15,-23,-44,-29,-61,-11,8,2,7.345
1470,55,43,38,23,32,19,32,37,7.3500000000000005
1471,9,54,24,14,-28,-5,-19,-13,7.355
1472,-54,-98,-17,36,-24,-8,-3,-8,7.36
1473,32,13,6,-25,8,9,17,6,7.365
1474,-35,25,-12,-48,-35,-9,-5,-12,7.37
1475,35,29,27,86,-29,11,40,38,7.375
1476,38,0,-44,-62,77,19,-41,-50,7.38
1477,-53,-4,35,14,-39,-34,-64,-41,7.385
1478,-33,-39,2,1,-13,-5,30,25,7.390000000000001
1479,28,14,-15,13,-11,14,49,49,7.3950000000000005
1480,-24,117,16,-27,-3,-3,-46,-76,7.4
1481,-11,-126,-67,-27,-10,-21,-48,-28,7.405
1482,3,46,39,-7,9,-7,-7,10,7.41
1483,35,52,-10,-31,-22,-3,40,36,7.415
1484,-10,-98,18,64,-3,8,45,45,7.42
1485,6,23,55,-55,13,16,11,-9,7.425
1486,1,50,-6,54,22,1,-2,5,7.43
1487,13,-43,-14,-66,-11,-10,-18,-18,7.4350000000000005
1488,5,20,-5,44,30,5,15,22,7.44
1489,-25,70,-16,27,48,15,0,-18,7.445
1490,-29,-29,16,-18,-48,-12,-19,-12,7.45
1491,0,-30,-25,-9,14,-4,-16,-18,7.455
1492,34,53,10,-27,-33,-4,45,72,7.46
1493,4,-32,6,-4,-20,-4,-27,-36,7.465
1494,-7,-56,-44,17,41,3,-35,-52,7.47
1495,-27,-22,-20,-5,-2,-29,-86,-56,7.4750000000000005
1496,10,28,4,1,6,0,25,23,7.48
1497,-37,-22,1,-11,-30,11,63,57,7.485
1498,8,44,29,7,4,4,19,14,7.49
1499,-25,-19,-9,-67,5,4,-1,-24,7.495
1500,26,-17,24,51,-58,-13,14,43,7.5
1501,15,-30,5,-6,49,21,-13,-28,7.505
1502,-48,-84,-51,-1,-42,-12,-22,-16,7.51
1503,-23,5,6,39,-11,-11,-1,9,7.515000000000001
1504,41,46,0,-39,-22,-8,-3,-4,7.5200000000000005
1505,38,-12,-2,27,12,-2,1,13,7.525
1506,-98,18,-3,-3,-28,-12,-10,-26,7.53
1507,31,31,14,-19,-8,8,34,28,7.535
1508,24,-11,15,65,46,16,2,4,7.54
1509,-10,-49,-54,-28,-23,-21,-43,-38,7.545
1510,-4,66,23,-15,67,14,23,37,7.55
1511,-45,-25,-18,5,-10,-1,-32,-41,7.555
1512,36,35,23,7,6,8,18,13,7.5600000000000005
1513,8,104,4,14,-36,-2,29,24,7.565
1514,10,-29,-21,-82,76,11,-56,-45,7.57
1515,-61,-84,-20,0,5,-14,-10,-19,7.575
1516,0,5,11,-2,0,2,11,1,7.58
1517,26,-21,16,31,-14,-5,4,4,7.585
1518,11,-40,2,-14,-69,-9,15,29,7.59
1519,58,64,34,49,43,16,10,18,7.595
1520,2,-7,-34,-11,14,14,28,12,7.6000000000000005
1521,-11,74,65,-29,-30,-4,0,8,7.605
1522,25,16,-55,80,35,-4,-38,-38,7.61
1523,9,-16,1,-38,11,10,4,-2,7.615
1524,-53,-21,-33,-2,-13,-11,-12,-15,7.62
1525,-20,-51,2,2,-27,-4,18,25,7.625
1526,6,-5,10,-13,17,16,9,-3,7.63
1527,-12,96,20,40,-8,-9,-8,-23,7.635
1528,16,19,-36,-12,30,6,-7,6,7.640000000000001
1529,-22,19,15,-15,-12,-14,-25,-25,7.6450000000000005
1530,67,34,25,-14,-46,-9,18,42,7.65
1531,-16,1,-33,-32,0,8,-3,-11,7.655
1532,-36,-11,4,14,2,-4,-25,-32,7.66
1533,1,-23,-14,21,17,1,6,13,7.665
1534,1,1,54,24,-18,-7,6,-5,7.67
1535,43,17,-8,-80,-48,-7,19,34,7.675
1536,25,5,-39,87,100,27,20,13,7.68
1537,1,-56,-32,-3,-13,2,5,-4,7.6850000000000005
1538,-6,13,20,-28,0,1,4,10,7.69
1539,15,-66,-3,-16,-21,-14,-47,-34,7.695
1540,-35,4,38,5,-37,-20,-37,-35,7.7
1541,-7,39,-32,-46,39,16,44,34,7.705
1542,50,-13,14,6,-63,3,52,50,7.71
1543,-46,36,14,42,33,4,-43,-51,7.715
1544,-36,-110,-24,-70,-17,-20,-61,-56,7.72
1545,-17,28,-24,11,14,-6,-13,-5,7.7250000000000005
1546,17,91,31,3,-37,-5,30,32,7.73
1547,21,-50,-42,-11,-22,3,50,52,7.735
1548,49,-24,30,-28,-16,9,11,9,7.74
1549,11,53,32,55,14,8,15,11,7.745
1550,-65,-63,-48,-40,16,-14,-72,-98,7.75
1551,-21,22,46,9,-15,-10,-5,0,7.755
1552,-1,-2,-5,-12,1,3,19,11,7.76
1553,33,17,6,1,4,2,13,20,7.765000000000001
1554,25,-63,16,19,1,8,19,25,7.7700000000000005
1555,-6,-11,-14,35,44,8,-21,-28,7.775
1556,-23,29,55,-30,-61,-17,10,14,7.78
1557,44,-11,-30,-11,41,17,1,-7,7.785
1558,-7,-36,4,0,-78,-20,22,22,7.79
1559,-29,21,-30,-26,88,29,-7,-14,7.795
1560,-9,-68,-5,11,27,-10,-25,-5,7.8
1561,-7,52,46,43,-3,-5,-14,-24,7.805000000000001
1562,18,47,-30,-7,15,0,-35,-42,7.8100000000000005
1563,-5,-67,-16,-10,-60,-14,32,38,7.815
1564,-12,40,-18,1,9,5,-2,-12,7.82
1565,12,32,82,-4,-8,-5,-2,19,7.825
1566,-10,-30,-17,-6,1,1,13,13,7.83
1567,9,-6,-6,-24,-25,-6,6,1,7.835
1568,-9,16,-4,5,7,0,-5,-5,7.84
1569,-19,-39,-38,15,-10,-2,-1,-7,7.845
1570,-4,27,18,1,-31,-7,-6,-1,7.8500000000000005
1571,19,32,15,1,37,1,-1,12,7.855
1572,41,21,-12,20,9,8,13,11,7.86
1573,-30,8,-27,-29,-11,3,-5,-7,7.865
1574,-61,58,27,-1,33,5,8,4,7.87
1575,16,-27,-13,-7,-18,-13,-39,-52,7.875
1576,69,21,6,19,-24,-8,-1,14,7.88
1577,-65,-53,-6,-14,-4,0,18,27,7.885
1578,-14,-50,-22,-6,15,-4,-36,-55,7.890000000000001
1579,6,43,24,14,-13,-6,9,25,7.8950000000000005
1580,5,18,-30,-12,-4,2,-7,-4,7.9
1581,28,-28,-4,-2,-16,-8,-6,-18,7.905
1582,-11,52,-14,19,18,10,24,38,7.91
1583,35,18,53,24,-34,-1,22,30,7.915
1584,-17,38,33,-24,58,13,-10,-21,7.92
1585,-30,-88,-57,-16,-23,-16,-21,-14,7.925
1586,-2,-80,0,20,54,14,10,5,7.930000000000001
1587,31,49,28,-4,-10,-1,-9,-16,7.9350000000000005
1588,-19,-15,-24,5,-13,0,24,21,7.94
1589,-24,-2,7,-13,-17,-10,-20,-20,7.945
1590,-16,8,-23,4,4,-5,-8,-11,7.95
1591,16,-4,17,12,-6,2,5,10,7.955
1592,12,2,-6,-17,-9,5,11,14,7.96
1593,23,5,23,17,31,5,5,6,7.965
1594,36,3,-12,11,-25,-3,19,8,7.97
1595,-13,0,-11,-7,12,8,20,25,7.9750000000000005
1596,-27,61,16,-9,-48,-23,-32,-45,7.98
1597,-55,-41,-32,17,63,12,-40,-46,7.985
1598,16,10,-2,-15,-11,-6,-16,-7,7.99
1599,27,11,11,0,-2,-1,15,32,7.995
1600,9,-59,-7,-8,-15,6,42,23,8.0
1601,16,35,10,-22,-27,-11,-17,-7,8.005
1602,-10,-14,6,9,5,-2,-7,0,8.01
1603,-2,5,-55,4,11,6,1,-3,8.015
1604,4,-11,21,9,4,2,-6,12,8.02
1605,23,17,-22,-27,-8,0,16,11,8.025
1606,-4,-12,7,11,2,0,-16,-7,8.03
1607,-1,0,9,-2,-12,-5,0,-14,8.035
1608,-10,5,31,11,12,-2,13,-1,8.040000000000001
1609,7,1,-28,2,-11,1,12,8,8.045
1610,9,37,9,-12,1,-1,-11,-2,8.05
1611,3,-27,-24,8,14,8,47,48,8.055
1612,20,-49,-24,-12,8,9,-30,-30,8.06
1613,-76,66,23,0,-11,-17,-49,-65,8.065
1614,5,-39,-17,7,-12,-7,6,6,8.07
1615,0,10,16,0,-5,-4,-6,7,8.075
1616,12,-8,-11,-6,3,-2,-6,-1,8.08
1617,35,34,17,-10,-12,1,4,26,8.085
1618,6,-4,-3,13,-8,-3,3,3,8.09
1619,-10,-10,-13,-17,-3,-2,12,6,8.095
1620,-8,0,0,10,3,3,12,9,8.1
1621,20,-1,20,-10,0,1,1,2,8.105
1622,-5,25,10,-1,-23,-6,9,9,8.11
1623,4,-23,-8,12,58,18,-9,-22,8.115
1624,-45,8,-15,-5,-7,-11,-8,2,8.120000000000001
1625,19,-50,-12,-4,-16,-5,-23,-24,8.125
1626,20,6,27,7,-6,0,8,15,8.13
1627,-64,-15,-23,-12,-16,-18,-33,-35,8.135
1628,-6,47,33,-4,1,4,11,7,8.14
1629,35,-27,-10,15,4,-7,14,24,8.145
1630,-1,-9,-16,-9,2,15,2,19,8.15
1631,-5,8,21,-3,-12,-10,-7,-39,8.155
1632,-4,5,-9,-8,7,-11,-20,26,8.16
1633,-5,-83,47,14,-4,9,12,-12,8.165000000000001
1634,16,24,-27,-16,4,-1,3,-4,8.17
1635,-1,-5,3,9,-1,2,2,-3,8.175
1636,0,-5,0,10,-15,0,7,-4,8.18
1637,0,35,9,0,-7,-2,9,18,8.185
1638,-6,-2,12,10,48,7,-18,-13,8.19
1639,-12,-4,-11,0,5,2,0,7,8.195
1640,7,-24,2,-4,-11,-5,1,-3,8.2
1641,-16,-11,-67,-24,-11,-5,-3,6,8.205
1642,-55,7,11,12,-6,-5,-17,-23,8.21
1643,3,-21,9,4,-3,1,-16,-9,8.215
1644,13,2,1,-5,5,1,18,-12,8.22
1645,15,-37,31,15,4,-12,13,10,8.225
1646,22,72,-2,-9,-4,2,-25,17,8.23
1647,18,2,-16,-14,-9,-2,18,8,8.235
1648,-5,-4,29,5,-3,5,0,-9,8.24
1649,-8,-9,-7,20,13,4,-23,7,8.245000000000001
1650,14,72,27,-15,-4,-13,18,-1,8.25
1651,-21,-79,-9,23,-3,-5,-65,-29,8.255
1652,7,-26,-31,-31,-3,7,40,5,8.26
1653,-1,18,77,-16,-3,4,23,5,8.265
1654,-10,-35,-22,-7,-3,-10,-15,-16,8.27
1655,8,58,9,11,2,1,5,13,8.275
1656,-8,4,-11,13,9,1,-16,-11,8.28
1657,0,9,-31,-8,-1,4,-3,7,8.285
1658,6,-38,-25,-9,-5,2,3,-1,8.290000000000001
1659,9,0,7,5,-1,2,15,13,8.295
1660,-10,47,46,11,-3,-5,-12,8,8.3
1661,3,20,-18,-19,-2,-2,3,-19,8.305
1662,-1,-30,21,16,2,5,4,-2,8.31
1663,3,50,-22,-8,-2,-4,5,4,8.315
1664,-12,-59,-50,-13,-1,0,-11,1,8.32
1665,13,66,39,12,4,1,0,4,8.325
1666,-10,-91,-51,-2,-8,-2,4,-10,8.33
1667,-6,-36,0,0,-8,-1,4,8,8.335
1668,1,89,15,-4,12,2,-4,-6,8.34
1669,1,-15,-30,0,-1,1,2,0,8.345
1670,11,48,-7,-2,-8,-2,4,4,8.35
1671,-10,-29,10,0,1,2,6,3,8.355
1672,-7,-63,7,13,-3,-3,-11,-5,8.36
1673,2,42,-13,-10,18,2,2,0,8.365
1674,1,-42,19,-9,-8,0,5,4,8.370000000000001
1675,5,-10,-2,-18,-11,-2,-5,-2,8.375
1676,-1,57,15,18,2,-3,-4,-7,8.38
1677,-16,-43,-53,-13,-7,-2,-1,-3,8.385
1678,-4,-29,45,35,9,-1,5,-1,8.39
1679,13,43,-3,-24,-3,0,3,0,8.395
1680,-14,1,-16,-11,-1,-1,-10,-2,8.4
1681,7,-13,6,13,0,1,6,4,8.405
1682,-2,2,-7,-9,-3,-5,-31,8,8.41
1683,-5,-21,-6,13,4,4,45,-13,8.415000000000001
1684,14,24,16,-5,1,3,3,3,8.42
1685,-9,2,-24,-10,-8,-3,-1,-2,8.425
1686,8,90,35,1,5,2,3,2,8.43
1687,-13,-46,-8,4,1,-6,-19,7,8.435
1688,-14,-35,-11,0,1,-1,-2,-3,8.44
1689,-7,-11,7,12,-2,0,1,-2,8.445
1690,1,-3,-31,-14,-4,-2,2,-4,8.45
1691,4,46,-16,-3,0,0,-7,2,8.455
1692,1,2,-17,-8,-3,1,5,0,8.46
1693,-4,-8,3,-2,-2,-3,-12,-2,8.465
1694,0,8,1,11,1,1,9,-1,8.47
1695,9,50,32,4,1,0,-1,0,8.475
1696,1,-34,-29,-16,-5,-4,-9,-4,8.48
1697,-8,-30,-1,-10,-8,-8,-1,-5,8.485
1698,-3,-20,-21,1,4,3,6,-3,8.49
1699,-2,2,-1,-6,4,1,-3,0,8.495000000000001
1700,6,-6,9,12,1,-1,-5,1,8.5
1701,7,30,13,-1,-6,-2,-4,0,8.505
1702,-9,-28,-10,-4,-13,-5,5,-3,8.51
1703,-2,-17,-1,-3,9,2,-6,1,8.515
1704,18,21,26,23,6,6,4,6,8.52
1705,-16,-28,-31,-27,-10,-2,-3,-2,8.525
1706,1,43,1,3,-5,-5,-8,-7,8.53
1707,-3,-26,37,16,-4,-2,-5,-10,8.535
1708,-4,-50,0,-4,4,-4,0,4,8.540000000000001
1709,16,38,9,25,11,6,-2,3,8.545
1710,0,-14,-3,-13,-2,1,22,6,8.55
1711,-8,-22,-11,6,-3,-5,2,0,8.555
1712,0,8,-8,-6,-2,-1,-2,0,8.56
1713,-9,-43,-16,12,0,-4,-10,-5,8.565
1714,10,13,18,3,8,4,-2,3,8.57
1715,-11,-38,-58,-18,-11,-6,-6,-6,8.575000000000001
1716,-6,6,1,2,-4,-1,-1,-3,8.58
1717,8,38,31,-1,8,5,8,3,8.585
1718,-14,-47,-16,-7,-5,-3,-4,-6,8.59
1719,-6,13,22,-9,-2,0,0,1,8.595
1720,-1,-17,-25,-9,-7,-2,-5,-3,8.6
1721,8,36,9,23,13,4,5,1,8.605
1722,4,-7,6,-18,-4,-1,-3,2,8.61
1723,2,34,17,1,1,-2,-5,1,8.615
1724,-10,-28,-25,-14,-15,-6,-2,-5,8.620000000000001
1725,6,37,32,8,3,1,4,2,8.625
1726,-2,-93,-42,1,1,1,-5,-4,8.63
1727,-6,9,11,-22,-7,-3,-1,0,8.635
1728,7,3,-3,2,9,2,1,-2,8.64
1729,2,15,20,12,-2,-3,-1,0,8.645
1730,4,20,-27,-8,-2,-1,1,3,8.65
1731,-3,-23,1,2,-5,-3,0,-1,8.655
1732,0,21,15,-6,-3,-2,-2,-4,8.66
1733,-2,-38,-24,-18,-7,0,-1,-5,8.665000000000001
1734,-6,21,17,13,1,-1,-2,2,8.67
1735,10,8,14,19,5,1,4,9,8.675
1736,0,10,-12,-17,-3,1,0,-7,8.68
1737,15,34,19,0,-5,1,2,4,8.685
1738,-22,-6,-15,-12,0,-3,-3,-12,8.69
1739,-9,-82,-28,14,2,-1,-2,-1,8.695
1740,-1,7,15,6,-5,-1,-1,0,8.700000000000001
1741,-10,-11,2,4,15,4,0,-5,8.705
1742,8,18,15,4,-3,-1,1,3,8.71
1743,12,30,6,3,2,0,-3,0,8.715
1744,-8,4,-12,-2,-10,-3,-1,-2,8.72
1745,-5,-45,-18,-25,-8,-3,-2,0,8.725
1746,-1,-3,1,1,1,0,-1,-1,8.73
1747,2,24,-5,-2,1,0,2,-2,8.735
1748,3,-11,19,11,4,1,2,2,8.74
1749,-2,33,-5,8,0,0,-1,1,8.745000000000001
1750,-8,-12,6,-2,6,4,1,9,8.75
1751,-8,0,-13,-15,-11,-2,-4,-16,8.755
1752,9,16,-13,-3,1,-2,0,2,8.76
1753,-2,13,6,7,2,1,2,-1,8.765
1754,3,12,15,5,-4,-2,-1,-3,8.77
1755,11,2,5,2,1,3,2,12,8.775
1756,-13,-17,-13,12,5,2,-3,-4,8.78
1757,1,-11,-7,-20,-6,-5,3,-2,8.785
1758,7,-3,25,9,-1,-1,3,6,8.790000000000001
1759,8,81,-4,2,-3,-3,-4,-9,8.795
1760,-3,-39,-13,-4,-1,0,0,0,8.8
1761,-6,-27,-10,-1,-10,-6,-7,-2,8.805
1762,-2,9,18,-6,5,1,-3,-5,8.81
1763,-4,-17,-5,2,3,3,1,2,8.815
1764,1,1,11,9,7,4,1,0,8.82
1765,9,63,11,-14,-6,0,-1,3,8.825000000000001
1766,-7,-30,-24,-6,-4,-3,-3,-6,8.83
1767,-1,4,9,2,0,0,-1,2,8.835
1768,7,5,-6,-10,-3,-3,-1,1,8.84
1769,-13,-34,-7,9,2,0,-1,-5,8.845
1770,4,57,23,1,-2,-3,-3,-3,8.85
1771,-3,-20,9,-2,-2,-3,0,10,8.855
1772,-5,-10,-14,-5,2,0,2,-20,8.86
1773,9,-3,7,8,2,-1,-4,6,8.865
1774,1,12,4,10,0,-1,-3,-1,8.870000000000001
1775,-6,-9,-1,1,-5,-2,7,2,8.875
1776,-3,21,-2,-6,2,0,-3,-4,8.88
1777,-2,-30,-31,-15,1,1,-2,-2,8.885
1778,1,1,-6,4,-3,-1,-3,-4,8.89
1779,1,-21,-1,1,2,1,-2,3,8.895
1780,5,54,25,4,-7,-5,2,4,8.9
1781,-11,-51,-21,3,1,-1,-4,-5,8.905
1782,0,7,4,2,-1,-1,-1,-1,8.91
1783,4,16,5,-4,1,1,2,-1,8.915000000000001
1784,-4,-23,-7,0,-4,-1,-1,2,8.92
1785,2,24,7,-1,-6,-1,1,-1,8.925
1786,1,-8,-5,-6,2,1,0,0,8.93
1787,3,-6,1,-1,0,-1,0,-3,8.935
1788,0,43,-6,0,-4,-1,-4,0,8.94
1789,-7,-47,-9,-4,-2,-3,0,1,8.945
1790,5,2,12,15,0,-2,1,-1,8.950000000000001
1791,4,-2,-20,-34,-4,-3,-5,-6,8.955
1792,-3,-23,18,8,1,0,2,0,8.96
1793,5,21,11,0,-2,-1,3,5,8.965
1794,-2,6,-3,10,0,-1,2,1,8.97
1795,-2,8,-34,-3,0,-3,-5,-3,8.975
1796,-3,-17,15,5,0,1,3,9,8.98
1797,-3,4,12,-19,-5,-1,-4,-24,8.985
1798,4,5,-3,-2,2,3,1,6,8.99
1799,-4,-1,8,13,-1,-2,1,-10,8.995000000000001
1800,-5,-18,-7,-9,2,-1,-1,3,9.0
1801,7,30,7,14,-1,1,2,3,9.005
1802,-6,-31,-6,-25,-3,0,-1,-1,9.01
1803,-4,22,2,6,-1,-2,-2,-1,9.015
1804,-4,3,-3,0,-1,-3,-5,-2,9.02
1805,2,-7,3,4,10,3,2,3,9.025
1806,-2,-2,-4,-5,-8,-3,-1,-4,9.03
1807,-1,-8,20,7,1,0,1,4,9.035
1808,1,-10,0,5,-4,-3,-1,-3,9.040000000000001
1809,3,20,-28,-33,-11,-4,-1,0,9.045
1810,-3,-32,-7,9,5,0,-3,-2,9.05
1811,-2,-8,13,14,5,3,4,0,9.055
1812,3,14,-12,-16,2,-1,-1,-3,9.06
1813,-2,2,-4,6,-2,-2,0,0,9.065
1814,1,-6,-6,-5,1,1,1,2,9.07
1815,0,4,14,-1,-8,0,-2,0,9.075000000000001
1816,-8,-34,-5,7,3,0,-2,-2,9.08
1817,0,3,2,6,5,-1,0,3,9.085
1818,0,-12,-6,-9,-3,-3,-3,-4,9.09
1819,-4,18,-3,8,5,0,-2,-1,9.095
1820,8,1,-30,-12,0,2,3,0,9.1
1821,-3,-21,10,9,-1,-2,-1,0,9.105
1822,-2,52,31,8,-5,-1,1,-3,9.11
1823,2,-12,-38,-7,-6,-3,-2,2,9.115
1824,-1,8,11,-3,0,-1,0,-2,9.120000000000001
1825,-7,-13,-2,0,2,0,1,2,9.125
1826,2,6,7,25,5,1,-1,-8,9.13
1827,1,-1,4,-30,-5,-2,1,11,9.135
1828,0,3,13,-4,-7,-1,-2,-7,9.14
1829,5,6,6,12,3,1,-2,4,9.145
1830,-6,-35,-11,7,-2,1,0,2,9.15
1831,-1,32,12,0,-2,-2,-3,-8,9.155
1832,7,-13,1,3,2,1,1,8,9.16
1833,-1,2,-6,14,0,0,2,3,9.165000000000001
1834,0,0,1,-17,0,-1,-2,-3,9.17
1835,-1,-21,-20,3,4,3,3,2,9.175
1836,-13,26,13,13,-2,-1,0,-2,9.18
1837,-1,4,-15,-33,-3,-3,0,-5,9.185
1838,0,-1,-3,2,3,-2,1,2,9.19
1839,-2,-17,6,10,0,-1,-3,-5,9.195
1840,7,-2,-12,-2,2,1,-4,-1,9.200000000000001
1841,-7,6,11,4,-6,-3,0,-1,9.205
1842,-4,18,-5,-9,-1,0,1,2,9.21
1843,3,-2,12,-3,2,-1,0,-1,9.215
1844,3,-12,-10,0,-4,-2,2,1,9.22
1845,0,-3,0,6,-1,-1,-3,0,9.225
1846,2,7,6,-4,-3,-1,-1,-1,9.23
1847,-5,-11,-10,5,1,0,-1,-4,9.235
1848,-3,-2,5,-8,2,2,0,-2,9.24
1849,3,2,12,16,3,-1,-1,-1,9.245000000000001
1850,-4,-27,-27,-10,-8,-4,-1,-2,9.25
1851,2,11,-9,-22,-4,-3,-1,-1,9.255
1852,-7,-15,-12,1,-5,-2,-1,-1,9.26
1853,-1,8,25,15,4,3,1,0,9.265
1854,-6,-3,-8,-23,-6,0,-1,-2,9.27
1855,1,6,-6,8,-2,-2,-2,-1,9.275
1856,1,10,-3,-11,-2,-3,-3,0,9.28
1857,-3,-3,2,17,2,0,1,0,9.285
1858,3,7,5,15,4,0,1,2,9.290000000000001
1859,-3,-1,-2,-5,-7,-2,0,-1,9.295
1860,-1,-5,8,3,0,0,-1,-1,9.3
1861,-4,-26,-12,-4,0,-1,-2,-3,9.305
1862,-2,20,16,-1,0,2,-1,-4,9.31
1863,-2,-8,-2,-5,2,1,1,0,9.315
1864,0,-9,-3,5,-4,-1,0,5,9.32
1865,2,-24,-3,6,-1,-1,0,2,9.325000000000001
1866,0,18,17,-32,-7,-3,-3,-9,9.33
1867,0,-22,-16,9,3,0,-1,-2,9.335
1868,2,23,12,-2,-3,-2,0,-1,9.34
1869,-1,-7,-2,-6,-6,-1,0,1,9.345
1870,-1,7,-9,20,5,1,3,2,9.35
1871,0,27,9,-6,-2,0,-1,-1,9.355
1872,-2,-15,12,-8,-2,-3,-4,-1,9.36
1873,2,12,-7,-6,0,-1,1,-1,9.365
1874,-9,-26,3,14,2,-1,-3,8,9.370000000000001
1875,-9,-8,-5,-11,-2,0,1,-25,9.375
1876,6,5,-12,-5,-4,0,0,1,9.38
1877,4,-2,6,-7,-6,-1,-4,-4,9.385
1878,2,-4,-13,-3,-2,-1,-2,1,9.39
1879,-4,-17,10,13,7,0,1,3,9.395
1880,2,27,-5,10,1,1,1,2,9.4
1881,-2,-13,-4,-8,-3,-1,1,0,9.405
1882,4,9,-4,-5,4,-1,-2,2,9.41
1883,2,-43,-12,-3,-5,-1,-2,4,9.415000000000001
1884,1,43,9,-5,-5,-3,1,-6,9.42
1885,-6,-2,-11,7,7,-1,-1,-1,9.425
1886,1,-15,-3,8,-1,-1,-1,0,9.43
1887,-2,8,14,-6,-3,1,1,1,9.435
1888,4,-13,-13,2,3,2,-1,1,9.44
1889,-3,-8,-9,-4,-3,-1,-2,-2,9.445
1890,0,8,1,6,-2,-2,-1,-5,9.450000000000001
1891,3,3,-2,-5,-1,-1,2,4,9.455
1892,-6,-33,9,3,-3,-1,-1,-1,9.46
1893,3,22,-14,-10,-2,0,0,0,9.465
1894,0,-11,-6,13,3,-1,-1,-1,9.47
1895,7,40,12,-2,0,-1,-2,5,9.475
1896,-4,-27,-19,-6,0,-1,0,1,9.48
1897,-9,9,9,0,1,0,-1,-13,9.485
1898,1,18,6,-7,-3,-3,-1,5,9.49
1899,1,-6,-5,7,1,-1,-1,1,9.495000000000001
1900,-2,-5,13,6,3,0,-2,3,9.5
1901,2,-2,-3,-6,-9,-5,4,2,9.505
1902,1,-23,-8,-8,-4,0,-2,-8,9.51
1903,2,42,4,6,2,0,-2,1,9.515
1904,-2,-22,0,1,1,-1,-1,-4,9.52
1905,5,33,6,8,8,0,0,8,9.525
1906,-5,-26,-1,-10,-8,-2,-1,-1,9.53
1907,0,5,9,-3,0,-1,1,-2,9.535
1908,-1,1,0,3,-1,-1,2,1,9.540000000000001
1909,3,-9,-1,-1,-5,-3,-6,-3,9.545
1910,6,17,5,0,4,4,4,3,9.55
1911,3,33,30,12,-3,-4,-3,-2,9.555
1912,-5,-14,-29,-17,-2,-1,-3,-4,9.56
1913,-7,-19,-1,-7,-2,-4,0,-3,9.565
1914,-1,7,-10,2,2,0,-2,0,9.57
1915,-3,-17,-10,5,-1,1,0,-1,9.575000000000001
1916,4,23,8,8,3,-1,1,4,9.58
1917,11,-5,7,-7,1,0,-3,3,9.585
1918,-9,-15,-24,-6,-2,-2,0,0,9.59
1919,-5,-31,-15,-6,1,0,-1,1,9.595
1920,1,3,9,2,-3,-1,-5,-7,9.6
1921,-4,-3,-2,0,-2,2,-1,-3,9.605
1922,3,10,12,-6,-10,-4,-1,-1,9.61
1923,0,-6,-4,17,14,1,1,3,9.615
1924,-2,-12,-6,-6,3,2,1,-2,9.620000000000001
1925,-9,3,6,2,1,0,0,0,9.625
1926,1,-9,4,9,-2,0,0,1,9.63
1927,-9,-3,-24,-13,-11,-4,-4,-5,9.635
1928,8,27,11,-4,-2,1,-1,-1,9.64
1929,1,1,12,9,0,-1,0,-3,9.645
1930,-8,-35,-23,-1,0,1,1,-4,9.65
1931,-2,-25,-18,-11,-2,-2,-3,1,9.655
1932,1,32,1,-1,4,0,0,-1,9.66
1933,1,-7,22,6,0,0,1,-2,9.665000000000001
1934,0,12,5,0,3,1,1,11,9.67
1935,1,8,-1,10,-4,-2,-4,-18,9.675
1936,-8,-40,-16,-13,-7,-2,-1,0,9.68
1937,-4,8,0,-2,-1,0,-1,-4,9.685
1938,3,14,5,6,-2,-1,-1,0,9.69
1939,-4,23,20,-3,-2,0,-2,3,9.695
1940,5,-16,10,8,0,-2,-1,2,9.700000000000001
1941,-1,-13,-18,-6,-1,2,-3,0,9.705
1942,5,51,12,-3,3,2,4,-2,9.71
1943,-2,-48,-8,-15,-8,-2,1,3,9.715
1944,-3,-11,21,9,5,0,0,-3,9.72
1945,1,12,-31,-3,0,-2,-2,2,9.725
1946,4,-7,17,11,4,2,-1,-2,9.73
1947,5,16,4,-7,-5,-1,1,2,9.735
1948,-9,-26,-10,5,-2,-2,-3,-2,9.74
1949,2,-3,-14,-16,-9,-3,0,4,9.745000000000001
1950,-6,9,9,2,4,-3,-3,-13,9.75
1951,-6,-3,4,-11,0,0,-1,0,9.755
1952,0,-3,-12,-3,-3,-1,0,5,9.76
1953,1,19,3,4,0,-2,0,0,9.765
1954,-2,-44,-15,0,-8,-1,-1,0,9.77
1955,-4,-4,6,-11,5,1,0,-2,9.775
1956,4,24,12,4,-3,0,1,0,9.78
1957,-11,-17,-2,-3,2,0,0,-3,9.785
1958,0,-4,-13,-4,-1,-1,-1,2,9.790000000000001
1959,-1,2,-3,8,0,-1,-1,1,9.795
1960,0,12,2,3,3,2,0,-6,9.8
1961,7,28,9,1,2,0,0,-1,9.805
1962,-9,-66,-3,-5,-8,-5,-5,-5,9.81
1963,4,-7,-14,1,6,1,1,10,9.815
1964,-6,6,-10,-1,-1,-3,-2,-3,9.82
1965,-4,-8,3,3,4,0,-3,-3,9.825000000000001
1966,0,28,0,1,2,0,0,0,9.83
1967,4,12,10,-2,-6,-4,-1,-2,9.835
1968,3,-17,-34,-4,-7,-3,0,6,9.84
1969,-4,-11,9,3,6,2,0,-1,9.845
1970,-1,16,9,0,2,0,3,20,9.85
1971,1,-15,-9,6,0,-1,-2,-21,9.855
1972,6,32,2,-10,-5,-1,-3,-2,9.86
1973,-2,-13,-13,-6,-7,0,-2,1,9.865
1974,-4,32,8,4,3,0,-2,-6,9.870000000000001
1975,-4,-11,8,8,-4,0,2,4,9.875
1976,-4,-12,-31,-8,3,1,4,3,9.88
1977,-1,-8,3,-5,-4,-4,-1,-6,9.885
1978,0,13,3,-4,3,-2,-4,-2,9.89
1979,1,-5,3,-2,-3,-1,-3,3,9.895
1980,-3,0,10,9,2,-1,-2,-7,9.9
1981,0,-15,0,-10,0,2,2,5,9.905
1982,-2,0,-11,-5,-3,-1,-2,-3,9.91
1983,-4,40,23,5,1,-2,-2,-1,9.915000000000001
1984,-6,-59,-31,-13,-5,-2,-1,-8,9.92
1985,0,4,27,19,0,-2,-1,-2,9.925
1986,6,14,-14,-6,-2,-1,0,6,9.93
1987,1,-18,0,8,4,1,0,2,9.935
1988,-2,45,16,-5,-2,-1,-1,1,9.94
1989,5,7,-11,-1,1,-2,-1,0,9.945
1990,-3,-18,-9,-11,-5,0,-1,-7,9.950000000000001
1991,-2,-11,-6,-2,0,-1,2,2,9.955
1992,1,-1,20,4,2,-1,1,3,9.96
1993,-1,-21,-7,0,-2,-3,-2,-8,9.965
1994,-3,4,7,11,2,0,0,-4,9.97
1995,1,37,-4,-6,0,-1,0,-3,9.975
1996,-4,-39,-11,-21,-6,-3,-2,1,9.98
1997,0,17,10,2,-1,-1,0,2,9.985
1998,1,-15,-1,5,1,1,-1,-2,9.99
1999,-1,3,-4,12,0,0,0,0,9.995000000000001
2000,-5,6,22,-5,-1,-1,-3,-6,10.0
2001,0,-7,4,2,-2,-2,-1,2,10.005
2002,1,14,-1,2,5,1,-1,-3,10.01
2003,2,-2,3,-6,-5,-2,-1,3,10.015
2004,-1,-14,-10,4,4,1,0,2,10.02
2005,-1,-3,0,1,-4,-2,-1,-6,10.025
2006,0,-4,2,-7,-3,-3,-2,3,10.03
2007,-2,-2,-16,2,-1,0,0,1,10.035
2008,-5,-8,9,-2,-1,-3,-1,9,10.040000000000001
2009,4,7,-6,-3,1,0,-1,-9,10.045
2010,1,17,-4,-7,-4,1,3,-5,10.05
2011,1,-13,3,1,1,-2,-2,1,10.055
2012,5,8,-5,2,-2,1,-1,-3,10.06
2013,-3,26,3,-5,-4,-1,-1,3,10.065
2014,6,-14,-15,-2,-1,-3,-2,-1,10.07
2015,1,-1,0,5,1,0,0,-2,10.075000000000001
2016,-4,-11,8,5,3,0,1,0,10.08
2017,1,9,0,-3,-1,-2,-1,2,10.085
2018,-1,-19,9,-1,-2,0,-3,-5,10.09
2019,-3,2,1,-6,-7,-2,-1,1,10.095
2020,3,-4,-14,6,4,1,-1,-4,10.1
2021,-2,5,10,-9,-2,-1,0,0,10.105
2022,-2,-1,6,3,-3,-2,-2,-2,10.11
2023,0,-7,-14,-1,1,1,4,3,10.115
2024,-3,4,13,-2,-1,-2,-3,-4,10.120000000000001
2025,1,-19,-10,1,2,0,-1,-1,10.125
2026,2,36,0,-1,-3,-1,-5,-1,10.13
2027,-4,-31,-11,2,-1,-2,-4,-5,10.135
2028,3,22,25,-2,-4,-1,-3,-4,10.14
2029,-4,20,-20,0,2,3,3,1,10.145
2030,-8,-68,-20,0,-3,-4,-1,-2,10.15
2031,6,32,5,-9,1,1,2,2,10.155
2032,0,-17,-6,11,2,0,0,0,10.16
2033,1,-26,-11,-13,-5,-1,-1,1,10.165000000000001
2034,4,63,15,1,-2,-3,-3,-1,10.17
2035,-3,-25,-13,-7,2,2,1,-1,10.175
2036,0,27,-13,-7,-2,-3,-1,-2,10.18
2037,1,-7,13,7,1,-2,-3,-2,10.185
2038,-5,-38,-20,-7,-2,-3,2,10,10.19
2039,-4,-33,6,-7,-6,-2,-6,-16,10.195
2040,2,45,8,4,2,1,-1,-8,10.200000000000001
2041,-1,-17,-20,-2,-1,0,-2,0,10.205
2042,3,4,5,1,0,0,-3,1,10.21
2043,0,24,0,-7,-2,-3,-1,4,10.215
2044,-7,-54,-11,1,1,-1,0,-1,10.22
2045,-2,3,1,8,2,1,-1,1,10.225
2046,-10,6,-5,1,0,-1,3,-1,10.23
2047,4,1,-2,-9,1,-2,-1,1,10.235
2048,9,3,3,-3,-8,-2,-1,1,10.24
2049,-10,13,6,3,5,-1,2,2,10.245000000000001
2050,0,10,10,-3,-2,0,-4,-2,10.25
2051,1,-4,-5,8,1,0,-2,1,10.255
2052,-9,-1,-1,1,-2,-2,-2,1,10.26
2053,1,-9,-1,-5,-3,-1,-1,0,10.265
2054,6,6,2,13,4,1,0,-6,10.27
2055,-7,-10,-8,-17,-1,-2,0,1,10.275
2056,2,13,18,9,0,1,3,3,10.28
2057,2,1,11,3,-1,-2,-2,-3,10.285
2058,2,2,-14,-3,-2,-1,2,9,10.290000000000001
2059,-1,-7,0,9,0,-1,-3,-24,10.295
2060,2,8,-1,4,1,-1,-1,1,10.3
2061,2,3,-11,-23,-8,-1,0,-1,10.305
2062,1,4,3,-3,4,-2,0,0,10.31
2063,-6,-4,13,-3,-3,1,0,4,10.315
2064,1,3,-11,16,1,0,-1,2,10.32
2065,1,7,2,6,5,0,1,-1,10.325000000000001
2066,-4,-3,8,-6,0,0,-4,-5,10.33
2067,0,2,6,1,-5,-2,-2,2,10.335
2068,-1,20,1,-3,-2,0,-3,0,10.34
2069,-2,-21,-6,-4,-7,-3,-2,0,10.345
2070,-4,-16,-1,1,3,-1,0,-7,10.35
2071,5,2,-2,9,3,1,1,11,10.355
2072,-11,-32,-14,-18,0,-2,-1,-3,10.36
2073,-7,14,11,7,-2,-2,-4,-1,10.365
2074,0,-12,7,3,0,2,-2,-3,10.370000000000001
2075,1,14,-2,-5,0,0,0,1,10.375
2076,3,11,0,-10,-6,-2,0,-1,10.38
2077,2,-12,-8,1,2,1,1,1,10.385
2078,-3,0,-14,-4,-6,-1,-1,-1,10.39
2079,-6,8,10,8,5,0,0,0,10.395
2080,3,1,-9,-6,-3,-1,-2,0,10.4
2081,1,-3,-10,4,2,2,-1,-1,10.405
2082,-2,6,14,-2,-5,1,-1,0,10.41
2083,-1,-22,-12,-2,-3,-2,-2,0,10.415000000000001
2084,-2,12,4,5,3,0,0,-1,10.42
2085,1,15,-4,-4,-2,-2,-1,0,10.425
2086,0,-9,0,-3,0,-1,0,0,10.43
2087,-3,-16,-20,-11,-1,-2,-1,-7,10.435
2088,0,12,-3,1,-1,0,2,4,10.44
2089,-17,-38,2,-6,-2,-1,0,5,10.445
2090,0,23,11,7,4,0,-1,-11,10.450000000000001
2091,5,7,3,0,-2,-2,-1,2,10.455
2092,1,2,4,3,0,0,-1,-4,10.46
2093,-2,0,-17,10,4,4,0,3,10.465
2094,3,17,13,-36,-3,1,1,6,10.47
2095,-5,-8,-5,17,-2,-2,-2,-8,10.475
2096,1,-10,-2,1,4,-1,-2,-1,10.48
2097,3,-4,-4,-16,-4,-4,-1,-4,10.485
2098,0,-19,-5,10,0,-2,0,2,10.49
2099,5,11,15,-8,-3,1,-1,1,10.495000000000001
2100,-2,16,-17,-3,-3,-1,-2,-1,10.5
2101,7,-8,10,-7,-4,0,3,1,10.505
2102,-8,-20,-14,10,3,-1,-2,-3,10.51
2103,1,-4,11,-1,2,0,2,3,10.515
2104,-1,-15,9,0,-2,-3,-1,-7,10.52
2105,0,23,-4,7,1,0,-1,2,10.525
2106,1,5,-9,-6,0,0,-1,4,10.53
2107,-4,-6,-7,4,0,-3,-2,6,10.535
2108,-3,-8,1,-6,-3,-2,1,-13,10.540000000000001
2109,3,13,11,3,2,1,-1,4,10.545
2110,-2,-12,-26,-6,-8,-3,-5,-25,10.55
2111,-4,28,17,-3,1,0,4,8,10.555
2112,2,3,6,9,1,0,-4,-5,10.56
2113,1,-1,5,3,0,0,-1,-2,10.565
2114,-1,-12,-14,-10,-4,-1,3,7,10.57
2115,0,4,-17,-5,-1,2,-1,-6,10.575000000000001
2116,1,5,17,0,-1,-3,1,4,10.58
2117,-2,-12,-17,1,0,-1,-2,-1,10.585
2118,-3,-7,19,5,-1,1,0,3,10.59
2119,-1,-10,-12,0,-2,-1,0,-3,10.595
2120,-5,-3,4,-6,0,0,-1,3,10.6
2121,2,3,-6,15,1,-1,-4,-4,10.605
2122,0,9,4,-11,-1,0,0,1,10.61
2123,-3,-16,-10,-4,-1,-1,0,0,10.615
2124,6,5,-6,-10,-7,-4,-4,0,10.620000000000001
2125,-3,12,14,9,2,1,1,-3,10.625
2126,0,9,9,3,7,1,0,2,10.63
2127,-3,-33,-14,-2,-4,0,-1,-2,10.635
2128,3,3,13,4,2,-1,-3,3,10.64
2129,6,6,-31,-21,-6,-4,-1,7,10.645
2130,-7,2,3,9,-2,-1,-4,-20,10.65
2131,-2,-18,-13,-11,-2,-2,1,4,10.655
2132,-2,-6,5,6,0,0,0,11,10.66
2133,2,-6,-9,-4,-1,0,-2,-19,10.665000000000001
2134,1,10,23,-4,0,-3,-3,11,10.67
2135,-1,17,-11,6,3,1,-1,2,10.675
2136,-2,-18,-6,-1,-1,0,0,-1,10.68
2137,-3,-24,5,-4,-1,0,1,3,10.685
2138,0,-7,-9,14,8,2,1,3,10.69
2139,-3,28,-7,-10,1,1,0,-6,10.695
2140,-2,11,8,-4,-5,-1,-2,-1,10.700000000000001
2141,1,7,8,4,-1,0,0,-3,10.705
2142,0,-6,-18,-12,-8,-1,-2,-4,10.71
2143,2,36,35,5,-2,-3,-1,2,10.715
2144,-2,-22,-8,6,4,2,2,-2,10.72
2145,1,0,-4,-8,-4,-3,-3,-1,10.725
2146,-2,-4,-6,0,-2,0,4,4,10.73
2147,2,1,13,0,-6,-3,-4,-1,10.735
2148,4,31,-5,9,5,1,2,0,10.74
2149,-3,-17,4,-18,-2,-1,-2,-4,10.745000000000001
2150,-1,1,-5,-3,-2,-3,-3,0,10.75
2151,-1,-14,-15,-10,-3,1,-2,4,10.755
2152,-1,-13,4,5,3,-1,0,3,10.76
2153,1,-1,-19,-3,-1,1,-1,-1,10.765
2154,-2,25,14,3,-6,-1,-2,-4,10.77
2155,-4,-17,2,-2,-1,-1,-2,-7,10.775
2156,1,7,-3,3,-3,1,-1,3,10.78
2157,10,19,0,-3,0,-3,0,8,10.785
2158,-16,-54,-8,-8,-1,0,-2,-9,10.790000000000001
2159,6,34,19,14,-2,1,1,0,10.795
2160,-6,1,-5,-7,0,-1,-2,-5,10.8
2161,0,16,-6,11,1,2,-1,6,10.805
2162,6,-16,9,-10,-2,0,2,-6,10.81
2163,2,4,4,2,0,-3,-7,-1,10.815
2164,-3,-24,-16,-8,0,1,2,-3,10.82
2165,-5,5,23,0,-4,-2,-2,-6,10.825000000000001
2166,5,18,-10,10,-6,-1,1,11,10.83
2167,-4,-3,-8,-5,5,1,-3,-3,10.835
2168,1,-1,-5,-10,-1,-1,-2,-6,10.84
2169,-4,3,7,12,1,-1,0,0,10.845
2170,0,1,-2,6,3,0,1,7,10.85
2171,3,-13,-9,-7,-3,-1,-1,-2,10.855
2172,-3,-4,2,-2,-2,-3,-2,-1,10.86
2173,-15,-14,9,0,3,2,-1,-5,10.865
2174,5,22,4,5,-1,-2,-3,0,10.870000000000001
2175,-12,-29,-5,5,0,1,0,-4,10.875
2176,1,8,-9,-4,-4,-2,0,0,10.88
2177,6,18,12,-10,-6,-2,-1,2,10.885
2178,0,-8,0,-2,4,2,0,0,10.89
2179,5,-16,-12,-8,1,1,3,2,10.895
2180,1,43,15,10,-2,-2,-4,-3,10.9
2181,-10,-79,-15,-4,0,-1,-2,-2,10.905
2182,3,31,28,10,4,0,0,0,10.91
2183,4,10,-8,-9,-4,0,1,12,10.915000000000001
2184,-10,-16,-10,-1,0,-2,-3,-23,10.92
2185,4,18,-11,-10,-5,-2,-4,-8,10.925
2186,0,4,6,10,1,-2,1,6,10.93
2187,-4,-12,-1,-2,2,0,-2,-2,10.935
2188,4,10,-3,-6,-5,-2,1,10,10.94
2189,-2,-4,-3,-5,0,-1,0,-3,10.945
2190,-5,-16,-7,2,-2,2,-2,-11,10.950000000000001
2191,0,23,4,8,-1,-1,-3,-1,10.955
2192,-1,-15,-15,-12,-2,1,-1,1,10.96
2193,-3,4,-2,8,-1,0,2,2,10.965
2194,-7,-38,-2,-8,-4,-3,-2,3,10.97
2195,0,7,5,4,-4,-3,-4,-6,10.975
2196,-3,-31,-7,0,-1,0,1,4,10.98
2197,6,50,8,-3,4,2,1,3,10.985
2198,4,7,-13,-9,-4,-3,-2,1,10.99
2199,-4,-27,4,3,-2,-3,-2,-4,10.995000000000001
2200,3,16,19,6,0,0,-1,-3,11.0
2201,-3,-28,-18,4,-4,-1,1,2,11.005
2202,-3,17,-5,-17,-1,-2,-2,0,11.01
2203,3,22,14,6,-2,-2,-2,1,11.015
2204,0,-16,-2,2,5,3,1,5,11.02
2205,-7,5,3,-1,1,0,2,2,11.025
2206,-2,1,-1,-4,-3,0,-2,0,11.03
2207,3,-4,1,5,2,0,-1,-10,11.035
2208,-4,-8,-6,6,1,0,1,3,11.040000000000001
2209,1,-20,1,-9,-5,-4,-4,-5,11.045
2210,-3,-5,-13,-3,-3,-1,2,2,11.05
2211,1,17,9,1,-2,-2,0,2,11.055
2212,2,18,12,9,2,0,-2,-2,11.06
2213,1,-11,-6,6,3,-1,-3,1,11.065
2214,0,-5,-12,-18,-10,-3,0,0,11.07
2215,-1,4,6,-3,6,2,2,-2,11.075000000000001
2216,0,-1,-4,2,5,3,2,0,11.08
2217,-6,10,2,3,-3,0,-2,-3,11.085
2218,0,5,3,5,-4,0,-3,-6,11.09
2219,0,-12,-17,-9,-8,-2,-2,-2,11.095
2220,-1,-4,-29,-16,-9,-4,-3,16,11.1
2221,-1,9,26,19,8,1,3,-16,11.105
2222,-3,-20,-4,0,1,-2,-1,0,11.11
2223,-3,21,21,2,-1,-1,-1,1,11.115
2224,-9,-52,-14,-3,0,-2,-3,-3,11.120000000000001
2225,1,16,4,-2,-1,1,-2,4,11.125
2226,7,22,3,11,0,-1,5,1,11.13
2227,-5,-14,-15,-9,-1,-1,0,8,11.135
2228,-3,4,7,-11,-2,-1,-3,-14,11.14
2229,1,-4,-10,0,-1,-2,-2,7,11.145
2230,5,-7,5,13,5,0,1,-5,11.15
2231,-4,-2,16,0,2,0,-1,1,11.155
2232,2,7,-5,1,-3,0,1,2,11.16
2233,3,19,27,1,0,0,-1,-3,11.165000000000001
2234,-1,-17,-41,1,4,3,-1,1,11.17
2235,3,-1,-27,-10,-1,1,0,6,11.175
2236,-3,-2,12,-3,-4,-2,-2,-4,11.18
2237,2,-21,-9,-5,0,-2,-1,0,11.185
2238,0,25,5,-4,-2,0,-3,0,11.19
2239,-3,-28,-1,8,-1,-2,0,-7,11.195
2240,6,30,-6,1,7,2,-1,0,11.200000000000001
2241,-13,-12,23,-5,-8,-2,1,-2,11.205
2242,-2,5,1,3,0,-1,-2,-1,11.21
2243,-1,-6,8,-4,-6,-2,-3,-3,11.215
2244,0,6,-15,-6,-2,-4,1,-1,11.22
2245,2,-32,-7,3,1,0,-2,0,11.225
2246,3,12,2,-7,-3,1,-1,-1,11.23
2247,4,8,4,11,4,2,-1,-1,11.235
2248,-8,-23,-6,-9,-6,-3,2,0,11.24
2249,-1,10,-3,1,2,0,-3,-1,11.245000000000001
2250,1,-17,-2,-8,0,0,2,6,11.25
2251,-5,10,-2,1,3,0,0,-8,11.255
2252,3,10,8,3,3,-1,0,2,11.26
2253,-3,-10,-10,-7,-5,-1,-7,-8,11.265
2254,-3,1,1,7,-6,-1,-3,-2,11.27
2255,3,24,6,-7,1,1,3,-1,11.275
2256,-8,-1,20,7,2,2,2,6,11.28
2257,-2,1,-11,0,-3,-2,-2,0,11.285
2258,4,5,12,3,4,0,-3,2,11.290000000000001
2259,-8,-20,-30,-10,-9,-3,-3,-3,11.295
2260,12,-11,2,11,0,-3,-2,-5,11.3
2261,7,31,11,-10,3,2,3,3,11.305
2262,-4,9,-8,5,-1,-2,-1,-4,11.31
2263,-4,-46,-13,-9,-2,-2,-2,-1,11.315
2264,-1,14,11,-3,-4,-1,-1,-5,11.32
2265,-1,-6,-9,8,-1,0,1,-4,11.325000000000001
2266,-1,-4,-5,-18,-3,-2,-5,3,11.33
2267,1,10,16,3,1,1,-3,2,11.335
2268,-2,-2,-10,1,-1,0,1,0,11.34
2269,4,-1,-22,-4,1,1,1,3,11.345
2270,-7,10,12,17,1,0,-2,-6,11.35
2271,3,23,3,-15,5,2,3,-1,11.355
2272,-8,-37,-6,-7,-8,-3,-5,-3,11.36
2273,-3,-17,0,2,-3,-1,-1,3,11.365
2274,-1,-7,-4,-2,2,-1,-1,6,11.370000000000001
2275,0,1,1,9,-5,-2,-3,-15,11.375
2276,7,6,-5,-5,-3,1,0,2,11.38
2277,0,2,0,7,0,0,0,1,11.385
2278,8,-1,-1,-11,-1,-1,-4,-1,11.39
2279,-2,1,-4,16,1,0,2,4,11.395
2280,-1,23,8,-13,-3,-1,0,-4,11.4
2281,6,-28,-7,-3,-1,-1,-2,4,11.405
2282,-11,2,5,-7,-2,-1,1,-3,11.41
2283,1,-19,-7,6,0,-2,-1,-8,11.415000000000001
2284,0,-2,1,1,4,1,-3,-2,11.42
2285,-2,7,3,-9,-3,-2,2,5,11.425
2286,4,13,10,8,5,0,0,-2,11.43
2287,2,-7,-13,-4,-1,0,0,5,11.435
2288,-7,-21,6,-2,-4,-1,0,-1,11.44
2289,4,20,1,3,-1,-2,0,-4,11.445
2290,-3,-13,3,-8,-8,-2,0,0,11.450000000000001
2291,-5,-11,-29,7,7,-2,-3,-1,11.455
2292,3,5,20,3,2,2,4,-1,11.46
2293,9,-4,-4,-1,0,-2,-2,0,11.465
2294,-8,26,-7,-3,-1,-2,-3,-4,11.47
2295,-1,6,9,-5,-2,0,4,3,11.475
2296,-2,-9,-14,2,-4,-3,-3,2,11.48
2297,0,5,-3,-2,-1,-1,-3,-9,11.485
2298,-2,-11,4,4,0,1,0,-3,11.49
2299,-6,5,15,13,2,1,-2,-2,11.495000000000001
2300,-1,3,-34,-27,0,2,-3,6,11.5
2301,-3,-1,24,2,-5,-3,0,1,11.505
2302,1,-19,-7,0,-2,-2,-2,-4,11.51
2303,-4,-7,6,4,1,0,2,3,11.515
2304,1,14,11,10,1,0,1,-4,11.52
2305,-4,-3,-14,-8,1,1,-1,-1,11.525
2306,-2,-8,-6,0,-1,-1,2,-2,11.53
2307,1,17,9,-4,-1,-1,-1,0,11.535
2308,-1,-1,-2,7,1,1,-1,-4,11.540000000000001
2309,6,2,-22,-10,-4,-2,-4,2,11.545
2310,-3,-17,5,-2,7,-2,6,4,11.55
2311,1,8,-2,1,-3,-2,-2,0,11.555
2312,-4,-20,7,0,-5,-4,-3,-3,11.56
2313,-2,7,-9,10,4,1,1,-1,11.565
2314,2,-1,-11,-12,-1,-1,-5,-3,11.57
2315,0,-2,-1,0,1,-1,3,1,11.575000000000001
2316,-1,-1,-7,-4,-5,-2,-1,-3,11.58
2317,-3,8,13,4,-2,-1,1,-1,11.585
2318,-1,-5,-2,2,-1,1,-1,-2,11.59
2319,2,3,2,-8,0,-2,-3,6,11.595
2320,-1,5,3,4,0,0,1,20,11.6
2321,-7,0,-4,-8,-4,-4,-3,-30,11.605
2322,2,6,3,4,-5,-1,0,1,11.61
2323,-4,-10,1,-4,1,-1,-1,-7,11.615
2324,-2,9,8,11,6,1,2,3,11.620000000000001
2325,-8,-3,-4,-6,0,-1,-1,8,11.625
2326,-3,-6,-2,4,2,3,0,-2,11.63
2327,7,5,-2,1,-6,-3,-2,1,11.635
2328,0,-3,-14,-7,-6,-2,5,-5,11.64
2329,-1,-4,3,2,0,-1,-1,3,11.645
2330,0,0,-2,0,8,0,1,-1,11.65
2331,1,3,-2,-3,1,1,-2,1,11.655
2332,1,3,2,0,1,-1,-4,-9,11.66
2333,0,-1,11,4,-7,-3,-1,0,11.665000000000001
2334,10,1,-21,-2,4,2,6,13,11.67
2335,-5,-5,1,-8,-6,-3,-2,-3,11.675
2336,3,5,-13,-2,7,1,-3,-9,11.68
2337,-8,-13,2,-4,-4,-3,-2,9,11.685
2338,-2,7,10,4,-4,-2,2,-3,11.69
2339,13,-23,-21,-16,-8,3,15,29,11.695
2340,-2,3,13,22,-10,0,-7,-21,11.700000000000001
2341,7,25,11,-34,-16,-8,-16,-15,11.705
2342,4,14,1,21,26,8,2,-1,11.71
2343,-8,-41,-8,19,19,3,-24,-38,11.715
2344,-9,3,2,-33,-12,-10,-14,1,11.72
2345,1,-10,6,60,-19,-6,37,44,11.725
2346,4,13,0,-38,4,2,6,11,11.73
2347,6,36,-7,-34,19,8,-13,-30,11.735
2348,0,-18,-6,32,3,-1,-2,-1,11.74
2349,4,-11,6,-46,-28,-6,-12,-30,11.745000000000001
2350,-24,-24,-1,2,17,-3,-5,9,11.75
2351,9,-6,-18,18,-17,-5,-5,-2,11.755
2352,27,44,21,-2,-6,-6,2,10,11.76
2353,-49,-27,-20,1,11,6,8,9,11.765
2354,13,26,24,4,-31,-5,7,0,11.77
2355,11,-52,-11,11,-13,-2,7,13,11.775
2356,22,4,-10,-37,-21,-6,-7,-10,11.78
2357,9,-8,-7,38,50,14,28,35,11.785
2358,67,86,-4,-24,-10,2,-8,-7,11.790000000000001
2359,-54,-85,-9,-12,-12,-12,-17,-28,11.795
2360,-9,28,-15,-30,-30,-12,-16,-18,11.8
2361,-28,-29,16,-6,-7,-9,-30,-33,11.805
2362,-48,4,-26,-29,3,1,-1,-2,11.81
2363,-7,45,24,26,-3,-1,24,36,11.815
2364,51,-2,31,37,47,13,26,27,11.82
2365,28,1,-20,-29,6,4,-11,-7,11.825000000000001
2366,-11,-39,-11,7,-34,-7,4,-5,11.83
2367,2,73,-6,14,-27,-7,5,3,11.835
2368,22,-27,42,-13,-46,-13,-2,2,11.84
2369,-28,-54,7,-21,55,15,1,0,11.845
2370,-46,2,-26,20,-26,-6,-7,-12,11.85
2371,33,46,26,-112,18,3,10,20,11.855
2372,24,10,1,80,-29,1,-4,-11,11.86
2373,-18,-9,-35,66,18,-6,-24,-23,11.865
2374,-87,-75,-14,-17,-39,-29,-27,-36,11.870000000000001
2375,-1,-77,-15,34,-59,-10,39,33,11.875
2376,-4,65,-19,-112,79,26,-27,-14,11.88
2377,53,127,13,-9,1,-3,-26,-39,11.885
2378,-4,-109,29,58,1,4,0,2,11.89
2379,-45,-3,-6,26,-14,-8,-8,-4,11.895
2380,45,-7,-10,20,-59,-10,59,62,11.9
2381,12,127,33,7,-52,7,21,27,11.905
2382,-10,-53,-63,-116,106,23,-21,-36,11.91
2383,49,64,8,33,21,-1,-13,-1,11.915000000000001
2384,-39,-46,-10,47,7,0,3,1,11.92
2385,0,8,-8,-37,8,4,9,1,11.925
2386,1,64,81,112,-110,-25,8,10,11.93
2387,-16,63,-41,9,102,31,-21,-17,11.935
2388,9,-7,-31,-89,78,4,-48,-51,11.94
2389,-75,-66,-13,-11,-47,-24,-9,-11,11.945
2390,37,24,67,45,-50,1,33,35,11.950000000000001
2391,32,-16,-32,-79,44,22,24,22,11.955
2392,-52,58,31,104,-30,-7,6,12,11.96
2393,49,-74,-19,-48,3,1,25,28,11.965
2394,38,23,14,8,37,8,-16,-14,11.97
2395,31,-30,6,28,-36,-9,-23,-8,11.975
2396,-21,20,25,-10,-72,-20,-26,-38,11.98
2397,27,-14,28,-20,51,18,22,29,11.985
2398,-50,-87,-109,-42,72,24,30,38,11.99
2399,-78,-60,-25,74,11,-1,-19,-67,11.995000000000001
2400,51,32,20,-71,-27,-5,20,36,12.0
2401,1,-11,-27,27,-34,-14,-57,-68,12.005
2402,66,98,72,72,-20,-13,-11,18,12.01
2403,5,91,-37,-73,-1,5,20,25,12.015
2404,-118,-29,40,29,15,-1,-12,-39,12.02
2405,48,81,32,67,-30,-2,29,37,12.025
2406,-38,30,-25,9,70,18,6,-1,12.030000000000001
2407,-16,-63,23,-49,-41,-20,-1,4,12.035
2408,1,14,-62,-57,-34,-7,11,15,12.040000000000001
2409,56,-64,2,-35,6,8,8,23,12.045
2410,32,72,40,35,51,6,-21,-37,12.05
2411,-30,21,38,43,-16,-2,3,11,12.055
2412,-50,-37,-14,107,40,-2,-5,-6,12.06
2413,18,-16,-38,-76,-47,-8,-9,-17,12.065
2414,16,48,9,22,-20,0,27,41,12.07
2415,0,-45,36,-40,-24,0,4,-18,12.075000000000001
2416,31,-14,-21,13,6,2,-25,-22,12.08
2417,51,75,-31,29,-25,-13,1,9,12.085
2418,-78,-40,-15,-25,-38,-19,-15,-27,12.09
2419,-6,-13,9,-39,12,-6,-17,2,12.095
2420,58,17,-29,2,-22,4,24,21,12.1
2421,30,-14,38,17,25,20,37,46,12.105
2422,32,-73,-60,47,44,0,-20,-23,12.11
2423,-16,44,23,-45,-96,-21,-11,-18,12.115
2424,1,-22,47,-53,110,33,36,33,12.120000000000001
2425,-83,58,-35,11,21,1,-39,-38,12.125
2426,18,64,65,29,-97,-13,5,16,12.13
2427,-10,-51,-27,123,-25,-5,-7,-24,12.135
2428,39,4,-32,-122,66,11,2,3,12.14
2429,-32,7,16,89,8,-1,21,20,12.145
2430,-29,73,-45,3,-55,-10,-18,-12,12.15
2431,59,-34,1,-15,31,14,-3,-3,12.155000000000001
2432,-31,-7,11,-2,-58,-26,5,41,12.16
2433,-11,-60,-7,33,9,-9,-40,-63,12.165000000000001
2434,-22,53,17,-84,-35,-3,22,21,12.17
2435,-13,-4,-30,-13,65,19,30,18,12.175
2436,-43,4,28,31,-44,4,10,-5,12.18
2437,-21,28,20,-105,-42,-21,-63,-64,12.185
2438,36,-68,37,22,36,9,-30,-17,12.19
2439,-29,12,-36,-42,-35,-13,-14,10,12.195
2440,-2,-52,38,3,-31,-5,18,18,12.200000000000001
2441,58,-13,15,-10,-49,0,45,46,12.205
2442,55,-26,10,-94,36,15,3,-3,12.21
2443,-56,15,38,124,42,9,8,3,12.215
2444,-41,7,-46,-5,-22,0,-15,-26,12.22
2445,-35,27,23,40,-47,-9,28,18,12.225
2446,-9,-32,-5,-83,-1,-8,0,-8,12.23
2447,75,1,0,37,-66,-27,-23,26,12.235
2448,30,11,-49,-42,81,34,-14,-57,12.24
2449,-101,6,34,-28,-39,-18,-23,-6,12.245000000000001
2450,-43,-13,-81,98,113,13,-27,-32,12.25
2451,71,65,39,18,-16,-3,13,7,12.255
2452,-17,34,-11,10,-37,-1,22,20,12.26
2453,49,-66,27,15,-4,8,16,29,12.265
2454,-2,69,-13,3,33,12,16,5,12.27
2455,-23,37,25,2,7,-1,-2,-4,12.275
2456,39,41,27,37,-70,-20,-10,9,12.280000000000001
2457,-9,-80,-68,-30,127,33,6,-10,12.285
2458,16,78,23,4,-113,-30,-18,-3,12.290000000000001
2459,-42,-72,-26,-18,59,4,-4,-17,12.295
2460,27,-29,39,27,-8,0,11,20,12.3
2461,-4,42,-15,4,-32,-6,10,9,12.305
2462,18,-9,-29,-75,-3,6,24,14,12.31
2463,-40,-31,-27,40,17,6,-28,-44,12.315
2464,-42,-3,-3,-34,-32,-15,-39,-26,12.32
2465,-17,18,17,54,38,-4,-9,5,12.325000000000001
2466,18,3,-1,31,15,6,21,10,12.33
2467,50,72,5,-39,-42,2,42,43,12.335
2468,-25,-44,5,30,-6,1,-3,-5,12.34
2469,7,79,-40,-18,39,16,3,-22,12.345
2470,-55,-46,-18,-64,-35,-6,-29,-17,12.35
2471,31,67,30,34,29,-8,-18,-3,12.355
2472,-48,-50,-19,6,-4,-8,-6,-8,12.36
2473,45,61,20,11,-37,-3,19,22,12.365
2474,-11,-45,36,21,27,9,21,9,12.370000000000001
2475,-9,-78,-18,-60,-52,-12,-17,-19,12.375
2476,2,81,-39,2,62,15,4,3,12.38
2477,-2,-66,13,21,2,3,9,12,12.385
2478,6,-25,-10,-1,-17,-5,11,8,12.39
2479,21,32,16,-34,-20,0,1,-1,12.395
2480,40,-27,-16,52,50,1,-32,-17,12.4
2481,-53,-6,7,3,-26,-7,8,-22,12.405000000000001
2482,8,-14,2,-20,-15,-6,-17,1,12.41
2483,-8,-1,9,-15,-11,0,3,7,12.415000000000001
2484,18,14,-19,17,4,1,31,33,12.42
2485,-36,32,-11,-27,-14,-7,-36,-41,12.425
2486,-6,-89,-9,-31,-20,-8,4,4,12.43
2487,29,16,24,-28,11,10,17,14,12.435
2488,-12,45,-1,35,-18,-6,-9,-6,12.44
2489,35,-20,-7,-21,-11,0,12,22,12.445
2490,15,70,35,42,36,6,8,5,12.450000000000001
2491,-28,-88,-40,12,-15,-11,-17,-14,12.455
2492,26,17,56,-20,-4,2,20,20,12.46
2493,9,2,-64,19,-19,-7,-39,-28,12.465
2494,3,10,2,-21,8,3,0,-2,12.47
2495,6,21,26,82,47,8,17,18,12.475
2496,-7,-73,-41,-47,-18,-5,-18,-30,12.48
2497,6,20,19,-10,1,1,7,26,12.485
2498,-47,6,-26,-15,-27,-16,-16,-25,12.49
2499,-5,80,-21,-19,-8,4,13,0,12.495000000000001
2500,-33,7,29,23,13,-1,23,-2,12.5
2501,52,-48,-7,-33,-24,-5,-2,13,12.505
2502,44,9,19,51,14,4,-2,-4,12.51
2503,-26,1,-14,-17,6,6,0,6,12.515
2504,5,12,-2,15,2,-6,-16,-4,12.52
2505,-13,-2,-11,-42,-3,-7,0,-4,12.525
2506,3,-8,42,21,-7,4,14,20,12.530000000000001
2507,-1,-29,-31,-37,-13,-7,-8,-10,12.535
2508,15,10,8,22,2,6,-13,-6,12.540000000000001
2509,-1,-8,11,29,21,4,8,0,12.545
2510,-14,-21,-26,-22,-15,-6,2,5,12.55
2511,-8,-8,23,-6,-13,-10,-22,-14,12.555
2512,10,15,-10,-29,-8,6,23,9,12.56
2513,-9,-23,17,34,12,-1,-27,-12,12.565
2514,19,25,-4,3,-2,12,42,18,12.57
2515,-1,29,1,19,-1,-5,-24,-28,12.575000000000001
2516,-27,-39,-21,-13,-19,-17,-25,-12,12.58
2517,-27,-22,-4,-14,31,10,5,-3,12.585
2518,19,-11,6,1,-8,-10,-12,6,12.59
2519,17,26,-19,-5,1,4,-1,21,12.595
2520,9,-2,-17,4,1,1,-10,-2,12.6
2521,-18,-15,-4,-1,0,-8,-2,-5,12.605
2522,8,4,20,-10,-11,-9,-10,6,12.61
2523,19,1,-44,1,6,17,5,15,12.615
2524,-1,-15,25,30,10,11,7,-15,12.620000000000001
2525,-15,45,41,-13,-3,-6,19,-10,12.625
2526,-2,-89,-108,-20,-12,5,6,-15,12.63
2527,-8,-26,77,8,0,-13,-4,5,12.635
2528,13,-17,-31,-12,0,2,-12,9,12.64
2529,-8,29,-9,-4,1,-2,-8,3,12.645
2530,5,-34,5,5,1,-2,17,6,12.65
2531,-4,40,-1,0,2,6,5,-1,12.655000000000001
2532,-5,-8,14,13,-13,-6,-5,-5,12.66
2533,5,-3,12,-7,3,4,13,12,12.665000000000001
2534,-6,4,-6,-4,13,3,-14,-6,12.67
2535,-5,-24,3,10,0,-1,5,-9,12.675
2536,7,16,12,-5,6,-4,2,7,12.68
2537,5,-11,-23,25,-9,0,8,1,12.685
2538,-4,3,5,-4,-11,-2,-26,-8,12.69
2539,-6,-7,6,-19,3,-4,15,-1,12.695
2540,-1,10,4,-9,-4,9,6,-9,12.700000000000001
2541,-1,25,13,5,2,-3,-3,5,12.705
2542,8,14,-17,7,3,-6,-16,-7,12.71
2543,4,-26,17,-2,3,2,-9,-3,12.715
2544,-14,-32,-30,-5,-8,-1,33,7,12.72
2545,-2,8,5,-3,3,3,-2,-7,12.725
2546,15,42,18,7,1,5,15,10,12.73
2547,-23,-34,3,1,-2,-6,-19,-12,12.735
2548,0,-4,-17,-11,3,-1,-12,1,12.74
2549,8,10,16,16,6,8,9,5,12.745000000000001
2550,-8,21,-7,-19,-10,-10,-18,-7,12.75
2551,1,-24,-16,-2,-2,-1,-3,-5,12.755
2552,1,-13,11,1,2,0,12,2,12.76
2553,1,-22,4,16,4,-2,-1,4,12.765
2554,0,34,16,0,-5,0,4,-4,12.77
2555,12,-9,1,-3,-2,0,0,1,12.775
2556,2,25,0,-9,-1,-6,-7,1,12.780000000000001
2557,-1,-5,5,-6,-8,-6,-14,-3,12.785
2558,-13,-43,-12,6,-2,9,16,-5,12.790000000000001
2559,4,27,12,7,7,3,7,1,12.795
2560,-14,-20,14,5,5,-2,-8,-3,12.8
2561,-8,6,-32,-10,-7,-3,-3,-1,12.805
2562,-8,-54,-19,1,-1,-6,-7,-5,12.81
2563,5,61,27,1,-1,2,0,3,12.815
2564,9,47,10,10,-2,-5,1,-2,12.82
2565,-1,13,-17,-15,6,5,-5,-1,12.825000000000001
2566,-5,-5,17,-6,-1,-2,13,3,12.83
2567,7,7,12,20,6,1,-1,0,12.835
2568,0,13,-10,-30,-8,-2,-10,1,12.84
2569,-4,-5,2,17,-6,1,3,0,12.845
2570,10,41,-8,-1,-1,-2,-8,4,12.85
2571,-15,-35,0,5,-2,-3,2,-6,12.855
2572,7,11,6,6,2,1,-4,-1,12.86
2573,5,22,8,-1,5,4,0,1,12.865
2574,-2,11,5,-2,-8,-7,-6,-2,12.870000000000001
2575,-11,-3,-19,-9,10,3,10,0,12.875
2576,-2,59,10,21,-5,-4,-6,-3,12.88
2577,-9,-85,-34,-23,11,7,0,0,12.885
2578,-4,45,9,1,-3,-1,1,-3,12.89
2579,6,13,4,-11,-7,-2,-1,1,12.895
2580,0,-21,-3,-1,-4,-3,-4,-4,12.9
2581,1,9,3,-1,-4,-1,2,-1,12.905000000000001
2582,-4,-18,3,12,3,2,1,-3,12.91
2583,-1,-9,-5,-3,-4,0,-2,-2,12.915000000000001
2584,4,-10,9,10,9,5,-7,3,12.92
2585,-3,-13,-21,-16,-14,-4,3,-3,12.925
2586,4,8,10,2,3,-1,24,5,12.93
2587,-10,37,-11,0,-4,-2,7,-4,12.935
2588,3,-5,8,5,4,2,1,2,12.94
2589,-10,-22,-2,0,-7,-6,-8,-5,12.945
2590,7,0,-4,17,10,6,-9,0,12.950000000000001
2591,-5,31,19,-14,8,1,-3,-3,12.955
2592,-1,-68,-23,-14,-5,-4,-2,-4,12.96
2593,1,-8,-7,8,-7,-5,-6,-1,12.965
2594,-4,6,-16,-23,-9,-5,-8,-3,12.97
2595,-7,-11,-9,9,-1,-2,1,0,12.975
2596,3,20,31,11,5,1,0,1,12.98
2597,6,26,-3,-16,1,0,2,0,12.985
2598,-7,-63,-8,11,0,-2,-6,-4,12.99
2599,10,15,-2,-7,-5,-2,1,0,12.995000000000001
2600,-2,18,-6,-9,-4,-2,3,0,13.0
2601,-1,-4,3,13,-3,0,1,-1,13.005
2602,3,20,14,-5,1,-4,-7,-3,13.01
2603,2,-27,-9,0,-7,0,-10,-2,13.015
2604,-3,-3,-20,-1,8,0,3,-1,13.02
2605,8,23,14,5,-1,1,16,6,13.025
2606,-10,-19,4,-1,-3,-2,-3,-4,13.030000000000001
2607,3,-8,-11,8,3,1,3,2,13.035
2608,-1,-6,-7,-8,-12,-6,-6,-4,13.040000000000001
2609,-3,35,3,-1,5,1,-5,-4,13.045
2610,-4,-3,11,-5,1,-3,-2,-1,13.05
2611,1,22,-1,2,-3,-1,-2,1,13.055
2612,-1,-16,8,-3,5,3,5,1,13.06
2613,-1,-5,-6,5,-4,-2,-3,0,13.065
2614,7,28,4,4,5,1,-2,1,13.07
2615,-5,-37,-30,-4,0,-3,0,-4,13.075000000000001
2616,-3,-14,-5,10,-3,-3,-2,-2,13.08
2617,5,35,13,-8,-1,1,0,1,13.085
2618,-3,-15,6,0,-8,-6,-8,-3,13.09
2619,3,-10,5,-2,-5,-2,0,3,13.095
2620,-1,-15,-10,0,1,-1,1,1,13.1
2621,-1,13,-2,13,1,0,3,-3,13.105
2622,2,-5,-11,-24,-6,2,-1,1,13.11
2623,-1,-11,-1,-2,-5,-4,0,-6,13.115
2624,-6,24,16,4,2,1,0,2,13.120000000000001
2625,-7,-3,5,5,-2,-4,-9,-1,13.125
2626,-5,-5,-7,13,5,2,0,-4,13.13
2627,2,-16,6,-1,-3,-1,1,1,13.135
2628,-4,-3,-1,-17,-4,-2,-4,-4,13.14
2629,-1,-20,-12,-3,-2,-4,-2,-4,13.145
2630,-4,-3,1,4,1,0,-2,-1,13.15
2631,0,35,5,12,-4,-3,-7,-2,13.155000000000001
2632,4,-13,-2,-26,-5,-2,7,-1,13.16
2633,4,-11,1,17,9,4,0,1,13.165000000000001
2634,6,22,-11,9,-4,0,1,2,13.17
2635,-9,-3,-13,-13,-4,-2,-5,2,13.175
2636,-8,-37,-9,-17,-15,-2,6,-1,13.18
2637,-9,-5,-11,-3,11,1,-1,-2,13.185
2638,9,26,22,13,5,2,3,0,13.19
2639,2,1,3,-2,2,0,-4,-1,13.195
2640,6,40,9,9,0,0,-1,1,13.200000000000001
2641,-5,-70,-14,-14,-10,-3,-6,1,13.205
2642,-5,12,10,2,-2,-1,5,0,13.21
2643,-4,-42,-12,-1,3,-1,-5,-9,13.215
2644,5,29,7,4,4,-3,5,6,13.22
2645,6,47,18,-1,-1,-3,-9,-4,13.225
2646,0,-1,-10,-5,-1,-1,-2,6,13.23
2647,-5,-35,-13,-15,-12,-3,4,-1,13.235
2648,-2,-8,0,16,7,3,-2,-4,13.24
2649,0,-10,-9,-12,-1,-3,0,1,13.245000000000001
2650,-3,23,-7,-9,-2,-2,-2,-3,13.25
2651,5,19,20,13,3,0,-1,2,13.255
2652,-3,26,-15,-13,-3,-1,-5,-5,13.26
2653,0,-49,-10,1,-3,0,6,2,13.265
2654,1,-8,-15,-11,-1,-3,-4,-2,13.27
2655,9,-30,-4,5,6,1,4,3,13.275
2656,-9,15,7,13,-1,-1,-9,-1,13.280000000000001
2657,4,35,19,-4,0,-1,-1,-2,13.285
2658,-6,3,-2,0,0,4,5,1,13.290000000000001
2659,-7,-9,-10,-9,-2,-1,-3,-8,13.295
2660,0,-26,-6,-1,2,0,0,0,13.3
2661,-1,-18,3,-6,-4,-3,-3,0,13.305
2662,-3,-16,0,7,-3,-1,-4,-2,13.31
2663,-3,47,19,2,5,2,7,3,13.315
2664,0,-1,-9,0,1,0,4,8,13.32
2665,-13,-23,-16,-11,-8,-3,-1,-22,13.325000000000001
2666,6,-47,15,4,-6,-3,-2,5,13.33
2667,0,6,-19,-5,0,-1,0,4,13.335
2668,0,-5,-4,-1,-1,-1,-1,-4,13.34
2669,0,8,11,6,0,-2,-5,6,13.345
2670,-7,-16,-5,1,4,-1,-2,-5,13.35
2671,0,10,14,-6,-12,-5,1,-4,13.355
2672,2,-12,-9,6,3,3,-1,2,13.36
2673,-4,4,-11,-13,-2,0,0,1,13.365
2674,0,10,2,7,-7,-2,-9,-7,13.370000000000001
2675,0,-32,-8,-21,-1,1,7,5,13.375
2676,-1,-2,7,2,2,-1,-1,-3,13.38
2677,15,51,19,12,3,1,4,3,13.385
2678,-8,-3,-24,-10,1,-1,-6,-1,13.39
2679,5,17,0,9,2,-1,4,-4,13.395
2680,3,-9,-3,-2,-4,-1,0,-4,13.4
2681,6,-11,-6,-5,2,1,0,2,13.405000000000001
2682,-4,13,5,0,1,-1,2,3,13.41
2683,-1,8,1,7,4,0,-5,2,13.415000000000001
2684,-6,-6,0,-2,-2,0,1,-5,13.42
2685,-4,-8,-1,-4,-4,-1,1,0,13.425
2686,6,-25,4,2,-2,-1,0,2,13.43
2687,-5,12,19,-6,-2,-3,0,3,13.435
2688,7,20,-9,-9,-2,-3,-4,-1,13.44
2689,-1,12,-8,13,6,1,-1,-1,13.445
2690,1,-8,8,-7,-1,2,1,6,13.450000000000001
2691,-1,-3,-20,0,2,1,0,-9,13.455
2692,-2,5,5,-2,-5,-1,-4,1,13.46
2693,2,1,6,2,-2,0,0,0,13.465
2694,1,10,6,2,3,0,0,-4,13.47
2695,-1,-4,-6,3,-4,0,-2,3,13.475
2696,-3,-17,-11,3,0,-2,-3,-2,13.48
2697,-1,1,0,-1,-2,-1,0,-4,13.485
2698,-5,-11,-6,4,-3,1,-2,-1,13.49
2699,4,17,24,7,3,-1,-1,1,13.495000000000001
2700,-3,-4,-14,-12,0,0,0,-2,13.5
2701,-3,10,13,3,3,1,0,1,13.505
2702,4,-14,-3,-7,-1,-3,3,-3,13.51
2703,-7,-5,6,10,-1,-1,-2,-1,13.515
2704,-2,12,-8,-1,-3,-4,-6,-9,13.52
2705,-1,3,2,9,5,3,4,5,13.525
2706,4,18,-9,-16,-1,-2,-1,4,13.530000000000001
2707,-3,-12,11,11,1,-1,0,-3,13.535
2708,-1,-13,4,-5,-4,-3,-2,2,13.540000000000001
2709,0,7,-8,-10,-6,-3,-4,-2,13.545
2710,0,13,22,7,0,1,0,-5,13.55
2711,4,16,-30,-2,3,0,0,5,13.555
2712,-5,-39,25,4,-1,3,2,-1,13.56
2713,-2,-26,-8,8,-1,-4,-3,-4,13.565
2714,6,25,5,-8,0,1,6,2,13.57
2715,2,48,1,-7,-3,1,-2,1,13.575000000000001
2716,-8,-58,-1,5,2,0,-2,-1,13.58
2717,5,41,8,5,-5,-1,-1,1,13.585
2718,-1,-15,12,6,0,-2,-2,-2,13.59
2719,1,2,-29,-16,0,0,1,-2,13.595
2720,-1,24,6,0,4,-1,0,-2,13.6
2721,1,-44,-5,-4,-1,-1,1,9,13.605
2722,-10,-2,-10,-4,-2,-5,-10,-23,13.61
2723,0,0,-5,-2,-2,0,3,-2,13.615
2724,1,-1,-9,-1,-3,-3,-1,-4,13.620000000000001
2725,-2,2,7,3,2,-1,0,2,13.625
2726,3,0,-21,-6,-2,1,1,3,13.63
2727,4,-39,-3,-8,-5,-1,-7,-3,13.635
2728,1,75,25,6,-3,-3,-4,0,13.64
2729,-6,-15,-3,-4,-1,1,0,1,13.645
2730,6,21,3,19,-1,-1,0,2,13.65
2731,-16,-18,-17,-39,-2,-1,1,-5,13.655000000000001
2732,2,-10,3,8,1,0,2,1,13.66
2733,8,40,13,3,-5,-5,-4,-3,13.665000000000001
2734,-12,-48,-26,-4,12,5,0,-2,13.67
2735,3,9,23,14,-1,-1,0,0,13.675
2736,4,3,-22,-11,-1,0,-1,2,13.68
2737,-2,-19,-15,-7,-5,-3,-3,-4,13.685
2738,-1,-18,15,6,1,0,0,1,13.69
2739,1,34,8,17,0,-4,-3,-1,13.695
2740,-4,-34,-10,-9,1,1,0,-4,13.700000000000001
2741,2,7,5,0,-1,1,2,3,13.705
2742,0,0,-7,-8,-7,-3,3,-2,13.71
2743,2,-20,-6,-1,2,1,-6,11,13.715
2744,-3,20,5,7,-5,0,-2,-10,13.72
2745,-1,5,9,2,2,0,3,-1,13.725
2746,-1,-1,6,-10,-6,-2,-2,0,13.73
2747,-2,17,10,8,2,0,0,-6,13.735
2748,7,-9,-18,-1,-2,0,-1,11,13.74
2749,-4,13,-4,-4,0,-2,-6,-1,13.745000000000001
2750,-6,0,-11,-6,-5,-1,-7,-3,13.75
2751,-1,-21,4,2,1,-3,-1,0,13.755
2752,-2,-18,-13,-4,-3,0,-3,-1,13.76
2753,-5,13,-2,2,-3,-1,2,-5,13.765
2754,6,22,29,0,2,-2,2,3,13.77
2755,-8,-9,-9,-11,-5,-2,-1,-5,13.775
2756,-2,2,-10,0,5,-1,4,0,13.780000000000001
2757,2,-13,-11,3,-3,-3,-3,-3,13.785
2758,-1,-3,-2,-6,-2,-1,-1,0,13.790000000000001
2759,3,1,7,11,4,0,0,-2,13.795
2760,-1,14,17,-6,-3,-1,0,1,13.8
2761,-2,15,1,-2,4,3,-1,0,13.805
2762,4,-7,9,11,-1,-3,2,1,13.81
2763,-6,-28,-2,0,-2,-3,0,-3,13.815
2764,6,16,-14,-14,-2,2,-4,-4,13.82
2765,0,-20,-13,-6,-3,-1,5,13,13.825000000000001
2766,2,10,2,-1,-2,3,2,4,13.83
2767,1,18,2,12,1,-1,-3,-1,13.835
2768,1,-14,2,-1,-2,-1,2,-7,13.84
2769,-2,-15,-13,-18,-4,-1,-3,-12,13.845
2770,-5,-5,-9,-1,0,-2,1,4,13.85
2771,1,3,0,-2,-6,-2,-1,-2,13.855
2772,-2,-7,5,10,1,0,-4,5,13.86
2773,1,-11,-11,-3,2,1,-2,3,13.865
2774,-3,15,1,3,2,-1,-1,-5,13.870000000000001
2775,1,-14,2,-3,-3,1,-1,2,13.875
2776,0,12,-13,-5,-1,-1,2,-1,13.88
2777,-3,-5,13,5,2,-2,0,-3,13.885
2778,3,15,-24,-5,0,-1,-1,-4,13.89
2779,-9,-33,24,4,-2,-2,-1,-7,13.895
2780,-1,2,-5,-2,-4,-2,-1,11,13.9
2781,-1,-7,-4,1,1,1,1,-4,13.905000000000001
2782,3,8,3,8,0,-1,-2,-2,13.91
2783,1,8,-8,-18,-3,0,3,-1,13.915000000000001
2784,3,-10,-2,-2,-1,-1,-2,1,13.92
2785,-7,4,5,1,-2,-3,-4,-4,13.925
2786,0,-12,3,-2,-5,-4,-5,-20,13.93
2787,5,21,-2,9,-1,-1,-2,-1,13.935
2788,-3,-17,2,0,5,-2,0,-1,13.94
2789,6,-3,-3,-2,-3,1,5,4,13.945
2790,-8,-11,7,5,2,-1,-1,3,13.950000000000001
2791,-1,-8,-20,-9,0,3,0,1,13.955
2792,3,40,12,10,0,0,-1,-1,13.96
2793,-5,-21,9,1,8,0,-1,-2,13.965
2794,6,-13,-27,-8,-8,-3,-1,2,13.97
2795,0,-7,8,12,3,2,1,2,13.975
2796,-7,-31,-22,-25,-7,-5,-3,-2,13.98
2797,-4,4,12,-3,-2,-1,-4,-10,13.985
2798,-2,-17,-15,0,-1,0,-1,7,13.99
2799,-2,9,2,-7,3,1,2,1,13.995000000000001
2800,-7,-12,12,9,0,-1,0,-4,14.0
2801,8,44,12,7,-3,-1,-2,0,14.005
2802,-4,-27,-10,-9,1,-1,2,9,14.01
2803,2,1,-11,1,-3,-2,1,-10,14.015
2804,-1,-22,7,5,1,0,-4,-2,14.02
2805,-4,-17,-13,-4,-4,-2,0,-1,14.025
2806,1,46,13,0,-2,2,0,3,14.030000000000001
2807,-1,-12,-5,2,-2,-4,-2,-7,14.035
2808,-2,-6,-6,1,-5,-2,0,-1,14.040000000000001
2809,1,34,22,-6,-1,-3,-1,-3,14.045
2810,-2,-4,-9,-6,-3,-1,-5,4,14.05
2811,1,15,10,3,7,0,-4,2,14.055
2812,-5,5,5,12,-2,-2,3,-5,14.06
2813,0,-4,1,-8,-3,1,-1,2,14.065
2814,-8,-30,-12,-3,-4,-4,0,-3,14.07
2815,-2,-10,-8,-4,-5,-1,-2,-5,14.075000000000001
2816,8,13,-5,-2,2,-1,-2,-1,14.08
2817,-8,-13,3,2,-1,-1,-1,4,14.085
2818,0,8,8,-5,-2,-2,-1,-5,14.09
2819,3,9,-8,-1,-3,0,0,3,14.095
2820,2,4,-4,-5,2,2,2,3,14.1
2821,2,-16,-11,-3,-3,-3,1,-5,14.105
2822,0,11,3,10,-2,-1,-3,-4,14.11
2823,-3,-5,-21,-16,-1,1,0,4,14.115
2824,2,11,32,-1,-2,0,0,-3,14.120000000000001
2825,-9,-38,-22,1,-3,-1,-4,-2,14.125
2826,-1,0,6,0,2,0,2,1,14.13
2827,-4,-4,10,4,1,2,2,-1,14.135
2828,2,12,-3,1,0,-2,-7,-2,14.14
2829,8,5,5,5,2,4,2,2,14.145
2830,-6,-2,0,3,-4,-2,-1,-5,14.15
2831,0,12,13,-3,-1,2,1,6,14.155000000000001
2832,-4,-35,-6,8,9,1,0,-3,14.16
2833,1,5,-12,-1,2,-2,-7,1,14.165000000000001
2834,5,11,4,8,4,-1,4,7,14.17
2835,12,18,6,7,-4,-2,1,4,14.175
2836,-18,6,-17,-21,-6,-2,-4,9,14.18
2837,-1,4,3,-10,-5,0,3,-27,14.185
2838,3,-39,-3,-6,2,2,-3,-5,14.19
2839,-2,-3,0,4,-4,-3,-5,-5,14.195
2840,2,-1,1,10,0,0,0,3,14.200000000000001
2841,-1,7,-2,2,-1,0,-1,7,14.205
2842,2,11,10,-5,-4,-3,-1,-2,14.21
2843,-7,-28,-28,-5,2,-1,-2,-4,14.215
2844,3,8,3,3,3,-2,1,-4,14.22
2845,1,-2,-14,-3,0,-1,0,7,14.225
2846,-3,18,18,1,0,0,-1,-4,14.23
2847,-8,-13,7,9,-1,-2,-2,0,14.235
2848,-6,-31,-26,-17,-5,-1,-1,-6,14.24
2849,0,17,14,-5,0,0,-1,-2,14.245000000000001
2850,-1,3,-5,5,2,-2,0,5,14.25
2851,-6,-2,9,0,-3,-1,0,4,14.255
2852,1,14,2,7,-4,-1,0,2,14.26
2853,-1,10,-4,-1,-3,-1,-4,-6,14.265
2854,-3,-21,0,-2,4,0,-1,-3,14.27
2855,-6,-15,7,5,1,0,-2,-2,14.275
2856,7,15,3,7,-1,-1,2,1,14.280000000000001
2857,-3,-5,-12,1,-2,-3,-4,4,14.285
2858,-4,1,5,-7,-5,1,0,-3,14.290000000000001
2859,10,13,-9,-7,-5,-3,0,12,14.295
2860,0,15,19,8,8,1,0,-13,14.3
2861,-1,-24,-15,-3,1,0,-2,-7,14.305
2862,2,-26,-35,-17,-3,-1,-3,-6,14.31
2863,-8,6,21,3,-2,-1,-2,0,14.315
2864,-6,-8,-17,0,-6,2,2,2,14.32
2865,3,29,24,5,1,-2,-1,3,14.325000000000001
2866,3,24,16,0,-2,0,0,2,14.33
2867,0,3,-24,-6,0,1,1,-5,14.335
2868,-1,-19,3,-10,-2,-2,1,-2,14.34
2869,5,-15,-4,4,0,-1,-4,3,14.345
2870,-4,21,2,7,-1,-2,-2,-1,14.35
2871,5,6,3,-6,-3,-1,-1,-3,14.355
2872,0,14,11,-1,-1,-2,-1,-1,14.36
2873,-3,-16,-8,1,1,0,0,0,14.365
2874,-4,-14,-8,-3,-4,-2,-2,-2,14.370000000000001
2875,4,10,-4,-4,0,0,-2,-2,14.375
2876,6,-7,-3,-11,1,-1,-1,5,14.38
2877,-6,-1,22,7,-1,1,2,7,14.385
2878,-1,10,-5,4,0,-1,-3,-15,14.39
2879,-4,3,-13,5,0,-2,0,-4,14.395
2880,-3,-16,4,-7,-2,-2,0,4,14.4
2881,-5,-28,-11,2,0,0,1,3,14.405000000000001
2882,4,50,13,2,1,1,1,2,14.41
2883,-6,-45,-14,-10,-7,-4,-2,-3,14.415000000000001
2884,3,7,0,8,-2,0,-2,13,14.42
2885,-3,-16,7,2,-2,-1,0,-17,14.425
2886,2,5,-15,0,-3,0,-2,3,14.43
2887,5,13,3,-6,3,1,3,-3,14.435
2888,10,9,2,6,1,-2,-4,0,14.44
2889,-3,7,-9,-9,-1,-2,0,5,14.445
2890,-2,-13,1,6,3,-1,-2,0,14.450000000000001
2891,2,5,4,-4,-4,-4,-3,-3,14.455
2892,-5,9,8,-3,-1,2,-1,1,14.46
2893,2,-16,-16,0,0,0,-1,-1,14.465
2894,-2,-13,6,2,1,-1,1,-6,14.47
2895,2,13,-8,-10,-3,-2,-4,3,14.475
2896,-4,-3,0,2,-5,-2,1,6,14.48
2897,-3,-7,2,5,6,0,-3,-17,14.485
2898,2,-15,-12,-6,1,0,6,3,14.49
2899,-2,4,47,5,0,-3,-1,-2,14.495000000000001
2900,-1,-8,-18,-3,-9,-4,-4,-9,14.5
2901,5,28,10,1,-3,0,1,8,14.505
2902,-1,-19,-17,-10,0,1,1,5,14.51
2903,3,22,3,7,0,-2,-2,-2,14.515
2904,-12,0,3,4,5,1,1,-2,14.52
2905,2,19,-6,-7,-2,0,3,8,14.525
2906,-12,-42,3,-5,-6,-5,-7,-16,14.530000000000001
2907,1,-4,-9,0,0,1,0,4,14.535
2908,4,-1,1,-1,-4,-1,-2,-3,14.540000000000001
2909,1,9,5,5,0,2,3,-1,14.545
2910,2,15,17,5,0,-3,-5,6,14.55
2911,-2,-19,-11,2,0,0,2,-4,14.555
2912,-4,2,-37,-19,-5,-1,0,-5,14.56
2913,-2,-22,15,2,5,-1,3,15,14.565
2914,-1,25,9,1,-1,-2,-3,-15,14.57
2915,4,-3,0,2,1,-2,-2,-1,14.575000000000001
2916,3,8,1,1,1,-1,-2,-5,14.58
2917,-3,-22,-23,-8,1,1,-2,2,14.585
2918,-2,-4,-11,-6,-6,3,2,11,14.59
2919,2,29,13,4,0,-1,-4,-7,14.595
2920,3,-15,-1,4,1,-1,1,-1,14.6
2921,-8,9,16,2,-1,-1,-1,-4,14.605
2922,0,-10,-16,1,0,0,2,8,14.61
2923,-2,1,-3,-2,0,0,0,0,14.615
2924,-7,-4,4,-1,-1,-1,0,-3,14.620000000000001
2925,-1,6,8,-9,-2,0,-5,0,14.625
2926,3,3,2,5,2,0,1,-2,14.63
2927,-2,-9,-7,-10,-3,1,3,3,14.635
2928,7,-4,6,-2,0,-3,-4,-2,14.64
2929,3,40,4,12,0,0,2,-8,14.645
2930,-5,-53,-21,-8,-2,-2,-2,4,14.65
2931,-4,14,9,-5,-5,-3,-5,-4,14.655000000000001
2932,7,9,13,0,3,1,2,5,14.66
2933,-10,-15,-9,-6,-2,-3,-1,-6,14.665000000000001
2934,7,21,18,9,4,2,3,0,14.67
2935,-2,-2,-17,5,5,2,1,5,14.675
2936,-3,5,-4,-6,-8,0,1,-7,14.68
2937,4,-5,-7,-6,3,-1,-1,2,14.685
2938,-6,13,10,12,4,-2,-4,-3,14.69
2939,-3,-10,-3,-3,-4,0,-1,1,14.695
2940,-6,-31,-7,1,2,1,0,4,14.700000000000001
2941,-2,4,18,-2,-7,-1,-4,-10,14.705
2942,-1,-6,-5,-6,-1,0,0,1,14.71
2943,-2,-2,-29,0,-3,-2,-3,-2,14.715
2944,2,14,5,5,0,2,4,4,14.72
2945,0,-1,-3,-3,0,-3,-1,3,14.725
2946,5,0,-6,-4,-3,0,0,-1,14.73
2947,-6,-28,2,5,2,1,-1,0,14.735
2948,-5,4,4,3,1,-1,-4,-6,14.74
2949,3,11,-7,-4,-3,-2,0,1,14.745000000000001
2950,6,9,1,3,3,-1,1,3,14.75
2951,0,-16,0,-10,1,-1,-2,8,14.755
2952,-9,-5,-4,-2,-1,-4,-3,-16,14.76
2953,-2,-21,2,-1,-5,0,-2,-1,14.765
2954,1,6,2,-2,-5,-2,-1,1,14.77
2955,2,-7,-9,1,-1,2,1,0,14.775
2956,-5,-20,-7,5,5,3,0,3,14.780000000000001
2957,-4,-3,-2,-5,-4,-1,-1,-1,14.785
2958,-2,28,8,-2,-2,-2,0,-4,14.790000000000001
2959,-3,13,12,5,2,1,0,0,14.795
2960,-7,16,8,3,-2,0,-1,-4,14.8
2961,-5,-32,-8,-3,-1,1,1,-2,14.805
2962,-6,-41,-16,3,5,1,-3,8,14.81
2963,0,16,-21,-7,-3,-2,-4,-22,14.815
2964,6,9,29,4,-1,-2,4,5,14.82
2965,-4,-1,-18,-15,-5,-5,-2,-4,14.825000000000001
2966,-2,14,2,-8,-4,-3,1,3,14.83
2967,3,-10,7,0,-1,-1,0,1,14.835
2968,2,-9,-28,2,-2,-1,-6,3,14.84
2969,4,7,2,2,-1,1,5,2,14.845
2970,0,5,21,1,-5,-2,-7,-4,14.85
2971,3,-7,-6,-1,1,2,2,2,14.855
2972,3,-1,-8,1,-3,-2,-1,-1,14.86
2973,4,14,6,7,6,0,2,3,14.865
2974,0,-13,1,-4,1,0,-1,-3,14.870000000000001
2975,-7,-19,0,-4,2,0,-1,0,14.875
2976,2,14,18,0,0,0,-2,2,14.88
2977,4,-1,-9,2,-3,-2,-5,1,14.885
2978,-8,13,4,1,2,4,3,-6,14.89
2979,-4,-13,8,-10,-9,-2,-1,0,14.895
2980,2,0,-27,-11,-7,-2,-1,-2,14.9
2981,1,0,3,10,9,0,-2,1,14.905000000000001
2982,-3,-6,5,4,-2,-1,-1,-2,14.91
2983,-2,-6,-5,-12,3,0,3,-5,14.915000000000001
2984,-5,-5,9,-6,-5,-2,-3,15,14.92
2985,3,1,-2,0,-4,-2,-5,-15,14.925
2986,-1,-6,1,5,0,-3,1,-1,14.93
2987,6,45,8,11,-2,-1,-1,-4,14.935
2988,-8,-30,-29,-13,2,0,-5,-9,14.94
2989,-6,-45,-14,-11,-3,-1,3,2,14.945
2990,2,12,16,1,1,-1,2,8,14.950000000000001
2991,2,4,7,8,-1,-2,-6,3,14.955
2992,6,20,9,4,2,0,-1,-4,14.96
2993,-5,5,-16,-3,-2,-1,-2,3,14.965
2994,-1,-6,-14,-8,-2,0,-3,-6,14.97
2995,-15,8,4,5,0,-1,2,0,14.975
2996,0,-14,22,9,1,-1,2,4,14.98
2997,-6,-6,-30,-3,2,0,0,-12,14.985
2998,2,6,-2,-19,-3,-3,-4,1,14.99
2999,5,5,-4,-1,-3,-1,1,4,14.995000000000001
3000,0,-14,-2,-2,-1,0,-1,-1,15.0
3001,2,19,26,13,-1,-1,2,6,15.005
3002,-1,6,-5,8,2,2,2,-4,15.01
3003,1,15,0,-6,-4,-2,-2,0,15.015
3004,-8,-1,7,3,-1,-1,0,-4,15.02
3005,-2,20,-13,-7,-1,-1,-2,1,15.025
3006,0,-22,-11,-11,-3,-4,-4,0,15.030000000000001
3007,2,-14,5,9,0,-1,2,4,15.035
3008,1,8,-6,-16,-2,0,2,-3,15.040000000000001
3009,1,3,9,2,-2,2,0,1,15.045
3010,3,6,-10,0,-2,0,0,0,15.05
3011,0,7,5,-5,-3,-2,-1,-2,15.055
3012,3,4,-6,10,5,1,2,0,15.06
3013,-7,-33,2,0,-1,-2,-3,-3,15.065
3014,0,29,-2,-4,-1,1,2,1,15.07
3015,6,-17,4,-9,-1,-1,3,5,15.075000000000001
3016,-11,5,10,3,-3,-2,-3,-4,15.08
3017,3,11,6,10,0,-2,-1,3,15.085
3018,-1,-22,-9,1,-3,-2,0,-2,15.09
3019,-1,29,15,8,-1,0,0,-3,15.095
3020,-2,-9,-2,-7,3,0,-3,-1,15.1
3021,-4,-20,-23,-3,-4,0,1,6,15.105
3022,-4,-13,-6,-5,0,-3,-1,-1,15.11
3023,3,-3,2,1,0,-2,-3,-3,15.115
3024,3,24,9,2,3,1,-1,0,15.120000000000001
3025,2,5,11,5,-1,-1,-1,-2,15.125
3026,-5,1,-15,-2,0,0,-2,4,15.13
3027,3,-2,-8,-1,0,1,0,2,15.135
3028,3,1,3,-6,-3,-2,-2,-4,15.14
3029,1,15,11,-9,0,-2,0,4,15.145
3030,-3,-29,3,-1,-4,-1,1,-3,15.15
3031,-3,-12,-10,9,5,0,0,-3,15.155000000000001
3032,0,10,9,1,-1,0,0,-6,15.16
3033,8,34,-21,3,0,1,-1,1,15.165000000000001
3034,0,-34,7,-14,-2,2,2,0,15.17
3035,-5,-3,3,2,-1,0,-1,-2,15.175
3036,0,-25,-8,-3,-3,-3,-2,4,15.18
3037,3,12,0,-3,4,1,-2,0,15.185
3038,3,24,11,17,2,2,2,-2,15.19
3039,-1,-25,-28,-12,2,-3,-8,2,15.195
3040,-6,2,3,-9,-5,-3,0,-1,15.200000000000001
3041,-2,-10,3,1,-6,-4,-2,-3,15.205
3042,0,48,11,3,2,0,-1,0,15.21
3043,-7,-45,-5,2,3,1,2,-2,15.215
3044,1,-2,-14,-4,0,-2,-2,0,15.22
3045,-2,-9,0,-5,0,0,-1,-2,15.225
3046,-3,7,4,5,-1,-1,-3,-3,15.23
3047,4,18,16,6,1,-1,1,1,15.235
3048,3,-16,-38,-4,-2,-2,0,-1,15.24
3049,-1,-10,17,4,5,1,2,1,15.245000000000001
3050,8,27,-15,-13,-3,-2,-5,-3,15.25
3051,-11,-36,-12,-8,-5,-3,-5,-9,15.255
3052,0,-1,5,6,1,0,-1,5,15.26
3053,3,9,4,1,0,0,2,4,15.265
3054,-9,-9,1,3,-1,-1,-2,-1,15.27
3055,2,17,-1,-6,-4,-1,1,1,15.275
3056,1,10,10,-1,-3,-1,0,-2,15.280000000000001
3057,-6,-17,7,0,1,0,-1,4,15.285
3058,1,-18,0,3,-3,-3,-5,-7,15.290000000000001
3059,2,9,0,-5,-1,0,0,2,15.295
3060,-2,-4,0,12,3,-2,6,-1,15.3
3061,-5,17,5,0,-2,0,-5,-2,15.305
3062,3,2,-4,-11,-4,0,1,3,15.31
3063,-3,-1,-4,-5,-1,0,-3,-1,15.315
3064,3,42,17,5,1,1,-1,-3,15.32
3065,-8,-73,-33,-9,-8,-3,0,-2,15.325000000000001
3066,-2,5,21,12,8,0,-2,-2,15.33
3067,-3,9,-26,-6,-3,-1,0,-2,15.335
3068,1,-24,15,-9,-3,1,-2,-3,15.34
3069,-7,14,8,5,-2,0,2,-4,15.345
3070,-4,-5,-12,-4,-3,0,-1,1,15.35
3071,12,5,13,5,-3,-1,0,2,15.355
3072,-3,13,4,1,0,-1,1,3,15.36
3073,-2,-10,-6,-7,-2,-3,-7,-11,15.365
3074,-1,-15,-15,-5,-3,0,2,-2,15.370000000000001
3075,9,-4,7,3,5,0,-1,6,15.375
3076,0,19,-5,-3,-2,-2,-2,-2,15.38
3077,7,17,4,0,-1,-1,1,0,15.385
3078,-4,-1,0,1,3,0,3,3,15.39
3079,-4,-22,5,-2,-2,0,2,-3,15.395
3080,-1,-2,-29,-14,-4,-4,-7,3,15.4
3081,5,40,15,5,2,-1,-2,-6,15.405000000000001
3082,-6,-40,-28,0,-2,-1,-2,-1,15.41
3083,-8,-4,6,-2,-3,-1,0,-2,15.415000000000001
3084,5,6,17,1,-1,-1,-2,4,15.42
3085,-6,-2,-8,7,0,1,0,2,15.425
3086,2,10,19,0,-2,-2,0,11,15.43
3087,-7,-2,-13,-7,-1,-1,1,-17,15.435
3088,-2,-5,-6,3,2,-1,0,-4,15.44
3089,-3,-29,4,-6,-1,-2,-3,-6,15.445
3090,2,13,2,-1,0,-1,-2,-1,15.450000000000001
3091,-6,9,7,4,-6,-2,-1,8,15.455
3092,5,-2,-5,6,-2,0,-1,-10,15.46
3093,-1,6,-3,-9,-1,-1,1,1,15.465
3094,3,-1,-2,2,1,0,-1,0,15.47
3095,6,8,-2,-7,-3,-1,0,5,15.475
3096,-2,-8,-6,0,2,2,1,-2,15.48
3097,1,-3,8,3,2,0,0,2,15.485000000000001
3098,-1,21,1,6,0,-2,-2,-4,15.49
3099,-3,-26,-5,-12,-2,-2,-1,-4,15.495000000000001
3100,1,12,13,-3,-4,2,2,3,15.5
3101,1,15,-10,-1,-1,-2,-1,1,15.505
3102,-3,-10,0,4,0,-1,-1,-8,15.51
3103,2,10,2,8,5,0,-2,5,15.515
3104,-1,-19,-2,0,-1,-2,3,15,15.52
3105,-10,-2,4,-4,-3,-1,-6,-21,15.525
3106,4,10,-1,-2,-2,-1,0,-4,15.530000000000001
3107,-1,2,0,0,0,-1,0,-1,15.535
3108,-4,7,0,6,2,1,-3,2,15.540000000000001
3109,0,-32,-12,0,0,1,2,5,15.545
3110,-3,19,15,6,0,0,-3,0,15.55
3111,-3,1,23,0,0,0,-3,-2,15.555
3112,7,2,-42,-12,-4,-1,-1,0,15.56
3113,7,22,11,4,0,-2,0,3,15.565
3114,-12,-17,-4,-4,1,0,7,-6,15.57
3115,5,-12,-4,2,-1,0,0,2,15.575000000000001
3116,-3,-13,25,6,0,-1,-2,-6,15.58
3117,7,6,-39,-9,-1,0,-2,2,15.585
3118,-3,1,4,-4,-4,-1,-4,-4,15.59
3119,1,25,10,16,-3,-2,-2,2,15.595
3120,-6,-27,-4,-2,3,-1,-5,2,15.6
3121,-2,-9,-3,-8,-5,1,3,10,15.605
3122,6,8,8,0,0,-2,-2,-13,15.610000000000001
3123,1,6,-16,-6,2,1,3,-1,15.615
3124,-3,-25,-5,2,-5,-4,-1,-5,15.620000000000001
3125,-7,15,25,11,2,0,0,2,15.625
3126,-3,-26,-26,-27,-5,-1,2,4,15.63
3127,-3,16,3,-2,5,-1,-6,-2,15.635
3128,-1,0,5,4,-2,-1,1,-2,15.64
3129,3,20,11,6,-4,-1,0,0,15.645
3130,-6,-19,2,-1,-5,0,1,1,15.65
3131,-1,-40,-29,-5,0,0,0,-4,15.655000000000001
3132,-5,-12,6,-5,-2,-1,-2,-2,15.66
3133,-4,-9,22,2,1,-1,1,-4,15.665000000000001
3134,12,5,-18,2,4,2,-5,5,15.67
3135,-9,-7,9,-2,1,-1,-1,-1,15.675
3136,-1,17,-9,-4,-2,0,1,-4,15.68
3137,-1,-12,-15,-9,-4,-3,-3,-12,15.685
3138,5,-6,11,8,0,-2,0,8,15.69
3139,-4,1,-2,-3,0,0,-4,-4,15.695
3140,-5,-13,-4,4,1,0,0,1,15.700000000000001
3141,1,8,10,8,0,-1,0,1,15.705
3142,-12,16,1,-11,-4,-1,-1,-6,15.71
3143,-1,1,0,-1,-2,-2,2,0,15.715
3144,-9,7,5,0,1,-1,-4,-4,15.72
3145,-1,-10,-6,-1,-3,-2,-3,-8,15.725
3146,3,-9,-3,0,-1,2,4,4,15.73
3147,11,30,-10,-1,1,-3,-1,1,15.735000000000001
3148,-6,-41,16,1,-4,0,0,-4,15.74
3149,1,-20,-29,-7,-2,0,-2,0,15.745000000000001
3150,3,36,-1,-3,-3,-4,-3,1,15.75
3151,6,22,6,2,-5,-2,1,1,15.755
3152,7,-5,-17,3,6,1,-1,1,15.76
3153,2,4,4,-12,4,3,3,3,15.765
3154,-3,-14,9,7,-2,-3,-3,-5,15.77
3155,-4,1,9,-5,-5,-1,-5,-1,15.775
3156,1,11,-8,0,-5,-3,3,4,15.780000000000001
3157,-1,-15,-3,7,0,-1,1,3,15.785
3158,-5,14,-10,-13,-2,2,-1,-4,15.790000000000001
3159,-2,25,23,4,0,-1,3,-3,15.795
3160,-3,-5,-12,-6,-5,-3,-1,6,15.8
3161,-3,-8,-7,3,-2,-3,-4,-23,15.805
3162,5,11,12,13,8,1,0,2,15.81
3163,0,-27,-4,-1,-3,-1,-2,-2,15.815
3164,-10,13,-8,-5,2,0,-2,-4,15.82
3165,0,11,7,-4,-1,-2,0,10,15.825000000000001
3166,-3,-25,-1,11,2,2,-1,-1,15.83
3167,5,0,3,-7,0,1,0,0,15.835
3168,8,6,-13,-6,-4,-1,-1,-2,15.84
3169,-5,12,16,3,0,-1,-3,3,15.845
3170,0,-8,-16,-5,-6,-4,1,-4,15.85
3171,-6,-20,1,11,4,0,0,4,15.855
3172,8,42,23,-4,0,0,-2,-2,15.860000000000001
3173,-7,-25,-5,1,2,-1,-3,1,15.865
3174,-7,-8,6,-9,-2,1,3,5,15.870000000000001
3175,-5,-6,-23,-3,-3,-3,-4,-4,15.875
3176,1,12,6,-2,-1,2,7,-2,15.88
3177,2,9,2,4,4,-2,-2,2,15.885
3178,-1,3,-4,-1,0,-1,-4,-2,15.89
3179,-9,-8,-1,-5,-7,0,-1,0,15.895
3180,-9,5,8,2,-2,-2,-4,-4,15.9
3181,-1,-16,-5,-5,-2,1,2,3,15.905000000000001
3182,-1,-11,5,7,2,-1,0,-2,15.91
3183,-3,3,-4,-5,3,0,-1,-3,15.915000000000001
3184,7,1,5,-1,-2,-4,-3,-2,15.92
3185,2,18,-4,-2,3,0,3,2,15.925
3186,2,-12,-6,-8,-3,-3,-1,0,15.93
3187,-2,-22,-11,-3,-2,0,-2,0,15.935
3188,0,-3,0,3,1,-1,-1,-2,15.94
3189,0,10,4,-1,-2,-3,-1,8,15.945
3190,-8,6,4,6,0,0,-4,-26,15.950000000000001
3191,3,8,-3,0,1,-1,-3,4,15.955
3192,0,-16,5,1,3,0,6,4,15.96
3193,4,8,-16,-5,-6,1,-2,2,15.965
3194,-4,-8,-9,-5,-2,-4,-2,3,15.97
3195,-6,-7,2,4,-7,-1,3,-4,15.975
3196,-2,3,0,-5,0,-1,-6,-4,15.98
3197,-2,8,10,4,6,3,3,-1,15.985000000000001
3198,2,-4,6,1,-2,-2,-1,5,15.99
3199,0,-5,-19,-3,0,-2,2,-2,15.995000000000001
3200,-7,-2,5,4,-6,-4,-6,-1,16.0
3201,1,5,5,-7,-11,-4,-2,-2,16.005
3202,5,2,3,-5,6,2,6,11,16.01
3203,-2,-1,3,2,-9,-3,6,5,16.015
3204,2,-5,-4,4,11,2,-15,-21,16.02
3205,6,-3,-3,3,2,-1,-7,-4,16.025
3206,-9,14,3,3,1,2,3,0,16.03
3207,8,-1,5,-8,-8,-2,-2,8,16.035
3208,-4,5,1,7,-4,7,25,9,16.04
3209,-2,-20,-8,-8,-5,-6,-4,-7,16.045
3210,-2,-13,-13,12,11,-4,-15,-6,16.05
3211,5,13,-1,-17,-17,-7,-3,3,16.055
3212,0,-11,2,1,12,5,8,15,16.06
3213,13,13,9,12,-15,-3,8,9,16.065
3214,6,-9,2,-10,7,6,4,6,16.07
3215,-23,16,1,16,14,0,-19,-39,16.075
3216,0,-15,-4,-8,-7,-10,-23,-5,16.080000000000002
3217,-14,-26,-9,13,-24,-8,-13,-12,16.085
3218,1,-41,-19,-27,16,4,-11,-27,16.09
3219,-22,25,18,34,10,5,15,21,16.095
3220,26,-10,3,-31,-34,-2,25,19,16.1
3221,-53,19,21,18,41,13,20,25,16.105
3222,-4,4,-57,-24,-12,-6,-32,-33,16.11
3223,10,-15,1,9,6,-1,10,10,16.115000000000002
3224,32,27,2,47,12,2,-1,-5,16.12
3225,56,9,14,3,-32,-11,-3,11,16.125
3226,-20,31,15,-21,31,9,3,-2,16.13
3227,22,-32,0,-14,23,11,-2,-7,16.135
3228,-46,-34,-42,-3,-3,-2,7,12,16.14
3229,20,18,7,-30,-23,-4,-4,1,16.145
3230,31,64,16,53,-15,-7,3,10,16.15
3231,22,-48,-2,8,-10,-2,-1,-1,16.155
3232,-38,-68,-15,-46,2,4,9,-1,16.16
3233,-18,-23,-13,-38,4,-4,-11,-15,16.165
3234,-7,41,17,3,-41,-18,-16,2,16.17
3235,-6,-17,-22,22,53,20,19,13,16.175
3236,-9,35,30,40,-12,-10,-32,-33,16.18
3237,16,-29,2,-29,-27,-1,21,10,16.185
3238,-17,-9,-22,63,-11,0,15,17,16.19
3239,16,40,17,-52,10,-3,-25,-21,16.195
3240,-54,-55,25,-57,-1,-6,-16,-16,16.2
3241,55,15,-57,-33,-21,-8,-15,-17,16.205000000000002
3242,-52,42,59,48,37,5,24,16,16.21
3243,8,-82,3,47,-59,-4,38,30,16.215
3244,41,59,-15,-15,65,21,19,21,16.22
3245,-8,69,-6,21,21,1,-26,-19,16.225
3246,-36,-17,-2,-2,-62,-25,-29,-23,16.23
3247,-41,16,-7,-72,-11,1,20,8,16.235
3248,59,28,61,76,-64,-20,-19,-6,16.240000000000002
3249,23,-11,-18,16,99,38,72,49,16.245
3250,49,55,-13,77,19,6,-11,9,16.25
3251,-73,-47,-45,-26,3,-17,-86,-105,16.255
3252,46,67,10,-78,-55,-18,5,22,16.26
3253,14,-5,36,-9,-56,-14,-17,-21,16.265
3254,-46,37,4,5,71,24,79,76,16.27
3255,27,-20,-12,8,-17,8,16,13,16.275
3256,-43,-3,27,102,19,-5,3,-7,16.28
3257,-15,-36,-32,-39,-43,-8,-64,-49,16.285
3258,86,7,-20,-7,-45,-18,-35,-26,16.29
3259,-13,30,-11,82,35,10,52,66,16.295
3260,-25,-60,-9,-29,-77,-22,-33,-46,16.3
3261,-45,117,16,-69,118,19,-14,-10,16.305
3262,-47,-128,-28,-75,-79,-16,0,-7,16.31
3263,17,86,47,84,34,3,5,17,16.315
3264,45,94,7,-14,-2,15,35,32,16.32
3265,17,82,101,127,-9,-2,30,27,16.325
3266,-39,-61,-102,-128,101,15,-35,-57,16.330000000000002
3267,-3,12,-22,37,-66,-28,-27,-19,16.335
3268,22,20,40,47,24,5,32,33,16.34
3269,-9,-63,-6,3,3,10,-9,-12,16.345
3270,23,37,63,67,-10,-8,-9,3,16.35
3271,26,83,32,-49,-57,0,48,47,16.355
3272,-18,-63,-56,-61,87,26,-63,-65,16.36
3273,9,-14,-46,4,-4,-22,-42,-32,16.365000000000002
3274,-43,-2,44,5,-49,-10,33,30,16.37
3275,-22,12,-26,-48,34,-1,-4,0,16.375
3276,-9,28,-5,-74,-3,-1,11,-4,16.38
3277,62,-70,17,30,-31,10,32,28,16.385
3278,-3,-27,14,-2,77,25,19,6,16.39
3279,-67,-104,-52,-67,-39,-16,-13,-15,16.395
3280,27,54,18,121,-12,-12,-45,-47,16.4
3281,-53,16,2,-22,-70,-28,-18,8,16.405
3282,35,-1,-16,-74,-13,3,-13,-29,16.41
3283,73,113,32,-23,4,11,10,22,16.415
3284,-14,13,0,78,14,7,45,35,16.42
3285,-2,-7,-6,-55,-21,11,16,8,16.425
3286,-47,19,8,84,-33,-6,22,17,16.43
3287,24,-76,-23,-56,28,0,-24,-25,16.435
3288,-104,-36,17,3,-28,-19,-69,-59,16.44
3289,3,19,-47,-49,-12,-19,-18,-12,16.445
3290,92,61,37,64,-102,-10,68,62,16.45
3291,12,-41,35,45,78,51,10,10,16.455000000000002
3292,40,127,10,-24,13,0,-20,-25,16.46
3293,-61,-127,-19,47,19,-5,-1,-11,16.465
3294,-20,3,4,-96,18,7,-10,-16,16.47
3295,60,87,-32,12,37,15,27,21,16.475
3296,-61,-45,14,19,-32,-1,28,39,16.48
3297,16,23,-15,-14,-37,-1,12,2,16.485
3298,-42,-68,-17,-54,30,3,-4,-8,16.490000000000002
3299,-20,15,59,2,-70,-19,-10,0,16.495
3300,70,-67,-51,-45,36,13,12,20,16.5
3301,-18,59,39,29,-27,-12,-61,-77,16.505
3302,-23,-89,-1,40,-63,-16,-10,20,16.51
3303,48,1,-42,-59,-19,-19,-25,-32,16.515
3304,24,-64,-81,-14,28,7,29,30,16.52
3305,-55,-41,18,10,-8,5,47,33,16.525
3306,94,79,56,55,50,18,-10,-11,16.53
3307,-29,-59,-14,31,6,-7,-22,-10,16.535
3308,23,52,-1,63,-52,-21,-3,7,16.54
3309,-25,-9,-2,-66,33,17,29,21,16.545
3310,7,13,-1,10,-39,-5,-9,-12,16.55
3311,16,75,28,-17,13,1,-2,-13,16.555
3312,-40,-93,-44,6,36,5,-11,3,16.56
3313,-3,-12,0,-1,-30,4,17,21,16.565
3314,-31,-28,-5,54,24,2,5,-14,16.57
3315,37,55,7,-24,-50,-30,-69,-56,16.575
3316,-35,18,-7,-128,-14,-10,1,5,16.580000000000002
3317,43,13,2,35,64,21,50,46,16.585
3318,5,61,10,-27,-68,-13,-21,-4,16.59
3319,-13,37,46,-7,61,11,2,2,16.595
3320,13,-18,-58,42,-29,-7,-6,-10,16.6
3321,-45,-50,-24,-15,63,3,-11,-14,16.605
3322,38,60,2,42,-98,-23,32,37,16.61
3323,-12,-58,-13,-18,49,22,14,15,16.615000000000002
3324,-6,2,72,19,0,-2,-20,-26,16.62
3325,12,38,-60,-55,-71,-15,2,9,16.625
3326,22,29,1,20,40,5,-19,-27,16.63
3327,-19,-18,26,41,42,14,22,8,16.635
3328,45,-75,-27,-48,-43,3,54,54,16.64
3329,-56,43,6,32,26,-6,-53,-50,16.645
3330,-12,-8,-25,-39,12,-8,-44,-12,16.65
3331,30,0,-5,43,-58,-16,1,-20,16.655
3332,-55,42,13,-57,-4,5,18,25,16.66
3333,46,-4,29,49,-73,-21,6,8,16.665
3334,3,-25,-46,-44,121,45,8,-7,16.67
3335,-4,-13,11,62,-6,1,-5,-10,16.675
3336,-10,16,-14,-64,-6,-11,-34,-24,16.68
3337,15,-32,26,10,-26,-15,-4,1,16.685
3338,21,87,21,52,-15,-5,13,13,16.69
3339,-5,-22,-1,-115,-7,6,33,36,16.695
3340,-10,-32,-35,27,54,10,-18,-34,16.7
3341,-22,28,18,-2,-2,-4,-9,-4,16.705000000000002
3342,33,0,10,-32,-3,2,3,0,16.71
3343,-24,-31,-26,28,-7,-3,13,16,16.715
3344,38,3,23,10,-9,-4,6,13,16.72
3345,-15,-32,-7,-38,32,7,5,-4,16.725
3346,-25,-33,-24,-9,-74,-24,-12,-9,16.73
3347,-52,40,-17,-26,30,-5,-47,-44,16.735
3348,-30,-53,17,-10,4,9,35,35,16.740000000000002
3349,58,2,3,61,-3,5,-10,-6,16.745
3350,-3,4,-27,-92,-7,-9,-14,-14,16.75
3351,-17,-17,-4,44,4,-4,-8,0,16.755
3352,48,122,31,-1,6,6,1,-5,16.76
3353,-8,7,-10,-13,-9,1,25,34,16.765
3354,-49,-108,13,47,61,8,-14,-36,16.77
3355,42,57,20,-40,-74,-14,11,26,16.775
3356,-15,-46,-23,82,74,18,6,-6,16.78
3357,28,31,4,-2,2,-5,-16,-16,16.785
3358,18,20,13,-15,20,5,9,17,16.79
3359,25,-73,5,9,-28,-8,10,5,16.795
3360,-65,-9,9,-16,-34,-10,-35,-37,16.8
3361,2,-5,-28,-19,1,-7,-24,-11,16.805
3362,-11,20,-8,-16,5,7,27,23,16.81
3363,-2,7,20,51,-18,-6,-5,-19,16.815
3364,-1,-2,2,-50,-17,2,12,10,16.82
3365,-8,5,20,32,40,9,-6,-11,16.825
3366,-12,-45,-30,2,-11,-9,-15,-5,16.830000000000002
3367,6,-6,-8,-11,-9,4,24,24,16.835
3368,25,16,-17,18,-9,-3,2,-1,16.84
3369,-28,-22,-7,-10,9,-3,-20,-25,16.845
3370,14,38,23,-30,-10,-2,15,19,16.85
3371,-24,-46,-4,25,-4,-4,4,4,16.855
3372,34,16,-21,-10,10,7,-31,-5,16.86
3373,7,42,19,1,4,9,51,14,16.865000000000002
3374,-19,-15,-21,8,-7,-7,-15,-21,16.87
3375,-32,6,-19,-20,-12,-19,-32,-13,16.875
3376,-3,-4,40,7,-11,1,9,-7,16.88
