slno,emg1,emg2,emg3,emg4,emg5,emg6,emg7,emg8,Time
0,3,14,3,-3,1,2,0,1,0.0
1,-2,-7,-4,4,0,1,0,0,0.005
2,0,1,-1,-2,1,-1,-1,-2,0.01
3,0,3,2,-3,-3,-2,0,0,0.015
4,-2,-5,0,-8,3,-1,-2,-1,0.02
5,-1,0,1,8,-3,-2,-1,-3,0.025
6,-1,-3,-2,1,-5,-2,-2,-2,0.03
7,-1,8,0,1,4,3,0,-1,0.035
8,-1,-12,-7,-2,-4,0,-1,0,0.04
9,0,1,2,-2,-5,-4,-1,-1,0.045
10,2,16,1,-16,4,3,0,-1,0.05
11,-2,-18,-3,3,4,1,0,-1,0.055
12,-1,4,0,1,-1,-3,-2,-1,0.06
13,0,-3,-3,-2,5,3,0,0,0.065
14,-3,-3,3,14,-11,-7,-1,-1,0.07
15,-1,-3,-4,-18,-5,1,0,0,0.075
16,2,20,4,0,0,2,0,-1,0.08
17,-1,-10,-2,-3,-6,-3,-1,-2,0.085
18,-1,5,0,4,12,2,0,1,0.09
19,1,-8,-2,-3,-8,-4,-3,-1,0.095
20,-4,-13,-2,9,-1,-3,0,0,0.1
21,0,15,0,-3,1,-1,0,0,0.105
22,0,-1,0,-2,-11,-5,-2,0,0.11
23,0,-3,-1,-10,1,0,-1,0,0.115
24,-1,-5,-4,-3,0,1,-1,-3,0.12
25,-1,0,0,5,3,-3,-1,1,0.125
26,1,2,-2,-3,-4,-1,-2,-1,0.13
27,-2,8,3,2,-2,-3,-1,-1,0.135
28,0,4,-1,-11,-2,1,-1,-1,0.14
29,1,10,0,-5,7,3,0,0,0.145
30,-1,-4,0,6,3,2,1,0,0.15
31,3,5,0,3,3,0,-2,0,0.155
32,0,5,-1,-1,-2,0,-1,1,0.16
33,-5,-26,0,6,-11,-1,0,-2,0.165
34,2,-3,-2,-7,2,-1,1,-1,0.17
35,-1,-14,-4,-4,-1,0,-1,-1,0.17500000000000002
36,0,25,2,-5,-7,0,-2,0,0.18
37,-3,-10,-2,4,-2,-1,-2,-3,0.185
38,-1,3,2,2,-5,1,0,1,0.19
39,-2,-12,-5,0,-1,-2,-1,-3,0.195
40,-2,-9,-1,-2,-3,-1,-2,-1,0.2
41,3,18,3,3,2,2,-1,0,0.20500000000000002
42,-2,0,-3,-1,7,3,0,0,0.21
43,1,14,4,0,-2,0,1,-1,0.215
44,1,-19,-4,4,3,-3,-1,0,0.22
45,-2,0,-1,3,-5,-2,-2,-2,0.225
46,-3,-12,-5,-13,-1,-3,-3,-1,0.23
47,2,12,5,4,-1,1,-2,2,0.23500000000000001
48,-2,-5,-1,-1,0,0,0,-1,0.24
49,1,5,-1,5,4,0,0,0,0.245
50,3,-8,3,1,-1,-2,-1,-2,0.25
51,-2,6,-4,-5,-3,-3,-3,-3,0.255
52,-1,-14,-3,-7,-5,-7,-2,-1,0.26
53,0,10,-1,-6,-1,-1,0,0,0.265
54,-1,-9,0,10,4,2,-1,-2,0.27
55,-1,-2,3,11,-1,-1,0,1,0.275
56,-2,-3,-3,-7,-4,2,1,-1,0.28
57,-1,-15,-7,-11,-1,-2,0,0,0.28500000000000003
58,0,11,-1,-2,0,-1,-1,-1,0.29
59,-2,-5,-2,1,-1,-1,0,0,0.295
60,-2,-12,-1,3,-5,-4,-2,-2,0.3
61,1,25,4,0,2,3,-1,-1,0.305
62,0,-13,-3,1,1,-1,1,-1,0.31
63,-1,-7,-2,-2,0,0,1,-1,0.315
64,-2,5,-1,3,4,-2,-1,-1,0.32
65,2,-8,-2,-4,-7,-3,-1,0,0.325
66,-5,-13,2,1,1,-1,-2,-1,0.33
67,2,4,0,-10,-9,1,-1,-1,0.335
68,1,4,-3,-1,4,0,-1,0,0.34
69,-2,-3,1,8,0,0,0,0,0.34500000000000003
70,-2,12,-1,-14,-9,-4,-3,0,0.35000000000000003
71,-2,-12,-3,4,1,-2,0,-2,0.355
72,0,10,2,-2,-4,-2,-3,-2,0.36
73,0,8,1,2,3,-1,-1,1,0.365
74,-3,-8,-4,-3,-3,0,-1,-1,0.37
75,1,5,1,-6,-1,0,-1,1,0.375
76,-1,3,0,5,8,-1,0,-1,0.38
77,-2,-9,-2,-7,-9,-2,-2,-2,0.385
78,2,-7,0,3,-1,-3,1,1,0.39
79,1,19,2,-1,1,-1,-3,-1,0.395
80,-1,-6,0,11,1,1,-1,0,0.4
81,-2,-9,-3,-13,2,0,-1,0,0.405
82,0,5,1,13,-4,0,-1,-1,0.41000000000000003
83,-2,1,-4,-10,-6,0,-1,-2,0.41500000000000004
84,-5,-18,-3,10,10,0,0,-3,0.42
85,3,-2,-1,4,0,0,-3,0,0.425
86,-2,1,1,-2,-1,-3,1,-3,0.43
87,0,-5,-2,0,-5,0,1,0,0.435
88,-1,16,3,1,-2,-1,0,-1,0.44
89,0,-8,-4,-8,-2,-3,-1,-2,0.445
90,0,5,-2,-3,5,1,0,-1,0.45
91,-2,-14,-2,0,-2,-3,-3,0,0.455
92,0,4,1,-4,-1,1,1,1,0.46
93,-1,-5,0,0,-5,-2,-2,-2,0.465
94,0,10,-1,5,4,1,-2,-2,0.47000000000000003
95,0,5,1,-5,-1,2,2,0,0.47500000000000003
96,1,-1,-2,2,3,0,-1,1,0.48
97,-2,-3,1,3,1,-2,0,-1,0.485
98,-5,-3,-2,-8,-2,1,-1,-2,0.49
99,-3,-8,-3,2,0,0,1,-1,0.495
100,1,13,2,2,-4,-1,-1,-1,0.5
101,-1,-1,0,3,-3,-5,-1,-1,0.505
102,1,15,-2,-12,2,5,-3,0,0.51
103,-2,-11,-1,8,-5,-5,-1,-1,0.515
104,2,-13,-1,-9,-2,2,0,0,0.52
105,-3,-1,-1,4,1,0,-2,-1,0.525
106,2,4,0,0,-3,0,-1,1,0.53
107,-3,-8,-2,5,8,1,-2,-1,0.535
108,3,8,1,-2,-11,-5,0,1,0.54
109,-9,-9,-2,-11,-3,-3,-1,-1,0.545
110,1,2,-2,-8,1,0,0,0,0.55
111,0,-1,-4,-5,6,1,-1,-2,0.555
112,-3,-11,-2,6,-6,-3,0,-1,0.56
113,3,1,1,12,3,-1,-1,-1,0.5650000000000001
114,-2,-6,-7,-12,-6,0,-1,-1,0.5700000000000001
115,0,4,-1,-3,-3,-1,-1,0,0.5750000000000001
116,-2,12,-2,-4,0,1,-1,-3,0.58
117,-1,9,1,-3,-4,-1,2,0,0.585
118,-1,-5,2,8,-2,-3,-2,-1,0.59
119,-2,-7,-1,1,-2,-2,-1,0,0.595
120,0,2,0,-2,3,-1,-2,0,0.6
121,3,0,1,2,3,4,1,0,0.605
122,-3,-11,-4,2,-4,0,-1,-2,0.61
123,1,6,-3,-8,4,-2,0,1,0.615
124,-2,30,7,3,-7,0,-1,-1,0.62
125,-3,-38,-9,-2,4,-2,-1,-1,0.625
126,1,-4,2,3,1,-1,-1,-1,0.63
127,3,10,1,6,4,4,-1,0,0.635
128,-3,-17,-3,-9,-2,-1,-1,0,0.64
129,1,12,0,-1,0,0,-1,0,0.645
130,-1,4,2,6,-4,-2,0,1,0.65
131,-1,1,0,-5,2,-1,0,-1,0.655
132,3,-1,3,10,-1,0,0,0,0.66
133,2,9,-1,-13,0,0,-2,1,0.665
134,-2,-4,-1,4,0,-2,-1,1,0.67
135,-3,9,-3,-5,-4,-2,-3,-2,0.675
136,0,-11,-5,-9,-5,0,-3,-1,0.68
137,-2,-3,1,1,-8,-2,-1,-2,0.685
138,2,9,5,9,6,-1,1,0,0.6900000000000001
139,-5,1,-1,-4,-1,0,-1,-2,0.6950000000000001
140,-3,-13,-3,1,0,-2,-1,-2,0.7000000000000001
141,0,-1,-2,-13,-4,2,0,0,0.705
142,0,4,2,12,2,-4,-1,-1,0.71
143,-1,-8,0,4,2,-1,0,-2,0.715
144,-1,20,0,-3,-11,-7,0,-2,0.72
145,-1,-31,-5,-4,8,2,-2,-1,0.725
146,-1,2,0,-4,-7,1,1,-2,0.73
147,1,7,2,7,3,-2,0,-1,0.735
148,-3,-1,-2,0,4,1,0,0,0.74
149,-5,11,1,-2,-1,-3,0,-1,0.745
150,0,1,1,-4,1,1,0,0,0.75
151,3,13,-1,-5,-3,1,-1,-2,0.755
152,-4,-14,-4,-6,1,0,-1,-1,0.76
153,1,0,1,2,-6,-2,-2,-2,0.765
154,-1,-9,-1,-4,-5,-2,-3,-2,0.77
155,-3,-9,2,2,-6,-5,0,-1,0.775
156,5,-6,-2,0,10,1,0,1,0.78
157,-4,9,0,2,-4,1,0,-1,0.785
158,-4,0,-4,0,5,-3,0,-2,0.79
159,4,-1,0,1,-7,0,-1,0,0.795
160,-3,-11,0,1,-3,-2,-1,-1,0.8
161,0,2,-4,-15,2,-1,0,-3,0.805
162,-1,3,-1,3,-9,-2,0,-1,0.81
163,-3,-8,1,10,4,0,-1,0,0.8150000000000001
164,-1,-10,-3,0,5,1,-2,-2,0.8200000000000001
165,0,29,4,-2,-5,0,-1,0,0.8250000000000001
166,-1,-24,-2,-3,0,-2,1,1,0.8300000000000001
167,-1,-16,-1,2,4,1,1,0,0.835
168,1,5,-1,-7,-10,0,1,-1,0.84
169,2,-6,0,7,4,-1,1,0,0.845
170,-3,9,2,4,2,4,-1,-2,0.85
171,-1,21,1,-11,-7,-4,-2,-4,0.855
172,-5,-30,-11,-9,4,1,1,-2,0.86
173,3,12,3,1,-1,-5,-2,-1,0.865
174,0,8,-3,-3,-8,2,0,-1,0.87
175,-3,-16,-1,5,-1,-3,-1,0,0.875
176,2,11,5,1,-3,1,-2,0,0.88
177,-1,-8,-4,0,1,0,1,-2,0.885
178,3,-2,1,-6,-8,-3,1,1,0.89
179,-7,-6,-3,-11,-3,-3,-3,0,0.895
180,-1,6,1,8,5,2,1,-1,0.9
181,0,-7,1,10,6,0,0,0,0.905
182,0,0,-1,2,8,2,-2,-1,0.91
183,3,2,-2,-1,-6,-1,1,-2,0.915
184,0,-1,0,-4,-2,-2,0,2,0.92
185,-3,-5,-1,-2,-4,-3,-2,-2,0.925
186,0,2,-1,-10,-1,-1,-1,-1,0.93
187,-1,4,2,2,-9,-4,0,0,0.935
188,0,-37,-2,7,12,5,1,0,0.9400000000000001
189,0,5,-3,-6,-3,0,0,-1,0.9450000000000001
190,-3,-9,-4,-3,7,-2,-1,-3,0.9500000000000001
191,3,11,0,0,2,2,1,0,0.9550000000000001
192,-1,6,0,-1,-14,-7,-3,-1,0.96
193,-2,-2,1,-1,-3,0,-2,-1,0.965
194,0,3,0,-1,0,-3,-3,-2,0.97
195,-2,-6,-1,-3,2,0,-1,-2,0.975
196,-4,9,-6,-4,9,-1,0,-1,0.98
197,-2,-5,-1,0,0,2,1,1,0.985
198,-2,-2,-1,-5,-1,-1,2,-1,0.99
199,1,-8,-1,2,1,3,0,0,0.995
200,1,6,1,-10,-11,-3,-2,-2,1.0
201,2,-4,0,8,3,-3,-2,-1,1.0050000000000001
202,-2,9,6,15,12,7,1,1,1.01
203,1,-4,1,1,-6,-3,-1,0,1.0150000000000001
204,-2,3,0,-1,4,1,0,-1,1.02
205,-2,2,-6,-10,-4,-3,-2,-2,1.025
206,0,-8,-2,-4,-1,-2,-1,-1,1.03
207,1,20,-2,-7,-13,-3,0,-1,1.035
208,-5,-12,-4,-4,3,-2,-1,-1,1.04
209,-1,-4,1,3,1,-1,-1,-1,1.045
210,-1,3,0,-7,2,1,-1,0,1.05
211,-2,-9,-1,6,5,3,-1,0,1.055
212,-1,4,1,-1,-7,-3,0,-2,1.06
213,-2,4,-1,-6,-7,-3,-2,0,1.065
214,1,-5,-5,-2,-5,-3,0,0,1.07
215,-2,0,-4,-5,4,0,0,-1,1.075
216,-5,-3,2,1,1,0,0,-1,1.08
217,0,-2,3,13,9,3,0,-1,1.085
218,-2,-5,-2,-11,-9,-5,-2,0,1.09
219,-1,-7,-3,-3,3,1,-1,1,1.095
220,3,8,0,7,1,-1,0,-1,1.1
221,-2,-1,0,-4,-9,0,0,-1,1.105
222,1,4,-1,1,-1,1,0,-1,1.11
223,-1,-5,-1,7,5,0,0,-3,1.115
224,1,3,1,4,5,0,0,0,1.12
225,-2,-1,-3,-10,-3,-1,-1,0,1.125
226,-2,2,-1,-1,-3,0,2,-1,1.1300000000000001
227,-2,-8,1,2,0,-2,-1,1,1.135
228,1,2,1,15,7,1,-1,0,1.1400000000000001
229,2,0,-1,-3,-1,-2,0,-1,1.145
230,-1,-1,-2,-10,-5,-4,-1,-1,1.1500000000000001
231,-4,4,0,-5,-8,-4,-1,-2,1.155
232,-2,-4,-1,-5,-9,-2,-2,0,1.16
233,-1,-2,-1,2,7,2,2,-2,1.165
234,-1,6,-2,-4,-4,-2,-2,-1,1.17
235,0,-7,0,2,-1,-1,-1,2,1.175
236,-2,9,1,-6,-6,-2,-1,0,1.18
237,1,-2,0,2,-1,-4,-2,1,1.185
238,-6,-9,-1,6,-5,-1,-1,-2,1.19
239,-1,-6,0,-2,-1,-4,0,-1,1.195
240,2,-11,-3,-6,3,7,1,-1,1.2
241,-2,18,1,1,2,-1,0,-1,1.205
242,-1,-1,-2,-2,-9,-4,-2,0,1.21
243,1,-1,-1,7,9,-2,1,-2,1.215
244,0,-3,1,-5,-3,-2,-2,0,1.22
245,0,-9,-2,6,-1,1,0,-1,1.225
246,-3,-4,-5,-2,0,0,-1,0,1.23
247,-2,0,0,-1,-3,-1,-1,0,1.235
248,0,3,2,11,8,1,-1,0,1.24
249,-1,-2,-2,-4,-1,0,-1,-1,1.245
250,-2,2,0,3,-2,-2,-2,0,1.25
251,-1,-2,-4,-22,-6,-1,-2,-1,1.2550000000000001
252,-1,14,0,3,0,-1,1,-2,1.26
253,1,-1,2,-1,0,-2,1,0,1.2650000000000001
254,-2,2,-5,2,-6,0,0,-1,1.27
255,0,-12,1,4,9,4,0,-1,1.2750000000000001
256,1,3,0,-12,1,1,1,1,1.28
257,0,-9,-2,0,-7,-2,-1,-1,1.285
258,4,6,3,14,19,3,2,1,1.29
259,-2,-1,-3,1,-10,-2,-2,0,1.295
260,-1,-4,0,3,0,-2,-2,-1,1.3
261,-1,6,-2,-9,-5,0,-1,1,1.305
262,-3,-20,-1,-2,-1,-2,1,-1,1.31
263,2,24,6,-1,-1,-1,-1,0,1.315
264,1,3,-2,-7,-6,-3,-2,-1,1.32
265,-2,-6,-2,-1,-3,-5,-4,-2,1.325
266,0,6,2,-5,2,3,-3,-2,1.33
267,-1,-16,-6,-5,-14,-2,0,1,1.335
268,0,4,2,9,8,2,0,0,1.34
269,-2,1,1,-2,1,1,-1,-1,1.345
270,-2,-7,-4,1,8,1,-1,-2,1.35
271,-2,4,-3,-11,-5,0,-1,-2,1.355
272,-1,-1,-3,6,-8,-6,-4,-1,1.36
273,0,-1,-1,9,3,-1,0,0,1.365
274,-2,1,0,3,-7,-3,-1,0,1.37
275,-4,-4,-5,-9,5,0,-1,-1,1.375
276,0,13,5,-1,-3,-2,-3,0,1.3800000000000001
277,-1,-23,-11,-8,-1,4,-2,-2,1.385
278,2,10,1,-9,-11,-5,0,1,1.3900000000000001
279,-2,-4,-2,2,8,3,0,-1,1.395
280,-2,-8,0,10,0,-1,0,-1,1.4000000000000001
281,-1,7,5,5,-3,-2,0,-2,1.405
282,-1,-2,-2,1,5,-2,-2,-1,1.41
283,-2,-11,-4,-14,-9,-4,-2,-2,1.415
284,0,5,-1,4,2,-1,0,-3,1.42
285,1,7,0,2,0,-1,1,-1,1.425
286,1,-6,-4,-8,4,2,0,-2,1.43
287,1,6,3,8,-3,-2,0,-1,1.435
288,-3,-10,-2,-13,-3,-5,-3,-1,1.44
289,-3,-2,-5,-6,-18,2,-1,-2,1.445
290,0,1,-1,2,7,-3,1,-1,1.45
291,-4,-1,-1,3,3,1,-1,-2,1.455
292,3,-3,-6,-15,-4,4,1,2,1.46
293,-3,-5,0,12,6,-2,0,0,1.465
294,-2,-1,0,1,11,2,-3,0,1.47
295,1,3,0,6,-15,-5,-2,-1,1.475
296,-2,1,0,-2,-8,-6,0,-2,1.48
297,0,3,-2,-17,0,-1,-1,1,1.485
298,0,-6,0,9,-3,-1,-1,0,1.49
299,0,-5,0,7,8,-1,-2,-1,1.495
300,0,3,-2,-10,-3,1,1,0,1.5
301,-3,3,1,-1,-1,-2,0,-1,1.5050000000000001
302,1,4,-2,-10,-4,-2,-1,0,1.51
303,-2,-11,3,20,-2,-1,-3,-2,1.5150000000000001
304,-3,-3,-6,-16,2,1,-2,-1,1.52
305,0,-1,4,11,4,3,0,2,1.5250000000000001
306,-2,3,-3,-4,-3,-4,-2,-2,1.53
307,0,2,0,-11,4,3,1,0,1.5350000000000001
308,-1,-6,1,18,10,2,0,0,1.54
309,-3,1,0,-6,-4,-1,-2,0,1.545
310,0,-2,0,5,-6,-3,-1,0,1.55
311,0,2,-1,0,12,2,-1,0,1.555
312,-2,-6,1,3,-20,-4,-1,-2,1.56
313,0,0,-5,-4,6,0,0,-2,1.565
314,-1,-1,-1,-5,-5,0,-2,-1,1.57
315,2,8,1,-8,0,1,0,0,1.575
316,-1,2,-3,-8,-7,-3,-3,-1,1.58
317,2,-5,1,9,5,4,2,1,1.585
318,-1,-3,-3,-8,-8,-2,1,-1,1.59
319,-2,-1,1,27,24,4,2,-1,1.595
320,1,-6,1,0,-3,-3,-1,1,1.6
321,-3,-1,-3,-9,-10,-3,-3,-1,1.605
322,-2,-12,-5,-6,-3,-1,0,-1,1.61
323,-1,3,1,5,-2,-4,-1,1,1.615
324,-3,-1,-6,-15,0,0,-2,-2,1.62
325,-3,-6,0,0,-1,-1,-2,-2,1.625
326,-1,4,4,9,-8,1,1,0,1.6300000000000001
327,0,1,0,-14,-14,-6,-1,-1,1.635
328,0,-3,-1,0,12,6,1,-1,1.6400000000000001
329,1,2,1,3,13,2,0,1,1.645
330,-1,7,0,7,5,1,-2,-1,1.6500000000000001
331,-3,-7,-5,-18,-14,0,0,0,1.655
332,-1,11,5,15,-4,-5,-1,-2,1.6600000000000001
333,2,-5,-2,-14,-1,-3,1,0,1.665
334,0,5,0,11,10,5,1,-1,1.67
335,-2,-1,-6,-12,-4,-2,-1,-1,1.675
336,-1,-16,-5,-12,-3,-2,-2,-1,1.68
337,-2,0,-2,2,-15,-6,-1,-1,1.685
338,0,2,3,-2,0,-1,-2,0,1.69
339,0,2,-3,0,-1,0,-2,-1,1.695
340,-1,2,-1,2,9,4,0,1,1.7
341,1,1,1,5,-2,-3,-2,0,1.705
342,-1,-5,-2,-4,-8,-3,-2,-1,1.71
343,-2,7,-1,-1,6,2,-3,-2,1.715
344,2,22,2,5,-14,-4,0,0,1.72
345,-2,11,-2,-8,2,0,-2,-2,1.725
346,-1,7,1,-5,0,2,1,1,1.73
347,0,-8,-1,7,3,-2,-1,0,1.735
348,-2,-14,-3,1,11,2,1,-1,1.74
349,-2,-6,-2,-2,-23,-5,-2,-1,1.745
350,-1,-5,1,-1,1,-3,1,0,1.75
351,1,-6,3,6,4,3,1,-1,1.7550000000000001
352,1,-8,0,2,0,-2,-1,-1,1.76
353,-2,-8,0,5,6,0,-1,-1,1.7650000000000001
354,-2,-1,-2,-3,-3,-1,-3,-2,1.77
355,1,-8,0,-1,-9,-3,-2,0,1.7750000000000001
356,-2,-14,-4,-11,-1,-2,-1,-2,1.78
357,0,2,0,2,3,1,-1,-1,1.7850000000000001
358,0,-6,-2,1,2,1,0,1,1.79
359,-2,2,-1,-6,-10,-2,0,0,1.795
360,-1,10,2,6,7,-1,0,0,1.8
361,-1,-4,-2,0,-3,-2,-1,0,1.805
362,-1,7,-1,-4,0,-1,-1,-2,1.81
363,-2,-11,-5,-5,2,2,0,1,1.815
364,-1,-6,-3,-8,-12,1,-1,0,1.82
365,1,1,1,-6,1,-4,-1,0,1.825
366,3,16,2,10,3,0,0,-1,1.83
367,-6,3,0,6,1,0,-1,-1,1.835
368,1,-2,0,-12,-4,1,1,-1,1.84
369,-1,1,0,7,10,2,0,0,1.845
370,1,0,-3,-3,0,-1,-1,-2,1.85
371,1,2,-1,-2,-1,0,1,-2,1.855
372,-1,4,0,7,-5,-2,0,-2,1.86
373,2,0,-3,-11,-4,0,-1,0,1.865
374,-2,-5,-1,0,-2,-2,0,-2,1.87
375,-2,-3,-3,1,6,1,-1,0,1.875
376,-2,4,0,-4,-17,-1,-1,-2,1.8800000000000001
377,-2,-3,1,8,2,-2,0,-1,1.885
378,-1,-8,-5,-10,-2,-3,1,0,1.8900000000000001
379,0,0,2,-2,-4,-6,-4,-3,1.895
380,1,-3,0,7,16,1,-2,0,1.9000000000000001
381,-2,0,-3,1,1,6,2,0,1.905
382,0,-5,0,12,7,1,1,-2,1.9100000000000001
383,1,10,3,-7,-1,1,-1,0,1.915
384,-2,0,0,8,5,-1,1,0,1.92
385,-3,-1,-3,-2,-4,-1,-2,-3,1.925
386,-2,-7,-4,-8,-5,-3,-2,1,1.93
387,2,0,-2,-8,-21,-9,-1,-1,1.935
388,-3,4,-1,2,5,1,0,-1,1.94
389,-3,-1,1,-3,-5,-5,-1,-2,1.945
390,-2,-2,0,-8,7,2,-1,-1,1.95
391,0,-1,-2,-6,5,5,0,0,1.955
392,1,-2,1,4,-7,-4,-3,0,1.96
393,-1,2,-2,11,-3,-3,-1,-1,1.965
394,-1,-1,-1,3,3,2,-2,0,1.97
395,0,1,-2,-6,2,1,1,0,1.975
396,-1,-1,-3,-8,-1,5,0,1,1.98
397,-5,0,-2,-10,-6,-4,-3,-2,1.985
398,1,-3,-1,-23,-17,-7,-3,-2,1.99
399,0,-4,-5,7,6,-1,0,-3,1.995
400,4,1,-1,7,-13,-2,-1,-2,2.0
401,0,9,36,-1,6,-2,1,2,2.005
402,-2,-11,-44,-12,-8,0,0,-1,2.0100000000000002
403,-2,0,9,2,-3,-2,-1,-1,2.015
404,-1,-4,-5,12,15,1,-1,-1,2.02
405,1,1,1,0,10,9,3,0,2.025
406,-1,6,12,-16,-4,-7,-1,-3,2.0300000000000002
407,0,0,-5,18,4,2,1,-1,2.035
408,-1,-4,-1,-5,-4,-4,-1,1,2.04
409,-1,-3,2,12,8,1,-2,1,2.045
410,1,2,16,16,3,2,-2,0,2.05
411,-3,-2,-21,-26,-9,-4,-2,-2,2.055
412,-2,-1,6,6,-5,-2,1,-1,2.06
413,6,0,-18,4,7,3,1,1,2.065
414,-5,-4,3,-2,-5,-1,-2,-2,2.07
415,-2,-2,4,3,1,-4,-1,-2,2.075
416,-2,0,-2,-13,-6,-1,-1,0,2.08
417,-2,-4,-8,-4,-11,-5,-2,-1,2.085
418,4,0,3,8,5,2,0,1,2.09
419,2,2,5,21,9,1,0,1,2.095
420,-5,-3,0,-3,4,1,-1,-1,2.1
421,0,-1,-3,-5,-7,-2,-1,-3,2.105
422,-4,0,3,-5,-6,-2,-3,-1,2.11
423,-3,-1,-1,-5,1,1,3,0,2.115
424,4,-1,-4,-6,-5,0,-2,-1,2.12
425,10,-3,-9,-3,3,-3,-1,3,2.125
426,-6,0,5,9,2,3,2,-2,2.13
427,0,4,5,3,1,1,-1,1,2.1350000000000002
428,-4,0,-3,-4,-7,-5,0,-1,2.14
429,-6,-6,-6,-8,-6,-3,-2,-3,2.145
430,2,-2,0,1,-1,0,0,0,2.15
431,1,-2,8,-2,5,0,-1,-1,2.1550000000000002
432,2,2,3,15,18,5,2,1,2.16
433,-5,-2,-13,-14,-12,-2,-1,0,2.165
434,0,0,0,4,1,1,0,2,2.17
435,-1,-1,-1,-7,-6,-3,-2,-2,2.1750000000000003
436,-2,-3,-9,-8,-3,-3,-2,0,2.18
437,-1,1,7,-1,2,-1,0,0,2.185
438,-1,-2,-4,2,-3,-2,-2,-1,2.19
439,-7,0,-3,0,-6,-4,-1,-1,2.195
440,-5,0,0,-7,3,1,0,-1,2.2
441,-3,1,-3,-1,-10,-2,0,-2,2.205
442,2,7,3,2,-2,-3,0,0,2.21
443,2,4,0,1,10,5,3,1,2.215
444,2,3,3,18,1,-5,-1,-2,2.22
445,-2,-3,-1,-3,4,2,-1,-3,2.225
446,3,-2,0,-2,-8,-1,0,-1,2.23
447,2,-4,-5,-14,-10,-3,0,-1,2.235
448,-2,-4,0,-13,3,-1,-2,-1,2.24
449,3,-2,-4,3,8,-1,-3,0,2.245
450,-2,5,21,11,6,0,0,-1,2.25
451,-4,-20,-29,2,5,1,-1,-2,2.255
452,2,-1,3,-6,-17,-5,-3,0,2.2600000000000002
453,0,-5,-2,-3,-3,-3,-1,-3,2.265
454,5,-5,-11,-5,0,-1,-1,1,2.27
455,-5,0,3,1,-2,-3,-3,-3,2.275
456,-11,-5,-3,-8,-8,-1,2,-4,2.2800000000000002
457,4,-3,-2,2,2,1,0,-1,2.285
458,-3,-3,-3,-4,2,1,0,-1,2.29
459,4,0,7,14,-1,2,0,-1,2.295
460,5,-9,-9,-7,2,1,-1,0,2.3000000000000003
461,-2,-2,3,3,2,0,-1,-1,2.305
462,-5,-2,0,-5,-5,0,-2,-3,2.31
463,-2,1,4,-4,-7,-3,-1,0,2.315
464,2,7,4,8,1,-1,0,-1,2.32
465,-3,-1,0,3,-3,0,0,-1,2.325
466,1,-2,-3,5,-1,-5,-2,1,2.33
467,-1,3,1,-8,3,2,2,0,2.335
468,1,-1,1,4,0,1,-1,0,2.34
469,-1,-2,-2,-9,-1,-1,-1,-1,2.345
470,-2,-3,-4,3,3,-2,-2,-2,2.35
471,-1,1,7,10,-6,-1,0,-2,2.355
472,4,-3,1,-19,6,-2,0,-2,2.36
473,2,-4,0,18,7,0,1,0,2.365
474,1,4,-2,10,0,1,-1,-1,2.37
475,-1,-4,0,11,11,2,0,-1,2.375
476,0,-5,-2,-9,-10,-1,-2,-1,2.38
477,-2,-3,1,-19,-9,-3,0,0,2.3850000000000002
478,-4,-9,-7,10,6,1,0,-2,2.39
479,6,-4,-1,-3,1,-1,-2,1,2.395
480,-1,0,-2,3,-3,-3,0,2,2.4
481,-7,-2,1,-8,-3,-1,-2,-3,2.4050000000000002
482,4,-1,-1,-4,-5,-3,0,-1,2.41
483,1,1,-1,-8,-6,-1,-3,1,2.415
484,-4,-5,-1,3,-1,0,0,-2,2.42
485,3,4,1,0,-7,-2,-1,1,2.4250000000000003
486,-3,1,2,15,9,1,0,-2,2.43
487,-3,0,1,-14,2,-1,0,-1,2.435
488,-1,3,0,4,-2,-1,0,1,2.44
489,0,0,-4,-15,-15,-5,-2,0,2.445
490,-1,0,-2,12,0,0,0,1,2.45
491,0,4,1,-7,-4,-1,-1,0,2.455
492,0,3,-4,-10,3,1,0,-2,2.46
493,1,4,-2,19,4,0,1,-1,2.465
494,-3,4,1,-13,-3,-1,-1,1,2.47
495,-7,3,-2,0,-1,-3,-1,-2,2.475
496,4,3,-1,-5,-5,-2,-2,0,2.48
497,2,0,-3,-4,0,0,-1,-1,2.485
498,2,0,-1,-6,-4,-3,-1,-1,2.49
499,3,4,5,2,-1,-1,0,-1,2.495
500,0,4,-1,-3,-4,-1,-3,0,2.5
501,-2,0,0,12,10,4,1,1,2.505
502,-3,0,-2,-5,-1,1,-3,-1,2.5100000000000002
503,0,-1,0,2,-2,-1,-1,-1,2.515
504,1,3,4,4,1,0,0,-1,2.52
505,-4,-1,-6,11,7,2,0,-2,2.525
506,2,1,0,-3,2,1,2,0,2.5300000000000002
507,-5,2,-3,-11,-3,-1,-1,-3,2.535
508,-6,-1,-3,3,5,1,-2,-3,2.54
509,-1,7,1,5,5,-1,1,-1,2.545
510,4,8,0,-1,1,1,0,2,2.5500000000000003
511,0,-7,-11,-14,-10,-5,-3,-2,2.555
512,2,3,4,16,3,1,3,0,2.56
513,-2,1,1,-9,-5,-3,-3,-1,2.565
514,-1,2,-2,-5,-4,-4,-4,-2,2.57
515,2,2,1,4,4,1,0,1,2.575
516,-3,1,0,-4,-3,-1,-1,0,2.58
517,0,3,-1,-3,-2,-1,-1,0,2.585
518,0,-1,2,0,-9,-1,0,0,2.59
519,-3,-5,-3,-2,-2,-1,0,-1,2.595
520,-2,-7,-3,10,15,1,-1,-2,2.6
521,2,9,7,2,-6,0,2,1,2.605
522,-4,-7,-5,-6,-6,-6,-1,-1,2.61
523,-1,-3,-1,-17,-17,-5,-1,-2,2.615
524,-2,-12,0,26,18,7,1,-1,2.62
525,-2,-7,-5,-7,5,0,0,0,2.625
526,-2,-6,0,2,-5,-1,0,0,2.63
527,0,-7,-4,-11,-5,-4,-1,1,2.6350000000000002
528,-2,-8,-1,0,-2,2,-1,0,2.64
529,0,-9,0,0,-3,-1,0,-1,2.645
530,-3,-14,-3,-6,2,2,-1,-2,2.65
531,-1,-7,1,-6,-5,-3,2,0,2.6550000000000002
532,2,-7,-4,1,-1,-3,-1,0,2.66
533,0,-4,-1,-2,1,-2,-2,0,2.665
534,-1,0,2,3,-5,-3,0,-1,2.67
535,-1,0,3,13,6,2,0,0,2.6750000000000003
536,3,0,-1,-22,-16,-6,0,-1,2.68
537,1,-3,-3,1,5,0,-2,-1,2.685
538,-1,-9,0,9,9,0,0,0,2.69
539,-2,-5,-4,3,5,2,0,-1,2.695
540,0,-7,-6,-15,-12,-6,-1,-1,2.7
541,-4,-18,2,-12,-24,-8,-3,-2,2.705
542,0,-16,-1,12,30,8,2,-1,2.71
543,-1,-10,2,14,7,1,0,-1,2.715
544,-1,-4,-2,-7,-3,1,-2,1,2.72
545,-2,7,-2,-12,-14,-4,-2,-1,2.725
546,0,14,-1,-6,-3,-3,-1,-1,2.73
547,1,19,2,5,2,4,0,0,2.735
548,0,25,3,1,-5,0,0,0,2.74
549,2,24,2,9,2,1,-2,-3,2.745
550,-1,30,-5,-19,-5,-1,-1,-2,2.75
551,-1,44,0,15,1,1,-1,0,2.755
552,4,45,-3,-6,4,-3,-1,0,2.7600000000000002
553,-1,16,-2,7,2,0,1,-2,2.765
554,0,-3,0,-2,-2,-3,0,-2,2.77
555,-2,-21,-4,-13,-9,-2,-4,-3,2.775
556,-2,-24,-2,14,2,1,0,-1,2.7800000000000002
557,-2,-27,0,5,15,5,2,0,2.785
558,-4,-18,0,-20,-27,-7,-1,-2,2.79
559,-3,-17,0,-5,8,4,1,-2,2.795
560,-8,-18,3,23,-3,-1,-2,-4,2.8000000000000003
561,-1,-7,-2,-19,-3,0,0,0,2.805
562,1,-5,0,-6,-4,0,-2,2,2.81
563,-1,-5,0,3,-6,-3,0,1,2.815
564,1,-5,-1,-5,4,-1,-2,-1,2.82
565,-2,-3,0,6,-2,-2,-1,-2,2.825
566,0,-2,-1,-1,-4,-1,-1,-2,2.83
567,4,-4,-1,-1,1,-2,-2,-1,2.835
568,2,-3,0,-3,-1,-1,0,-1,2.84
569,-2,2,0,0,4,-1,-1,1,2.845
570,-2,0,-3,-4,-6,-2,-2,-3,2.85
571,0,-1,-2,7,5,1,0,-1,2.855
572,-2,-1,1,-9,-8,-4,0,-1,2.86
573,2,3,0,10,8,4,-1,1,2.865
574,-3,0,0,2,3,1,-2,0,2.87
575,-1,2,1,6,-5,-3,-2,1,2.875
576,0,3,-3,-16,5,-1,0,-2,2.88
577,-3,-1,-4,6,4,-3,-1,-1,2.8850000000000002
578,0,5,-1,6,6,1,1,0,2.89
579,0,4,-1,1,-4,-3,0,0,2.895
580,-1,2,0,-4,-6,-1,0,0,2.9
581,6,4,-3,-10,-6,-4,-2,0,2.9050000000000002
582,-3,-2,0,1,3,2,0,0,2.91
583,-2,2,2,-6,-6,-1,1,-1,2.915
584,-3,-2,-1,-2,-9,-2,-1,0,2.92
585,-2,1,0,-3,-13,-3,-1,0,2.9250000000000003
586,0,-1,-4,20,30,6,1,-1,2.93
587,2,7,-2,-12,3,3,0,0,2.935
588,-4,-7,-1,0,-4,-2,-3,-2,2.94
589,-3,-7,0,-9,-20,-5,-2,-2,2.945
590,-2,-2,-5,-15,-1,-3,0,-1,2.95
591,2,-3,-3,13,9,1,0,0,2.955
592,0,5,-2,4,1,1,1,2,2.96
593,-8,-12,-3,1,1,-2,-1,-2,2.965
594,4,16,9,-8,-12,-4,-3,0,2.97
595,-2,-12,-7,1,-3,-2,-2,-2,2.975
596,-10,-16,-3,-7,-2,0,0,-1,2.98
597,1,6,4,11,7,1,-1,-1,2.985
598,3,-8,0,-4,-2,-1,0,1,2.99
599,2,3,0,-4,-3,-3,-2,-1,2.995
600,1,2,2,7,7,2,-1,1,3.0
601,-2,-9,-2,-3,5,1,-1,0,3.005
602,-1,4,0,6,-12,-5,-1,-2,3.0100000000000002
603,1,-4,0,0,0,-1,-1,0,3.015
604,5,-7,-6,-9,-10,-4,0,1,3.02
605,-12,8,1,5,16,2,-1,-1,3.025
606,7,13,-3,-5,-16,-2,0,-2,3.0300000000000002
607,-17,12,4,-2,11,2,0,-1,3.035
608,0,3,-6,-3,6,4,0,-1,3.04
609,1,-20,0,-3,-7,-2,-4,-2,3.045
610,-3,-9,-2,-1,-3,-2,-2,-2,3.0500000000000003
611,4,-8,4,1,-4,-2,0,0,3.055
612,-7,-1,-3,1,-3,-2,0,-2,3.06
613,5,-5,0,-6,0,0,-1,2,3.065
614,-8,-12,-2,4,5,1,1,-3,3.0700000000000003
615,5,-4,0,7,-1,-2,0,-1,3.075
616,1,0,3,-4,-2,0,-1,0,3.08
617,1,2,-4,-4,-1,1,1,0,3.085
618,0,-6,-1,-4,0,-2,-3,-1,3.09
619,0,2,3,6,-5,-1,-1,-1,3.095
620,-1,-4,-1,-7,0,-1,-1,0,3.1
621,3,0,-3,0,6,3,2,0,3.105
622,0,-3,2,7,-2,-3,-2,0,3.11
623,-2,-6,-2,-7,2,3,0,-2,3.115
624,-4,3,-4,1,-3,-3,-1,-4,3.12
625,1,-8,-1,0,-3,-2,-1,0,3.125
626,0,-1,-3,-2,4,4,2,0,3.13
627,-1,-2,-3,-5,-6,-1,-1,-2,3.1350000000000002
628,0,3,3,10,0,-1,0,-2,3.14
629,-1,9,4,4,-6,-3,-2,-3,3.145
630,-1,-6,-5,-18,-2,-1,-1,0,3.15
631,-1,1,2,0,1,-1,-1,-1,3.1550000000000002
632,2,-2,-3,-1,-2,-2,0,0,3.16
633,-1,0,-4,2,-1,-2,0,-2,3.165
634,1,-2,1,1,-8,-1,-1,0,3.17
635,0,1,-1,-3,6,1,0,1,3.1750000000000003
636,2,-6,-2,4,0,0,-2,0,3.18
637,-3,7,0,2,6,0,0,0,3.185
638,-4,-4,0,3,-4,1,0,1,3.19
639,-4,-3,-5,-4,-2,-2,0,1,3.1950000000000003
640,0,-9,4,12,5,0,0,0,3.2
641,0,7,-6,-19,-2,0,-1,0,3.205
642,-2,8,0,5,0,0,-1,-1,3.21
643,-5,-23,0,-3,-9,-4,-3,-4,3.215
644,-9,3,-2,-2,0,0,0,-1,3.22
645,-1,0,5,1,1,-1,-1,-1,3.225
646,3,7,3,6,2,-1,-1,-1,3.23
647,7,23,1,-2,-4,-1,0,1,3.235
648,-2,-57,-4,-11,2,0,-2,-2,3.24
649,1,14,-8,6,4,-2,-2,0,3.245
650,7,21,3,-3,-1,-2,2,3,3.25
651,-11,-77,-16,-3,-5,-3,-2,-5,3.255
652,3,19,3,0,-2,-3,-1,0,3.2600000000000002
653,2,-10,5,-4,-6,1,-1,0,3.265
654,6,-4,-4,9,1,-4,-2,-1,3.27
655,-7,22,1,-4,1,2,1,1,3.275
656,2,22,4,0,3,0,-1,0,3.2800000000000002
657,1,28,10,-1,-4,-1,0,-1,3.285
658,-4,-6,4,-1,1,-1,0,-1,3.29
659,-1,-12,-9,-5,-4,-1,-3,-2,3.295
660,-7,-25,-13,-5,-1,-2,-2,-3,3.3000000000000003
661,-2,-3,6,0,-2,0,0,0,3.305
662,-1,-9,3,-3,2,3,0,2,3.31
663,-3,7,9,16,5,0,-1,0,3.315
664,-1,-4,-15,-8,-2,-2,0,-3,3.3200000000000003
665,6,45,1,-2,-1,0,0,0,3.325
666,-14,-81,-17,-11,-7,-4,-1,-6,3.33
667,2,24,14,10,7,4,3,1,3.335
668,-1,-40,-6,5,-2,1,-2,-1,3.34
669,-7,9,-4,-4,-4,-2,-1,-4,3.345
670,-6,30,4,6,-2,-1,-3,-2,3.35
671,7,22,-3,-11,-3,0,-2,2,3.355
672,-2,16,8,5,3,-1,1,-1,3.36
673,1,-29,-7,-1,1,0,-1,2,3.365
674,0,1,0,8,2,1,-1,-3,3.37
675,4,17,-7,1,7,2,0,0,3.375
676,5,23,6,-8,-6,-3,-1,2,3.38
677,-4,-21,-9,-11,4,0,0,-2,3.3850000000000002
678,-4,14,2,0,-2,-2,-2,0,3.39
679,1,0,-1,2,-2,-1,0,1,3.395
680,3,50,-1,-6,-4,-1,1,2,3.4
681,2,9,5,3,-5,-2,-1,0,3.4050000000000002
682,0,0,-3,1,2,-1,-1,-2,3.41
683,0,-16,4,0,-1,-2,-1,-1,3.415
684,1,28,3,1,2,-1,-1,0,3.42
685,4,-1,4,5,2,2,2,1,3.4250000000000003
686,5,36,-3,-6,-3,2,1,2,3.43
687,-13,-52,-19,-6,-7,-5,-3,-7,3.435
688,-13,-67,0,-16,-10,-3,-1,-6,3.44
689,-8,-22,6,14,3,-2,-1,-3,3.4450000000000003
690,-6,-3,-5,-13,8,1,0,-1,3.45
691,8,54,10,5,0,1,0,3,3.455
692,2,11,1,6,4,1,-2,1,3.46
693,0,-16,-10,-6,-4,-2,-1,-3,3.465
694,9,31,11,1,-8,-4,1,1,3.47
695,-2,-12,-6,-8,-1,-1,-1,-1,3.475
696,-3,-12,2,6,-4,-2,1,-1,3.48
697,-1,13,-1,-6,10,4,0,0,3.485
698,1,-12,-6,8,2,1,0,-1,3.49
699,5,36,6,-5,-6,0,0,1,3.495
700,-7,-28,-6,10,-4,-3,-2,-2,3.5
701,-1,5,-3,-3,4,0,-1,-1,3.505
702,-3,-13,5,13,0,0,-1,-1,3.5100000000000002
703,2,10,-1,-18,-8,-4,-1,-2,3.515
704,3,21,-4,-19,2,0,1,1,3.52
705,-2,-11,4,15,1,0,2,1,3.525
706,0,-4,-7,-6,2,0,-4,0,3.5300000000000002
707,-3,-8,-2,7,-1,0,-2,-1,3.535
708,9,33,7,2,-1,-2,1,3,3.54
709,-5,-61,-23,-14,-12,-6,-4,-4,3.545
710,0,-11,1,-3,1,0,1,0,3.5500000000000003
711,0,7,-1,9,-1,0,-1,0,3.555
712,4,19,0,0,1,0,0,-1,3.56
713,0,5,-1,-1,-2,-1,-1,0,3.565
714,3,-5,8,1,-2,-1,1,-1,3.5700000000000003
715,-6,-22,-18,-8,3,0,0,-2,3.575
716,0,-13,-2,0,3,0,-2,-1,3.58
717,2,16,14,-1,-4,-2,-1,0,3.585
718,-3,6,-9,3,4,1,1,-1,3.59
719,-3,-3,24,8,-2,-2,-1,0,3.595
720,-7,0,-17,-6,-3,0,-1,-2,3.6
721,5,8,-1,5,-5,-3,-1,0,3.605
722,-3,1,-1,-5,-3,-2,-1,-2,3.61
723,2,2,-4,3,7,1,1,1,3.615
724,3,-1,2,0,-1,-1,-1,0,3.62
725,2,4,-3,-10,-1,2,-1,-1,3.625
726,-6,-8,-7,-6,-5,-2,-3,-2,3.63
727,1,4,1,8,-1,0,0,-1,3.6350000000000002
728,-3,-7,4,10,-1,-1,1,-1,3.64
729,2,-2,-4,-3,0,-2,-1,0,3.645
730,-5,-7,-3,-12,-1,1,1,-1,3.65
731,-3,-7,2,1,1,0,-1,-2,3.6550000000000002
732,2,3,4,0,1,-1,-1,-1,3.66
733,-4,3,-7,1,-6,-3,-1,-1,3.665
734,0,6,2,2,-6,-3,-2,0,3.67
735,2,-6,-3,-8,13,4,1,2,3.6750000000000003
736,5,8,1,7,0,2,1,1,3.68
737,-6,-18,-3,11,1,0,0,-3,3.685
738,-1,-3,-3,-17,-9,-4,-2,-3,3.69
739,0,15,2,6,-3,-2,-1,-1,3.6950000000000003
740,8,-11,-3,-6,0,1,0,0,3.7
741,-3,13,3,-9,-4,1,-1,-1,3.705
742,-3,-17,-8,10,-1,-3,-1,0,3.71
743,-2,-8,-3,-6,-4,-1,-2,-2,3.715
744,-3,5,1,-1,-1,-2,-1,-2,3.72
745,-7,5,4,3,-1,1,-1,-2,3.725
746,0,8,4,3,0,0,0,-1,3.73
747,-1,-9,-11,-12,-2,-2,-2,0,3.735
748,-3,-4,0,1,1,-3,-2,-1,3.74
749,0,3,4,-3,-1,-2,-1,1,3.745
750,1,1,0,2,-2,0,1,1,3.75
751,-1,-2,0,4,2,-1,1,-1,3.755
752,-3,14,-4,2,-1,1,0,-1,3.7600000000000002
753,-4,-19,-6,-7,0,-2,-1,-1,3.765
754,1,2,3,-4,3,-1,-2,-1,3.77
755,2,-1,-3,-7,-7,-1,-1,-1,3.775
756,-4,-11,4,9,-1,-2,-1,-1,3.7800000000000002
757,-4,8,-4,-4,-4,0,0,-2,3.785
758,-1,0,2,6,2,-1,0,-1,3.79
759,-3,-17,0,-8,-1,1,-1,-1,3.795
760,-1,5,-2,0,0,-1,-3,-3,3.8000000000000003
761,1,1,2,1,5,1,0,2,3.805
762,-1,1,-1,0,1,1,-1,-1,3.81
763,-1,5,2,3,-4,-2,-1,-1,3.815
764,-2,-3,-5,-7,-2,-1,-1,-1,3.8200000000000003
765,2,0,0,9,0,-1,-1,1,3.825
766,0,4,-2,-7,-2,-1,-1,-3,3.83
767,-2,1,2,8,-7,-2,-1,0,3.835
768,-3,-6,-3,-10,2,1,-1,1,3.84
769,2,-3,-6,0,0,1,-1,-1,3.845
770,-2,-12,-8,2,0,-1,-1,1,3.85
771,1,-1,6,3,-2,-2,-2,-1,3.855
772,1,12,9,-6,-8,1,-1,0,3.86
773,-3,0,0,15,1,-2,0,-1,3.865
774,1,-3,-8,-23,3,4,0,0,3.87
775,-5,-8,-2,0,-1,-2,-2,-3,3.875
776,0,4,0,0,-6,-3,-1,-1,3.88
777,0,-4,-2,-3,-4,-3,-2,-1,3.8850000000000002
778,2,2,3,13,12,1,-2,-1,3.89
779,-5,7,-11,-9,1,0,0,0,3.895
780,-2,0,-1,-1,-3,-1,-2,-2,3.9
781,2,1,-2,-2,-3,0,0,0,3.9050000000000002
782,0,-1,5,0,-9,-3,-1,-2,3.91
783,1,0,0,-2,3,1,0,0,3.915
784,-4,0,-1,3,0,0,0,0,3.92
785,1,0,1,-2,-1,-1,-1,0,3.9250000000000003
786,0,1,-3,1,-5,-3,-1,0,3.93
787,0,3,2,8,5,1,-2,1,3.935
788,-4,-6,-5,-9,5,1,0,-1,3.94
789,1,0,0,-4,0,0,-1,-1,3.9450000000000003
790,-1,-3,-3,0,2,0,-1,0,3.95
791,1,-4,-2,-1,-5,-3,-3,-1,3.955
792,0,2,1,16,1,-1,-3,-2,3.96
793,-3,-2,-1,-21,3,1,2,-1,3.9650000000000003
794,-1,2,2,0,-3,-1,0,-1,3.97
795,0,-6,-7,-8,-7,-3,0,-1,3.975
796,0,-4,1,2,-1,-1,1,0,3.98
797,2,6,0,1,0,-1,0,-1,3.985
798,-1,7,2,21,-4,-3,0,0,3.99
799,1,-5,-4,-13,11,6,0,0,3.995
800,1,1,-3,-16,-7,-3,1,1,4.0
801,-3,-6,-3,-4,-2,-3,-2,-2,4.005
802,-2,4,1,-3,-3,-2,-2,0,4.01
803,-1,4,0,7,-5,-2,-1,-1,4.015
804,-2,-10,5,5,6,1,-2,-2,4.0200000000000005
805,1,-5,-4,-4,-1,0,0,1,4.025
806,-16,-1,8,10,4,1,1,-4,4.03
807,0,5,-1,-4,-5,-3,-3,-2,4.035
808,5,2,-3,-7,3,0,0,2,4.04
809,-5,7,0,0,0,0,1,0,4.045
810,0,-11,-2,-5,-2,0,-1,-1,4.05
811,1,-3,-2,3,-2,0,0,-1,4.055
812,-2,-3,-2,-1,-6,-1,-1,0,4.0600000000000005
813,3,4,1,4,-1,0,-2,0,4.065
814,4,4,0,-4,-2,1,0,0,4.07
815,-2,-10,-3,-1,-2,-1,1,-2,4.075
816,2,-5,-1,3,-1,-2,0,-1,4.08
817,-2,3,1,2,-3,-3,-1,0,4.085
818,-3,-5,-7,-17,4,3,0,-1,4.09
819,-4,-9,-3,-1,1,-1,-2,-2,4.095
820,-2,-7,-4,3,1,-1,-2,0,4.1
821,3,2,2,2,0,0,-1,0,4.105
822,-2,1,-3,-4,-6,-2,-1,-1,4.11
823,1,13,4,0,-2,-3,0,-1,4.115
824,3,-10,-6,1,-1,-3,-2,0,4.12
825,-3,-11,-5,-8,0,0,-2,-1,4.125
826,4,16,7,4,1,1,0,0,4.13
827,-1,-4,-1,0,5,1,0,-1,4.135
828,-2,3,1,-1,1,3,0,-1,4.14
829,1,10,2,8,1,-1,-2,0,4.1450000000000005
830,3,-12,-9,-13,-7,-2,-1,1,4.15
831,-2,8,2,8,5,0,1,0,4.155
832,-3,0,-3,-5,5,3,1,-3,4.16
833,1,-2,3,8,0,-2,-2,0,4.165
834,-3,-1,-5,-6,2,-2,-1,-1,4.17
835,0,-4,1,-1,-3,-1,1,0,4.175
836,-2,2,-2,-2,-2,-2,-1,-1,4.18
837,-2,0,-4,-9,-5,-1,-1,-3,4.1850000000000005
838,4,-2,2,18,-2,-4,-2,0,4.19
839,-2,-3,-7,-15,3,0,-2,-3,4.195
840,-3,-4,-3,2,3,2,1,-1,4.2
841,1,1,2,0,1,0,0,0,4.205
842,3,-5,1,-6,-2,-1,0,0,4.21
843,-4,0,3,11,-4,-2,-2,-3,4.215
844,0,4,0,-7,-6,-3,-2,0,4.22
845,0,-6,-1,0,-6,-2,-1,0,4.225
846,-1,2,0,6,10,3,1,0,4.23
847,-2,-3,-6,5,1,0,-1,1,4.235
848,0,1,-1,-11,-4,0,1,-1,4.24
849,-2,-1,1,1,0,-2,1,-1,4.245
850,0,3,4,1,-3,-1,0,-2,4.25
851,-1,2,3,-5,-6,-3,-2,-2,4.255
852,-2,1,1,6,0,-1,-1,-1,4.26
853,-3,-4,-1,1,2,1,1,1,4.265
854,-1,-2,-6,-9,-4,-1,-1,-1,4.2700000000000005
855,0,-1,0,-1,-2,0,0,-1,4.275
856,-1,-3,-2,8,-2,-3,-2,-1,4.28
857,-3,0,0,-7,-2,1,0,-3,4.285
858,-2,-3,-2,1,-1,-1,1,0,4.29
859,0,-2,-5,-4,-6,-2,-1,-1,4.295
860,4,0,0,4,-1,-3,-1,0,4.3
861,0,0,-1,-3,0,-1,-1,-1,4.305
862,-2,-3,-2,-2,-1,-3,-2,-2,4.3100000000000005
863,0,-1,2,-6,9,3,1,2,4.315
864,-3,-1,-4,11,6,1,0,0,4.32
865,0,-5,-6,2,-9,-4,-2,-2,4.325
866,0,1,1,-12,-4,1,1,0,4.33
867,1,1,-4,-6,4,1,0,0,4.335
868,-5,-12,-1,-4,-2,0,-1,-1,4.34
869,-1,-4,2,8,1,-2,-1,0,4.345
870,-1,0,3,0,-13,-4,-1,-1,4.3500000000000005
871,-2,1,-7,13,11,3,0,0,4.355
872,0,3,-2,-30,5,2,0,0,4.36
873,1,1,-3,7,9,4,0,1,4.365
874,-4,-20,-5,4,-4,-2,-3,-2,4.37
875,1,2,6,-2,-12,-5,-2,0,4.375
876,-2,4,2,8,-5,-4,-3,-2,4.38
877,0,-3,0,1,4,-1,1,-1,4.385
878,-1,4,-2,-2,5,1,-2,-1,4.39
879,-1,-3,0,0,-7,0,-1,0,4.3950000000000005
880,0,0,0,0,-3,1,0,-1,4.4
881,-1,6,2,2,-3,-3,-1,-2,4.405
882,-1,-2,-3,-3,-1,-1,-1,0,4.41
883,-5,-2,2,6,1,-3,-1,-3,4.415
884,-1,2,1,-4,3,2,1,2,4.42
885,-2,-2,-5,-4,3,1,-1,-1,4.425
886,-2,2,-1,-5,4,0,0,0,4.43
887,2,1,2,13,-5,-3,0,-1,4.4350000000000005
888,-1,-1,-3,-12,-5,-1,0,-1,4.44
889,-3,-2,-2,-5,0,1,-2,-1,4.445
890,0,1,0,-2,-3,0,0,-1,4.45
891,0,0,1,-2,-4,-3,-1,-1,4.455
892,-1,8,2,8,-2,-2,-1,0,4.46
893,-2,-12,-5,-3,-1,-2,-1,-1,4.465
894,2,-2,1,6,2,-2,-1,0,4.47
895,1,3,-1,-2,-2,-1,-1,-1,4.4750000000000005
896,-7,-11,-1,-5,-7,0,-1,-3,4.48
897,0,11,0,0,4,3,-1,1,4.485
898,-2,-8,-4,2,4,1,1,0,4.49
899,-2,0,1,9,-8,-4,-3,-2,4.495
900,1,4,0,-11,5,1,-1,-1,4.5
901,-2,-1,-1,-4,-1,-1,0,-1,4.505
902,0,3,0,6,0,-2,-1,-1,4.51
903,1,-2,-3,-3,-3,-1,0,1,4.515
904,0,4,4,-5,-6,-1,-2,-1,4.5200000000000005
905,-3,-3,-2,-8,-3,1,-1,-2,4.525
906,1,2,-2,3,5,1,1,-1,4.53
907,-2,-1,0,-4,-2,-1,-1,1,4.535
908,0,3,3,11,0,-1,0,-1,4.54
909,1,-5,-2,3,0,-2,-1,0,4.545
910,-3,-13,-2,-5,-5,-3,-1,-2,4.55
911,3,-1,-1,6,1,0,-2,-1,4.555
912,-4,-8,-3,-10,-2,-3,-1,-1,4.5600000000000005
913,0,2,0,3,0,2,0,0,4.565
914,0,3,-1,1,-1,-1,-1,1,4.57
915,4,-9,-4,-8,-2,-1,-2,2,4.575
916,-8,11,7,2,-4,-2,-2,0,4.58
917,1,1,2,3,5,0,-1,-1,4.585
918,-2,3,2,-1,-1,0,0,-1,4.59
919,-2,-17,-10,-23,-3,0,0,-2,4.595
920,6,1,-2,6,-1,0,0,1,4.6000000000000005
921,-1,3,3,9,-7,-3,-2,0,4.605
922,-2,3,-1,-12,-1,1,-1,0,4.61
923,-2,-1,-1,-8,-2,1,0,1,4.615
924,1,-6,-1,5,-1,-1,0,0,4.62
925,-1,1,-2,-11,-4,-2,0,0,4.625
926,2,7,0,7,1,0,-1,0,4.63
927,-3,2,2,-2,-3,-1,-2,-1,4.635
928,1,-6,-5,1,1,1,-1,-1,4.64
929,-2,1,0,3,-1,0,-1,-1,4.6450000000000005
930,2,12,1,0,1,1,1,0,4.65
931,-7,-35,-8,-7,-1,-2,-2,-3,4.655
932,-2,-3,2,8,1,0,-1,0,4.66
933,-2,-6,0,0,-9,-5,-1,-2,4.665
934,3,5,-1,4,3,-1,-1,0,4.67
935,-3,12,2,-6,4,3,0,0,4.675
936,0,-4,-1,2,-3,-4,-1,0,4.68
937,1,-2,-5,-10,4,3,0,0,4.6850000000000005
938,-8,0,3,10,-3,-1,0,-2,4.69
939,2,8,0,-8,1,0,-1,-1,4.695
940,3,-4,-4,11,-5,-3,-2,-1,4.7
941,1,3,-1,-21,-8,-2,-2,0,4.705
942,0,-4,-2,1,3,2,-1,-1,4.71
943,1,2,3,10,3,0,0,-1,4.715
944,1,3,-5,-1,-1,-1,0,-1,4.72
945,0,-2,-1,3,-1,-2,1,0,4.7250000000000005
946,1,-5,-3,-1,-2,-3,-1,-1,4.73
947,-6,5,1,-2,-2,0,1,-2,4.735
948,2,6,1,7,4,0,-1,1,4.74
949,-3,-5,-4,1,-1,-1,-1,-3,4.745
950,-4,-2,0,-17,-4,-2,0,-2,4.75
951,0,5,2,22,3,-2,-2,-2,4.755
952,-1,-1,-5,-21,-6,1,1,-1,4.76
953,-3,-2,3,11,10,2,0,-1,4.765
954,1,-1,-3,-7,-3,1,0,0,4.7700000000000005
955,0,1,-1,0,-5,-1,0,0,4.775
956,-1,-4,-4,-2,1,-1,0,-1,4.78
957,0,-1,0,2,-7,-3,-1,-1,4.785
958,1,9,-4,-10,-3,-1,-1,-1,4.79
959,4,-3,-2,-1,7,1,0,1,4.795
960,-11,-13,-1,-11,-5,1,-2,-2,4.8
961,0,-1,1,-1,-1,-1,-3,-1,4.805
962,-1,-3,2,14,-1,-3,-2,-1,4.8100000000000005
963,3,8,-3,-10,-7,-1,0,1,4.815
964,1,2,-2,0,3,-2,-1,-1,4.82
965,2,-4,-2,3,-1,0,0,1,4.825
966,-8,-6,1,1,-3,1,-1,-2,4.83
967,-4,2,0,-4,-5,-2,-3,-2,4.835
968,1,1,-1,6,4,2,1,0,4.84
969,-1,-4,-4,-8,-5,-1,-1,1,4.845
970,3,0,-2,3,2,2,-1,-1,4.8500000000000005
971,0,0,-1,-2,-1,-3,-1,1,4.855
972,1,4,4,3,-7,-3,0,0,4.86
973,-2,0,0,1,4,-1,0,-2,4.865
974,1,-6,-3,1,2,-1,0,0,4.87
975,-2,0,-3,-11,-2,-4,-2,-2,4.875
976,1,3,1,1,-1,-1,-2,0,4.88
977,-1,0,1,-7,-3,-2,0,-1,4.885
978,2,-5,-1,-1,-6,-4,0,0,4.89
979,-2,1,4,11,-1,-1,-2,0,4.8950000000000005
980,2,-3,-7,-14,1,2,0,-1,4.9
981,-1,-1,-4,-1,0,2,-1,0,4.905
982,-5,-2,1,0,0,0,0,-2,4.91
983,7,-1,-1,10,-2,-3,-1,1,4.915
984,-1,1,-1,-11,-1,-2,0,-1,4.92
985,-1,-1,1,3,-2,-2,-2,-2,4.925
986,1,-1,-4,-8,-2,-1,-3,-1,4.93
987,1,-3,-4,3,1,2,-1,-1,4.9350000000000005
988,-1,0,2,4,1,1,-1,1,4.94
989,0,-9,-4,-3,1,0,0,0,4.945
990,1,3,-2,-1,-2,-2,0,1,4.95
991,-2,1,1,0,-2,-3,1,-3,4.955
992,-1,-3,-1,5,-1,-1,-2,-1,4.96
993,0,1,1,1,-7,-1,0,0,4.965
994,0,-3,-2,-16,3,-1,0,1,4.97
995,-4,-1,0,1,3,0,0,0,4.9750000000000005
996,-2,3,2,3,0,-1,-1,-2,4.98
997,1,2,1,4,0,-3,-2,-3,4.985
998,-5,-5,1,2,-4,0,0,-2,4.99
999,-5,0,-6,-15,-2,0,0,-1,4.995
1000,1,-1,1,-2,4,-2,1,1,5.0
1001,-1,1,-1,-8,-5,-2,-1,0,5.005
1002,-1,-2,0,12,2,-1,-2,-1,5.01
1003,-3,-1,1,0,0,0,-2,-1,5.015
1004,0,-1,-1,4,-5,-1,-1,-1,5.0200000000000005
1005,-4,0,1,4,-1,-2,-2,-2,5.025
1006,-4,1,-2,-7,4,-1,0,-1,5.03
1007,0,-7,-2,1,1,1,0,-1,5.035
1008,1,-2,-2,2,5,4,0,0,5.04
1009,-2,0,-3,0,4,1,0,-2,5.045
1010,2,0,0,4,-12,-3,-1,0,5.05
1011,1,2,2,-6,-5,-5,-2,-1,5.055
1012,-2,-3,-4,2,7,0,-1,-1,5.0600000000000005
1013,0,1,1,-5,-4,-2,-1,-1,5.065
1014,0,1,0,5,-2,-2,0,1,5.07
1015,-2,-3,0,-8,0,0,0,0,5.075
1016,0,-2,-2,-3,-7,-3,-1,-1,5.08
1017,1,2,2,7,1,0,-1,-1,5.085
1018,-6,0,-2,-14,-1,1,1,-2,5.09
1019,1,2,1,3,-1,-2,-2,0,5.095
1020,-1,-2,-3,-1,-4,-2,-2,-1,5.1000000000000005
1021,-1,4,3,11,4,0,2,0,5.105
1022,1,-14,-4,-13,-3,-1,-2,-2,5.11
1023,-1,0,1,3,-1,1,-1,0,5.115
1024,6,0,-3,-3,3,0,0,2,5.12
1025,-3,-6,-3,-11,-11,-3,-2,0,5.125
1026,2,4,1,6,13,2,0,-1,5.13
1027,-2,1,-3,1,-3,-1,-1,0,5.135
1028,1,-2,0,0,-6,-2,-3,-2,5.14
1029,0,-1,0,1,0,0,-1,-1,5.1450000000000005
1030,0,1,-2,-6,-7,-3,-1,0,5.15
1031,1,-1,-1,4,-3,-1,0,-1,5.155
1032,-5,-3,-5,-9,0,-1,0,-2,5.16
1033,-2,-3,-1,-8,2,1,0,-1,5.165
1034,0,1,0,3,1,-1,0,-2,5.17
1035,0,2,3,17,2,-2,-2,-1,5.175
1036,-3,-2,3,-2,0,1,0,-1,5.18
1037,2,1,-6,-18,-4,-2,0,1,5.1850000000000005
1038,1,0,-2,4,2,-1,-1,-1,5.19
1039,-4,-13,-3,0,1,-2,0,-2,5.195
1040,0,2,3,1,-6,-1,1,-1,5.2
1041,0,1,0,7,8,2,-1,1,5.205
1042,1,3,0,1,-7,-1,-2,-2,5.21
1043,-1,2,-2,-1,-11,-1,-1,-2,5.215
1044,4,-1,-3,-8,4,-2,-2,1,5.22
1045,-2,1,0,4,1,-1,-1,0,5.2250000000000005
1046,0,0,-1,-3,-3,-1,-1,2,5.23
1047,-1,-1,-4,-3,4,1,2,-1,5.235
1048,-1,0,0,6,-4,-3,-1,-1,5.24
1049,0,-4,0,6,-1,-1,-1,-2,5.245
1050,7,-7,-4,-9,-4,-3,-2,-1,5.25
1051,-5,6,3,-8,-1,1,-1,-1,5.255
1052,-5,2,-1,11,-7,-2,0,0,5.26
1053,-1,-1,-2,-10,4,1,0,-1,5.265
1054,-2,-2,-1,3,0,-1,0,0,5.2700000000000005
1055,2,7,2,0,2,-1,0,0,5.275
1056,-2,-1,-1,-2,1,0,-3,-1,5.28
1057,-6,-3,1,11,-7,-3,-2,-2,5.285
1058,0,1,-2,-2,10,2,2,0,5.29
1059,1,-3,-2,-4,4,1,0,0,5.295
1060,-3,1,0,4,-1,1,0,-1,5.3
1061,2,-1,-1,-5,-6,-1,-1,0,5.305
1062,-4,1,2,8,-3,-2,-1,-1,5.3100000000000005
1063,1,-1,-5,-14,-6,-2,-2,-1,5.315
1064,-2,-4,-3,7,9,1,-1,1,5.32
1065,-2,0,2,4,0,0,-2,0,5.325
1066,-1,-3,-2,-5,-7,0,-1,0,5.33
1067,-2,1,3,4,0,0,0,-2,5.335
1068,-2,-1,2,-4,-6,-4,0,-4,5.34
1069,0,0,-3,-5,0,-2,-1,-2,5.345
1070,-1,4,1,4,0,0,-2,0,5.3500000000000005
1071,-1,-10,-4,-2,-3,0,-2,-1,5.355
1072,1,-1,2,1,2,2,-1,-1,5.36
1073,0,-1,-4,-5,-2,1,-1,2,5.365
1074,-1,3,1,2,-1,-2,-3,-1,5.37
1075,-2,0,4,13,6,0,1,0,5.375
1076,-3,-3,-4,-13,-7,-3,-2,-1,5.38
1077,-2,-3,-5,-3,7,1,0,-2,5.385
1078,0,-2,-1,8,-3,-2,-1,0,5.39
1079,1,-3,-3,-10,5,1,-2,-1,5.3950000000000005
1080,-7,4,5,7,-5,-3,0,-2,5.4
1081,2,-1,1,0,-2,1,1,0,5.405
1082,-3,0,-3,-9,-3,1,0,-3,5.41
1083,2,-1,-1,5,-1,-3,-2,1,5.415
1084,1,-1,-1,0,0,-2,-1,0,5.42
1085,0,1,-2,-1,3,0,0,-1,5.425
1086,-1,-1,0,8,3,-1,0,0,5.43
1087,2,2,-1,-3,-3,-1,0,0,5.4350000000000005
1088,1,-3,-2,-7,-5,-1,-3,0,5.44
1089,-2,3,5,10,-8,-2,-2,-2,5.445
1090,-2,-9,-5,-13,6,1,0,-2,5.45
1091,2,0,-3,-3,-5,0,2,0,5.455
1092,0,-1,-3,1,5,3,1,1,5.46
1093,0,3,2,5,-3,-2,-3,-1,5.465
1094,-1,8,1,-6,-5,-1,0,0,5.47
1095,-9,-9,0,1,2,1,1,-2,5.4750000000000005
1096,-1,-2,-5,-15,5,1,0,-1,5.48
1097,-1,-5,-3,-4,-2,-1,1,-1,5.485
1098,1,1,2,4,-5,-2,-1,-2,5.49
1099,0,3,-1,-7,-5,-1,-2,0,5.495
1100,1,-2,1,11,-1,0,-1,-1,5.5
1101,1,-5,-4,5,7,2,-1,1,5.505
1102,1,0,0,-1,-3,-2,0,-1,5.51
1103,-2,2,0,3,2,0,0,-1,5.515
1104,0,-2,0,-3,-1,0,-2,0,5.5200000000000005
1105,0,1,-1,-8,-1,-2,-3,-1,5.525
1106,-2,-1,0,7,-2,0,-1,0,5.53
1107,4,-5,-2,-9,-3,-2,-3,-1,5.535
1108,0,2,1,4,-2,1,-1,-1,5.54
1109,-11,2,6,18,2,-1,1,-1,5.545
1110,-2,-3,-3,-22,-1,1,0,0,5.55
1111,0,1,-2,-3,-2,-1,-3,1,5.555
1112,1,1,-2,1,-2,-1,0,-1,5.5600000000000005
1113,3,0,-1,-2,-6,-5,-3,0,5.565
1114,0,-4,-1,9,5,0,-2,-2,5.57
1115,-2,-1,1,-14,-2,1,-2,-2,5.575
1116,-3,0,-1,-3,2,1,0,0,5.58
1117,-1,-2,1,1,2,-2,-1,-2,5.585
1118,-2,-2,2,14,2,-2,-1,-1,5.59
1119,-3,1,-4,-6,-1,-1,1,0,5.595
1120,-1,0,1,-6,-7,-1,-2,1,5.6000000000000005
1121,3,-7,-5,-4,4,1,0,0,5.605
1122,-1,-1,-5,-2,3,0,-2,0,5.61
1123,-3,2,3,9,0,-1,-2,0,5.615
1124,0,0,-1,2,-2,-3,0,0,5.62
1125,-1,-3,-2,-9,-3,0,1,-1,5.625
1126,2,-1,-2,-4,-2,-1,-2,0,5.63
1127,0,1,-1,2,-1,-3,0,0,5.635
1128,0,1,2,1,-1,-1,-2,0,5.64
1129,0,2,0,10,4,2,-1,-1,5.6450000000000005
1130,-5,-4,-5,-21,-1,-1,1,0,5.65
1131,-1,0,-3,3,-2,-1,-4,0,5.655
1132,-1,-2,-2,0,-4,-2,-1,-1,5.66
1133,0,0,-1,-4,-4,-2,-1,-1,5.665
1134,0,1,2,5,-3,-1,-2,0,5.67
1135,-1,0,1,7,-4,-5,-1,-2,5.675
1136,1,-3,-4,-4,8,2,0,-1,5.68
1137,-3,0,-2,-1,2,1,-1,-1,5.6850000000000005
1138,-1,-2,-1,0,-3,-2,-2,-1,5.69
1139,0,-4,-2,0,3,1,0,-1,5.695
1140,-2,-1,0,5,0,-1,-1,1,5.7
1141,1,-2,-2,-9,-4,0,0,-1,5.705
1142,0,1,1,-1,-8,-2,0,0,5.71
1143,0,-1,2,0,0,0,-1,-1,5.715
1144,-4,-12,-5,1,5,0,0,-2,5.72
1145,-1,-3,-1,-8,1,0,0,1,5.7250000000000005
1146,1,0,0,3,0,0,-2,0,5.73
1147,-1,-1,0,0,-7,-2,-1,-2,5.735
1148,3,1,0,-2,-5,-1,0,-1,5.74
1149,-3,1,-2,-4,-5,-3,-2,-2,5.745
1150,1,-3,1,2,-2,-2,-1,-2,5.75
1151,1,2,2,5,-4,-2,0,-2,5.755
1152,-1,-3,-4,4,8,2,-1,-1,5.76
1153,-3,1,-3,-11,-5,-1,-1,0,5.765
1154,-1,-2,-5,-10,8,0,-2,-2,5.7700000000000005
1155,-1,-1,0,2,0,0,-1,-1,5.775
1156,-3,1,2,-2,-3,-3,-2,-1,5.78
1157,2,-2,0,5,-2,-2,-1,0,5.785
1158,-1,-1,0,0,-3,-1,1,1,5.79
1159,0,-1,-1,1,1,0,0,-1,5.795
1160,-3,2,0,-7,-8,-3,-1,-1,5.8
1161,1,5,2,14,7,3,1,1,5.805
1162,-2,-11,0,4,8,2,0,-2,5.8100000000000005
1163,-1,-2,-3,0,4,0,0,-1,5.815
1164,0,1,2,-2,-4,-2,0,-1,5.82
1165,0,0,-2,-13,-12,-4,-1,-2,5.825
1166,-3,2,1,1,-5,0,-1,0,5.83
1167,0,-1,-1,0,2,0,-2,0,5.835
1168,-1,-1,0,-3,1,0,-2,0,5.84
1169,-1,-1,0,-2,-1,0,-1,-2,5.845
1170,5,-2,-2,4,-1,-2,0,1,5.8500000000000005
1171,-1,0,1,-2,-4,-2,-2,-1,5.855
1172,0,1,-1,16,12,1,-1,0,5.86
1173,4,-7,-5,-10,3,0,-1,0,5.865
1174,-4,1,-3,-15,-1,-1,-1,0,5.87
1175,-1,-2,-2,-5,-5,-2,0,1,5.875
1176,-2,0,3,5,-5,-3,-3,0,5.88
1177,1,-2,-2,-3,-6,-4,-1,-1,5.885
1178,0,-1,-2,3,2,0,-2,-1,5.89
1179,4,-3,-2,5,0,-1,-1,1,5.8950000000000005
1180,-5,-3,0,-8,-6,-2,1,-1,5.9
1181,-3,0,1,5,2,0,0,0,5.905
1182,0,2,1,-5,-9,-1,-1,-3,5.91
1183,-1,-2,0,0,4,1,0,-2,5.915
1184,1,-1,-3,-2,-1,-1,-1,-1,5.92
1185,-3,0,-3,-9,-5,-1,-1,-1,5.925
1186,-1,-1,0,0,-7,-3,-1,0,5.93
1187,-3,-2,-2,10,8,1,0,0,5.9350000000000005
1188,1,-1,-1,-9,-1,0,-2,-1,5.94
1189,-2,1,1,6,8,1,-1,-1,5.945
1190,-1,-1,-3,-1,0,0,1,-1,5.95
1191,-1,0,-1,-6,-3,-3,-1,-1,5.955
1192,-1,0,-3,-6,-5,-4,-2,-1,5.96
1193,-2,0,4,14,1,0,0,0,5.965
1194,-4,2,0,-9,-1,1,-1,-1,5.97
1195,-4,1,-2,-8,-4,-1,0,-1,5.9750000000000005
1196,0,1,1,0,0,0,2,-2,5.98
1197,0,1,-4,-1,-2,0,-1,-1,5.985
1198,-4,-9,-1,13,-3,-2,0,-3,5.99
1199,0,-1,-2,-1,0,0,-1,0,5.995
1200,3,-1,-1,-4,4,0,0,0,6.0
1201,2,-1,1,-1,-1,-3,-2,-1,6.005
1202,0,2,0,-1,-5,-3,-2,-1,6.01
1203,-5,0,1,0,3,-1,-1,-2,6.015000000000001
1204,-1,-3,-1,4,-2,3,0,-1,6.0200000000000005
1205,2,-2,-2,-7,-2,0,-2,0,6.025
1206,-2,2,-1,1,0,0,1,-1,6.03
1207,-1,-2,0,-4,-2,-1,0,0,6.035
1208,-2,3,2,2,-2,-2,-1,-1,6.04
1209,-2,-6,-4,-9,-4,-1,-3,-2,6.045
1210,2,-1,-1,2,4,2,0,-2,6.05
1211,0,-3,-1,-1,1,-1,-1,0,6.055
1212,2,-1,-4,3,3,-1,0,1,6.0600000000000005
1213,-14,5,6,10,-5,-4,1,-3,6.065
1214,0,-6,-5,-8,2,-2,-4,-1,6.07
1215,-1,0,-2,3,1,0,-1,-2,6.075
1216,-2,0,0,-7,-3,0,-1,-2,6.08
1217,0,-7,-3,-3,-3,0,0,1,6.085
1218,0,2,3,7,4,-2,1,0,6.09
1219,-2,1,0,-4,-2,-1,0,-2,6.095
1220,2,-5,-3,1,-1,0,-1,0,6.1000000000000005
1221,0,3,-2,-3,-5,-2,-2,-1,6.105
1222,0,1,-1,0,10,2,1,2,6.11
1223,3,0,-2,-2,-5,-2,-3,-2,6.115
1224,1,1,-2,-1,-5,-3,-3,0,6.12
1225,-1,-1,-1,3,9,2,1,-1,6.125
1226,-3,0,-1,-4,-1,1,0,-2,6.13
1227,-3,-1,1,7,0,-1,0,-1,6.135
1228,-1,0,0,-4,3,0,-1,0,6.140000000000001
1229,-1,1,-2,-7,1,0,-1,-1,6.1450000000000005
1230,-2,-1,-3,-2,-4,0,-2,0,6.15
1231,-2,-1,0,-5,-2,1,0,-1,6.155
1232,0,1,1,2,-7,-3,0,-3,6.16
1233,2,-1,-1,6,1,0,-2,0,6.165
1234,-8,3,1,-8,-1,-2,2,-1,6.17
1235,2,2,1,2,-3,-1,-1,1,6.175
1236,-3,-8,-3,-14,-3,-1,0,0,6.18
1237,0,-1,2,2,2,0,1,0,6.1850000000000005
1238,2,0,0,3,-1,-1,-2,0,6.19
1239,0,-1,-2,-5,-4,-1,-1,0,6.195
1240,-2,0,-1,6,1,0,-2,0,6.2
1241,1,-2,0,-2,-2,0,-1,-2,6.205
1242,-3,0,2,12,-1,-1,-2,0,6.21
1243,0,-1,-2,-2,-3,-2,-1,-1,6.215
1244,-2,2,-2,-19,-3,-1,1,0,6.22
1245,-2,0,-3,2,6,2,-1,-1,6.2250000000000005
1246,1,0,-2,-5,-3,-2,-1,-1,6.23
1247,0,-2,-2,1,1,-1,-1,0,6.235
1248,-4,-1,-1,6,-1,-3,-1,-2,6.24
1249,1,0,-1,-3,-1,-3,1,-2,6.245
1250,-3,0,3,6,0,-2,0,-3,6.25
1251,0,-3,-3,-5,-3,-1,-1,-1,6.255
1252,1,1,0,0,5,1,-1,-1,6.26
1253,-1,-1,-2,-2,1,0,-1,-1,6.265000000000001
1254,2,-5,-2,1,-2,0,0,-1,6.2700000000000005
1255,0,-1,-1,-1,-3,-2,0,-1,6.275
1256,-1,-1,1,4,-1,0,-1,0,6.28
1257,-2,3,-1,-8,-5,-3,-2,-2,6.285
1258,0,1,1,1,3,1,0,0,6.29
1259,0,-1,-4,2,1,1,-1,0,6.295
1260,0,1,-3,0,-1,-2,-2,0,6.3
1261,0,-1,0,-4,-5,0,-1,1,6.305
1262,0,-2,-2,-6,-5,-3,-1,1,6.3100000000000005
1263,4,-5,-2,6,4,0,-1,-1,6.315
1264,-5,1,0,4,2,2,-1,-3,6.32
1265,-1,-3,-2,-2,-1,-1,-2,-2,6.325
1266,0,-2,-4,-9,-2,-2,-2,-1,6.33
1267,0,1,2,10,-4,-2,-2,0,6.335
1268,0,-3,-2,-12,-2,-3,-2,1,6.34
1269,1,-1,1,10,4,-1,1,-2,6.345
1270,-1,2,-2,-8,-5,-1,0,-2,6.3500000000000005
1271,-3,-1,1,-4,3,1,0,0,6.355
1272,-1,-3,-1,1,-5,-1,1,0,6.36
1273,-3,0,1,3,0,-1,0,-2,6.365
1274,2,1,-1,1,0,-1,0,1,6.37
1275,-3,0,-1,-7,-1,-1,-3,-2,6.375
1276,0,2,2,-2,-1,-1,-3,-3,6.38
1277,4,-3,-3,2,3,1,-1,-1,6.385
1278,-1,-1,-1,4,-4,0,-2,1,6.390000000000001
1279,1,-1,1,1,-2,-1,1,-1,6.3950000000000005
1280,-2,-1,-4,-4,4,0,1,-2,6.4
1281,1,-1,-1,-5,-9,-2,-1,1,6.405
1282,0,0,2,3,4,2,-3,-1,6.41
1283,-3,1,-1,-1,-1,0,-1,-1,6.415
1284,2,-3,-2,-9,-6,-2,0,0,6.42
1285,-1,-1,0,-1,4,-2,0,-1,6.425
1286,-4,-2,1,0,-6,-2,-2,-2,6.43
1287,-1,1,-1,-3,0,0,-1,-2,6.4350000000000005
1288,1,2,0,9,3,1,-1,-2,6.44
1289,-1,-2,-3,-6,-3,1,-1,0,6.445
1290,-1,-3,-3,2,0,-3,-3,-2,6.45
1291,-3,0,1,-3,0,-1,-1,0,6.455
1292,-4,0,0,6,3,-1,-1,-1,6.46
1293,-2,-1,-3,-16,-6,0,0,0,6.465
1294,1,-2,-2,-1,8,1,1,-1,6.47
1295,-2,-1,-2,-2,-3,-2,0,-1,6.4750000000000005
1296,2,-2,0,3,-4,-3,-1,0,6.48
1297,-5,4,2,9,-5,-2,-1,0,6.485
1298,-6,1,2,-3,-1,-1,0,-3,6.49
1299,-5,1,0,-3,2,1,0,0,6.495
1300,1,1,-2,6,1,2,1,0,6.5
1301,-3,-3,0,-4,-2,-2,0,0,6.505
1302,2,-2,-3,-5,-5,-3,-1,-1,6.51
1303,0,-1,0,0,-1,-1,-2,-1,6.515000000000001
1304,1,-2,0,0,3,2,0,-3,6.5200000000000005
1305,0,-3,-2,-4,-4,-3,-2,-1,6.525
1306,0,0,1,4,2,0,0,1,6.53
1307,-2,-4,-2,3,3,-3,-2,-1,6.535
1308,-5,0,-2,-1,-6,0,-3,-1,6.54
1309,0,0,1,-1,2,-1,-1,-1,6.545
1310,1,0,1,4,0,-1,-1,-2,6.55
1311,-3,0,1,-5,-5,0,0,0,6.555
1312,-1,-4,-3,-13,-1,-1,0,1,6.5600000000000005
1313,-1,1,2,8,0,-1,0,-1,6.565
1314,0,0,-1,-6,0,-1,-2,-1,6.57
1315,2,-2,-2,0,2,0,2,-1,6.575
1316,1,-1,0,6,-1,-2,-1,-1,6.58
1317,1,-1,1,-1,-4,0,-1,-1,6.585
1318,3,0,1,8,5,0,-1,-1,6.59
1319,-5,3,-3,-17,-8,0,-1,-1,6.595
1320,0,3,2,6,7,1,1,-1,6.6000000000000005
1321,1,-2,-3,1,-1,-2,1,1,6.605
1322,0,0,-1,1,-1,1,-1,-1,6.61
1323,0,-1,1,-2,-1,-1,-1,-1,6.615
1324,-3,-1,-2,-3,-4,-2,0,-1,6.62
1325,-6,-1,1,-2,-2,-2,-2,-3,6.625
1326,-2,0,-2,1,2,0,1,0,6.63
1327,0,-3,-5,-7,1,0,1,0,6.635
1328,-1,-2,0,8,0,-2,-2,1,6.640000000000001
1329,11,-3,-4,0,-1,-1,-3,-2,6.6450000000000005
1330,-2,-2,-1,-6,-7,0,-1,0,6.65
1331,1,1,1,2,0,0,-1,-2,6.655
1332,-2,0,-1,-2,-4,-3,0,-1,6.66
1333,1,-4,-3,-5,1,-1,-2,0,6.665
1334,-1,0,2,-1,-1,-1,2,-2,6.67
1335,-4,2,1,4,1,-2,-7,-4,6.675
1336,2,-2,-1,0,-3,-2,-3,-1,6.68
1337,1,-2,-2,-1,1,1,13,-1,6.6850000000000005
1338,-5,0,-1,-1,-2,0,-1,0,6.69
1339,-1,-1,-2,4,0,-1,2,-1,6.695
1340,1,0,0,-2,-2,0,-5,0,6.7
1341,-4,1,0,-1,0,0,10,-1,6.705
1342,1,-1,-6,-2,-4,-2,-4,0,6.71
1343,2,-1,0,-1,-3,1,8,2,6.715
1344,-1,0,-1,-5,-1,0,-6,-2,6.72
1345,-1,-2,1,13,5,1,-5,0,6.7250000000000005
1346,3,-1,-2,-12,-1,-3,-1,-1,6.73
1347,1,-1,-2,2,-2,-1,-4,-1,6.735
1348,-1,0,2,4,-8,-3,1,-1,6.74
1349,1,-2,-3,-2,2,-2,-4,-1,6.745
1350,-2,1,1,-3,-2,-2,0,0,6.75
1351,1,-2,-1,0,1,0,-7,0,6.755
1352,-3,1,1,-4,-3,0,4,1,6.76
1353,-1,3,1,8,-3,-1,-3,0,6.765000000000001
1354,-2,-9,-2,0,0,0,-1,-1,6.7700000000000005
1355,0,-2,-2,-9,-2,-1,-1,0,6.775
1356,-7,1,0,2,-2,0,-1,-1,6.78
1357,-2,2,-3,-4,-1,-2,-7,0,6.785
1358,0,1,0,3,2,0,2,-1,6.79
1359,-2,-1,1,3,1,-1,-2,0,6.795
1360,0,-2,-1,0,0,-2,3,0,6.8
1361,-1,0,-2,-5,-2,1,-4,-1,6.805
1362,0,1,1,-2,-5,0,3,-1,6.8100000000000005
1363,0,-1,-2,-1,-5,-3,-2,-2,6.815
1364,-1,0,0,14,0,-3,-5,-2,6.82
1365,-7,0,0,-17,4,0,-2,-1,6.825
1366,8,-6,-8,7,10,2,-1,1,6.83
1367,-2,2,2,4,-1,1,0,-1,6.835
1368,0,-2,-4,-7,-4,-3,1,-1,6.84
1369,-1,-2,0,0,-5,-3,-2,-1,6.845
1370,-1,-1,0,2,-5,-1,-2,-2,6.8500000000000005
1371,-1,-1,-2,-6,1,0,2,0,6.855
1372,-2,-1,0,0,0,0,1,-2,6.86
1373,3,1,1,6,-5,-4,-3,0,6.865
1374,-3,2,-2,-9,0,-2,0,0,6.87
1375,-1,-1,-5,0,0,-1,-2,0,6.875
1376,0,0,-3,-4,0,0,-1,0,6.88
1377,0,-2,-1,-4,0,-2,-1,0,6.885
1378,-2,0,3,4,-2,-1,-1,0,6.890000000000001
1379,-1,0,0,0,-3,-2,0,-1,6.8950000000000005
1380,-1,-1,-3,-3,3,0,-2,-1,6.9
1381,-3,2,2,2,0,-1,1,-1,6.905
1382,-5,1,-1,-1,-3,-1,-1,-3,6.91
1383,-2,-4,-1,-2,-1,0,1,-1,6.915
1384,9,-4,-3,-2,-7,-2,-1,0,6.92
1385,0,-3,0,-2,4,0,-1,-3,6.925
1386,1,2,0,7,2,-1,0,2,6.93
1387,1,1,-1,-2,-3,-1,-1,0,6.9350000000000005
1388,-2,-4,-2,4,10,0,2,-2,6.94
1389,-4,2,1,6,-5,-2,0,-1,6.945
1390,-1,-3,0,2,-6,-4,-3,0,6.95
1391,2,-2,-4,-20,-8,-1,0,0,6.955
1392,-2,-3,1,2,-1,-2,-2,-2,6.96
1393,-4,0,1,-7,-1,1,0,-1,6.965
1394,-3,0,1,6,4,0,-3,-1,6.97
1395,-1,0,0,5,1,-1,1,-1,6.9750000000000005
1396,-1,1,-2,-5,0,1,0,1,6.98
1397,1,-4,-3,6,1,-1,0,-1,6.985
1398,-2,-2,-2,-14,-5,-1,-2,-1,6.99
1399,1,0,1,10,2,-1,-2,0,6.995
1400,-1,1,0,-5,1,0,0,-1,7.0
1401,1,-1,-1,-4,0,1,-2,0,7.005
1402,-1,-3,1,-9,-10,-4,0,-2,7.01
1403,-1,1,2,12,10,0,1,0,7.015000000000001
1404,2,-4,-4,-3,3,1,-1,-1,7.0200000000000005
1405,0,0,-3,6,-2,-1,-3,0,7.025
1406,2,0,-2,-5,-3,0,-1,-2,7.03
1407,2,-1,0,-1,-1,-2,-2,0,7.035
1408,1,1,-1,-8,-5,-2,-1,-1,7.04
1409,-8,3,2,7,4,2,2,-2,7.045
1410,-1,0,-1,0,0,-1,-5,-1,7.05
1411,-1,-3,0,1,0,-2,-2,-2,7.055
1412,0,1,2,5,-1,1,0,0,7.0600000000000005
1413,1,-2,-3,-10,-1,1,0,1,7.065
1414,-6,-1,0,-1,1,0,0,-2,7.07
1415,-2,3,2,-1,0,-1,0,-1,7.075
1416,-6,-6,-2,-1,-1,-1,-3,-1,7.08
1417,0,1,2,5,2,0,1,0,7.085
1418,2,-1,-2,-3,0,0,0,0,7.09
1419,-1,-1,-2,6,1,1,-2,-1,7.095
1420,-1,3,-1,-3,-1,-2,0,-2,7.1000000000000005
1421,0,-4,-5,-6,-6,-2,-2,-1,7.105
1422,-1,-1,1,-1,-4,-2,0,0,7.11
1423,-1,0,2,4,2,-2,0,0,7.115
1424,-1,0,-3,0,-2,0,0,-1,7.12
1425,0,0,0,-4,-1,-2,-8,-1,7.125
1426,0,0,-3,-1,0,-2,0,-1,7.13
1427,-2,-1,-4,0,1,0,2,-1,7.135
1428,0,0,2,4,2,0,0,0,7.140000000000001
1429,4,-5,-5,-2,1,0,0,2,7.1450000000000005
1430,4,-3,-2,-2,-2,-2,-3,0,7.15
1431,-10,1,4,9,-3,-1,-2,-1,7.155
1432,-4,0,-2,-12,-3,-1,1,-1,7.16
1433,1,-1,-2,-8,-6,-1,-1,-2,7.165
1434,2,-3,1,8,5,3,0,1,7.17
1435,1,-2,-2,-7,-4,-1,1,-2,7.175
1436,0,-1,-1,5,1,-3,0,1,7.18
1437,2,-2,-1,-1,-5,-1,0,-1,7.1850000000000005
1438,-3,0,-2,-12,4,1,1,-1,7.19
1439,-1,-2,1,8,6,-1,-1,-2,7.195
1440,0,0,-2,-9,1,3,-2,1,7.2
1441,5,-1,0,7,-9,-3,-2,0,7.205
1442,0,1,0,-3,4,2,7,6,7.21
1443,-1,1,-4,-3,-3,0,0,0,7.215
1444,4,-7,2,0,0,-1,-8,-17,7.22
1445,2,-2,-7,5,0,-2,1,-1,7.2250000000000005
1446,-11,2,5,1,2,1,7,4,7.23
1447,7,10,7,6,-14,7,65,66,7.235
1448,27,14,9,5,1,1,-3,12,7.24
1449,-7,-18,-12,-25,3,-8,-87,-100,7.245
1450,-68,-26,-8,-5,-20,-30,-65,-68,7.25
1451,-36,4,-17,-12,30,3,-19,-31,7.255
1452,-13,15,8,24,-5,0,40,40,7.26
1453,18,-15,-4,-7,-1,10,43,55,7.265000000000001
1454,25,15,1,-2,-8,-1,7,8,7.2700000000000005
1455,12,-3,6,-6,-18,-6,-7,-5,7.275
1456,13,14,7,7,-3,3,24,26,7.28
1457,19,53,22,22,-25,1,36,49,7.285
1458,43,-49,-9,-50,17,6,-36,-34,7.29
1459,-35,34,-3,-1,-4,-8,-36,-60,7.295
1460,-32,16,-20,-4,6,2,-15,-19,7.3
1461,12,42,-5,-22,29,4,13,26,7.305
1462,31,39,31,62,-61,-9,38,53,7.3100000000000005
1463,-20,-48,-13,-6,11,6,-10,-2,7.315
1464,-20,33,-41,-110,62,0,-66,-63,7.32
1465,-27,15,-7,62,-25,-16,5,-26,7.325
1466,-79,-42,-1,-71,-8,6,42,42,7.33
1467,55,19,13,83,6,0,-20,-25,7.335
1468,39,20,25,-13,-59,-20,-8,14,7.34
1469,-41,4,5,-25,-17,6,35,44,7.345
1470,-4,-53,-23,-25,72,24,94,57,7.3500000000000005
1471,33,-52,1,-64,-56,-15,-16,11,7.355
1472,-87,28,6,80,64,-10,-102,-106,7.36
1473,12,-53,56,89,-93,-46,-24,-26,7.365
1474,27,60,-49,-46,95,60,54,44,7.37
1475,32,-33,23,73,-43,-3,8,26,7.375
1476,-24,-128,-100,-106,107,14,38,34,7.38
1477,-42,18,-4,104,-14,-11,-49,-54,7.385
1478,26,4,57,54,-65,-13,19,19,7.390000000000001
1479,37,60,40,54,-28,17,53,48,7.3950000000000005
1480,-25,36,-4,-3,39,12,-38,-49,7.4
1481,-56,-49,-23,-28,19,4,30,-19,7.405
1482,31,-98,32,99,-66,-15,1,9,7.41
1483,23,100,-29,-114,81,16,-16,-7,7.415
1484,52,-56,13,70,-62,-28,-56,-5,7.42
1485,8,16,-28,-48,34,-6,-23,16,7.425
1486,33,-17,-20,38,-54,-24,-10,-34,7.43
1487,-105,-59,13,-66,16,-16,16,-4,7.4350000000000005
1488,86,-25,63,92,-57,2,-20,-7,7.44
1489,13,-66,-104,-104,-1,14,0,-10,7.445
1490,68,127,63,37,90,37,37,23,7.45
1491,-74,-97,-101,-19,-27,-14,30,41,7.455
1492,-49,-7,30,-22,-52,-39,-42,-28,7.46
1493,21,53,-2,-40,-17,-5,-32,-22,7.465
1494,9,44,31,-34,-26,-18,-9,8,7.47
1495,4,50,6,-93,-77,-8,14,-3,7.4750000000000005
1496,9,74,17,123,15,22,40,35,7.48
1497,-11,20,29,-51,48,20,30,23,7.485
1498,-55,-6,-42,-59,-65,-12,6,12,7.49
1499,15,6,-33,37,101,19,-63,-54,7.495
1500,34,24,-17,-21,-66,-16,5,16,7.5
1501,0,24,34,81,-66,2,88,70,7.505
1502,63,103,-28,-27,106,47,-2,3,7.51
1503,-14,-91,18,-32,-20,-46,-90,-87,7.515000000000001
1504,-66,-18,-40,5,-54,-23,-18,-9,7.5200000000000005
1505,-22,-18,-9,32,59,16,9,-14,7.525
1506,-9,-61,20,28,-13,-7,-1,4,7.53
1507,98,30,77,123,-99,6,58,38,7.535
1508,-25,-37,-72,-104,114,36,14,-5,7.54
1509,17,-20,60,-38,-38,-15,-14,2,7.545
1510,13,-84,-51,80,-41,-12,-18,-11,7.55
1511,-25,120,50,118,3,7,7,9,7.555
1512,8,73,13,-40,-40,10,31,9,7.5600000000000005
1513,13,-23,-1,34,29,19,21,37,7.565
1514,-37,-31,-4,-50,68,-5,-53,-51,7.57
1515,30,-40,-8,6,0,-18,-20,-14,7.575
1516,79,119,60,-89,-28,16,40,56,7.58
1517,-103,-62,-4,77,-75,-10,39,-2,7.585
1518,65,67,-11,-110,80,34,11,14,7.59
1519,-19,2,-31,-48,23,-27,-79,-71,7.595
1520,-42,-128,-26,59,-41,-33,9,31,7.6000000000000005
1521,77,61,20,-62,-21,-6,7,31,7.605
1522,-26,67,16,117,32,7,10,16,7.61
1523,-18,74,-56,-42,9,15,22,-9,7.615
1524,36,30,42,54,-49,-6,5,-28,7.62
1525,9,71,-2,-109,12,22,58,70,7.625
1526,-44,-120,-75,-37,16,-6,-28,-30,7.63
1527,-24,16,5,89,-1,-11,-74,-46,7.635
1528,-36,-62,-28,-24,27,-1,-7,-9,7.640000000000001
1529,57,22,-79,14,-35,-23,-18,-8,7.6450000000000005
1530,-20,-12,6,-89,-77,-9,-6,-36,7.65
1531,-47,89,-26,-20,61,31,103,74,7.655
1532,87,-23,31,82,3,44,97,101,7.66
1533,-7,30,18,0,-69,-53,-123,-113,7.665
1534,-25,110,34,75,55,-11,-51,-39,7.67
1535,-17,-128,-91,-50,31,-7,-49,-54,7.675
1536,-95,27,27,27,-37,0,58,29,7.68
1537,60,75,33,-14,48,33,56,66,7.6850000000000005
1538,-58,17,27,20,-19,-8,-27,-29,7.69
1539,50,-17,84,-36,-97,-16,33,53,7.695
1540,-3,-31,-43,-30,99,19,7,-2,7.7
1541,-8,-45,-8,-39,91,23,1,4,7.705
1542,7,-7,29,87,-97,-36,-78,-69,7.71
1543,17,-57,25,-59,26,-1,6,29,7.715
1544,70,41,-47,-84,-49,-13,10,21,7.72
1545,15,-23,62,127,27,1,0,-13,7.7250000000000005
1546,-77,86,-21,-78,2,29,30,-2,7.73
1547,68,65,16,15,-7,8,10,32,7.735
1548,-3,-55,23,18,-101,-22,-10,-15,7.74
1549,30,-9,-15,-13,70,26,29,13,7.745
1550,-34,73,-40,-42,-25,-33,-60,-22,7.75
1551,73,68,71,48,-7,-19,-38,5,7.755
1552,-46,-25,-39,-43,-26,-9,-22,-47,7.76
1553,-48,28,17,-38,-18,7,13,16,7.765000000000001
1554,28,-38,73,115,-28,-6,17,15,7.7700000000000005
1555,-11,89,-58,-89,46,27,30,9,7.775
1556,-10,-89,-37,5,54,1,-37,-31,7.78
1557,-5,-54,18,-13,9,-2,-15,-20,7.785
1558,48,49,33,100,-128,-29,64,83,7.79
1559,-59,-128,-77,-80,80,56,15,-17,7.795
1560,29,56,3,-43,21,3,-9,-9,7.8
1561,6,78,-23,62,-2,0,-50,-44,7.805000000000001
1562,19,-81,10,16,-79,-10,16,22,7.8100000000000005
1563,-23,74,-3,38,0,-19,0,8,7.815
1564,-104,-85,6,-84,-43,-5,-13,-54,7.82
1565,44,45,5,57,72,8,14,35,7.825
1566,104,-37,-8,-107,32,33,100,88,7.83
1567,-66,-54,-7,-41,-27,-18,-37,-73,7.835
1568,-38,39,-1,43,52,-37,-101,-100,7.84
1569,20,-21,20,31,-125,-56,-13,24,7.845
1570,0,-72,-45,-56,101,32,38,37,7.8500000000000005
1571,-5,-20,63,53,-56,16,98,83,7.855
1572,-7,102,58,94,59,24,36,27,7.86
1573,-21,-128,-54,-128,-55,-15,-68,-64,7.865
1574,9,75,-20,-50,107,9,-31,-25,7.87
1575,60,25,-17,127,-26,1,28,37,7.875
1576,9,-6,59,81,-112,-23,9,4,7.88
1577,-67,-65,-66,-112,118,39,-13,-18,7.885
1578,-7,-25,20,73,-49,-10,-29,-23,7.890000000000001
1579,24,0,-9,-107,-8,11,43,36,7.8950000000000005
1580,31,-8,-3,3,-38,-6,29,36,7.9
1581,-4,53,33,76,-1,6,-4,-19,7.905
1582,-18,-24,-10,-48,-50,-33,-80,-88,7.91
1583,-28,-2,6,42,28,-2,-21,6,7.915
1584,-4,-31,-20,-19,-12,-13,-30,-38,7.92
1585,43,-1,4,-17,8,18,87,91,7.925
1586,49,0,29,105,-52,-12,20,17,7.930000000000001
1587,-42,64,11,-9,-19,-6,-10,-22,7.9350000000000005
1588,-8,-45,-71,-7,106,37,-6,1,7.94
1589,-31,36,-5,-13,-76,-15,-30,-43,7.945
1590,0,-7,-15,5,-60,-6,22,27,7.95
1591,23,17,46,-29,-81,-12,38,37,7.955
1592,51,21,36,-42,67,32,47,53,7.96
1593,-25,-12,22,-25,21,-5,-64,-90,7.965
1594,-52,-75,-55,-63,25,-9,-26,-14,7.97
1595,13,-62,9,0,-42,-14,26,33,7.9750000000000005
1596,20,44,27,34,-43,-17,-7,-17,7.98
1597,31,-61,-13,-46,14,14,79,126,7.985
1598,-48,29,11,29,17,-22,-124,-126,7.99
1599,-12,-12,-6,23,8,-24,-58,-13,7.995
1600,9,18,-13,-39,-38,5,66,83,8.0
1601,-13,28,7,103,5,6,51,17,8.005
1602,-16,-17,-3,-54,-22,12,52,44,8.01
1603,9,41,-22,4,53,10,-37,-34,8.015
1604,73,2,19,20,30,11,5,22,8.02
1605,-30,-15,7,-44,-43,-16,-36,-34,8.025
1606,-19,-2,2,28,15,4,2,-3,8.03
1607,-15,-75,-21,0,27,11,3,-19,8.035
1608,-7,35,3,1,-25,-9,6,8,8.040000000000001
1609,19,18,0,-7,-10,0,10,13,8.045
1610,-5,-23,10,3,-13,-11,-40,-44,8.05
1611,-16,-11,3,25,13,-3,-19,-4,8.055
1612,-3,30,-41,-13,-24,3,16,25,8.06
1613,-10,-42,4,5,6,-7,-44,-58,8.065
1614,13,63,8,43,-4,-3,34,26,8.07
1615,-9,0,-16,-40,7,0,0,-24,8.075
1616,-28,-11,11,-12,13,12,13,33,8.08
1617,6,31,-1,17,-17,-9,-19,-11,8.085
1618,20,-8,-22,-15,5,-1,-34,-4,8.09
1619,5,1,13,3,-41,-6,31,2,8.095
1620,11,23,23,40,31,8,13,-10,8.1
1621,8,63,31,19,17,13,5,16,8.105
1622,-25,-48,-54,-26,16,5,14,13,8.11
1623,-9,-50,16,5,-17,-4,-10,-14,8.115
1624,10,19,9,-11,-9,0,10,4,8.120000000000001
1625,-6,-16,-71,-7,-4,-13,-22,-37,8.125
1626,-8,69,30,-24,16,2,5,8,8.13
1627,8,-27,26,22,-5,-2,-41,6,8.135
1628,-19,-63,-8,-2,-12,6,53,-23,8.14
1629,4,21,21,3,3,-7,-38,-2,8.145
1630,5,13,3,-4,6,6,46,22,8.15
1631,14,28,3,15,11,5,18,12,8.155
1632,-12,46,21,-6,-9,-9,-39,12,8.16
1633,5,17,-8,-3,-1,5,12,-2,8.165000000000001
1634,-18,-50,-3,-24,7,2,20,5,8.17
1635,18,59,21,17,2,2,-57,17,8.175
1636,0,-94,34,-13,-7,-5,-13,-47,8.18
1637,-1,16,-61,-3,-2,-7,14,-21,8.185
1638,0,23,51,-6,-1,4,26,11,8.19
1639,-21,-2,-50,11,5,-2,22,-7,8.195
1640,14,108,-40,-4,-6,-1,-27,24,8.2
1641,7,-31,21,4,3,6,-13,12,8.205
1642,15,20,-42,-8,-1,-8,-18,15,8.21
1643,-39,-85,32,8,-2,6,15,-35,8.215
1644,-4,-9,-19,2,-2,-6,-18,-8,8.22
1645,0,-18,39,-6,-8,-7,-4,4,8.225
1646,12,-1,-52,-5,2,3,-5,18,8.23
1647,17,16,-17,2,1,3,23,28,8.235
1648,-2,-7,-1,8,-1,-5,-19,-27,8.24
1649,-13,-14,9,6,1,0,10,0,8.245000000000001
1650,-3,21,18,-1,0,1,-6,-12,8.25
1651,-2,-60,-26,-7,0,3,0,-5,8.255
1652,3,12,10,16,0,0,8,2,8.26
1653,5,-58,-5,-21,-10,-2,5,11,8.265
1654,-4,16,10,-7,4,-2,-13,-3,8.27
1655,7,30,-18,2,3,0,4,-6,8.275
1656,-1,-19,0,9,-1,-2,7,5,8.28
1657,-4,58,20,7,-5,-4,-7,-3,8.285
1658,-8,-25,-2,-5,2,2,-6,-6,8.290000000000001
1659,10,22,13,-11,1,2,12,-4,8.295
1660,-9,0,-17,-14,-6,-5,-7,3,8.3
1661,3,15,-14,0,-4,-2,2,-3,8.305
1662,-8,-34,7,-3,-5,-4,-10,-10,8.31
1663,14,18,-8,5,3,-2,-1,5,8.315
1664,-2,8,14,1,1,-1,4,-1,8.32
1665,-1,-4,-7,0,2,4,1,1,8.325
1666,1,-10,-8,2,0,0,1,0,8.33
1667,0,25,0,7,-4,-2,-4,-3,8.335
1668,-10,-45,-2,-13,-5,-3,-5,0,8.34
1669,-3,-5,-5,0,-2,-2,2,-5,8.345
1670,1,-10,-5,-2,5,-1,-5,0,8.35
1671,-8,24,-7,1,3,3,11,-4,8.355
1672,-8,-26,16,5,-2,-3,-4,-7,8.36
1673,-4,6,12,0,1,-2,2,0,8.365
1674,0,16,0,-10,-2,-1,-1,-2,8.370000000000001
1675,0,-3,3,1,-17,-7,-11,-3,8.375
1676,-1,49,-24,3,33,10,5,1,8.38
1677,-2,-59,-21,-4,1,-1,-1,-2,8.385
1678,3,25,16,4,2,3,5,-2,8.39
1679,-3,-36,-9,-9,-13,-5,-8,-3,8.395
1680,1,20,22,3,-6,-2,1,3,8.4
1681,0,28,-2,3,-2,-2,-10,-3,8.405
1682,1,-7,-3,2,-1,1,14,2,8.41
1683,8,4,1,-1,2,-1,-4,0,8.415000000000001
1684,0,-5,-14,-12,-10,-4,4,-2,8.42
1685,-2,-5,-8,-6,5,3,-3,1,8.425
1686,-1,-2,20,2,-7,-3,1,-2,8.43
1687,-2,5,17,9,1,-1,-1,-3,8.435
1688,1,-1,0,2,1,-2,-4,-1,8.44
1689,1,0,-11,1,0,-1,-1,-1,8.445
1690,-4,4,-5,3,3,1,-1,-1,8.45
1691,3,2,-9,-13,1,0,4,2,8.455
1692,0,8,8,4,-3,-2,-6,-3,8.46
1693,2,-4,-10,-7,-3,2,9,8,8.465
1694,-7,-20,-5,5,3,-1,-8,-9,8.47
1695,4,34,2,0,4,2,0,1,8.475
1696,1,-23,-6,-5,-7,-2,-4,-2,8.48
1697,0,19,14,12,1,-1,2,-1,8.485
1698,-4,-16,-12,-15,-3,-3,-2,1,8.49
1699,-9,0,2,7,3,-1,-5,-2,8.495000000000001
1700,4,6,-6,-2,-5,0,5,-1,8.5
1701,0,2,6,6,9,2,0,0,8.505
1702,-2,5,2,17,-2,-1,0,1,8.51
1703,0,-12,-12,-24,-2,-1,-13,-4,8.515
1704,-1,-6,1,3,-4,-1,13,3,8.52
1705,0,7,11,0,-3,-2,-2,-3,8.525
1706,-2,-17,-10,2,-4,0,5,0,8.53
1707,-2,-4,6,2,4,1,-2,0,8.535
1708,4,-9,-10,-3,-3,-3,-10,0,8.540000000000001
1709,0,7,1,-6,-9,-2,-1,-3,8.545
1710,5,23,1,0,1,0,4,4,8.55
1711,-6,-57,5,8,-2,1,-1,-4,8.555
1712,-2,7,-4,-9,1,0,-4,-2,8.56
1713,3,14,4,2,2,0,5,0,8.565
1714,0,1,-1,-7,-5,-2,-1,-1,8.57
1715,-3,-20,-13,1,2,-2,2,-1,8.575000000000001
1716,-1,6,16,8,-6,0,-5,-2,8.58
1717,-3,-10,-17,-3,-3,-2,-2,-2,8.585
1718,2,2,-10,-11,0,1,0,1,8.59
1719,-1,7,1,1,-2,0,0,-1,8.595
1720,4,19,7,3,3,0,4,1,8.6
1721,-3,-42,3,0,-3,-1,-1,2,8.605
1722,-7,5,6,0,-1,0,-5,-2,8.61
1723,-1,10,-4,-2,-2,-1,1,-1,8.615
1724,2,6,3,-2,1,-2,-4,0,8.620000000000001
1725,-1,-9,-8,3,3,0,-1,-3,8.625
1726,3,-6,-3,-2,3,1,1,-2,8.63
1727,4,8,-3,0,2,-1,1,1,8.635
1728,-4,-5,-2,-2,-7,-1,-3,-1,8.64
1729,-2,-9,-4,-2,-1,0,-2,0,8.645
1730,0,20,11,1,3,1,1,0,8.65
1731,1,16,3,-2,-2,-2,-1,-2,8.655
1732,1,-6,-3,5,1,-2,0,1,8.66
1733,-1,1,-10,-9,-6,-1,-1,-2,8.665000000000001
1734,4,-1,3,7,0,-2,-2,0,8.67
1735,-6,-11,0,-1,-2,0,2,-2,8.675
1736,-1,-4,3,-2,-1,-2,-6,-2,8.68
1737,-1,7,-3,3,1,0,1,0,8.685
1738,0,-5,-2,-13,-1,-2,0,0,8.69
1739,-3,-4,11,2,-2,-1,-1,-2,8.695
1740,-2,-4,-2,2,-3,-2,-1,0,8.700000000000001
1741,2,19,7,2,3,-1,-4,-3,8.705
1742,-3,-12,-7,-1,-3,-1,-1,0,8.71
1743,1,2,-15,-3,3,-1,2,1,8.715
1744,-2,-18,-3,-2,0,-1,-3,-1,8.72
1745,5,16,2,5,2,1,-1,2,8.725
1746,-6,-35,-6,1,-2,-1,-1,-2,8.73
1747,6,-30,-7,0,-2,-1,0,0,8.735
1748,3,89,12,-8,-6,-3,-1,-2,8.74
1749,-5,-54,-11,-4,-6,-4,-3,-3,8.745000000000001
1750,1,15,1,5,3,1,1,0,8.75
1751,-3,-3,3,-5,-4,0,1,1,8.755
1752,0,-3,2,-1,1,-1,1,-1,8.76
1753,0,9,5,3,0,0,3,1,8.765
1754,-3,10,2,-1,-4,-1,-4,-1,8.77
1755,1,2,-5,8,2,1,0,-1,8.775
1756,-2,-1,-4,-4,-1,-2,0,-2,8.78
1757,-1,2,5,-12,0,-2,0,-1,8.785
1758,1,-1,-2,2,-3,-2,-1,-1,8.790000000000001
1759,-1,20,-1,1,2,1,0,-1,8.795
1760,2,-13,5,0,-4,-2,0,0,8.8
1761,-6,-2,2,2,1,0,-2,-2,8.805
1762,-2,-17,-12,-1,-2,-2,-2,-2,8.81
1763,0,18,5,-1,-6,-5,-3,-2,8.815
1764,3,-17,-12,-5,1,0,-2,0,8.82
1765,-3,3,1,1,-1,-1,0,-1,8.825000000000001
1766,6,-8,1,-1,0,-2,0,1,8.83
1767,-16,-1,5,-9,-2,-1,0,-4,8.835
1768,-2,-4,1,2,1,0,0,-1,8.84
1769,0,10,-3,-2,-3,-1,1,0,8.845
1770,-7,19,7,8,-2,-1,-2,-2,8.85
1771,5,-7,-5,-2,-1,-1,-1,2,8.855
1772,-1,-8,-11,-3,-4,0,-3,0,8.86
1773,0,10,10,2,-6,-2,-1,-3,8.865
1774,4,-4,-5,-2,4,4,2,0,8.870000000000001
1775,1,3,5,-3,1,0,1,-2,8.875
1776,-2,-13,-9,2,4,2,1,-1,8.88
1777,1,2,16,5,1,-3,-3,1,8.885
1778,-8,-5,1,-1,-2,-3,0,0,8.89
1779,3,-12,-26,-5,-1,-1,-1,0,8.895
1780,-3,15,-5,-5,2,1,0,2,8.9
1781,-11,-37,17,4,-5,-5,-2,-7,8.905
1782,4,8,6,-8,0,0,0,-2,8.91
1783,2,11,6,2,-1,0,-2,-1,8.915000000000001
1784,1,-6,0,5,5,2,-1,0,8.92
1785,-3,7,-9,0,-3,1,3,0,8.925
1786,-1,8,-3,-7,-1,-3,-1,1,8.93
1787,0,5,-3,-3,4,1,0,-1,8.935
1788,0,-11,-2,1,-2,-3,-1,-1,8.94
1789,2,1,-1,-4,-2,1,-3,1,8.945
1790,-2,2,-6,6,-6,1,0,-2,8.950000000000001
1791,0,2,1,-4,-3,0,0,0,8.955
1792,-1,-20,-2,0,1,-2,1,0,8.96
1793,0,10,3,-7,-2,-2,-1,-1,8.965
1794,-4,-6,2,0,-2,-4,-2,-2,8.97
1795,2,19,4,2,-1,-2,-2,1,8.975
1796,-4,-25,-2,-1,2,0,0,-1,8.98
1797,4,-23,-24,-2,-5,-2,-2,1,8.985
1798,-1,-12,-2,-8,-5,-2,-6,-2,8.99
1799,0,1,9,-4,4,0,-2,-1,8.995000000000001
1800,-3,10,8,1,-6,-2,0,-2,9.0
1801,5,25,-5,-4,5,0,1,0,9.005
1802,0,-4,1,2,-3,-1,1,0,9.01
1803,-2,-6,-5,4,-4,-4,0,-1,9.015
1804,-8,-4,-3,-4,-3,-1,1,-1,9.02
1805,-3,10,-11,-9,-2,0,-1,-1,9.025
1806,5,14,2,3,2,1,0,0,9.03
1807,-6,-13,1,5,-4,-1,-3,-3,9.035
1808,0,-3,3,-7,-1,0,-2,0,9.040000000000001
1809,0,-9,-5,8,2,0,0,-1,9.045
1810,-3,3,-9,-6,-1,-2,0,-3,9.05
1811,2,-3,-1,-4,-2,1,2,0,9.055
1812,1,5,-5,-8,-3,-1,-1,-2,9.06
1813,-3,9,0,8,-7,-2,-2,-2,9.065
1814,3,9,7,-3,9,1,0,-1,9.07
1815,-3,-13,-5,9,5,1,0,0,9.075000000000001
1816,0,3,-4,-6,-4,-3,-2,-2,9.08
1817,-4,-13,-2,-4,0,-2,-1,0,9.085
1818,-4,4,3,2,-4,0,-2,1,9.09
1819,3,14,3,-2,-6,-4,-1,-1,9.095
1820,-2,-3,1,4,2,1,-1,-1,9.1
1821,3,0,-1,-3,5,2,-1,2,9.105
1822,-2,-6,1,4,1,-1,3,-1,9.11
1823,0,-6,-12,-16,-2,-1,0,1,9.115
1824,0,1,-1,6,-2,-2,0,0,9.120000000000001
1825,-1,8,9,0,2,-1,-3,-2,9.125
1826,5,-10,-4,-3,-1,-1,-1,0,9.13
1827,-10,-15,4,3,1,1,0,0,9.135
1828,2,4,-3,-4,-1,-3,-1,-1,9.14
1829,-2,-12,-2,6,2,1,-1,-3,9.145
1830,3,1,-4,-3,-4,-3,-3,-1,9.15
1831,-2,11,-4,-6,-4,1,-1,-2,9.155
1832,-3,-9,-6,-1,-2,0,1,-1,9.16
1833,1,2,1,-1,-2,0,0,0,9.165000000000001
1834,-1,16,7,5,1,1,-1,-1,9.17
1835,4,-1,-1,5,-2,-1,1,2,9.175
1836,-8,8,3,-9,-6,-2,-4,-2,9.18
1837,0,-2,-5,-2,-1,-1,1,-2,9.185
1838,-3,-2,-4,-4,-1,0,-1,-1,9.19
1839,1,5,2,6,5,1,-1,-1,9.195
1840,4,6,-3,-4,4,0,0,2,9.200000000000001
1841,2,-2,-5,-2,2,-1,0,-1,9.205
1842,-5,-10,2,-2,-4,-3,-1,-1,9.21
1843,0,0,6,4,0,-1,0,-1,9.215
1844,-2,-4,1,7,-2,1,0,-1,9.22
1845,-2,-2,-4,-6,0,0,0,-1,9.225
1846,2,7,3,-4,-1,1,2,1,9.23
1847,-3,-6,-7,-2,-1,-1,-2,-2,9.235
1848,2,4,4,3,1,-1,-1,-1,9.24
1849,0,-6,-5,-4,-3,-1,0,0,9.245000000000001
1850,-1,-2,-3,3,-2,-2,-1,0,9.25
1851,0,4,2,-7,-2,-2,0,0,9.255
1852,-5,-1,4,3,0,1,-1,-3,9.26
1853,0,7,9,3,0,-1,0,0,9.265
1854,4,2,-2,-5,-3,-1,-1,2,9.27
1855,-5,-16,-7,-1,2,0,-2,-1,9.275
1856,-3,-25,-13,-1,-1,-2,-1,-1,9.28
1857,2,7,8,1,-1,-2,0,0,9.285
1858,-1,2,-7,-4,-2,-2,0,-1,9.290000000000001
1859,-1,8,2,-1,2,1,1,0,9.295
1860,3,1,3,0,0,-1,-2,0,9.3
1861,0,7,-2,-1,-2,1,0,0,9.305
1862,-4,-21,-7,-4,-1,-2,-1,-2,9.31
1863,-1,4,6,0,0,0,-1,-3,9.315
1864,-1,-4,-3,5,2,-1,2,1,9.32
1865,3,-7,-3,-1,-2,-2,-1,0,9.325000000000001
1866,2,3,-4,-2,-2,-2,-1,-1,9.33
1867,-4,-6,-5,-4,-3,-2,1,-2,9.335
1868,2,6,8,4,-1,1,-3,-1,9.34
1869,1,1,0,0,-2,0,0,1,9.345
1870,-3,-10,-13,0,6,3,-2,0,9.35
1871,-1,-1,9,1,-2,-2,-2,-1,9.355
1872,2,3,0,-5,-5,-1,-1,-2,9.36
1873,-1,6,-2,1,0,-1,-2,-1,9.365
1874,0,-14,-3,7,0,-1,-1,0,9.370000000000001
1875,-1,4,-4,-8,-7,-2,-4,0,9.375
1876,-2,-10,-1,1,3,-2,0,-1,9.38
1877,-4,0,0,0,-1,-1,0,-1,9.385
1878,1,13,2,-3,-2,1,0,-1,9.39
1879,1,-1,-2,3,1,0,-1,-1,9.395
1880,-2,-12,9,5,0,0,1,-1,9.4
1881,-7,-18,-5,-11,-1,-1,-2,-2,9.405
1882,-4,17,18,17,2,-2,-1,-1,9.41
1883,4,12,-6,-3,0,-1,-1,1,9.415000000000001
1884,1,11,-19,-14,-3,-1,-1,0,9.42
1885,3,-4,1,-1,-2,-1,0,1,9.425
1886,-2,-8,0,-2,-1,0,-2,-2,9.43
1887,-5,-1,3,3,1,-3,1,-2,9.435
1888,2,-9,-2,2,2,-2,-1,-2,9.44
1889,3,9,-4,-4,-6,-1,0,0,9.445
1890,-2,5,2,-1,-2,0,-3,-1,9.450000000000001
1891,0,-14,-8,-5,-1,0,-1,-3,9.455
1892,-2,-1,1,-1,2,-1,0,-1,9.46
1893,-1,3,-1,0,-4,-1,-1,-1,9.465
1894,-1,12,6,-2,-3,1,-2,-1,9.47
1895,-3,-7,-3,-2,-2,0,-2,-1,9.475
1896,-7,-4,3,15,4,1,0,-1,9.48
1897,-4,0,-5,-16,1,1,-2,0,9.485
1898,-2,-9,-7,-9,-2,0,1,0,9.49
1899,3,6,1,1,-2,0,1,-2,9.495000000000001
1900,1,-18,10,2,-2,-1,-3,0,9.5
1901,-7,3,-1,2,-2,-2,-1,-4,9.505
1902,-1,-8,-6,-3,-3,-3,-1,-1,9.51
1903,-1,4,-2,-4,3,1,0,0,9.515
1904,1,11,-1,5,2,-2,0,0,9.52
1905,0,-5,-2,8,3,0,-1,0,9.525
1906,0,-1,0,-5,-3,-2,-2,1,9.53
1907,4,1,-1,-2,-1,-3,-3,1,9.535
1908,-2,-13,-5,-6,-5,-3,1,-2,9.540000000000001
1909,-1,1,1,-2,-1,0,0,-2,9.545
1910,-2,-2,-4,0,0,0,-1,-1,9.55
1911,1,-1,2,8,0,-1,-2,0,9.555
1912,0,15,2,-5,-2,-2,-2,-2,9.56
1913,-1,-9,-8,0,-2,-3,-2,0,9.565
1914,0,-18,4,6,0,-2,-2,0,9.57
1915,-2,1,-3,-4,-1,-2,-1,0,9.575000000000001
1916,2,2,-5,-10,-3,0,-1,0,9.58
1917,2,2,0,4,1,0,-1,-1,9.585
1918,-1,8,-5,-2,2,-1,0,1,9.59
1919,-2,3,12,5,-3,-1,-1,-1,9.595
1920,-4,9,-3,-1,-1,-2,0,-1,9.6
1921,0,-28,-4,-8,-3,-3,0,-2,9.605
1922,-3,0,-2,5,2,1,1,-1,9.61
1923,2,9,-3,-2,3,2,1,2,9.615
1924,4,4,3,1,-2,1,-1,-1,9.620000000000001
1925,-1,10,10,2,2,-1,-1,-1,9.625
1926,0,5,0,0,-7,-2,-1,-2,9.63
1927,-8,-24,-17,-8,-3,-1,0,-3,9.635
1928,3,13,12,-2,0,-1,0,-1,9.64
1929,-2,21,2,-4,-3,-2,-2,0,9.645
1930,-2,-5,-1,-1,2,-2,2,-2,9.65
1931,-2,-1,-4,2,-1,-1,-1,-2,9.655
1932,-2,-11,-6,-4,-2,0,-1,2,9.66
1933,-1,2,5,3,-1,0,0,-1,9.665000000000001
1934,0,15,1,6,1,-1,0,-1,9.67
1935,-1,-7,-8,-9,-2,-1,0,0,9.675
1936,-3,-18,-9,-15,-3,0,1,-1,9.68
1937,-1,-2,0,4,3,0,-1,0,9.685
1938,0,-1,-2,-2,-1,0,-2,0,9.69
1939,-2,1,8,10,3,0,-1,-2,9.695
1940,-1,3,0,7,0,-1,-2,-1,9.700000000000001
1941,5,-3,-2,1,0,-2,1,-1,9.705
1942,-2,0,-4,-4,-5,-2,-2,-1,9.71
1943,-11,-8,-4,-5,-7,-2,-2,-2,9.715
1944,3,12,4,-3,-1,-2,-1,0,9.72
1945,-2,-6,3,2,5,2,2,1,9.725
1946,2,-2,2,-4,1,-2,-2,-2,9.73
1947,5,11,3,1,-2,0,-1,-1,9.735
1948,-1,1,-9,0,-1,-2,-1,-1,9.74
1949,-2,3,-3,0,-3,-1,-1,0,9.745000000000001
1950,3,-7,1,-1,1,1,1,1,9.75
1951,-3,1,2,9,-9,-2,-1,-1,9.755
1952,-4,3,4,6,9,3,2,0,9.76
1953,-1,-2,-5,-23,1,0,0,-1,9.765
1954,-3,-6,-2,-2,0,0,-4,0,9.77
1955,4,2,3,0,1,-3,2,0,9.775
1956,-1,1,-2,4,-2,-1,0,-1,9.78
1957,-4,1,1,8,-1,0,-1,-1,9.785
1958,2,-5,0,-5,0,0,0,1,9.790000000000001
1959,0,2,2,0,0,-1,-2,0,9.795
1960,1,20,-4,1,-5,-1,0,0,9.8
1961,-8,-29,-9,-5,-1,-1,0,-2,9.805
1962,-1,0,4,-2,0,0,0,-3,9.81
1963,2,-1,4,-1,2,1,2,-2,9.815
1964,-1,5,-1,-4,-1,-2,-3,0,9.82
1965,3,3,-2,3,-3,0,-2,0,9.825000000000001
1966,-1,-5,-4,0,-4,-1,0,0,9.83
1967,1,3,-1,-2,-1,1,-1,0,9.835
1968,-1,-10,-1,0,-1,0,-1,-1,9.84
1969,-1,4,0,4,-2,-2,-1,0,9.845
1970,1,-8,-5,-1,0,-3,-1,1,9.85
1971,-7,8,4,3,5,2,0,-2,9.855
1972,3,-17,-9,-10,-6,-5,-2,-2,9.86
1973,-2,2,0,-3,-1,-1,-1,-3,9.865
1974,-2,-1,1,7,4,1,1,-2,9.870000000000001
1975,5,0,-10,-13,-1,-2,-1,1,9.875
1976,-5,-1,6,0,-3,2,-1,-1,9.88
1977,0,3,-1,3,-3,-3,-2,-2,9.885
1978,-2,5,-5,-7,0,-1,0,-1,9.89
1979,-1,-14,-3,0,-1,0,-2,-1,9.895
1980,-2,-2,6,7,3,1,0,-2,9.9
1981,2,3,-5,2,-6,-1,-1,0,9.905
1982,1,5,4,-3,-1,0,0,-2,9.91
1983,-2,-17,-9,2,1,1,-1,0,9.915000000000001
1984,-4,2,-8,-6,-3,-2,0,-1,9.92
1985,-2,0,9,5,2,0,-3,-2,9.925
1986,1,-3,-6,-2,2,-3,-3,-2,9.93
1987,5,11,4,-1,3,-2,-1,0,9.935
1988,-1,-10,-5,-3,-1,-1,0,-1,9.94
1989,3,10,-3,0,1,-3,2,2,9.945
1990,-6,-17,2,2,-4,0,-1,-1,9.950000000000001
1991,-3,-4,6,-5,-1,-1,-2,-1,9.955
1992,0,1,-2,2,-4,0,-1,1,9.96
1993,2,2,-4,-8,-2,1,-2,-1,9.965
1994,-8,8,2,-3,1,1,1,1,9.97
1995,0,5,-9,3,-2,-1,0,1,9.975
1996,1,-9,2,-3,1,-1,0,-1,9.98
1997,-5,-2,2,2,2,1,0,-1,9.985
1998,2,1,9,2,-5,0,-1,-2,9.99
1999,-2,-3,-4,0,-1,-2,-2,-3,9.995000000000001
2000,-3,-3,-6,0,-4,-2,1,1,10.0
2001,0,-5,-2,0,4,3,2,1,10.005
2002,-1,-2,-4,-3,-1,0,-2,-1,10.01
2003,0,5,3,0,-2,-2,-1,1,10.015
2004,2,4,4,-1,-3,-1,-3,1,10.02
2005,-2,-6,-1,-3,-4,-3,-1,-1,10.025
2006,-1,-2,0,2,0,-1,1,-1,10.03
2007,-2,3,-3,-4,-1,-1,1,-1,10.035
2008,-2,-15,-7,0,4,1,-1,0,10.040000000000001
2009,1,-6,5,1,0,1,-1,1,10.045
2010,-2,7,-10,-3,-2,-1,0,-1,10.05
2011,-1,-2,6,0,-2,-2,-1,-1,10.055
2012,2,3,-2,8,1,-2,-1,-1,10.06
2013,3,-1,-4,-11,-5,-1,-1,-1,10.065
2014,0,5,1,-2,-4,0,-1,-1,10.07
2015,-2,-9,0,0,3,3,-1,-1,10.075000000000001
2016,0,1,-2,-6,2,3,1,-1,10.08
2017,-5,5,-1,5,0,-3,-3,-2,10.085
2018,4,-1,-2,-2,-2,-1,-2,0,10.09
2019,0,15,7,10,-2,-2,-1,-2,10.095
2020,-4,-12,-9,-11,1,0,0,-1,10.1
2021,2,2,7,9,1,0,0,0,10.105
2022,1,0,-4,-10,-2,-1,-2,-2,10.11
2023,-6,-16,-4,0,-4,-1,0,-1,10.115
2024,1,8,3,2,-2,-2,-4,-1,10.120000000000001
2025,0,-5,-10,-6,-2,-2,0,-2,10.125
2026,0,3,3,5,2,0,-1,1,10.13
2027,2,-3,-6,-3,0,-2,-2,0,10.135
2028,-1,5,3,-2,-3,-2,-1,-1,10.14
2029,-2,0,-2,-4,-1,1,0,0,10.145
2030,0,-7,-6,-1,-4,-2,-2,-2,10.15
2031,-1,6,1,3,5,2,0,0,10.155
2032,-1,-11,6,-3,-5,-1,-3,0,10.16
2033,-4,4,-3,6,0,-1,-1,-1,10.165000000000001
2034,-2,-1,6,-3,-1,-1,0,0,10.17
2035,1,2,2,-2,-5,0,1,0,10.175
2036,2,-1,-4,3,-1,-3,-1,-2,10.18
2037,-2,-3,4,-3,-4,-1,-1,-1,10.185
2038,-2,-4,-7,1,-1,-2,-1,-1,10.19
2039,-2,1,0,-7,3,-1,0,-1,10.195
2040,3,1,-4,-2,-2,0,-1,0,10.200000000000001
2041,0,1,1,2,-1,-2,-1,0,10.205
2042,0,-2,-5,1,1,-1,-2,-1,10.21
2043,-3,-4,-4,1,-1,-2,-1,-2,10.215
2044,-1,3,7,-3,-2,0,-1,-2,10.22
2045,-6,1,-6,-3,-1,-2,0,-2,10.225
2046,1,0,4,4,-1,0,1,1,10.23
2047,3,1,-1,0,-4,-1,0,1,10.235
2048,0,-5,-1,-3,4,1,1,-1,10.24
2049,-1,-6,-5,-5,-5,-2,-2,-1,10.245000000000001
2050,-2,4,6,2,0,-1,-1,0,10.25
2051,7,1,-3,2,-2,-2,-1,1,10.255
2052,-3,5,4,-1,-4,0,1,0,10.26
2053,4,-3,-3,0,1,0,0,1,10.265
2054,1,1,0,5,1,-2,0,-1,10.27
2055,-2,-7,-9,-3,1,0,-2,-2,10.275
2056,-1,5,9,3,3,0,-2,-3,10.28
2057,1,-3,-11,-14,-3,-1,-2,-1,10.285
2058,-2,-2,0,-1,-2,-1,0,-2,10.290000000000001
2059,0,2,7,-1,1,-1,0,-1,10.295
2060,-7,-17,-8,1,-1,0,-1,-1,10.3
2061,-4,4,1,7,2,-1,-2,-1,10.305
2062,0,-6,-4,-3,-1,0,-2,0,10.31
2063,2,4,-2,0,-2,0,-1,-1,10.315
2064,4,6,0,3,-4,0,1,3,10.32
2065,-7,0,5,-1,-1,-2,0,-3,10.325000000000001
2066,-2,-13,-7,-3,1,-1,-2,-1,10.33
2067,-1,-1,1,-2,-2,-1,-2,-2,10.335
2068,1,4,-3,-5,2,1,0,-1,10.34
2069,3,3,6,10,3,0,-1,1,10.345
2070,-7,-3,-6,-2,-1,-1,-1,-2,10.35
2071,-2,0,2,-10,-2,0,2,0,10.355
2072,-2,3,-1,4,2,-3,-3,-2,10.36
2073,8,3,-7,-1,0,-1,-2,0,10.365
2074,2,-4,5,1,-2,-2,0,-1,10.370000000000001
2075,-6,-11,-8,-3,1,1,0,-2,10.375
2076,-5,13,2,-4,0,-1,0,-1,10.38
2077,0,-11,5,0,1,-2,0,-2,10.385
2078,2,-4,-2,-4,-2,-2,-2,2,10.39
2079,-2,-1,-6,-1,-2,-3,-3,-2,10.395
2080,-1,4,2,6,0,-2,-1,0,10.4
2081,-3,-6,-1,-5,-4,-1,-2,-2,10.405
2082,0,13,-6,-7,-1,2,1,-1,10.41
2083,0,-10,7,3,-2,0,0,-1,10.415000000000001
2084,3,14,-6,-5,-1,1,0,1,10.42
2085,-3,-5,2,6,-1,-2,-2,0,10.425
2086,-2,2,3,10,2,-2,-1,-2,10.43
2087,1,4,-2,-6,3,0,-1,0,10.435
2088,4,-8,-4,-2,-4,-1,-2,-1,10.44
2089,1,7,7,-8,-6,0,-1,-1,10.445
2090,1,0,-7,-1,0,-2,1,1,10.450000000000001
2091,-2,-10,-2,8,3,-1,-2,-1,10.455
2092,-3,-13,3,0,-5,-3,-2,-2,10.46
2093,-4,5,-4,1,3,1,1,0,10.465
2094,-2,-11,0,-2,-2,0,-2,-3,10.47
2095,2,7,5,3,0,0,-1,1,10.475
2096,-14,6,-4,-3,0,-1,1,-3,10.48
2097,-3,-4,0,-1,1,0,0,0,10.485
2098,-2,0,-3,-1,-3,-2,1,-2,10.49
2099,-3,5,6,-2,-6,-1,-2,-1,10.495000000000001
2100,2,-18,1,1,-1,-2,-2,0,10.5
2101,-2,-6,-6,2,1,-3,0,-1,10.505
2102,-5,-5,-1,0,-3,0,-4,-1,10.51
2103,-1,3,-6,-1,-2,-2,1,-1,10.515
2104,1,7,4,-2,3,1,0,0,10.52
2105,2,5,0,0,-2,-1,-1,0,10.525
2106,-3,-22,-5,-3,-1,2,1,-1,10.53
2107,2,28,7,-1,-1,0,-2,-1,10.535
2108,-2,-4,-11,9,3,1,-1,-3,10.540000000000001
2109,-2,3,-3,-6,-2,-2,0,-2,10.545
2110,4,11,5,-1,-4,-3,-1,2,10.55
2111,-5,-13,-4,-2,-5,-3,0,-3,10.555
2112,-2,-3,7,-3,-3,-3,0,0,10.56
2113,3,-6,-2,2,4,1,0,0,10.565
2114,0,4,-3,-1,-3,0,-1,-2,10.57
2115,3,10,-5,6,-1,0,-1,1,10.575000000000001
2116,3,4,4,1,-2,-2,-2,-1,10.58
2117,-2,-18,-5,-9,0,0,0,0,10.585
2118,-4,7,1,-5,-2,-1,-2,-2,10.59
2119,-2,7,0,-2,-2,0,0,-1,10.595
2120,-2,-9,-7,4,1,-2,-1,0,10.6
2121,-3,0,-1,-1,-3,-1,-3,-1,10.605
2122,8,-7,3,3,-1,-3,-2,0,10.61
2123,-5,-7,2,-1,-1,-1,-1,-4,10.615
2124,-3,-1,-4,-6,-2,-3,-1,-1,10.620000000000001
2125,1,9,0,2,-1,-1,-1,1,10.625
2126,1,6,-1,2,0,-1,0,0,10.63
2127,1,-20,2,2,-1,-1,0,0,10.635
2128,-1,-7,-7,-7,-1,0,-1,-1,10.64
2129,1,5,-4,2,3,-1,0,1,10.645
2130,-3,-1,-1,2,-2,0,-1,-3,10.65
2131,-2,1,5,0,0,-2,-1,-1,10.655
2132,-1,1,-5,0,-4,-2,1,1,10.66
2133,-4,-11,-2,-4,-2,1,0,-1,10.665000000000001
2134,-3,2,5,-5,1,2,-2,-1,10.67
2135,4,1,-2,1,1,0,-3,0,10.675
2136,3,5,-10,-6,2,0,-1,1,10.68
2137,-2,-2,15,6,-2,-1,1,-1,10.685
2138,-2,-21,-8,2,-1,0,-2,-1,10.69
2139,-1,-9,-6,-8,-1,1,0,0,10.695
2140,-5,8,9,2,-3,-2,-2,-1,10.700000000000001
2141,2,11,-7,-2,-3,0,0,-1,10.705
2142,-1,-5,2,-4,-1,-1,-3,0,10.71
2143,3,4,-3,-1,-3,-1,2,2,10.715
2144,2,-4,-6,-4,-1,-2,-3,-1,10.72
2145,2,0,2,4,4,0,-1,0,10.725
2146,0,15,5,-2,2,-2,-2,0,10.73
2147,-14,-13,-4,-1,-1,-1,-1,-3,10.735
2148,3,7,4,3,3,0,-1,0,10.74
2149,-1,-5,-8,-15,-3,-3,-1,-1,10.745000000000001
2150,2,1,-8,-3,-2,0,1,0,10.75
2151,3,11,3,5,1,-1,-1,0,10.755
2152,-2,-11,6,-1,-3,2,0,1,10.76
2153,-4,-5,-3,0,-2,-1,-1,-2,10.765
2154,-4,-7,-5,-1,0,-3,-2,-4,10.77
2155,2,1,0,-2,-2,-1,0,0,10.775
2156,-6,-4,2,6,-1,-1,-1,-4,10.78
2157,3,8,2,0,3,0,-1,1,10.785
2158,-3,-5,6,-3,0,-2,1,-1,10.790000000000001
2159,-4,-17,-4,4,1,0,-1,-3,10.795
2160,3,-8,-6,2,-1,-1,-2,-1,10.8
2161,-1,8,0,1,-4,-1,0,-1,10.805
2162,0,0,0,-3,-3,-1,1,-1,10.81
2163,4,7,1,-3,-1,-2,-2,0,10.815
2164,-3,-13,-1,-4,-4,-2,2,1,10.82
2165,-3,-4,-2,-2,0,-3,-1,-1,10.825000000000001
2166,0,6,-2,7,1,1,-1,-1,10.83
2167,0,-2,-2,-7,-3,0,-1,-1,10.835
2168,-1,6,2,1,2,-1,-2,-2,10.84
2169,-1,-2,-7,-7,-3,-1,0,-2,10.845
2170,-1,2,15,3,2,0,-2,1,10.85
2171,0,5,-5,-3,-2,-1,2,0,10.855
2172,-3,3,4,-3,0,-1,-1,-1,10.86
2173,-1,1,1,5,-4,0,-1,1,10.865
2174,4,-22,-12,-5,1,-1,-2,-1,10.870000000000001
2175,-2,0,1,-3,-2,0,0,-2,10.875
2176,2,0,-5,-2,-3,0,1,0,10.88
2177,4,-1,0,3,6,0,-2,1,10.885
2178,-4,4,-1,0,-3,-1,0,0,10.89
2179,-2,-8,0,0,0,-2,-4,0,10.895
2180,-1,0,-3,2,1,0,0,0,10.9
2181,0,-4,0,2,-2,-1,-1,-1,10.905
2182,-4,13,-3,-2,-2,0,1,-1,10.91
2183,0,-8,-7,1,4,-1,-2,-1,10.915000000000001
2184,-2,-8,0,-5,-3,0,-1,-1,10.92
2185,-2,-7,2,2,-4,-1,0,-3,10.925
2186,5,4,-2,3,-2,-1,-1,1,10.93
2187,-1,11,0,-7,-2,-3,-1,-2,10.935
2188,-2,2,-2,2,4,0,0,-2,10.94
2189,-1,1,0,-2,0,-1,-3,0,10.945
2190,2,-1,-3,0,3,1,2,1,10.950000000000001
2191,6,1,-1,3,-3,0,-1,1,10.955
2192,1,6,0,-6,-2,1,1,1,10.96
2193,-1,13,3,-2,0,-1,-1,-3,10.965
2194,-5,-16,-5,-3,-2,-2,-2,-3,10.97
2195,-3,-4,1,5,-5,-2,-2,-1,10.975
2196,-4,-3,-5,-1,0,-1,0,-2,10.98
2197,-1,1,0,-3,-1,0,0,0,10.985
2198,-5,-1,2,1,0,0,-2,-2,10.99
2199,0,6,2,-1,-2,0,0,1,10.995000000000001
2200,2,-4,2,3,-4,-3,-1,0,11.0
2201,-4,-2,-3,4,0,0,0,0,11.005
2202,0,8,-2,-8,-1,-2,1,-1,11.01
2203,1,-1,-1,-7,-2,-1,-1,1,11.015
2204,2,-12,-3,9,6,-1,-2,-1,11.02
2205,-7,-16,-6,-5,-3,1,0,-2,11.025
2206,1,9,11,6,1,0,-1,0,11.03
2207,-4,-5,-3,-5,0,0,1,-2,11.035
2208,4,14,0,-4,-4,-2,0,2,11.040000000000001
2209,2,-5,-4,0,1,0,1,0,11.045
2210,-3,-1,2,-1,-2,1,-2,-1,11.05
2211,4,2,1,12,7,0,1,0,11.055
2212,-6,-1,5,-6,-2,-2,-3,-2,11.06
2213,1,0,0,0,-1,-2,-2,-1,11.065
2214,2,-4,-4,2,-1,0,-2,0,11.07
2215,-5,-9,2,-8,-4,-3,-3,-1,11.075000000000001
2216,2,0,-8,-1,-2,-1,0,-2,11.08
2217,-5,-3,0,3,-2,-1,-1,-2,11.085
2218,1,8,2,-4,0,0,0,-1,11.09
2219,0,-14,-7,6,0,0,-2,-2,11.095
2220,-4,6,1,-8,0,0,-3,-2,11.1
2221,3,25,7,3,-1,1,-2,-2,11.105
2222,-1,-6,-5,3,-2,-1,-2,-1,11.11
2223,-3,-8,-1,-7,-3,0,2,1,11.115
2224,1,-7,-7,2,-2,-2,-1,0,11.120000000000001
2225,2,1,-2,-2,2,1,0,0,11.125
2226,0,-4,0,-3,-3,-1,-1,-2,11.13
2227,-1,-5,3,-1,2,-1,-2,-1,11.135
2228,1,3,-2,5,-1,1,-2,-1,11.14
2229,-4,-1,0,-1,0,-1,1,-1,11.145
2230,-9,2,-4,-3,-3,-1,-1,-1,11.15
2231,-3,2,-2,1,6,3,-1,-1,11.155
2232,0,-2,1,2,0,0,1,0,11.16
2233,1,0,0,2,1,-3,-2,0,11.165000000000001
2234,3,-1,3,-4,2,-2,-1,0,11.17
2235,-3,8,-5,-8,-5,-1,-1,-1,11.175
2236,-1,-6,-3,1,-1,0,-2,0,11.18
2237,2,-5,0,0,-1,1,0,0,11.185
2238,1,-1,-3,-2,-3,1,0,-1,11.19
2239,6,-1,2,0,-4,-1,-2,-1,11.195
2240,-2,2,-1,-2,-3,1,-1,-1,11.200000000000001
2241,-3,-6,-4,-8,-3,-2,-2,-1,11.205
2242,-2,-4,-1,7,7,1,-1,0,11.21
2243,-1,6,1,-1,0,-1,-1,-1,11.215
2244,3,0,4,2,2,1,0,-1,11.22
2245,-5,-13,-8,-7,-4,-3,-1,-5,11.225
2246,-1,-2,-3,0,-2,1,-2,0,11.23
2247,0,-4,-2,-1,0,-1,3,-1,11.235
2248,2,5,6,-2,1,-2,1,1,11.24
2249,1,10,0,-2,-2,-2,-1,-1,11.245000000000001
2250,2,4,1,4,-1,-1,0,-2,11.25
2251,2,2,-4,-4,-2,0,-1,-1,11.255
2252,-8,-17,-4,-3,-1,-2,-2,-3,11.26
2253,3,13,4,-2,-1,-2,0,0,11.265
2254,-1,-11,-4,1,-9,-2,-2,-1,11.27
2255,-4,16,6,5,11,2,1,1,11.275
2256,-4,-1,-5,1,-1,0,1,-1,11.28
2257,1,-7,-2,-1,0,0,-1,-1,11.285
2258,-4,-11,-3,-3,-2,-1,-1,0,11.290000000000001
2259,6,-7,-3,-4,-7,-4,-1,-2,11.295
2260,4,-2,-7,-5,-7,-4,-3,0,11.3
2261,-1,10,2,7,7,4,1,0,11.305
2262,-1,2,2,-11,-2,-1,0,-1,11.31
2263,-1,-9,-2,4,0,-3,-3,-1,11.315
2264,-7,-2,0,1,2,-1,0,-1,11.32
2265,1,-4,-1,-2,-8,-4,-1,-2,11.325000000000001
2266,6,7,2,3,5,0,9,7,11.33
2267,1,2,3,0,1,1,0,2,11.335
2268,1,0,-5,-8,-7,-1,-15,-17,11.34
2269,-20,-14,-4,-4,9,1,-2,-2,11.345
2270,-10,3,2,0,-2,0,0,-2,11.35
2271,0,6,2,2,-5,2,20,17,11.355
2272,13,24,11,1,-12,-1,8,11,11.36
2273,12,-6,-4,25,-2,1,10,-8,11.365
2274,11,-17,-11,-28,18,4,-8,-1,11.370000000000001
2275,-10,3,-3,6,-13,-11,-42,-38,11.375
2276,-36,-11,3,-3,-6,-4,4,16,11.38
2277,8,16,12,7,4,8,23,16,11.385
2278,29,-47,-25,-32,-6,-2,10,16,11.39
2279,-41,-62,-10,-27,-12,-8,-20,-25,11.395
2280,2,27,-3,12,41,10,-30,-46,11.4
2281,-3,10,8,5,-19,-15,-20,-9,11.405
2282,65,-3,1,21,-12,2,13,15,11.41
2283,17,26,14,-12,-11,10,62,57,11.415000000000001
2284,22,79,-6,-21,-18,7,14,15,11.42
2285,31,-106,-7,59,39,8,-15,-14,11.425
2286,-68,52,14,45,-15,-2,12,-5,11.43
2287,47,-59,-20,-51,44,12,-6,-8,11.435
2288,-26,56,31,-38,-48,-7,25,29,11.44
2289,-1,127,20,-40,-35,-15,-53,-25,11.445
2290,-84,-77,-36,-12,33,-20,-50,-30,11.450000000000001
2291,65,-49,-8,58,-7,-10,-22,-8,11.455
2292,-59,-54,-21,-34,24,1,22,-23,11.46
2293,47,66,43,36,-23,25,97,90,11.465
2294,-9,-36,-36,-73,19,9,-60,-53,11.47
2295,-13,40,12,15,12,8,15,13,11.475
2296,71,-44,28,94,30,-3,-23,-6,11.48
2297,-69,-105,-14,11,-54,-25,-20,-25,11.485
2298,-13,90,14,3,-60,-9,36,33,11.49
2299,-13,123,18,-10,77,23,-7,-21,11.495000000000001
2300,-29,-128,-101,27,28,-4,-8,-10,11.5
2301,-13,67,-2,-27,-6,2,19,11,11.505
2302,2,-45,-3,54,30,11,59,46,11.51
2303,11,37,55,12,-49,-18,-67,-31,11.515
2304,34,92,62,75,-40,4,73,33,11.52
2305,-80,-22,-92,-128,93,15,-12,-9,11.525
2306,-41,-69,-1,39,-42,-48,-105,-99,11.53
2307,-8,-29,-18,47,-22,-20,37,41,11.535
2308,-27,-3,9,-47,16,11,-47,-26,11.540000000000001
2309,37,30,28,26,-39,-6,60,41,11.545
2310,127,-12,19,45,6,25,-18,6,11.55
2311,-108,-84,3,-52,-12,7,-1,-36,11.555
2312,63,-45,15,-29,21,-11,-32,-6,11.56
2313,61,47,-48,-20,24,-15,-44,-13,11.565
2314,-14,40,13,-10,26,12,46,37,11.57
2315,72,55,7,31,-98,-3,46,50,11.575000000000001
2316,-85,-88,-42,-55,51,2,1,-4,11.58
2317,40,-24,41,99,-3,6,-7,-2,11.585
2318,-5,67,23,-24,-16,-9,6,0,11.59
2319,-39,-35,-19,-40,30,11,16,-8,11.595
2320,-2,127,10,76,9,28,67,37,11.6
2321,-26,-87,-27,-50,18,6,-78,-48,11.605
2322,1,64,10,80,-27,-31,-21,-15,11.61
2323,56,0,-35,-84,-11,10,3,13,11.615
2324,-52,5,-20,-7,-32,-17,3,-5,11.620000000000001
2325,-2,85,30,-7,3,-2,0,-18,11.625
2326,63,90,40,32,4,30,28,39,11.63
2327,-74,-7,-18,-59,5,-11,-64,-52,11.635
2328,2,-37,-8,42,-7,-11,31,18,11.64
2329,-5,-28,5,-45,-7,-2,-29,-7,11.645
2330,-21,19,13,-78,-74,-28,-7,-2,11.65
2331,12,59,-29,89,119,23,27,27,11.655
2332,-7,6,16,-21,-45,-16,-56,-47,11.66
2333,55,-105,-2,-55,19,27,103,57,11.665000000000001
2334,-100,48,46,11,-41,-22,-51,-40,11.67
2335,-24,-37,-71,-62,-9,-12,-15,-15,11.675
2336,34,-22,-27,-16,-3,9,7,13,11.68
2337,-42,6,28,31,-55,-25,8,3,11.685
2338,64,32,-3,-79,3,17,29,17,11.69
2339,-8,53,42,127,4,-6,15,-3,11.695
2340,55,62,5,11,64,5,-60,-3,11.700000000000001
2341,-58,-79,-82,-71,-18,-34,-74,-65,11.705
2342,42,39,-5,48,73,34,92,62,11.71
2343,-34,37,15,71,-93,-44,-51,-39,11.715
2344,-49,37,-38,-62,-21,-13,-11,-4,11.72
2345,3,36,11,31,42,15,-8,-8,11.725
2346,22,8,9,37,12,3,19,7,11.73
2347,48,-25,38,-26,-45,1,18,23,11.735
2348,-7,-7,15,-15,41,13,26,19,11.74
2349,-4,10,16,3,0,4,14,19,11.745000000000001
2350,-14,-73,-22,17,-42,-13,-32,-29,11.75
2351,16,106,-20,-49,85,29,36,23,11.755
2352,32,-88,9,-18,-113,-28,-28,-24,11.76
2353,-17,101,35,26,72,15,25,16,11.765
2354,-22,-99,-57,-75,-2,13,-18,-35,11.77
2355,55,-2,35,6,-23,6,27,35,11.775
2356,-82,-43,-16,-1,-14,-32,-95,-76,11.78
2357,56,-76,45,105,-48,0,99,59,11.785
2358,-10,-8,-31,-64,11,-7,-66,-35,11.790000000000001
2359,-3,51,21,13,-55,-35,-93,-45,11.795
2360,34,40,-36,3,73,41,87,52,11.8
2361,-31,-49,30,114,-54,-5,17,11,11.805
2362,47,63,-1,-43,30,11,25,21,11.81
2363,-105,-128,-26,7,-8,-9,-20,-31,11.815
2364,34,-32,6,25,-16,4,3,18,11.82
2365,18,76,-29,-39,31,6,-22,-20,11.825000000000001
2366,38,4,3,16,25,12,36,29,11.83
2367,26,-63,15,47,6,13,38,6,11.835
2368,19,-4,85,110,-74,-13,35,34,11.84
2369,-60,31,-127,-128,49,-5,-97,-64,11.845
2370,-19,-87,42,33,1,3,4,5,11.85
2371,41,47,2,-33,-4,-13,-9,-7,11.855
2372,-44,-88,-24,16,1,14,22,3,11.86
2373,-41,60,22,-11,-50,-17,3,7,11.865
2374,20,63,23,-28,-10,-21,-35,-2,11.870000000000001
2375,-48,-72,-43,20,-33,-25,-33,-31,11.875
2376,8,77,-3,-93,66,20,27,8,11.88
2377,47,52,60,27,-33,-7,-7,-2,11.885
2378,-42,20,-53,-40,41,12,11,0,11.89
2379,6,-24,53,13,-31,10,46,33,11.895
2380,6,43,-55,16,10,0,-12,-5,11.9
2381,31,-67,2,-71,-44,-1,-21,-14,11.905
2382,-14,-5,-5,111,68,24,46,18,11.91
2383,7,127,-1,-73,25,8,10,7,11.915000000000001
2384,-13,-113,-33,-59,-44,-29,-42,-34,11.92
2385,71,76,61,59,-45,2,38,39,11.925
2386,-20,-81,-18,22,26,2,-35,-21,11.93
2387,-24,-57,-47,-81,25,-12,-27,-15,11.935
2388,6,88,44,42,30,18,52,29,11.94
2389,-29,-116,-17,35,-40,-5,-41,-29,11.945
2390,-32,60,3,-62,-39,-37,-57,-36,11.950000000000001
2391,46,10,-5,2,41,-1,-36,-11,11.955
2392,50,56,6,22,10,9,48,41,11.96
2393,45,-13,15,-47,5,21,35,13,11.965
2394,-46,-19,3,73,-16,-1,10,3,11.97
2395,-33,19,-35,9,73,13,1,-3,11.975
2396,7,-3,31,-11,-52,-11,-8,-1,11.98
2397,-38,56,-40,-16,-13,2,21,3,11.985
2398,25,-53,-3,17,33,14,1,6,11.99
2399,48,86,36,21,15,13,11,14,11.995000000000001
2400,-14,-13,-2,-17,-15,-14,-12,-25,12.0
2401,5,4,39,50,4,-6,8,24,12.005
2402,-12,-77,-77,-94,-33,-26,-74,-71,12.01
2403,-59,-17,-1,16,-19,2,47,28,12.015
2404,94,25,3,4,-16,1,-15,8,12.02
2405,-25,54,2,10,31,-5,-2,-16,12.025
2406,-41,-54,8,-34,-16,0,17,16,12.030000000000001
2407,-45,-35,-4,-8,-23,-10,-29,-26,12.035
2408,63,118,40,15,41,33,41,24,12.040000000000001
2409,-17,-10,-7,16,33,-4,-6,-2,12.045
2410,25,25,-10,20,-76,-20,8,0,12.05
2411,3,-22,-17,-45,-11,-5,-20,-12,12.055
2412,5,60,-2,-128,-29,5,24,20,12.06
2413,15,-3,67,87,-7,-3,-8,-12,12.065
2414,-7,3,-45,4,40,13,-2,4,12.07
2415,-7,-41,-5,-2,-48,-13,7,5,12.075000000000001
2416,-8,-26,-6,-16,-20,-12,3,3,12.08
2417,-66,-25,-42,-12,44,-4,-75,-66,12.085
2418,16,127,38,-2,-79,-23,5,4,12.09
2419,55,32,2,12,63,35,39,31,12.095
2420,21,-31,29,67,-6,-12,-6,18,12.1
2421,13,3,-41,-72,-23,-3,21,27,12.105
2422,-56,-79,1,-39,3,-10,-48,-52,12.11
2423,-27,25,-25,-7,-11,-6,-7,-26,12.115
2424,-40,40,-40,26,-18,-17,-24,-25,12.120000000000001
2425,54,2,6,-69,7,-3,11,15,12.125
2426,50,72,8,29,4,21,57,50,12.13
2427,84,63,58,30,-48,7,43,44,12.135
2428,-83,-67,-28,-77,84,4,-84,-65,12.14
2429,-18,-35,-43,13,-15,-15,-8,-15,12.145
2430,36,-32,43,-10,6,13,78,55,12.15
2431,3,-29,-2,33,-20,-16,-57,-27,12.155000000000001
2432,-4,-17,11,22,-19,-17,-61,-27,12.16
2433,5,26,15,14,29,23,50,35,12.165000000000001
2434,-27,-62,-36,-18,3,4,21,-6,12.17
2435,20,38,16,15,-7,1,-40,-44,12.175
2436,9,-18,6,-14,-26,-5,25,18,12.18
2437,6,31,17,16,-7,-2,3,20,12.185
2438,8,-34,-20,-7,49,15,14,13,12.19
2439,-26,66,6,-19,-29,-26,-32,-19,12.195
2440,-5,-13,-50,31,-21,-12,-26,-26,12.200000000000001
2441,-43,10,35,-44,7,18,42,7,12.205
2442,-29,-10,-39,-29,10,1,-16,-11,12.21
2443,-2,21,33,11,39,14,17,25,12.215
2444,-12,-7,-4,1,20,12,0,-13,12.22
2445,26,8,-8,23,-16,-5,26,28,12.225
2446,30,15,30,17,-18,-14,-24,-7,12.23
2447,-70,-83,-6,-9,3,-8,-22,-40,12.235
2448,-11,63,-11,4,-18,3,13,24,12.24
2449,-22,-5,-12,-18,-9,-4,-15,-26,12.245000000000001
2450,42,49,43,22,-1,-1,-5,-3,12.25
2451,18,-18,-64,-43,-22,-13,23,25,12.255
2452,-11,29,36,23,22,14,10,3,12.26
2453,4,-30,-1,9,-16,-10,-37,-23,12.265
2454,25,-18,11,2,28,10,-23,-12,12.27
2455,-3,13,1,5,6,5,21,17,12.275
2456,3,1,5,-18,-24,-11,17,16,12.280000000000001
2457,3,-31,-43,-4,45,9,-6,1,12.285
2458,-15,29,5,5,-16,-4,10,-1,12.290000000000001
2459,5,1,19,23,20,11,32,24,12.295
2460,-11,-33,3,-28,-18,-5,-6,-15,12.3
2461,-3,49,-11,34,-7,0,-8,-10,12.305
2462,-15,-8,2,-12,-9,-4,4,4,12.31
2463,3,-33,-12,-13,11,5,-19,-8,12.315
2464,4,-3,13,4,-2,-11,-47,-6,12.32
2465,1,11,8,7,-1,7,70,-12,12.325000000000001
2466,-35,29,-3,5,-12,-6,-2,-6,12.33
2467,11,-22,-19,-13,-3,-2,13,19,12.335
2468,-4,-2,14,16,7,-6,1,3,12.34
2469,0,-2,-6,-7,2,1,-125,-10,12.345
2470,-6,8,0,-5,2,13,93,8,12.35
2471,17,-12,-22,-11,-2,15,1,-27,12.355
2472,-5,-16,5,13,8,2,22,39,12.36
2473,23,26,6,-14,3,1,41,-7,12.365
2474,5,-17,-73,4,-5,-19,-28,22,12.370000000000001
2475,-20,65,64,4,-11,-4,-27,-26,12.375
2476,14,-16,-19,0,5,-3,-12,-24,12.38
2477,0,44,-24,-17,2,1,-15,2,12.385
2478,-11,-26,97,8,-10,13,-13,-6,12.39
2479,0,-18,-93,1,-2,-4,51,14,12.395
2480,-8,-39,9,12,5,7,-32,-10,12.4
2481,3,3,-33,-21,-2,-6,23,1,12.405000000000001
2482,0,76,48,10,-2,-4,-15,2,12.41
2483,8,14,-10,-17,-2,-3,-7,15,12.415000000000001
2484,11,13,7,7,7,2,-22,7,12.42
2485,1,-20,-18,-3,-5,-7,-3,-14,12.425
2486,-12,10,-18,0,2,3,4,-2,12.43
2487,-3,-1,35,2,-2,2,-7,-1,12.435
2488,2,1,-15,1,-2,-3,13,-12,12.44
2489,-5,-23,10,13,3,-2,-19,1,12.445
2490,-6,-20,-8,2,-4,-3,-6,-10,12.450000000000001
2491,4,-40,-3,-15,-4,-1,12,29,12.455
2492,13,22,-4,0,0,2,3,7,12.46
2493,-32,-68,18,-1,-4,-3,-10,-32,12.465
2494,11,1,-10,-4,-2,-1,0,19,12.47
2495,5,-30,18,12,1,1,-1,12,12.475
2496,-20,13,-3,1,-1,2,12,-36,12.48
2497,21,-6,-16,-5,3,2,3,23,12.485
2498,2,6,6,-1,-3,-6,-19,-28,12.49
2499,1,-8,-15,-8,3,1,3,11,12.495000000000001
2500,1,8,6,-5,0,0,7,5,12.5
2501,-4,-6,18,10,-1,-2,-7,2,12.505
2502,0,4,-30,-9,0,1,-4,3,12.51
2503,-6,-28,12,8,0,1,3,-8,12.515
2504,4,51,19,-4,-5,0,6,-1,12.52
2505,0,-12,-14,1,-1,-3,-9,-1,12.525
2506,3,-6,2,-5,-2,-2,3,7,12.530000000000001
2507,2,-16,8,6,1,-1,-4,-8,12.535
2508,-2,-16,-11,-9,-2,1,4,0,12.540000000000001
2509,1,15,1,3,0,1,-4,5,12.545
2510,5,17,6,-3,2,-1,0,-2,12.55
2511,-1,-2,-6,-6,-3,-2,-2,-7,12.555
2512,-2,-2,-2,2,2,1,2,4,12.56
2513,-2,-3,-1,-6,-5,-3,-1,2,12.565
2514,2,-8,10,8,-5,-3,-4,-3,12.57
2515,-4,7,-9,-7,-4,-4,-1,-3,12.575000000000001
2516,0,-11,3,4,6,1,5,3,12.58
2517,-3,-3,-2,-5,-3,-1,-3,0,12.585
2518,2,1,-1,7,3,0,-1,0,12.59
2519,5,9,-4,2,-3,-1,0,0,12.595
2520,-1,-22,2,-2,-1,-3,0,-3,12.6
2521,-12,10,6,1,2,0,-1,-4,12.605
2522,-3,-1,-15,-8,-4,-1,-2,0,12.61
2523,4,-2,2,5,0,2,1,-1,12.615
2524,-3,-7,-3,-2,-6,-2,2,-2,12.620000000000001
2525,3,15,2,-1,3,-2,-2,2,12.625
2526,4,9,0,-4,-1,-2,0,2,12.63
2527,-2,7,5,3,-3,0,-2,-2,12.635
2528,-1,-11,-3,-1,2,-1,0,-1,12.64
2529,2,-4,2,0,0,1,0,-1,12.645
2530,4,18,3,4,1,1,1,0,12.65
2531,-1,7,3,1,4,1,-3,-1,12.655000000000001
2532,-5,-20,-10,-5,0,1,1,1,12.66
2533,-1,3,-1,2,-3,-3,-2,2,12.665000000000001
2534,-7,-17,-4,-8,-5,-3,-4,-4,12.67
2535,1,2,4,8,2,0,-2,-1,12.675
2536,-3,10,4,-8,-3,-1,-1,-1,12.68
2537,-1,-28,-6,-4,-2,-3,-1,-3,12.685
2538,0,19,3,5,-2,0,-2,-3,12.69
2539,-1,4,-2,-6,-4,-1,0,1,12.695
2540,0,4,-1,-1,2,-1,-1,-1,12.700000000000001
2541,5,-6,3,9,6,2,0,-1,12.705
2542,-5,-1,-3,-3,-1,0,2,-4,12.71
2543,-1,-22,-13,2,-3,-1,-1,0,12.715
2544,-4,14,11,-5,-4,0,2,-1,12.72
2545,-3,2,1,-5,-1,0,-3,-1,12.725
2546,8,26,8,5,2,-1,-3,3,12.73
2547,4,-21,-18,-9,-8,-3,1,1,12.735
2548,-9,-64,-15,-2,-5,1,-1,-2,12.74
2549,0,-3,4,5,1,-3,1,-2,12.745000000000001
2550,-1,22,8,2,0,-1,-1,0,12.75
2551,-6,-9,1,-9,0,-1,-3,-1,12.755
2552,6,38,6,4,1,0,0,1,12.76
2553,-5,11,-5,-6,-4,1,-2,-2,12.765
2554,-6,-12,-1,6,1,-1,1,-3,12.77
2555,-1,8,3,12,4,1,1,1,12.775
2556,2,7,-14,-16,2,3,2,-1,12.780000000000001
2557,5,2,9,-2,2,-1,-2,1,12.785
2558,-1,2,-5,-1,2,0,-1,1,12.790000000000001
2559,-2,8,2,0,0,-2,-1,-3,12.795
2560,0,-4,2,5,-4,-2,1,0,12.8
2561,0,1,-3,1,-2,0,0,0,12.805
2562,-1,-13,-4,-8,-7,-1,-3,-1,12.81
2563,-1,8,10,4,2,0,0,1,12.815
2564,-2,2,-4,0,0,-4,-3,-1,12.82
2565,-8,-17,-10,2,0,0,1,-7,12.825000000000001
2566,1,-10,-2,-2,-2,-2,-2,3,12.83
2567,1,8,8,-6,0,2,1,4,12.835
2568,4,7,1,2,-2,-2,-1,2,12.84
2569,-1,1,-3,-3,1,-1,-2,1,12.845
2570,-2,-23,-5,3,0,-2,-2,-3,12.85
2571,6,3,-4,-4,-2,-1,-2,-3,12.855
2572,-2,0,4,2,-3,-1,0,0,12.86
2573,-5,8,4,1,-2,-1,-1,-2,12.865
2574,1,-2,0,-3,-2,-1,-1,0,12.870000000000001
2575,-4,0,-3,1,1,2,2,0,12.875
2576,0,9,4,5,4,2,-2,-1,12.88
2577,0,1,7,6,-2,-1,-1,-1,12.885
2578,-5,8,-11,-8,-2,1,0,1,12.89
2579,-3,-3,1,-2,-1,-3,1,-2,12.895
2580,1,0,4,3,0,-2,-2,-1,12.9
2581,2,6,0,-1,-3,-1,-1,1,12.905000000000001
2582,1,-6,-2,-8,1,-2,-2,1,12.91
2583,6,-15,-11,-3,1,-2,-1,0,12.915000000000001
2584,-7,-2,-4,1,-4,0,-1,-2,12.92
2585,-6,0,5,-10,-3,-1,-3,-1,12.925
2586,2,12,0,8,0,-1,-1,-1,12.93
2587,-4,-13,-1,-3,-1,-1,-2,-3,12.935
2588,5,-2,-2,0,1,-1,1,2,12.94
2589,-2,-17,-6,-2,0,-2,0,0,12.945
2590,-3,9,1,-2,-3,0,-1,-4,12.950000000000001
2591,1,23,12,6,1,0,0,0,12.955
2592,-9,-19,-8,-3,-4,-1,-3,0,12.96
2593,5,-1,-4,-1,-3,0,-1,1,12.965
2594,-10,-15,-2,-1,1,2,1,0,12.97
2595,-2,30,4,3,2,-1,-1,-3,12.975
2596,-5,-14,-7,-1,-2,-2,-1,-5,12.98
2597,0,-8,1,3,-3,-3,-1,0,12.985
2598,1,19,0,-15,-3,0,-1,0,12.99
2599,-6,-23,-2,4,1,-1,1,0,12.995000000000001
2600,1,-1,2,1,4,-1,1,-1,13.0
2601,3,14,-3,2,0,-2,-1,1,13.005
2602,3,1,1,7,1,0,-1,-1,13.01
2603,-8,-5,-5,-5,-7,-1,-1,-3,13.015
2604,3,6,-1,-4,-1,-1,-2,-3,13.02
2605,-3,-6,1,-1,-1,1,1,-1,13.025
2606,0,-2,4,4,1,-2,-1,1,13.030000000000001
2607,3,-5,-4,2,0,0,-2,0,13.035
2608,-9,-11,-1,4,0,1,-1,-3,13.040000000000001
2609,-4,3,-6,-6,2,-1,-1,-2,13.045
2610,1,2,2,-2,-1,-2,-2,0,13.05
2611,1,8,-2,-2,0,-2,-1,-1,13.055
2612,9,6,0,-1,-2,1,1,2,13.06
2613,-4,3,-1,2,0,0,-2,-2,13.065
2614,-2,-31,-14,-5,-2,-1,0,-2,13.07
2615,4,-2,4,-3,-3,-3,-1,0,13.075000000000001
2616,3,9,1,-2,-3,-4,-2,0,13.08
2617,7,31,3,-1,6,2,1,2,13.085
2618,-4,-42,-9,4,0,-1,1,-1,13.09
2619,1,9,-2,2,-2,-1,-1,0,13.095
2620,-2,-1,0,-10,-3,0,-1,0,13.1
2621,1,-7,0,-1,-5,-3,-1,2,13.105
2622,4,23,-1,3,1,0,0,-2,13.11
2623,-4,0,-1,-1,-2,1,-2,-1,13.115
2624,0,5,2,2,0,1,1,0,13.120000000000001
2625,-4,-16,-3,-1,0,-1,-1,-2,13.125
2626,1,16,1,2,6,3,1,0,13.13
2627,-4,-5,9,-2,-1,-1,0,-2,13.135
2628,-1,-19,-5,-6,-2,-1,0,-2,13.14
2629,5,6,0,-1,-2,-3,-2,0,13.145
2630,0,-1,-5,2,-2,-3,-2,1,13.15
2631,-1,2,-3,0,3,0,-2,0,13.155000000000001
2632,1,15,4,1,-3,-2,-2,-1,13.16
2633,0,-26,-11,-5,-3,2,-1,0,13.165000000000001
2634,-2,5,7,-2,1,0,-1,0,13.17
2635,2,8,1,0,1,-2,0,1,13.175
2636,-5,-24,-6,-3,-4,-3,-1,-1,13.18
2637,0,1,1,-1,-3,-3,-1,-1,13.185
2638,0,0,-2,0,-3,-3,0,0,13.19
2639,-1,-5,-5,-2,1,1,0,-2,13.195
2640,3,12,1,1,2,-1,-1,1,13.200000000000001
2641,0,-8,-4,-5,-5,-1,1,0,13.205
2642,-6,-2,3,5,0,-1,-2,-3,13.21
2643,-1,10,2,-2,5,1,1,-1,13.215
2644,-2,-9,-1,-2,2,1,1,0,13.22
2645,-2,4,1,2,-2,-1,-3,-2,13.225
2646,1,-10,-5,-8,-6,-3,1,1,13.23
2647,1,4,-3,2,-4,-2,0,-1,13.235
2648,-3,1,-1,0,-1,-2,-3,-1,13.24
2649,-5,0,5,1,4,1,0,-1,13.245000000000001
2650,0,-2,-2,-1,-2,0,-1,-1,13.25
2651,-1,-11,-4,0,-3,-1,-1,0,13.255
2652,-1,15,3,2,0,0,0,-3,13.26
2653,1,0,-4,-4,-3,1,-1,0,13.265
2654,1,-6,0,-2,-3,1,-1,-2,13.27
2655,3,12,0,-3,1,-2,0,1,13.275
2656,6,-18,-6,2,-1,0,-1,2,13.280000000000001
2657,0,-14,-3,4,3,-1,-1,1,13.285
2658,-3,6,-5,-4,-2,-2,-2,-3,13.290000000000001
2659,-1,-2,-5,-3,1,0,-2,0,13.295
2660,-1,0,9,1,3,-1,-1,-1,13.3
2661,0,6,0,-3,-2,0,1,0,13.305
2662,4,5,5,-1,0,-3,0,2,13.31
2663,-8,-16,-5,1,-4,-1,-1,-2,13.315
2664,-3,-9,-8,-2,-3,0,-1,0,13.32
2665,-1,13,2,0,-4,0,0,-1,13.325000000000001
2666,-7,-21,-3,0,-1,1,0,-1,13.33
2667,1,-1,-2,0,-4,-1,-1,-1,13.335
2668,-1,3,5,2,0,0,-1,-1,13.34
2669,2,2,4,1,3,-1,-2,-2,13.345
2670,1,4,-4,0,2,0,1,0,13.35
2671,0,1,-2,-1,0,-3,-1,0,13.355
2672,-1,7,0,0,-2,-1,0,1,13.36
2673,-2,-7,0,-4,-2,-1,-2,-1,13.365
2674,-3,5,4,-3,0,-1,-2,-2,13.370000000000001
2675,-1,-1,1,0,-2,0,-1,-1,13.375
2676,-1,-5,-10,0,-2,-2,-1,0,13.38
2677,0,7,7,0,-2,-3,-1,0,13.385
2678,0,1,2,-3,-3,0,1,-2,13.39
2679,0,-6,2,-1,-3,-1,-1,-1,13.395
2680,-3,3,-3,-1,-1,0,0,-1,13.4
2681,0,3,-12,-4,-1,-3,1,0,13.405000000000001
2682,-3,-7,-4,-2,-2,-1,-2,-1,13.41
2683,-1,15,5,1,4,0,0,-2,13.415000000000001
2684,-3,6,6,2,1,0,-2,-3,13.42
2685,-2,-3,-3,-3,2,0,-1,-2,13.425
2686,4,1,0,1,4,-1,-1,0,13.43
2687,0,-8,-5,-1,1,0,0,0,13.435
2688,-3,1,-6,-8,-4,-2,-2,-3,13.44
2689,-3,-1,7,5,0,0,-1,-2,13.445
2690,0,6,1,1,-6,-3,0,-1,13.450000000000001
2691,0,-9,-8,-4,-3,-1,-1,1,13.455
2692,9,3,4,-4,-2,-3,-1,1,13.46
2693,1,5,-3,-1,-2,-1,1,-1,13.465
2694,-2,-12,-6,1,0,0,-2,-2,13.47
2695,2,-9,0,0,-5,-4,-2,-2,13.475
2696,-1,2,0,-3,-1,-1,1,-1,13.48
2697,3,0,-6,1,0,0,0,1,13.485
2698,-3,-4,1,0,2,2,-1,-3,13.49
2699,-3,-10,5,0,1,0,-1,-1,13.495000000000001
2700,-1,11,6,0,-3,-3,-2,-3,13.5
2701,-3,-12,0,0,-2,0,-1,-2,13.505
2702,1,4,-5,-1,-4,-2,0,-1,13.51
2703,-1,10,-1,0,2,1,0,-1,13.515
2704,-2,-5,-3,-2,0,0,1,0,13.52
2705,-3,3,3,-3,0,-2,-1,-1,13.525
2706,3,-1,-3,-2,-1,0,0,-1,13.530000000000001
2707,1,6,-2,-1,4,0,0,0,13.535
2708,-5,-21,-3,0,0,-1,-1,-2,13.540000000000001
2709,-1,0,9,3,-4,-3,-1,-3,13.545
2710,-1,0,-4,-2,-2,-2,0,0,13.55
2711,-6,15,6,0,1,0,1,0,13.555
2712,-3,-21,-11,-2,-1,0,-1,-1,13.56
2713,0,0,-4,-2,0,-2,0,0,13.565
2714,-4,-6,3,3,0,-1,0,-1,13.57
2715,7,-1,-3,-1,-7,-3,0,0,13.575000000000001
2716,-2,12,-1,0,0,0,0,-1,13.58
2717,-10,-15,7,2,0,1,0,-3,13.585
2718,3,19,1,-8,-2,-3,-1,1,13.59
2719,0,-21,-10,-1,-2,0,0,0,13.595
2720,-3,21,5,5,1,1,-1,1,13.6
2721,3,-13,-9,-3,-3,-3,-3,1,13.605
2722,-2,-1,-1,2,5,2,-1,1,13.61
2723,-4,-12,-7,-2,-3,-1,0,0,13.615
2724,1,-5,9,-1,-2,-3,-2,-2,13.620000000000001
2725,-2,13,-2,-1,2,2,0,-2,13.625
2726,-1,0,1,1,-2,-2,-2,-2,13.63
2727,0,-3,-1,0,-1,-2,-2,0,13.635
2728,-2,-2,-5,0,-3,-1,-1,-1,13.64
2729,-1,4,-3,-5,-3,-3,1,-1,13.645
2730,-1,-2,0,-1,-1,-1,0,-1,13.65
2731,-3,-4,1,1,-2,-1,-3,-1,13.655000000000001
2732,1,-4,-1,-1,-1,0,-1,-1,13.66
2733,0,-4,2,1,1,0,-3,0,13.665000000000001
2734,2,2,1,0,-1,-1,-1,1,13.67
2735,-4,3,1,-1,0,0,-1,-3,13.675
2736,3,10,3,-1,-2,0,0,0,13.68
2737,-2,-5,-12,-2,0,1,-1,-2,13.685
2738,-1,-9,-2,1,0,-2,-1,-1,13.69
2739,0,-3,5,-2,-1,-2,-1,-2,13.695
2740,-1,-4,0,1,-2,-2,1,-2,13.700000000000001
2741,3,5,-1,1,-3,0,-2,1,13.705
2742,-2,5,-3,-3,-2,0,0,-1,13.71
2743,-2,5,1,-4,1,1,0,-1,13.715
2744,0,-4,-7,-1,1,1,-1,-1,13.72
2745,1,5,4,1,1,0,1,3,13.725
2746,-4,-18,-3,-1,-1,-1,-1,-3,13.73
2747,-3,-2,-3,-1,-2,-2,-2,-1,13.735
2748,-3,1,2,0,0,-1,0,-2,13.74
2749,-2,6,-2,1,1,0,0,-1,13.745000000000001
2750,1,10,-1,0,-1,-1,1,-1,13.75
2751,-4,3,9,3,0,1,0,-2,13.755
2752,-2,-3,-5,-1,0,-1,-2,0,13.76
2753,-1,-25,-5,-2,-5,-1,-1,-1,13.765
2754,-2,3,2,2,-2,0,-2,0,13.77
2755,6,5,-5,-3,-4,-3,0,0,13.775
2756,-4,1,2,-2,3,0,1,-1,13.780000000000001
2757,-1,5,0,-4,-2,-4,-2,-1,13.785
2758,4,4,-2,-1,-1,-1,-1,2,13.790000000000001
2759,-1,3,-1,0,4,1,0,0,13.795
2760,1,-6,-7,-4,-4,-1,-2,1,13.8
2761,0,4,-1,1,2,-1,0,-2,13.805
2762,-3,-16,-3,2,0,-2,-2,-2,13.81
2763,-5,10,2,-1,-4,-1,-1,-1,13.815
2764,-2,-3,1,0,2,-1,0,-1,13.82
2765,-4,-1,1,-1,-2,-1,-1,1,13.825000000000001
2766,-3,-3,1,-2,-4,0,2,-1,13.83
2767,-1,-3,-4,-2,1,0,-1,0,13.835
2768,4,7,-4,1,0,0,0,-1,13.84
2769,-3,-11,-5,-5,-2,-2,-3,-2,13.845
2770,-2,1,3,0,0,1,-1,0,13.85
2771,-1,-1,-1,-1,-2,-2,-2,-1,13.855
2772,0,2,6,0,-2,0,-1,1,13.86
2773,2,6,3,1,2,0,0,0,13.865
2774,-1,-1,-7,-2,0,0,0,-2,13.870000000000001
2775,8,1,-4,1,-1,1,0,1,13.875
2776,-1,-2,-1,-1,-4,0,-3,0,13.88
2777,-5,-4,-1,3,4,0,-1,-1,13.885
2778,-3,-2,-2,-5,-4,-2,-2,-1,13.89
2779,4,-7,3,3,1,0,0,0,13.895
2780,-10,4,1,1,1,0,0,-2,13.9
2781,2,6,-4,-4,-1,0,0,0,13.905000000000001
2782,2,0,-3,-5,0,-3,-1,0,13.91
2783,-4,-7,2,0,1,-1,0,-3,13.915000000000001
2784,1,-10,-9,-3,-2,0,-2,-1,13.92
2785,-6,4,7,3,-2,0,-2,-1,13.925
2786,-2,8,13,-1,-4,-3,-3,-1,13.93
2787,0,-1,-4,-3,1,1,1,-1,13.935
2788,-1,-11,-3,-1,-2,-3,-2,-1,13.94
2789,2,-11,-11,-3,0,0,-2,1,13.945
2790,4,1,-4,0,1,1,-1,-1,13.950000000000001
2791,-1,3,3,1,0,2,0,0,13.955
2792,-1,13,1,0,-2,-2,-1,0,13.96
2793,-1,-21,-6,-7,-2,-1,1,-2,13.965
2794,1,-1,-2,-1,2,0,-1,-1,13.97
2795,-7,1,-1,1,0,-1,-2,-1,13.975
2796,-2,4,0,-3,0,0,1,-1,13.98
2797,-1,1,0,4,0,-1,-1,-1,13.985
2798,0,12,2,3,1,-1,1,0,13.99
2799,-2,-7,-9,-3,1,-1,-1,0,13.995000000000001
2800,4,-2,7,0,-3,0,-1,0,14.0
2801,-6,-3,-5,-4,-3,0,-2,-2,14.005
2802,1,6,0,-2,-1,-2,-3,-1,14.01
2803,-1,5,3,2,-1,0,-1,1,14.015
2804,1,1,-3,-2,-1,0,-1,-1,14.02
2805,4,-3,0,0,-2,0,0,0,14.025
2806,-6,-19,-5,2,1,-1,-1,0,14.030000000000001
2807,-3,-4,-4,-3,-2,-2,-1,-1,14.035
2808,3,-6,8,3,2,0,-2,-1,14.040000000000001
2809,8,5,-1,-4,-2,-1,1,-1,14.045
2810,-3,8,4,1,-1,0,0,-2,14.05
2811,0,15,0,-4,-4,-1,1,-3,14.055
2812,-1,-31,-7,-6,-3,-2,1,1,14.06
2813,-2,5,1,3,-2,-2,0,0,14.065
2814,1,-3,-3,-3,1,0,0,-1,14.07
2815,-4,-1,3,4,2,-2,-3,0,14.075000000000001
2816,-1,8,-2,4,0,0,1,0,14.08
2817,-3,-12,-9,-10,-5,-2,-3,-1,14.085
2818,-3,-8,4,-1,1,-1,-1,-1,14.09
2819,-5,8,3,3,2,0,-1,-1,14.095
2820,-1,3,0,-1,0,-2,-1,1,14.1
2821,-2,-2,1,2,0,1,0,0,14.105
2822,1,2,-5,1,-2,0,0,0,14.11
2823,2,-10,-2,-3,-3,-2,-1,-1,14.115
2824,3,10,-3,5,2,2,-1,0,14.120000000000001
2825,0,-4,-5,-3,-3,0,1,-2,14.125
2826,-5,18,5,0,2,2,0,-2,14.13
2827,-2,-14,-1,-2,1,-1,-1,-2,14.135
2828,-1,4,4,0,1,0,0,0,14.14
2829,5,14,0,5,3,0,-1,1,14.145
2830,1,1,-5,-1,-5,-2,-1,-1,14.15
2831,0,-5,-2,-3,-2,-1,-1,-1,14.155000000000001
2832,-3,3,-3,1,3,-1,-1,-3,14.16
2833,-2,3,3,1,0,-2,-2,-2,14.165000000000001
2834,-2,-2,-4,-4,-5,-2,-1,-1,14.17
2835,0,-12,-8,-6,-3,0,0,0,14.175
2836,-6,-9,9,1,-1,-1,0,-2,14.18
2837,-3,0,1,-2,-1,0,-2,-1,14.185
2838,1,-4,-1,1,3,-1,0,1,14.19
2839,2,2,-6,0,-1,-2,0,0,14.195
2840,0,0,-5,-5,-2,-1,-2,-1,14.200000000000001
2841,-2,-6,5,4,-1,-2,-1,-1,14.205
2842,0,0,-3,1,-2,0,-2,0,14.21
2843,-2,7,4,-4,-2,0,-1,-1,14.215
2844,-14,-20,-7,0,0,0,-1,-5,14.22
2845,-1,2,1,-3,2,-1,-1,0,14.225
2846,0,-9,-4,-4,-3,-1,0,-1,14.23
2847,0,0,1,-1,-1,-2,-1,-2,14.235
2848,3,7,1,-1,-3,-3,-1,1,14.24
2849,2,4,-6,2,1,1,-1,1,14.245000000000001
2850,-3,-5,13,0,-5,0,-2,-2,14.25
2851,-4,-14,6,6,2,0,-1,-2,14.255
2852,0,3,-5,-2,0,0,1,1,14.26
2853,-1,-1,-6,-8,0,-2,0,-2,14.265
2854,3,2,-4,-2,0,-1,1,-1,14.27
2855,4,3,-1,0,-2,0,-2,2,14.275
2856,3,-4,-5,2,-1,0,0,0,14.280000000000001
2857,-3,14,4,0,-3,-2,-2,0,14.285
2858,0,-14,-1,-2,2,1,-1,0,14.290000000000001
2859,1,-13,-7,-5,-5,-1,-2,0,14.295
2860,2,4,-3,-1,-1,1,-1,1,14.3
2861,-1,2,1,2,-1,-3,1,-3,14.305
2862,0,-5,-4,-2,1,-1,1,0,14.31
2863,-2,12,-1,-2,-1,-2,-1,0,14.315
2864,-5,-2,0,-3,0,0,-2,-2,14.32
2865,-1,3,5,3,0,1,1,-1,14.325000000000001
2866,-1,-3,-3,1,-2,-1,0,0,14.33
2867,-2,-2,-1,0,-1,0,0,-1,14.335
2868,1,1,-2,-2,-3,-2,-2,-1,14.34
2869,0,2,1,-1,1,0,-2,0,14.345
2870,0,-6,-2,2,1,-1,-1,-3,14.35
2871,-3,-1,-2,-2,1,2,0,0,14.355
2872,1,4,4,-2,0,-2,0,1,14.36
2873,-3,-8,-3,1,-2,-2,-1,0,14.365
2874,0,8,-3,-2,-3,0,0,0,14.370000000000001
2875,0,3,-7,-1,2,1,-1,-2,14.375
2876,-3,-3,10,2,2,0,0,-1,14.38
2877,-2,-5,5,1,0,0,0,0,14.385
2878,-1,7,-5,-4,-3,-1,-3,-1,14.39
2879,0,-5,-1,0,-7,-3,-2,-2,14.395
2880,-4,4,-4,-3,-3,0,0,-2,14.4
2881,0,5,3,5,5,2,0,-2,14.405000000000001
2882,-1,-5,0,-2,0,1,-1,-1,14.41
2883,-2,1,1,2,1,-1,-1,-1,14.415000000000001
2884,1,5,-4,-4,-1,-1,0,0,14.42
2885,-10,-29,-4,-1,-4,-3,0,-3,14.425
2886,0,7,0,2,1,-1,0,0,14.43
2887,0,2,2,-3,-2,0,-1,1,14.435
2888,-2,9,3,0,-1,-1,-1,1,14.44
2889,-1,5,-5,2,-2,0,0,0,14.445
2890,-2,-25,-7,-11,-1,-2,-2,0,14.450000000000001
2891,-1,2,6,2,-1,-1,0,-1,14.455
2892,-1,-1,-1,-4,-4,-1,0,-2,14.46
2893,-2,12,8,3,-1,-1,-1,0,14.465
2894,-5,-8,1,1,0,-2,0,-1,14.47
2895,-1,4,1,-1,-2,-1,-1,-2,14.475
2896,4,-11,-6,1,2,0,-2,1,14.48
2897,2,-6,-3,-4,0,-1,-1,1,14.485
2898,3,16,5,4,1,-2,1,1,14.49
2899,-3,-5,2,-1,0,1,1,-1,14.495000000000001
2900,-2,-1,-5,1,-3,-2,-2,-1,14.5
2901,-4,-21,-5,-4,-5,-1,-1,0,14.505
2902,2,0,0,1,0,1,-2,-2,14.51
2903,1,-1,-3,-1,-2,1,-1,3,14.515
2904,0,1,4,-1,-1,-3,0,1,14.52
2905,3,7,-3,-5,-1,0,-2,0,14.525
2906,-5,7,1,2,-2,-1,0,-3,14.530000000000001
2907,1,-5,-6,-6,-3,-2,-1,0,14.535
2908,0,-13,5,2,0,-1,0,-2,14.540000000000001
2909,2,5,-3,-1,-1,0,-1,0,14.545
2910,0,1,-3,0,1,1,0,1,14.55
2911,3,9,3,1,0,-2,-2,1,14.555
2912,-5,-11,-5,-2,0,-1,-1,-1,14.56
2913,0,6,-1,-3,1,-3,1,-1,14.565
2914,0,-3,-2,1,0,0,0,-2,14.57
2915,-3,-2,5,5,1,-4,1,-1,14.575000000000001
2916,1,1,-3,-5,-2,0,0,-1,14.58
2917,-1,-3,2,-2,-2,-1,-3,-2,14.585
2918,2,13,6,-2,1,0,0,1,14.59
2919,-7,-12,-8,0,2,0,0,-1,14.595
2920,4,5,-1,0,-3,-1,-2,0,14.6
2921,-2,0,-2,4,-3,0,1,0,14.605
2922,1,-10,-10,-9,-3,-3,-3,0,14.61
2923,0,2,3,-2,1,0,-1,1,14.615
2924,-1,2,0,-1,-1,1,-1,-1,14.620000000000001
2925,-2,3,-1,-3,-2,0,-1,-3,14.625
2926,1,-1,6,1,-2,-2,0,0,14.63
2927,-1,7,-8,-6,-3,-1,0,0,14.635
2928,-6,-21,-6,0,-4,-2,-1,-2,14.64
2929,2,-1,-3,-1,3,-2,-1,1,14.645
2930,-3,-3,-2,0,-1,-2,0,-2,14.65
2931,1,2,0,0,-1,0,-2,0,14.655000000000001
2932,1,9,2,0,1,0,0,0,14.66
2933,-1,-6,-3,-2,-2,0,-1,0,14.665000000000001
2934,-2,2,1,1,-1,0,1,-3,14.67
2935,0,4,1,2,1,0,0,-3,14.675
2936,2,2,-3,-1,2,-2,-1,0,14.68
2937,-3,-8,-4,-2,-1,-2,-2,-1,14.685
2938,-4,-4,1,0,-2,-1,-2,0,14.69
2939,2,2,0,-1,-1,-3,-1,-3,14.695
2940,-3,-17,-2,0,0,-1,0,1,14.700000000000001
2941,1,15,-1,-1,-2,0,-1,-1,14.705
2942,1,-6,0,1,0,-1,-2,1,14.71
2943,0,-5,1,-4,0,0,-1,-2,14.715
2944,1,12,-1,-2,-2,-1,-2,-1,14.72
2945,-2,-12,3,-1,1,0,-2,0,14.725
2946,-1,-3,-1,2,-4,1,0,-2,14.73
2947,-2,0,-2,2,0,1,-2,0,14.735
2948,3,10,0,-4,-3,-1,-1,1,14.74
2949,-7,0,-5,-8,-3,0,0,-3,14.745000000000001
2950,-2,3,-2,4,2,-3,-2,0,14.75
2951,-1,-6,-2,-2,0,-1,-3,0,14.755
2952,-3,6,-2,1,-3,-1,-1,0,14.76
2953,8,6,1,4,-4,0,0,2,14.765
2954,-7,-10,2,0,3,1,0,-3,14.77
2955,-5,1,0,-3,-2,-1,-1,0,14.775
2956,2,-8,-1,-3,0,1,1,-1,14.780000000000001
2957,3,4,1,0,1,0,0,0,14.785
2958,-8,-14,-4,-2,-1,-2,-1,-4,14.790000000000001
2959,7,3,-1,2,1,-1,0,1,14.795
2960,-2,-20,1,3,1,-1,1,-1,14.8
2961,-2,21,-5,-9,-5,-2,-3,-2,14.805
2962,4,7,1,3,2,0,1,0,14.81
2963,-3,-3,0,-2,0,-1,0,-2,14.815
2964,-2,6,4,5,2,-1,-1,-1,14.82
2965,-3,-4,-1,4,1,-1,0,-2,14.825000000000001
2966,3,12,-2,-4,-4,0,0,0,14.83
2967,-2,-5,0,-6,-3,-1,-2,-2,14.835
2968,-7,-10,-1,3,3,-1,0,-2,14.84
2969,-2,-6,-4,-3,-2,-1,0,0,14.845
2970,0,3,-2,0,1,1,0,0,14.85
2971,1,2,-3,0,-4,0,0,1,14.855
2972,5,5,-3,-7,-4,-2,-4,0,14.86
2973,-3,4,8,2,1,-1,0,-2,14.865
2974,6,8,-1,0,-2,-2,-2,2,14.870000000000001
2975,-4,-7,-6,2,-1,0,0,-2,14.875
2976,-3,-1,-7,-12,-7,-2,0,0,14.88
2977,-1,-12,2,0,0,1,0,0,14.885
2978,4,6,-2,-3,-2,-1,-1,2,14.89
2979,3,-2,1,-4,-1,-1,-1,0,14.895
2980,-1,6,0,1,0,1,0,-1,14.9
2981,0,-10,-5,-1,-3,-2,-1,1,14.905000000000001
2982,-4,0,0,-3,-3,-2,-2,-1,14.91
2983,-2,-8,0,-3,-2,-1,-1,0,14.915000000000001
2984,-1,8,0,0,0,-2,-1,-1,14.92
2985,-1,6,1,3,-2,0,-2,-1,14.925
2986,-2,-9,-5,0,-1,0,0,0,14.93
2987,-3,-5,-6,-1,-3,-2,0,1,14.935
2988,-8,5,2,-3,-2,0,0,-2,14.94
2989,3,-3,6,1,5,0,0,-2,14.945
2990,1,6,3,-1,-2,0,-3,-1,14.950000000000001
2991,-4,-1,4,3,-1,0,0,-1,14.955
2992,1,-2,-4,0,-2,-1,-1,-1,14.96
2993,-1,-6,-7,-1,0,-2,0,-1,14.965
2994,2,8,2,-4,-2,0,0,-1,14.97
2995,0,1,-5,-4,1,-1,0,-1,14.975
2996,0,-6,-2,3,1,-2,-2,-1,14.98
2997,3,-3,-4,1,-2,-1,-2,0,14.985
2998,2,0,-4,-13,-2,-1,-2,0,14.99
2999,0,-16,-7,0,-1,-2,-1,-1,14.995000000000001
3000,-2,14,0,2,0,0,-2,-2,15.0
3001,0,-6,5,1,1,2,-1,0,15.005
3002,-5,-15,1,4,0,-1,0,-2,15.01
3003,0,14,2,1,-1,1,-2,1,15.015
3004,2,0,2,0,0,1,-1,-1,15.02
3005,-6,-3,-8,-1,1,-1,-1,-3,15.025
3006,0,4,0,3,0,0,-1,-2,15.030000000000001
3007,9,-12,-6,-10,-2,-3,-1,1,15.035
3008,-1,-5,6,-1,-1,-2,-1,-2,15.040000000000001
3009,1,10,4,3,2,0,-1,-1,15.045
3010,-3,-4,-2,-1,-1,-1,0,-2,15.05
3011,-2,3,0,4,-3,-1,0,-2,15.055
3012,0,2,-4,-4,-3,-3,-1,1,15.06
3013,0,-4,-1,-6,-3,-2,0,-1,15.065
3014,-2,-18,-3,2,1,1,0,-1,15.07
3015,-5,4,4,1,1,2,-2,-1,15.075000000000001
3016,0,-5,-6,-3,-1,-2,0,-1,15.08
3017,-2,3,3,0,-5,-4,-1,0,15.085
3018,5,-2,-6,-3,-2,-3,-1,1,15.09
3019,-5,-1,4,1,-3,0,1,-1,15.095
3020,1,11,1,-1,-3,-1,-2,-1,15.1
3021,1,-12,-2,1,2,-1,-1,-1,15.105
3022,-4,-7,0,0,0,-2,0,-1,15.11
3023,-2,6,4,0,2,0,-2,-1,15.115
3024,2,-1,-4,2,1,1,0,0,15.120000000000001
3025,3,-7,-10,-2,-4,0,0,0,15.125
3026,-7,-13,5,0,-4,0,-2,-2,15.13
3027,-3,-1,5,-1,-2,-1,-1,-3,15.135
3028,0,-1,2,2,0,0,0,-1,15.14
3029,2,6,1,-3,0,0,0,0,15.145
3030,-2,-7,-8,-3,1,-2,-1,-2,15.15
3031,0,10,-7,-2,-1,0,0,-1,15.155000000000001
3032,0,-1,0,3,1,0,0,-1,15.16
3033,2,2,1,4,1,-1,-2,1,15.165000000000001
3034,-2,9,1,-3,-2,1,1,-1,15.17
3035,0,-3,-1,-5,-3,-2,-1,-2,15.175
3036,-2,-3,3,1,1,0,0,-1,15.18
3037,-7,6,1,5,4,1,1,-3,15.185
3038,0,-5,-2,-1,-1,-1,0,-1,15.19
3039,3,-1,-1,0,-1,0,-2,1,15.195
3040,-7,-1,-1,-2,-1,-1,-1,-2,15.200000000000001
3041,-3,-4,0,-4,-3,-1,-2,-1,15.205
3042,0,7,1,0,-2,-1,-1,0,15.21
3043,-4,-2,0,3,2,0,2,-1,15.215
3044,0,-6,-4,-2,-2,-1,0,1,15.22
3045,0,-3,1,-5,-2,0,0,0,15.225
3046,0,-9,-3,3,1,-2,-2,-1,15.23
3047,1,3,-3,0,-1,-1,-3,1,15.235
3048,0,2,-2,-5,1,-2,0,-1,15.24
3049,-3,-8,1,-1,-3,-2,-1,1,15.245000000000001
3050,0,11,6,0,-1,0,-2,-1,15.25
3051,-1,-7,1,4,-1,-1,-2,0,15.255
3052,-3,-8,-4,-1,2,0,-2,-1,15.26
3053,0,2,-4,-1,-2,-1,-2,-1,15.265
3054,-2,1,-3,-6,-1,-1,-1,1,15.27
3055,-1,2,-1,2,-2,-1,0,1,15.275
3056,2,-7,-7,-4,-3,1,-1,0,15.280000000000001
3057,0,4,3,-2,-2,-1,0,-1,15.285
3058,2,9,1,2,-2,-2,-2,-1,15.290000000000001
3059,-3,2,1,-2,0,-1,-1,-2,15.295
3060,-3,-18,-4,2,1,-1,-2,-3,15.3
3061,-3,0,-3,-2,2,1,1,0,15.305
3062,3,13,-1,-1,-2,-2,-1,0,15.31
3063,-4,-24,-1,2,0,-1,0,-2,15.315
3064,-2,7,1,-1,-1,0,0,-2,15.32
3065,7,16,4,-4,-2,0,-3,-1,15.325000000000001
3066,-3,-18,-12,-1,2,-1,-1,-1,15.33
3067,4,11,4,-1,0,-1,0,0,15.335
3068,-1,-2,0,-3,-5,-1,0,-1,15.34
3069,-3,-1,1,2,0,-1,-1,-1,15.345
3070,-2,5,0,-2,-2,-1,-1,0,15.35
3071,-2,0,-2,-3,-5,-1,-1,-1,15.355
3072,2,-5,0,5,1,0,-1,2,15.36
3073,-1,3,-8,-6,-5,-2,1,-1,15.365
3074,3,5,3,4,-1,0,0,0,15.370000000000001
3075,-2,-4,-5,-5,0,-1,-3,-2,15.375
3076,0,6,1,-4,-2,-3,-1,0,15.38
3077,-2,-6,3,4,0,-1,-3,-1,15.385
3078,0,-5,-1,3,1,-1,-1,-2,15.39
3079,-8,6,3,1,-1,2,2,-2,15.395
3080,-2,5,4,4,-3,-1,0,-1,15.4
3081,-7,-31,-13,-7,2,0,1,-1,15.405000000000001
3082,-3,2,3,-2,0,1,0,-1,15.41
3083,3,5,-1,0,2,-3,-1,0,15.415000000000001
3084,-1,-6,0,-2,1,-1,-1,-2,15.42
3085,2,6,1,2,-2,-2,-1,-1,15.425
3086,-2,-3,-1,-4,-2,0,-2,-2,15.43
3087,0,-4,-1,0,0,0,-1,0,15.435
3088,1,1,0,0,0,0,-1,1,15.44
3089,-4,1,1,0,0,0,-1,-2,15.445
3090,1,3,-2,1,-2,3,1,1,15.450000000000001
3091,-3,-12,-5,-3,-1,-1,-1,-3,15.455
3092,-3,-1,5,-3,0,-2,-1,-1,15.46
3093,1,0,-2,-2,2,0,0,1,15.465
3094,-1,0,1,1,1,-2,-1,-1,15.47
3095,4,-1,-3,1,-1,-1,1,1,15.475
3096,-1,6,-2,-1,0,-1,0,-1,15.48
3097,-6,0,-1,-3,0,-1,-2,-2,15.485000000000001
3098,-2,-3,2,-2,-1,-1,-2,-3,15.49
3099,3,-2,-1,-1,-1,-1,-1,1,15.495000000000001
3100,0,8,0,2,0,1,0,-2,15.5
3101,4,0,-8,-3,-4,-4,-2,0,15.505
3102,-6,-19,-2,3,-2,-2,-1,-1,15.51
3103,-1,-2,-2,-4,-2,1,-2,1,15.515
3104,0,-5,-2,-2,1,-1,0,0,15.52
3105,3,14,4,1,-1,-1,-1,-1,15.525
3106,2,8,-3,0,2,0,-1,-1,15.530000000000001
3107,-1,0,2,1,1,0,1,-1,15.535
3108,2,-1,-4,0,0,-1,-3,-1,15.540000000000001
3109,-3,-9,1,2,1,-1,-1,0,15.545
3110,-2,-1,-2,-3,-3,-1,0,0,15.55
3111,2,4,1,1,1,-2,-1,-1,15.555
3112,-1,0,0,-1,-4,-5,-2,-1,15.56
3113,-2,0,0,-1,1,0,1,-2,15.565
3114,-1,-11,-2,-2,0,0,-1,-2,15.57
3115,1,6,-3,-1,-2,2,-1,0,15.575000000000001
3116,-4,-4,1,1,-1,2,-2,-1,15.58
3117,1,9,4,0,-4,-2,-1,2,15.585
3118,-2,-2,0,0,1,0,0,-1,15.59
3119,-4,-4,-4,2,1,-1,-1,0,15.595
3120,0,-1,-3,-3,-1,0,1,0,15.6
3121,-3,-6,1,0,-3,0,-1,-3,15.605
3122,1,14,0,1,1,1,0,0,15.610000000000001
3123,-1,6,-2,0,-1,-1,-1,-2,15.615
3124,5,-12,-5,-1,0,0,-1,0,15.620000000000001
3125,-2,-2,-4,-1,1,0,0,1,15.625
3126,-4,-17,0,-4,-6,-4,0,-1,15.63
3127,1,8,4,1,-2,-2,-2,-3,15.635
3128,-1,1,-2,-3,-2,-2,0,-1,15.64
3129,1,1,3,3,0,-2,-1,-1,15.645
3130,1,3,-1,-1,1,0,-2,0,15.65
3131,-1,-3,-7,-2,1,0,-1,1,15.655000000000001
3132,-3,0,2,-4,-1,1,0,1,15.66
3133,-2,0,1,1,0,-1,-2,-2,15.665000000000001
3134,-2,-9,-4,-2,1,0,2,-2,15.67
3135,-1,-4,0,1,-1,-3,0,0,15.675
3136,0,-5,-4,0,0,-2,-1,-1,15.68
3137,-3,3,0,-3,1,-2,-2,1,15.685
3138,4,-3,1,-1,-4,-1,1,1,15.69
3139,2,-4,-5,-9,-4,-1,-1,1,15.695
3140,-1,-4,0,6,6,2,0,-1,15.700000000000001
3141,1,1,1,5,0,1,-1,0,15.705
3142,5,4,-1,-2,-2,-1,-2,-1,15.71
3143,-4,7,0,-4,-2,-1,-1,-1,15.715
3144,-4,-5,-2,-1,-2,1,0,-1,15.72
3145,4,1,-2,-2,-3,0,0,0,15.725
3146,-3,-14,-4,-1,-1,1,0,-1,15.73
3147,-4,11,3,-2,-3,-2,-3,-4,15.735000000000001
3148,0,10,2,-2,-1,-3,-1,-1,15.74
3149,-2,-5,-1,1,1,2,0,-1,15.745000000000001
3150,-2,3,-4,-3,-4,-2,-2,0,15.75
3151,0,-17,-3,0,-3,0,-1,0,15.755
3152,3,3,-2,0,-2,-3,-1,0,15.76
3153,0,-6,-2,-5,-3,-2,-1,-1,15.765
3154,-1,9,4,0,3,0,-2,-1,15.77
3155,-1,0,-2,0,-1,-2,-2,-1,15.775
3156,5,-2,-2,-1,1,1,-1,1,15.780000000000001
3157,6,-6,-3,-1,1,0,5,4,15.785
3158,9,9,3,1,1,0,18,23,15.790000000000001
3159,2,-2,-1,-2,1,-2,-19,-18,15.795
3160,-3,1,2,-1,-2,-1,10,-3,15.8
3161,3,-2,-1,-4,-4,2,18,28,15.805
3162,8,3,0,-1,-3,-2,-34,-40,15.81
3163,-64,-28,-11,-3,-2,-7,-27,-30,15.815
3164,-1,-6,-6,-4,-5,-4,-5,-13,15.82
3165,13,-16,-1,1,-1,-1,2,8,15.825000000000001
3166,31,16,3,7,6,2,-5,13,15.83
3167,41,13,5,1,2,3,24,23,15.835
3168,-12,1,-2,-3,1,2,-2,-7,15.84
3169,-20,2,-3,-3,-2,-1,22,10,15.845
3170,-1,-8,0,-2,-6,0,18,17,15.85
3171,6,3,7,15,0,-1,-2,-8,15.855
3172,-2,-9,-1,-17,-1,2,-27,-20,15.860000000000001
3173,-3,10,-1,7,12,0,-18,-18,15.865
3174,-4,9,-2,6,17,3,-4,-3,15.870000000000001
3175,1,2,-3,-8,-14,-3,13,12,15.875
3176,-6,-12,16,47,-31,-6,28,23,15.88
3177,-26,23,-4,-43,13,3,-5,-10,15.885
3178,-36,-55,-23,6,-1,-7,-12,-18,15.89
3179,31,-20,-8,3,13,3,11,18,15.895
3180,30,73,15,-9,-11,0,14,24,15.9
3181,41,-1,12,35,-9,0,3,-5,15.905000000000001
3182,-87,-70,-20,-33,2,0,-30,-28,15.91
3183,-14,55,-3,-25,-17,-12,-42,-34,15.915000000000001
3184,-14,-128,-32,-39,-19,-17,-15,-10,15.92
3185,52,73,9,54,12,7,26,25,15.925
3186,-11,45,10,-25,-23,-4,1,9,15.93
3187,1,10,14,-3,-6,2,-8,-4,15.935
3188,-25,63,3,-2,5,-3,-18,-20,15.94
3189,-37,-73,-28,-23,-10,-4,22,10,15.945
3190,43,9,8,-16,-41,-4,43,37,15.950000000000001
3191,42,6,4,-8,16,5,-13,1,15.955
3192,73,72,6,3,21,10,-22,-16,15.96
3193,-60,-78,-9,35,-25,-9,-27,-26,15.965
3194,2,14,-10,-65,4,-8,-33,-22,15.97
3195,-92,51,0,-62,-32,-13,6,-9,15.975
3196,6,101,51,113,84,38,50,30,15.98
3197,-8,-90,-43,-97,18,9,-25,-21,15.985000000000001
3198,-22,13,11,107,-41,-19,7,10,15.99
3199,50,101,0,-90,88,20,34,16,15.995000000000001
3200,1,-103,-28,-18,-13,4,-19,-7,16.0
3201,-31,69,64,97,-47,-16,26,23,16.005
3202,53,24,-39,-82,19,-11,-99,-71,16.01
3203,-12,-74,-4,-21,-86,-31,-29,-36,16.015
3204,5,65,11,80,86,16,48,23,16.02
3205,-32,-88,-12,34,28,14,35,14,16.025
3206,93,105,58,18,-12,6,86,75,16.03
3207,-41,-92,-21,81,2,12,33,29,16.035
3208,25,-103,-7,-69,-93,-24,-38,-33,16.04
3209,38,38,-13,-76,7,0,-77,-34,16.045
3210,-79,-9,-49,10,90,10,-29,-39,16.05
3211,-58,107,8,-16,-3,-2,6,8,16.055
3212,44,-55,-5,7,-28,-2,41,33,16.06
3213,49,10,38,79,-43,-6,6,7,16.065
3214,46,-1,19,-54,42,28,51,25,16.07
3215,-6,-64,-16,37,-32,-10,-35,-8,16.075
3216,-61,5,-69,-128,-64,-28,25,14,16.080000000000002
3217,0,77,15,71,36,-13,-68,-40,16.085
3218,-30,-7,47,65,-17,-7,-61,-31,16.09
3219,46,2,-54,-25,41,35,90,28,16.095
3220,-13,-6,19,-47,-10,12,69,48,16.1
3221,0,26,-20,-75,-22,-27,-74,-52,16.105
3222,8,-1,-3,47,-23,-14,-43,-30,16.11
3223,-18,-67,40,48,25,11,3,10,16.115000000000002
3224,-8,118,-20,-42,-27,-17,-27,-26,16.12
3225,13,110,15,-123,-51,-6,39,25,16.125
3226,-85,-45,25,97,43,11,9,-11,16.13
3227,73,49,-19,68,80,15,-6,-5,16.135
3228,-98,-100,-85,-125,31,14,12,-6,16.14
3229,36,85,53,-1,-15,-1,73,50,16.145
3230,83,-65,-4,4,-73,-9,1,10,16.15
3231,-27,-16,8,-101,-18,-11,-24,-11,16.155
3232,-56,8,25,126,47,-14,-127,-73,16.16
3233,-8,-102,-57,-55,-10,4,43,11,16.165
3234,4,4,12,24,-28,1,38,19,16.17
3235,-1,-48,-6,-36,2,-16,-26,-8,16.175
3236,24,84,39,-5,-2,-8,-36,-16,16.18
3237,15,-83,-48,-7,43,10,-11,-15,16.185
3238,-4,35,-10,-32,-5,24,127,77,16.19
3239,15,-17,20,-4,-62,-15,-20,-7,16.195
3240,11,3,66,61,-6,-25,-73,-46,16.2
3241,6,55,-47,-57,11,23,13,10,16.205000000000002
3242,3,-25,-4,24,58,22,102,56,16.21
3243,-25,-91,66,-23,-77,-20,-8,15,16.215
3244,-6,33,-81,-34,87,5,-80,-65,16.22
3245,-8,-46,-25,17,-35,-18,2,-8,16.225
3246,32,40,14,-59,-11,5,25,10,16.23
3247,-13,-59,11,-28,19,13,58,25,16.235
3248,51,-20,-1,30,-27,-12,-36,-4,16.240000000000002
3249,-50,65,32,71,-15,-13,-24,0,16.245
3250,13,42,-25,-90,13,-11,-61,-21,16.25
3251,70,45,31,94,2,15,50,20,16.255
3252,-15,-3,18,-1,-11,20,40,36,16.26
3253,-8,-3,-14,32,-12,-25,-82,-74,16.265
3254,-6,33,23,-2,-81,-30,-26,-10,16.27
3255,-36,11,-40,-43,40,20,14,17,16.275
3256,50,-53,2,23,13,24,77,52,16.28
3257,-4,15,83,122,44,24,56,35,16.285
3258,-13,-64,-100,-123,-25,8,-7,2,16.29
3259,-21,6,-29,11,-33,-33,-114,-108,16.295
3260,26,67,48,94,-83,-17,60,42,16.3
3261,29,-31,8,-116,67,19,-23,-15,16.305
3262,-17,-60,-7,42,39,8,-39,-32,16.31
3263,34,63,-10,32,3,7,59,47,16.315
3264,9,24,25,8,-25,9,59,39,16.32
3265,-23,13,-10,6,-21,-4,-65,-48,16.325
3266,-33,35,-16,-19,-34,-32,-36,-14,16.330000000000002
3267,-17,-57,-28,37,52,5,11,32,16.335
3268,-33,-8,43,17,-67,-7,49,25,16.34
3269,27,81,-9,13,50,40,4,3,16.345
3270,-6,27,-55,-71,22,-1,-33,-38,16.35
3271,-39,51,3,57,-54,-34,-35,-14,16.355
3272,-35,107,-12,-39,-1,-15,-81,-51,16.36
3273,-21,-128,-10,-52,17,-22,-31,10,16.365000000000002
3274,-1,35,-24,11,-5,-4,-9,-27,16.37
3275,19,2,14,19,48,21,-3,-6,16.375
3276,-27,-72,6,81,-83,-5,94,48,16.38
3277,61,127,-29,-124,78,46,68,44,16.385
3278,-55,-84,2,-47,-10,-12,-8,-27,16.39
3279,27,51,35,-63,-83,-5,39,24,16.395
3280,8,-1,-11,73,122,21,6,-3,16.4
3281,-24,63,34,18,-77,-36,-33,-3,16.405
3282,-62,-46,23,108,12,-16,-26,-13,16.41
3283,20,40,16,23,-70,-15,-5,3,16.415
3284,49,-35,-61,-70,32,13,-58,-64,16.42
3285,-29,-9,-39,-17,42,18,61,24,16.425
3286,27,98,52,95,103,51,112,98,16.43
3287,20,-82,-13,-10,5,-11,-97,-59,16.435
3288,-77,98,59,20,-106,-40,-6,0,16.44
3289,45,-128,-21,120,16,14,48,31,16.445
3290,2,46,-50,-96,32,-4,-82,-57,16.45
3291,45,127,-7,9,12,-5,22,19,16.455000000000002
3292,-14,-105,-30,-20,18,7,4,7,16.46
3293,-35,-20,16,15,-75,-15,23,5,16.465
3294,20,8,65,-21,-73,-8,33,29,16.47
3295,17,14,-17,-56,19,10,-28,-20,16.475
3296,15,-12,-9,-60,68,13,-31,-20,16.48
3297,-56,-21,1,-19,-55,-34,-7,-16,16.485
3298,56,-21,16,15,-18,5,41,38,16.490000000000002
3299,-9,20,9,-28,27,24,119,89,16.495
3300,84,92,64,-54,-114,-3,-33,-24,16.5
3301,-57,-68,-61,113,108,19,-83,-86,16.505
3302,-9,39,-9,18,-27,-23,-47,-32,16.51
3303,-57,19,10,31,-58,-13,-1,-17,16.515
3304,-7,-70,82,33,8,20,127,120,16.52
3305,73,22,-38,-91,-55,-9,-75,-43,16.525
3306,-51,10,31,2,-69,-20,-37,-41,16.53
3307,-23,-63,-5,16,35,23,19,3,16.535
3308,23,19,21,-8,-29,-16,12,15,16.54
3309,21,67,42,35,-13,-15,-36,-11,16.545
3310,34,21,-33,-30,41,19,-1,6,16.55
3311,-35,-3,-9,-38,-36,-34,-64,-34,16.555
3312,1,-28,-42,-28,54,6,0,6,16.56
3313,-8,31,17,-25,-21,4,37,22,16.565
3314,50,91,46,17,-106,-12,47,38,16.57
3315,7,-68,-47,92,100,51,18,7,16.575
3316,-27,-46,-30,-31,13,-1,-60,-59,16.580000000000002
3317,-29,41,24,29,-15,4,73,40,16.585
3318,-7,4,23,-36,-50,-5,-23,-9,16.59
3319,63,-57,0,-69,-46,-6,34,17,16.595
3320,-51,7,-73,14,99,13,-68,-33,16.6
3321,27,-9,23,-13,-57,-25,-24,-5,16.605
3322,-38,6,-2,15,-2,-12,-1,-5,16.61
3323,-13,0,19,10,-29,-9,-6,0,16.615000000000002
3324,8,-17,-14,-22,1,-6,-41,-42,16.62
3325,20,61,20,-40,-3,0,5,2,16.625
3326,0,-28,-15,16,40,8,-19,-1,16.63
3327,-11,27,-9,-32,-7,-6,25,5,16.635
3328,48,32,24,3,-39,-2,84,60,16.64
3329,-18,7,-10,-11,14,15,-3,6,16.645
3330,-43,-94,-6,17,18,-7,-44,-31,16.65
3331,2,37,25,38,-48,-8,20,16,16.655
3332,11,42,-14,-65,44,27,35,34,16.66
3333,-41,-33,-17,-3,16,-11,-46,-59,16.665
3334,2,-45,6,38,34,6,1,-10,16.67
3335,-21,30,-11,5,14,-4,-28,-21,16.675
3336,4,-21,-2,-26,-47,-8,32,24,16.68
3337,38,10,16,-26,-50,7,103,90,16.685
3338,1,34,4,18,32,7,-72,-37,16.69
3339,-39,29,3,-2,36,-5,-91,-68,16.695
3340,-25,-2,-14,8,-23,-40,-114,-83,16.7
3341,-4,-66,-16,-21,10,17,106,51,16.705000000000002
3342,31,19,24,22,-29,4,71,57,16.71
3343,17,7,-14,-20,-1,3,14,14,16.715
3344,14,65,0,33,22,10,0,12,16.72
3345,2,-12,-19,12,2,-6,-16,-1,16.725
3346,-13,-37,-7,-16,-5,6,31,6,16.73
3347,10,11,22,-19,0,-3,-48,-15,16.735
3348,2,-27,-31,-15,-32,-11,7,-5,16.740000000000002
3349,1,24,12,-3,15,0,6,-2,16.745
3350,16,50,2,7,29,15,14,11,16.75
3351,-15,-53,-19,-3,11,-5,1,-14,16.755
3352,-14,-20,-6,17,3,-27,-33,19,16.76
3353,-12,-12,10,-10,-39,11,-46,-42,16.765
3354,13,8,1,-16,5,5,48,3,16.77
3355,13,30,4,0,-5,-8,24,12,16.775
3356,-16,-20,4,2,-12,-3,-45,-12,16.78
3357,-11,-5,8,4,6,-15,-25,29,16.785
3358,-1,31,-38,-10,1,-11,-46,-51,16.79
3359,2,12,23,4,-8,3,38,-36,16.795
3360,2,2,-34,-5,5,30,48,-4,16.8
3361,11,65,53,10,3,-32,-67,12,16.805
3362,5,-7,-47,-4,1,11,22,49,16.81
3363,-13,-33,6,10,-3,1,44,-20,16.815
3364,-4,25,3,-23,1,8,-11,5,16.82
3365,-4,3,-21,-3,0,1,14,-48,16.825
3366,-3,-39,50,-4,-16,-16,-1,27,16.830000000000002
3367,11,8,-15,-5,7,-6,-38,11,16.835
3368,-3,-15,12,12,7,8,14,-6,16.84
3369,6,35,-4,7,-8,2,8,12,16.845
3370,-2,-46,3,5,-4,-6,-14,-10,16.85
3371,2,-14,-29,-11,2,4,-6,11,16.855
3372,3,-18,3,-9,-1,0,8,-4,16.86
3373,7,-18,-22,-6,-5,-3,5,9,16.865000000000002
3374,-3,-11,58,6,3,1,-2,-24,16.87
3375,1,29,20,12,2,1,-6,13,16.875
3376,-2,13,-5,9,-2,-8,6,8,16.88
3377,-6,-14,-1,-4,-1,2,1,-10,16.885
3378,-3,-14,-37,-12,-5,-1,8,6,16.89
3379,5,0,5,5,0,1,-11,-6,16.895
3380,0,6,13,7,-7,-5,-1,-5,16.9
3381,-8,1,-14,-8,-1,4,7,-4,16.905
3382,-1,-53,-14,-7,4,5,1,-1,16.91
3383,5,37,1,0,-4,-3,-15,13,16.915
3384,-1,17,11,9,2,-3,4,1,16.92
3385,2,-44,12,-5,-7,-1,5,-5,16.925
3386,2,1,-34,-12,-7,-6,3,-3,16.93
3387,-10,5,8,3,-2,-1,-4,-1,16.935
3388,-9,-9,-7,-7,0,2,2,-8,16.94
3389,0,-4,5,3,10,3,0,6,16.945
3390,4,45,15,6,2,-1,-3,0,16.95
3391,-1,-28,-19,-9,1,-1,1,-2,16.955000000000002
3392,-7,-8,0,5,-1,-2,-3,-2,16.96
3393,4,-9,3,1,-5,-1,0,1,16.965
3394,-2,3,3,-7,-1,1,3,-5,16.97
3395,-3,-6,-13,-1,-4,-3,0,4,16.975
3396,-2,-10,23,-1,2,0,4,2,16.98
3397,-3,-12,-10,-4,-2,1,-3,-3,16.985
3398,7,52,-3,-1,-1,0,4,0,16.990000000000002
3399,0,1,5,1,-1,-2,-16,2,16.995
3400,-4,-17,-11,-6,3,0,15,-1,17.0
3401,-2,-3,-4,0,0,-1,5,-1,17.005
3402,4,-2,-1,2,-2,-3,-2,1,17.01
3403,14,16,2,2,3,3,6,7,17.015
3404,-13,-13,3,-6,-3,-7,-16,-8,17.02
3405,-2,1,4,8,2,0,1,2,17.025
3406,1,4,-3,1,-1,-1,0,-1,17.03
3407,1,-23,-7,-6,-1,0,-1,0,17.035
3408,2,9,-5,0,-4,-2,-1,-2,17.04
3409,-3,9,2,-7,-4,0,2,0,17.045
3410,-5,-2,-3,-3,0,-1,-6,-3,17.05
3411,-6,-19,-4,1,2,2,3,-1,17.055
3412,2,2,-1,-2,0,1,1,0,17.06
3413,-2,-3,0,-1,-5,-1,-2,-1,17.065
3414,-1,-12,1,6,-2,-1,0,-4,17.07
3415,-1,11,7,-15,-3,1,3,0,17.075
3416,0,6,0,10,3,-2,-1,-1,17.080000000000002
3417,0,-7,-7,-8,-1,-4,-2,0,17.085
3418,3,4,-3,-5,-4,-1,0,0,17.09
3419,-5,-1,1,0,-1,-1,0,-3,17.095
3420,1,2,15,4,5,1,-2,1,17.1
3421,-4,-20,-13,-8,-5,-2,-2,-1,17.105
3422,0,0,2,2,4,0,-1,-3,17.11
