slno,emg1,emg2,emg3,emg4,emg5,emg6,emg7,emg8,Time
0,2,7,0,-5,-3,-2,1,-1,0.0
1,-4,-14,-8,-1,-1,0,-2,-1,0.005
2,-2,10,1,-3,-1,1,-1,-3,0.01
3,1,-1,-1,4,4,0,0,2,0.015
4,-2,4,3,1,-1,0,-1,-1,0.02
5,4,28,7,-1,0,-1,-1,1,0.025
6,-2,-23,-15,0,0,-1,-2,-1,0.03
7,-8,-20,2,-4,-5,-3,-3,-10,0.035
8,-4,0,-1,7,5,0,0,2,0.04
9,1,-3,-1,-2,-3,-1,0,5,0.045
10,3,9,1,-6,-3,0,-1,1,0.05
11,8,6,-4,0,3,0,0,2,0.055
12,-5,-6,-2,-1,0,2,0,-2,0.06
13,-2,12,2,1,-1,-1,-2,-5,0.065
14,2,10,6,0,0,-1,0,1,0.07
15,0,-4,-6,-7,-6,-3,-3,-1,0.075
16,-3,-9,-7,-3,-2,-2,-2,-3,0.08
17,1,10,5,10,4,3,1,0,0.085
18,1,16,7,-5,0,-2,0,-1,0.09
19,-10,-47,-15,-11,-4,-2,-2,-2,0.095
20,1,11,-5,-3,-4,-3,0,1,0.1
21,1,-14,3,-2,-2,1,0,-1,0.105
22,-11,-28,-9,0,-1,-4,-1,-2,0.11
23,5,13,-1,-10,-5,-2,-1,-3,0.115
24,1,12,8,-1,-1,-1,11,16,0.12
25,7,15,2,6,5,1,-1,28,0.125
26,-14,3,-11,-7,-2,-1,-15,-70,0.13
27,-3,-20,-6,3,1,0,-6,-6,0.135
28,-4,-4,-2,0,0,-3,-6,-14,0.14
29,5,18,18,10,2,0,6,14,0.145
30,2,-20,-26,-8,-4,-1,3,14,0.15
31,4,11,10,-7,-6,-2,-2,1,0.155
32,1,-5,-12,-2,-2,0,1,4,0.16
33,-5,8,4,-1,-1,-3,-1,-8,0.165
34,2,-19,5,1,0,-1,0,10,0.17
35,1,15,-11,-3,-1,0,5,1,0.17500000000000002
36,4,11,4,3,0,0,-1,18,0.18
37,1,-33,-14,-3,0,-2,-11,-46,0.185
38,0,23,1,-1,-1,0,0,1,0.19
39,6,3,21,7,0,0,1,7,0.195
40,-2,-20,-21,-10,-3,-1,-1,-6,0.2
41,-12,5,-2,0,-1,0,2,8,0.20500000000000002
42,0,20,15,3,0,0,3,0,0.21
43,-1,-15,0,3,-2,0,0,-3,0.215
44,4,-4,0,11,4,0,-2,-7,0.22
45,-1,9,-7,-23,-10,-4,0,-5,0.225
46,19,-5,1,-1,-3,-2,0,12,0.23
47,-11,5,-2,-6,-2,-2,0,3,0.23500000000000001
48,-16,-4,9,7,3,3,1,-15,0.24
49,7,7,-3,0,-3,-2,5,13,0.245
50,-8,1,7,-2,-3,-2,-3,13,0.25
51,6,6,1,4,3,-1,-7,-33,0.255
52,-1,-10,3,1,1,-1,-3,14,0.26
53,4,-7,1,5,2,3,8,14,0.265
54,8,-9,-6,-3,-1,0,3,42,0.27
55,-12,-21,-22,-4,-2,-2,-15,-69,0.275
56,8,-11,2,-11,-1,-2,-8,-11,0.28
57,-7,-5,-8,2,-2,-2,-3,-5,0.28500000000000003
58,-4,19,2,5,4,1,8,11,0.29
59,0,-22,5,3,0,3,4,13,0.295
60,-6,13,10,16,1,0,3,-5,0.3
61,0,2,7,-24,-12,-4,0,5,0.305
62,19,-11,-20,-6,3,4,3,6,0.31
63,8,0,-3,0,1,-1,-3,0,0.315
64,-17,14,-4,-5,-1,-3,-9,-17,0.32
65,1,-18,1,3,-1,-2,-11,-8,0.325
66,-8,0,-1,1,-3,0,0,-4,0.33
67,7,36,17,-1,-4,-2,7,29,0.335
68,11,-26,-7,4,0,0,4,0,0.34
69,-15,-2,-5,8,2,-1,0,-3,0.34500000000000003
70,2,1,10,-2,0,0,-1,-10,0.35000000000000003
71,-1,-15,-10,5,3,1,4,11,0.355
72,-2,-2,3,-3,-8,-4,0,2,0.36
73,3,-11,-7,-6,2,3,-4,-8,0.365
74,-3,-1,1,-2,-3,-4,-1,-9,0.37
75,-9,6,-7,-9,-2,1,1,7,0.375
76,1,17,0,-5,-2,-1,0,4,0.38
77,3,3,-8,3,-3,-2,-2,-4,0.385
78,-7,5,11,3,-3,-3,-2,-11,0.39
79,-5,1,-8,1,6,-1,-1,8,0.395
80,4,10,-1,-2,-1,-1,-1,0,0.4
81,-2,5,6,14,6,0,-1,-5,0.405
82,-2,8,27,4,-3,2,0,-3,0.41000000000000003
83,-5,-7,-19,-16,-8,-4,0,2,0.41500000000000004
84,4,-3,-16,-6,-1,2,-1,1,0.42
85,0,-4,2,-7,-3,-2,-2,-2,0.425
86,-5,3,16,10,2,-3,-3,-3,0.43
87,1,2,7,3,-4,1,-1,3,0.435
88,-2,-5,3,3,3,1,0,-2,0.44
89,0,0,-4,-3,-2,-1,-1,-1,0.445
90,3,13,-5,-2,0,-1,-2,-3,0.45
91,2,4,26,14,2,0,1,3,0.455
92,-5,-12,-60,-20,-5,-2,0,0,0.46
93,-2,-1,26,3,1,1,-2,-1,0.465
94,-2,-8,-25,-7,-2,-1,0,-4,0.47000000000000003
95,-3,-5,17,0,-5,-4,-3,0,0.47500000000000003
96,3,12,30,10,6,0,1,0,0.48
97,2,5,-28,-2,0,2,3,-1,0.485
98,-7,-6,33,1,-2,-1,-3,-5,0.49
99,-3,-3,-4,11,3,0,0,2,0.495
100,1,7,29,-5,-4,0,0,1,0.5
101,-11,-10,-36,0,-1,-3,0,-4,0.505
102,-2,-5,-2,-10,-3,-1,-2,0,0.51
103,-1,3,18,5,2,0,1,2,0.515
104,-1,4,1,-4,0,-3,-2,0,0.52
105,2,1,27,3,2,2,0,1,0.525
106,-2,1,15,22,2,0,-1,0,0.53
107,-7,-19,-53,-23,-7,-3,-2,-2,0.535
108,3,5,14,-1,-1,2,2,1,0.54
109,-1,-3,-1,-5,-1,0,-2,-1,0.545
110,3,1,-29,-5,1,0,-2,-1,0.55
111,1,5,10,6,4,1,0,3,0.555
112,-1,-2,-13,0,-1,-2,-1,0,0.56
113,-1,0,-17,-6,-4,-3,-2,-1,0.5650000000000001
114,0,3,46,12,3,-1,1,-1,0.5700000000000001
115,2,15,13,2,1,2,1,0,0.5750000000000001
116,-7,-30,-85,-26,-11,-5,-2,-3,0.58
117,-1,-4,20,6,5,0,0,-1,0.585
118,-3,-14,-12,-4,-5,-4,-2,-3,0.59
119,-2,-1,5,-2,-3,-2,0,0,0.595
120,1,12,29,10,2,1,0,1,0.6
121,3,1,-7,-3,-1,1,0,-1,0.605
122,0,1,-14,-4,1,0,0,-1,0.61
123,0,-2,-2,1,0,-1,-1,0,0.615
124,0,-3,6,2,0,-1,-1,-1,0.62
125,-2,0,3,-1,-1,-2,1,-2,0.625
126,-2,0,-11,-3,0,-1,0,0,0.63
127,0,-6,-4,-1,-1,-1,-3,-1,0.635
128,0,-1,-6,-2,0,0,0,-1,0.64
129,-2,-4,3,-1,-1,-1,-2,1,0.645
130,1,0,-8,-5,-1,-1,-1,0,0.65
131,1,-7,-19,-6,-1,0,0,-1,0.655
132,-6,3,25,6,0,-1,1,-1,0.66
133,2,-1,3,3,0,-1,-2,-1,0.665
134,-2,-3,-9,-6,-3,0,1,0,0.67
135,0,-2,1,0,-1,-3,-1,-2,0.675
136,2,3,7,2,0,0,-2,-1,0.68
137,2,1,-6,-4,-2,-2,-1,-1,0.685
138,-2,-1,-5,-1,4,1,0,0,0.6900000000000001
139,0,2,-2,-1,-4,-2,0,-1,0.6950000000000001
140,-1,4,6,4,3,-1,-1,-3,0.7000000000000001
141,-3,-6,-1,0,0,0,0,-1,0.705
142,2,-1,-9,3,1,-1,0,0,0.71
143,-3,-5,-1,-9,-3,1,-1,-1,0.715
144,-1,-1,2,0,-4,-2,-3,0,0.72
145,-1,-1,3,1,1,0,-3,0,0.725
146,-1,-2,-3,0,-2,-2,0,-1,0.73
147,-2,-1,-3,1,1,-1,-1,0,0.735
148,1,-1,0,-5,-2,0,2,3,0.74
149,-1,-3,-1,0,-4,-2,2,9,0.745
150,0,0,-6,-9,0,1,-5,-7,0.75
151,4,-5,-5,1,4,-1,-5,-14,0.755
152,-6,-1,4,4,0,0,-1,-1,0.76
153,-1,3,-1,-1,0,-1,-3,-10,0.765
154,0,2,-4,-3,-6,-1,0,6,0.77
155,1,-3,-3,-1,-1,-1,1,7,0.775
156,2,0,0,2,0,-1,-1,-1,0.78
157,-1,-4,2,0,-3,-1,1,4,0.785
158,3,2,-1,1,3,-2,0,-1,0.79
159,-8,1,3,0,0,0,1,-3,0.795
160,2,-3,0,3,4,2,4,13,0.8
161,1,4,-2,-1,-5,-3,-5,-2,0.805
162,-1,-1,0,-3,-3,0,-4,-5,0.81
163,0,0,-1,0,1,0,4,8,0.8150000000000001
164,-1,-4,-3,-4,-3,-2,-3,-2,0.8200000000000001
165,-1,1,-3,-2,0,-3,-3,-11,0.8250000000000001
166,-5,-2,-2,0,2,0,-6,-12,0.8300000000000001
167,-3,2,-1,3,1,-1,-3,-6,0.835
168,0,-3,0,-6,-2,0,1,8,0.84
169,1,0,0,-1,-2,-2,2,1,0.845
170,0,1,-1,6,-1,1,4,8,0.85
171,-2,0,0,-2,-1,-1,1,4,0.855
172,0,1,-2,-2,-3,-1,-2,-7,0.86
173,1,-1,-1,1,1,0,0,3,0.865
174,1,-1,-4,-4,-1,0,0,-1,0.87
175,1,-1,1,4,-1,-2,-3,2,0.875
176,-3,1,1,-5,-6,-2,0,-7,0.88
177,-4,1,-2,4,2,3,0,-3,0.885
178,1,-5,-3,-9,-1,2,1,5,0.89
179,1,-1,-4,-8,-4,0,-2,-4,0.895
180,0,-3,-3,2,0,-2,-3,-6,0.9
181,0,-1,1,0,-2,-1,-1,0,0.905
182,-1,0,1,2,0,-3,-1,-2,0.91
183,-2,0,-2,4,-3,0,0,0,0.915
184,-2,-1,2,-3,-1,-1,-3,-4,0.92
185,1,-4,-1,-1,1,0,1,1,0.925
186,-3,0,2,4,0,-1,1,0,0.93
187,1,7,-1,-6,-4,-2,-1,-2,0.935
188,1,-6,-1,6,-6,-4,-1,4,0.9400000000000001
189,0,-4,-3,0,6,1,-1,-2,0.9450000000000001
190,-2,-6,-3,-12,-1,2,-1,1,0.9500000000000001
191,3,-4,-2,1,2,-1,-2,9,0.9550000000000001
192,-4,-2,-2,-1,0,0,-4,-20,0.96
193,-3,1,0,-5,-4,-4,-3,1,0.965
194,0,-4,1,6,-1,-3,2,-1,0.97
195,-1,0,-1,3,1,-1,2,12,0.975
196,5,-3,-3,-9,-3,-2,0,-9,0.98
197,2,0,-1,-8,-4,-1,1,10,0.985
198,-1,3,1,1,-2,-2,-6,-24,0.99
199,-1,-1,-2,-5,0,0,2,-2,0.995
200,-1,1,0,7,3,1,3,7,1.0
201,-2,0,-1,2,0,1,1,-10,1.0050000000000001
202,0,1,3,-3,0,0,-1,6,1.01
203,-1,-6,-3,0,0,-2,-2,-4,1.0150000000000001
204,-2,7,0,1,2,-1,-2,1,1.02
205,-2,-8,-3,-2,-3,-1,0,0,1.025
206,-2,2,-3,-2,-4,-1,0,8,1.03
207,-1,0,0,-5,1,0,0,-7,1.035
208,-3,-3,-1,-1,0,-1,0,5,1.04
209,-3,1,0,3,2,0,-1,-1,1.045
210,-1,-4,0,6,0,-3,1,9,1.05
211,-2,-3,-1,-7,-3,0,0,-12,1.055
212,2,0,-1,-5,0,1,0,15,1.06
213,-1,0,-2,0,-4,-3,-9,-30,1.065
214,-3,-1,-3,-4,-4,-1,-2,-2,1.07
215,-3,-1,-2,6,1,1,0,-2,1.075
216,0,0,-1,4,0,0,0,5,1.08
217,-1,1,1,-3,1,2,2,6,1.085
218,2,1,-1,-1,-3,-1,2,6,1.09
219,-2,1,1,1,-6,-3,-2,4,1.095
220,0,-2,-2,-2,-1,0,-5,-16,1.1
221,2,-1,-1,1,0,0,0,5,1.105
222,-2,0,-1,-2,0,-1,2,-6,1.11
223,-2,-2,1,0,1,-1,-3,4,1.115
224,-2,-4,-2,-2,-3,-2,0,-4,1.12
225,0,2,0,3,-1,-2,-3,0,1.125
226,0,-4,-6,-10,-3,-1,-1,3,1.1300000000000001
227,-1,0,1,1,1,0,-1,-4,1.135
228,-1,-2,-1,-1,2,0,-1,-2,1.1400000000000001
229,0,1,2,-1,-3,-2,3,3,1.145
230,2,0,-2,3,-1,-1,1,7,1.1500000000000001
231,-1,-4,-2,8,5,0,-3,-12,1.155
232,-4,0,-2,-6,-4,0,-3,-3,1.16
233,0,-1,-2,-4,3,2,3,6,1.165
234,-1,0,1,2,-1,-3,-1,-7,1.17
235,-1,0,-1,-7,-3,-4,-1,2,1.175
236,-2,0,1,4,-1,-4,-1,3,1.18
237,-2,13,-1,-3,-2,-3,-1,-3,1.185
238,0,8,1,3,3,0,2,3,1.19
239,3,-1,-2,3,-2,-2,0,4,1.195
240,-2,-5,-5,-8,3,4,-1,1,1.2
241,-4,-7,-2,-1,-1,-2,-7,-19,1.205
242,-5,-3,-1,-2,-1,-1,-3,-6,1.21
243,0,-3,0,-1,-3,-3,-1,2,1.215
244,2,-1,0,2,0,-1,0,1,1.22
245,3,-4,-1,-3,-4,-2,0,6,1.225
246,-3,-5,1,9,7,2,0,1,1.23
247,-3,0,-2,-6,0,1,-1,-4,1.235
248,0,2,0,0,-3,-2,1,3,1.24
249,-1,-3,-2,-3,-3,0,1,1,1.245
250,1,-3,-2,-3,-3,-3,-4,-4,1.25
251,0,-2,-1,0,-1,0,-2,1,1.2550000000000001
252,1,2,1,2,2,0,0,-5,1.26
253,2,4,-1,0,-2,-1,-1,2,1.2650000000000001
254,1,-5,-2,-2,-5,-2,-2,0,1.27
255,0,1,1,-3,2,0,5,15,1.2750000000000001
256,0,0,-2,-1,-1,-1,-7,-14,1.28
257,-5,-2,-3,-4,1,0,-6,-4,1.285
258,0,0,-1,-2,-1,-1,-2,0,1.29
259,-1,1,0,-1,-1,-1,-2,-5,1.295
260,0,-1,1,2,-3,0,5,10,1.3
261,3,-4,-4,-1,1,-2,0,5,1.305
262,-3,4,1,-3,0,0,-1,-6,1.31
263,1,7,-1,0,-2,-1,-2,1,1.315
264,1,7,-5,-4,-4,-2,-2,-2,1.32
265,-2,2,2,3,3,0,-3,-2,1.325
266,0,3,0,-3,-3,-1,-2,1,1.33
267,-2,-2,-1,2,2,0,0,-5,1.335
268,-1,-5,-1,-4,1,0,-1,-1,1.34
269,-2,-2,1,-2,-4,-1,0,1,1.345
270,-1,-3,2,0,-1,-1,0,0,1.35
271,0,-4,-2,-2,-2,0,-2,-3,1.355
272,-2,-3,1,-1,-1,-1,-2,-2,1.36
273,-2,-4,0,2,-1,1,1,3,1.365
274,2,-2,-3,-3,0,0,-1,-2,1.37
275,-1,-4,-2,1,-2,-2,-2,-5,1.375
276,-4,-5,0,-1,-1,0,1,-1,1.3800000000000001
277,-1,-4,1,-1,-1,0,0,0,1.385
278,-1,-5,-2,-2,-4,-3,-2,0,1.3900000000000001
279,-2,-1,-3,-1,5,2,0,-2,1.395
280,-1,0,0,3,1,-1,1,0,1.4000000000000001
281,1,-2,-1,-3,-2,-2,0,2,1.405
282,2,-1,-3,-3,-3,0,-3,-3,1.41
283,-2,-2,1,2,-4,-4,-1,-2,1.415
284,-3,-1,1,3,6,2,-2,0,1.42
285,-1,0,-2,-5,-6,-1,1,-1,1.425
286,-2,0,-2,-2,0,0,0,2,1.43
287,-2,-1,0,-1,0,0,-1,-1,1.435
288,1,-1,-3,0,-3,-1,-2,0,1.44
289,-2,0,0,2,-1,-2,0,-2,1.445
290,-2,1,-1,-1,-2,0,-1,-1,1.45
291,0,-4,-1,-1,-2,-1,-2,-2,1.455
292,-6,-2,3,1,-1,-1,0,-1,1.46
293,-1,-1,-2,-2,3,-1,0,2,1.465
294,-2,-1,-1,-2,-2,-1,1,-1,1.47
295,1,1,-1,4,3,-1,0,-1,1.475
296,2,-1,-1,4,1,-1,-2,-1,1.48
297,0,-5,-2,-2,3,1,0,-1,1.485
298,0,0,-1,-2,-1,-1,-2,-3,1.49
299,-2,2,-3,-8,-6,-1,0,-1,1.495
300,-2,2,0,-4,-4,-4,-1,0,1.5
301,0,0,0,4,2,0,-2,0,1.5050000000000001
302,-1,-2,-3,-1,-2,-2,0,-2,1.51
303,-3,2,2,0,-2,0,0,0,1.5150000000000001
304,2,3,0,-1,-2,-3,1,0,1.52
305,0,1,-1,0,0,0,-1,-1,1.5250000000000001
306,1,-4,0,1,2,0,0,0,1.53
307,-2,0,0,-2,-1,-2,-1,-1,1.5350000000000001
308,-1,-2,-2,-2,0,-1,-1,0,1.54
309,-1,-1,-1,-2,-5,-4,-1,-1,1.545
310,0,1,-1,3,5,1,-2,-1,1.55
311,2,2,1,5,4,0,0,-1,1.555
312,-1,-4,-4,-3,1,2,0,-1,1.56
313,1,-3,-5,-1,0,0,-2,-1,1.565
314,-4,0,0,-7,-4,-2,0,-2,1.57
315,-1,-2,0,-3,-2,-1,-1,-3,1.575
316,2,-1,-1,0,0,-1,-1,0,1.58
317,-1,2,3,3,-1,-2,0,-1,1.585
318,-2,1,0,3,-2,-2,0,1,1.59
319,-1,-2,-1,-5,-3,0,-3,-1,1.595
320,-3,-6,-2,-1,-1,-1,1,0,1.6
321,-4,2,3,1,2,1,0,-1,1.605
322,-4,0,2,2,1,-1,0,-1,1.61
323,-2,-2,-4,1,-2,-1,2,0,1.615
324,0,-2,-3,-3,-1,0,-2,-2,1.62
325,1,1,0,-2,-3,-1,0,-1,1.625
326,-1,1,-2,-1,1,-1,0,0,1.6300000000000001
327,0,-6,0,-4,0,-3,-1,-1,1.635
328,-1,-1,-1,2,2,0,-1,1,1.6400000000000001
329,0,-1,-2,1,1,1,-1,-1,1.645
330,4,1,-3,-5,-4,-2,-1,-1,1.6500000000000001
331,-1,-1,-2,-1,-1,-1,-2,-2,1.655
332,2,1,-4,-3,-3,-3,-3,-2,1.6600000000000001
333,-3,-2,-1,1,-2,-1,-1,-2,1.665
334,0,-1,0,2,-1,0,-2,-1,1.67
335,0,-1,-1,2,-1,0,0,1,1.675
336,2,0,-4,-2,-3,-1,-1,-3,1.68
337,0,1,-1,-8,-2,-2,-1,-1,1.685
338,0,-2,0,7,5,-1,1,-2,1.69
339,-2,1,-3,-7,-1,1,-1,-1,1.695
340,-2,-1,-1,2,1,0,-1,0,1.7
341,-1,-2,-2,-2,-3,-1,-2,-1,1.705
342,-1,-4,-1,-3,-1,1,-2,0,1.71
343,2,-5,-2,3,-1,-2,-2,-1,1.715
344,-2,2,2,0,0,1,0,-1,1.72
345,-3,1,1,-1,1,1,2,-1,1.725
346,-2,-8,-2,-3,-3,-2,1,-1,1.73
347,1,2,-3,3,6,0,0,0,1.735
348,-1,3,1,-1,-1,0,0,-1,1.74
349,0,-4,-2,0,2,0,0,0,1.745
350,0,0,0,0,-3,-2,-1,-1,1.75
351,-2,1,1,-2,-3,-1,-1,-1,1.7550000000000001
352,-1,-1,0,-4,-3,-1,-1,1,1.76
353,1,0,-1,8,5,-1,-1,0,1.7650000000000001
354,2,0,-4,-7,-3,1,0,0,1.77
355,0,-3,2,5,1,-1,-1,1,1.7750000000000001
356,-1,0,-1,-4,-3,-1,-1,-1,1.78
357,1,0,-3,-2,-3,1,0,0,1.7850000000000001
358,0,0,0,0,1,-1,-1,0,1.79
359,-1,0,-3,-2,-2,-1,0,-2,1.795
360,0,-2,-1,0,-1,-1,0,-1,1.8
361,0,1,0,-2,-3,-1,-3,-2,1.805
362,-1,-1,-3,0,0,-2,-1,-1,1.81
363,-3,0,1,2,-3,0,0,-1,1.815
364,1,-4,-3,-2,-4,-2,-2,-1,1.82
365,-6,4,2,2,4,3,2,0,1.825
366,-2,-3,1,3,-3,-1,-1,1,1.83
367,2,-6,-1,1,2,0,-1,-2,1.835
368,-1,-3,-4,-6,-2,0,1,-2,1.84
369,3,-1,-1,-1,-4,-3,0,-1,1.845
370,0,2,-2,-3,1,-1,1,0,1.85
371,0,2,1,-1,-4,-1,-1,1,1.855
372,-2,-6,-2,-1,-1,0,-1,-1,1.86
373,-2,-5,-1,-2,0,1,-2,-1,1.865
374,0,-1,1,4,2,1,-1,-1,1.87
375,2,-1,-2,-3,0,-2,-1,0,1.875
376,0,2,1,2,1,-2,0,1,1.8800000000000001
377,-1,-1,-3,-2,-3,-3,-2,-1,1.885
378,0,-2,-3,-3,-1,0,-2,0,1.8900000000000001
379,-2,2,0,0,-1,0,0,-2,1.895
380,0,-2,0,1,-1,-1,-1,-2,1.9000000000000001
381,-4,-2,1,-1,-2,-2,0,0,1.905
382,0,6,1,-1,-2,-2,0,-1,1.9100000000000001
383,1,-4,-3,1,4,0,-1,-1,1.915
384,-2,4,-1,-1,-1,1,0,1,1.92
385,3,-3,-3,-4,-3,-1,-2,1,1.925
386,-1,-2,1,-1,-3,0,0,-1,1.93
387,-2,-1,0,-4,-2,-3,-1,0,1.935
388,-1,0,2,1,-2,-1,0,-1,1.94
389,-2,-3,0,2,0,0,-1,-1,1.945
390,-1,-7,-3,-3,-3,-2,-1,-1,1.95
391,-2,-1,-2,-3,-2,-2,0,-1,1.955
392,0,-2,-1,1,1,-1,-3,0,1.96
393,-1,0,1,-2,-3,-1,-1,2,1.965
394,0,-2,-2,0,2,1,-1,-1,1.97
395,-1,-1,-4,-4,-4,-1,-1,-1,1.975
396,-4,-1,-2,-1,2,-2,0,-1,1.98
397,-1,-2,-3,1,-3,1,-1,-1,1.985
398,0,-1,-2,-1,-2,-2,-2,-1,1.99
399,-1,-1,0,0,0,0,-2,0,1.995
400,0,3,-4,0,-2,1,0,1,2.0
401,0,0,0,0,0,-1,1,-1,2.005
402,0,-1,0,-2,0,0,0,-2,2.0100000000000002
403,-1,-2,-3,-1,-3,-2,-1,-1,2.015
404,-4,-2,3,3,-1,0,-1,-1,2.02
405,-2,-1,2,2,1,-2,-1,-2,2.025
406,-1,0,-1,-3,0,1,-1,1,2.0300000000000002
407,-1,2,-1,-2,0,-2,-1,-1,2.035
408,-3,-7,-2,-2,-2,-1,-1,-1,2.04
409,0,1,-3,-2,2,2,0,-1,2.045
410,0,0,0,5,5,0,-1,-2,2.05
411,0,-5,-3,1,-4,-1,-2,-1,2.055
412,2,0,-1,-7,-2,-1,-2,0,2.06
413,3,0,-3,-2,-3,-2,-1,-2,2.065
414,-2,-2,-3,-3,-3,-2,-1,-1,2.07
415,-3,4,0,-1,0,1,-1,-2,2.075
416,0,1,0,3,-1,-2,0,0,2.08
417,-3,-4,0,-2,-2,-3,0,-2,2.085
418,0,1,-2,-1,0,-1,0,0,2.09
419,1,-3,1,1,0,-1,1,0,2.095
420,1,-3,0,-1,0,-2,0,-2,2.1
421,0,3,1,5,0,0,-1,1,2.105
422,-5,-2,-1,-6,-5,-2,0,-2,2.11
423,0,-1,-2,1,1,1,-1,0,2.115
424,0,2,-2,0,0,2,1,-1,2.12
425,0,-1,-2,-4,-1,-1,-2,0,2.125
426,-1,1,-1,1,-1,0,-1,0,2.13
427,-1,-1,1,-3,-3,-2,-2,0,2.1350000000000002
428,-2,3,0,1,-1,-2,-1,-1,2.14
429,-2,-3,-1,2,0,-2,-2,0,2.145
430,-2,-7,-2,1,1,1,0,-1,2.15
431,-1,1,-2,-4,-1,0,-1,-2,2.1550000000000002
432,-1,-4,-3,1,2,-1,-1,-1,2.16
433,-1,5,0,-3,-2,0,-1,-1,2.165
434,1,-3,-1,0,-2,-1,-1,0,2.17
435,0,-4,-3,1,1,-2,0,-1,2.1750000000000003
436,-1,-1,1,-3,-3,-2,-3,-1,2.18
437,-1,-1,3,2,0,-1,-3,0,2.185
438,2,2,-3,-5,1,2,1,1,2.19
439,-1,-2,2,5,1,0,0,-2,2.195
440,-3,-1,0,-6,1,-1,-1,-1,2.2
441,0,-3,-3,-3,-2,-2,0,-1,2.205
442,1,0,2,2,-2,-2,-2,0,2.21
443,-1,1,-1,-2,-1,1,-1,-2,2.215
444,1,-3,-2,-1,-1,-3,-1,-1,2.22
445,-1,-1,-1,-1,-1,-1,0,0,2.225
446,-3,-4,-2,1,-1,-1,-1,-1,2.23
447,1,-1,0,-1,-1,0,-1,-1,2.235
448,-2,-1,-1,-2,-1,0,1,-1,2.24
449,-2,1,-1,-1,0,-1,0,-2,2.245
450,-1,1,-1,-2,-1,-3,-1,0,2.25
451,2,-3,-3,-2,-3,0,1,0,2.255
452,-2,1,2,2,-2,-2,0,-1,2.2600000000000002
453,-4,3,3,-1,-2,0,0,1,2.265
454,0,-4,-1,8,5,0,-1,-1,2.27
455,0,0,2,-6,1,0,1,0,2.275
456,-2,0,-1,0,-1,1,0,0,2.2800000000000002
457,2,-5,-3,0,-2,-2,-1,-2,2.285
458,-1,0,-2,-5,-2,2,-2,-1,2.29
459,-1,-1,1,0,-1,-2,-1,-1,2.295
460,2,-1,-4,-1,0,0,1,0,2.3000000000000003
461,0,-3,-2,-3,0,-3,0,-2,2.305
462,-1,0,2,-1,-2,-3,-2,-1,2.31
463,1,-2,-4,-2,-2,1,-1,0,2.315
464,-4,1,1,-3,-3,-1,-1,-2,2.32
465,-2,-3,-3,4,5,2,-1,0,2.325
466,-2,-3,0,1,-3,-2,-1,-1,2.33
467,-2,-3,-2,-3,-1,-2,0,-2,2.335
468,0,0,-2,0,0,-2,-1,-2,2.34
469,-2,-1,0,2,-1,-1,0,-2,2.345
470,0,-2,0,-4,-1,-2,-2,0,2.35
471,1,1,-4,-6,-3,-1,-1,1,2.355
472,-1,-1,-2,1,1,1,1,0,2.36
473,-1,-4,-2,-3,-2,-1,0,0,2.365
474,0,1,0,1,0,1,0,-2,2.37
475,-3,-2,0,2,-1,0,-1,-1,2.375
476,0,0,0,1,0,-1,-1,0,2.38
477,1,-1,0,-2,-1,-1,-2,-1,2.3850000000000002
478,-1,-2,1,5,-1,-2,-1,0,2.39
479,-3,-2,-1,-5,-1,-1,-2,-1,2.395
480,0,0,2,-4,0,2,-2,0,2.4
481,-1,0,-2,-3,-1,2,0,-1,2.4050000000000002
482,0,2,-1,-1,-1,-1,0,-2,2.41
483,-4,0,0,8,6,2,1,0,2.415
484,-2,0,-1,4,0,-1,-1,-1,2.42
485,2,3,-2,-3,-4,-1,-1,-1,2.4250000000000003
486,0,-2,-4,-1,-1,-1,0,-2,2.43
487,3,4,1,1,-4,-4,-2,-1,2.435
488,-3,2,0,-11,-1,-3,0,-1,2.44
489,0,-2,-4,-1,1,0,-2,0,2.445
490,-2,0,-1,1,0,0,-1,0,2.45
491,-2,0,0,3,1,-1,-1,-2,2.455
492,-1,-2,-1,4,-1,-2,-1,-1,2.46
493,-1,-1,-1,-1,-2,-2,-1,-1,2.465
494,-2,1,-2,-1,0,0,-2,-3,2.47
495,0,0,-1,-4,-2,-1,-1,-1,2.475
496,-1,-5,-1,-4,-4,-2,-1,-1,2.48
497,-2,-3,1,-2,-2,-1,1,0,2.485
498,-2,0,-1,-1,2,0,1,0,2.49
499,1,1,-2,1,-3,0,0,-1,2.495
500,-3,2,2,5,2,-1,-1,0,2.5
501,-1,-3,-2,1,-2,-1,-1,-1,2.505
502,-1,-2,-1,-8,-8,-2,-1,0,2.5100000000000002
503,-2,1,2,-2,3,0,1,0,2.515
504,1,-5,-5,-1,-1,3,0,-1,2.52
505,-3,-1,1,2,-1,-1,-2,-1,2.525
506,-1,-1,-1,-1,-1,-2,-1,0,2.5300000000000002
507,2,-1,-5,-4,-4,-2,0,-2,2.535
508,-1,1,1,2,-2,-1,0,0,2.54
509,1,2,-2,-1,2,0,1,-2,2.545
510,0,-4,-5,-5,-5,-3,-1,-2,2.5500000000000003
511,0,0,-2,2,2,1,0,0,2.555
512,0,-2,-1,2,-1,-3,-1,-2,2.56
513,-1,-3,0,3,2,-3,-1,0,2.565
514,-1,3,2,1,0,0,-1,-1,2.57
515,-3,-2,-1,-2,1,-2,0,0,2.575
516,-2,3,3,-3,-1,1,-1,0,2.58
517,-3,3,-1,-6,-3,0,1,-2,2.585
518,-1,-2,-1,2,1,-1,-1,-1,2.59
519,-2,-2,2,-2,-1,-1,0,-1,2.595
520,3,-1,-2,3,-1,1,-2,-1,2.6
521,0,1,-1,1,0,0,-1,-1,2.605
522,0,0,-1,-1,1,-1,-1,-1,2.61
523,-1,-3,-3,-2,-4,-1,-1,-1,2.615
524,2,-1,-1,-4,-2,-3,-1,0,2.62
525,-1,1,-1,0,-2,0,0,-1,2.625
526,-1,3,0,0,1,-1,0,0,2.63
527,-1,0,0,3,2,-1,-1,0,2.6350000000000002
528,0,-1,-1,-2,1,-2,0,-2,2.64
529,-5,-1,0,0,1,0,0,0,2.645
530,-2,-1,-1,2,-2,-2,-1,-1,2.65
531,-1,-1,-2,-3,-1,0,1,0,2.6550000000000002
532,0,-8,-5,-6,-1,-2,-1,-2,2.66
533,2,1,0,0,1,-1,0,-1,2.665
534,0,-1,-2,-5,-1,0,0,1,2.67
535,-2,-1,1,4,0,-2,-1,-2,2.6750000000000003
536,-1,-2,-2,-3,0,0,0,-1,2.68
537,0,-2,-3,-4,-3,-2,-1,0,2.685
538,0,-1,1,2,1,-1,-1,-2,2.69
539,-2,0,1,-2,-5,-1,-1,-1,2.695
540,0,0,0,1,-1,-2,-2,-1,2.7
541,1,-4,-2,1,1,1,0,0,2.705
542,-1,2,-1,-2,-2,3,-2,0,2.71
543,-2,-5,-1,-2,0,1,0,-2,2.715
544,-2,0,0,-2,-4,-3,-2,0,2.72
545,0,-2,-1,1,3,-2,-1,0,2.725
546,0,-2,-2,2,0,-2,-1,-1,2.73
547,-1,1,-3,-2,-1,-1,0,-1,2.735
548,-3,-3,-1,2,3,2,0,0,2.74
549,-5,-2,0,-4,-1,-2,-1,-3,2.745
550,0,0,-1,-3,0,-1,2,0,2.75
551,-1,0,0,1,0,-1,-2,-1,2.755
552,-2,-4,3,2,-3,-1,-1,0,2.7600000000000002
553,1,0,-2,-4,-3,-1,-1,-1,2.765
554,0,-2,2,1,-3,0,-2,-1,2.77
555,1,0,1,-3,0,0,-1,0,2.775
556,-2,-2,-7,0,-1,-1,0,0,2.7800000000000002
557,-1,-1,1,0,1,0,-1,1,2.785
558,-1,-1,0,-1,1,-2,0,0,2.79
559,1,2,0,4,1,0,-1,1,2.795
560,1,0,2,-5,-1,0,0,0,2.8000000000000003
561,1,-2,-1,-1,-2,-3,-3,-1,2.805
562,-2,-1,0,-3,0,-1,-1,-1,2.81
563,-2,-2,-1,2,1,-2,0,-1,2.815
564,-2,2,-2,-3,-2,-1,-2,-1,2.82
565,-1,-4,-1,0,-3,1,0,-2,2.825
566,-2,-3,0,1,3,0,-1,-1,2.83
567,-3,-2,-2,-3,-5,-2,-3,-2,2.835
568,0,0,-3,-1,-2,0,2,0,2.84
569,0,-2,0,0,1,-1,-1,-1,2.845
570,-4,-2,-2,1,-2,-2,0,-1,2.85
571,-1,2,0,-3,-3,-2,-1,0,2.855
572,1,-1,-1,2,3,-1,0,-2,2.86
573,0,0,0,-2,-1,1,-1,1,2.865
574,-1,-1,-1,4,0,-3,-2,-2,2.87
575,0,-1,-4,-9,-1,0,0,0,2.875
576,0,2,0,0,-3,-2,-1,0,2.88
577,-2,0,-1,0,-1,-1,-1,-1,2.8850000000000002
578,1,-2,-1,-1,1,2,0,0,2.89
579,-1,-2,1,0,-3,0,-1,-1,2.895
580,0,2,1,3,-1,0,-2,-1,2.9
581,-1,-5,-1,1,1,-1,0,-1,2.9050000000000002
582,-1,-1,-2,-1,-2,-1,-1,0,2.91
583,-2,-2,0,-2,-1,-2,0,-1,2.915
584,0,0,-1,-1,1,1,-1,-1,2.92
585,-1,2,1,0,-2,0,-1,0,2.9250000000000003
586,0,-1,-1,-3,-4,-1,-1,0,2.93
587,-1,2,2,8,6,-1,-1,0,2.935
588,-3,-4,-1,-2,-4,0,-1,0,2.94
589,0,-2,-2,1,-1,-2,0,1,2.945
590,2,0,-1,-4,-2,-1,1,-1,2.95
591,2,0,-2,-3,-1,-1,-1,0,2.955
592,-2,-1,0,1,1,0,0,-2,2.96
593,-2,-2,-1,2,-3,-2,-2,0,2.965
594,0,-2,-3,-3,2,0,0,-1,2.97
595,-4,1,1,1,-3,-1,0,-2,2.975
596,2,-2,-3,-1,1,-2,-1,0,2.98
597,2,-1,-2,-8,-4,1,-1,-1,2.985
598,-2,0,1,0,0,-2,-1,-1,2.99
599,1,-1,-1,0,-4,-2,-1,-1,2.995
600,1,-2,-1,2,2,0,1,-1,3.0
601,0,-2,-2,1,8,0,0,0,3.005
602,1,1,-1,-1,1,2,1,-2,3.0100000000000002
603,0,-1,-1,-2,-1,-1,-1,-1,3.015
604,-1,2,1,1,-5,-2,-1,-1,3.02
605,1,-2,-3,-3,-5,-4,-2,0,3.025
606,-2,1,-2,-1,-3,-1,-1,-1,3.0300000000000002
607,1,2,0,-1,0,-2,-1,0,3.035
608,-2,-4,0,2,0,1,0,0,3.04
609,-1,0,0,-2,0,-1,0,-1,3.045
610,-1,1,1,-3,-2,-3,-1,-1,3.0500000000000003
611,1,-1,-3,-3,0,0,0,-1,3.055
612,0,-1,-3,-3,-1,-1,-2,-2,3.06
613,0,2,0,2,-1,0,-1,0,3.065
614,-2,0,-1,1,-1,-1,-1,-2,3.0700000000000003
615,-3,-2,0,1,0,-1,-2,-2,3.075
616,-4,0,0,1,0,0,0,-1,3.08
617,-2,-2,-1,-3,-2,-3,-2,-2,3.085
618,1,0,-4,-2,-2,0,-1,1,3.09
619,-1,-4,-2,0,2,2,0,-1,3.095
620,0,-5,-1,-2,-2,-1,-1,-1,3.1
621,-1,2,0,0,-2,0,0,-1,3.105
622,-2,-3,-1,0,-2,-1,0,-1,3.11
623,0,-1,-2,-3,-3,1,0,0,3.115
624,0,2,-1,-2,-2,-3,-2,-1,3.12
625,0,6,0,2,-2,-1,1,-3,3.125
626,-1,-4,0,-6,3,1,0,1,3.13
627,-1,-3,-3,2,-3,0,-1,-1,3.1350000000000002
628,-1,-2,-3,1,1,-1,-3,-1,3.14
629,-2,1,-1,-3,-4,-1,-2,-1,3.145
630,0,2,-3,0,-1,-3,-1,-1,3.15
631,-1,0,2,-3,-2,-2,-1,1,3.1550000000000002
632,-1,-3,-1,-2,1,-1,0,-1,3.16
633,-3,-6,-2,0,-1,0,-1,-1,3.165
634,0,-1,0,0,-2,-2,-1,-1,3.17
635,-4,0,0,-2,1,0,1,-2,3.1750000000000003
636,-1,1,3,-1,0,0,1,0,3.18
637,0,1,-1,1,1,-2,-1,0,3.185
638,1,-4,-1,-2,0,0,-1,-1,3.19
639,0,0,0,1,0,0,-1,-2,3.1950000000000003
640,-3,0,0,0,-1,1,0,1,3.2
641,2,-1,-4,-4,-3,-2,1,0,3.205
642,-1,-1,-2,3,1,-2,0,0,3.21
643,-1,-3,0,0,-1,-3,-2,0,3.215
644,1,-1,-3,0,0,1,-1,-1,3.22
645,0,-2,-1,-1,0,0,-1,0,3.225
646,0,0,-1,-2,-1,0,-1,-1,3.23
647,-1,-5,-1,-3,-1,0,0,-1,3.235
648,0,-2,-1,-1,-3,-1,-2,-1,3.24
649,-3,-1,0,-4,-3,0,-2,1,3.245
650,-1,1,-1,3,3,2,-1,-1,3.25
651,-3,0,-1,0,-2,0,-1,0,3.255
652,-1,3,0,4,0,-1,-2,0,3.2600000000000002
653,0,-3,-1,-9,-4,-1,1,-2,3.265
654,-1,-5,-3,0,-1,-2,-2,-2,3.27
655,1,0,1,-4,-2,0,-2,0,3.275
656,1,-2,-2,-2,-3,-1,0,-1,3.2800000000000002
657,-1,-3,1,7,2,-1,0,0,3.285
658,0,0,2,0,2,-1,-2,1,3.29
659,0,1,-3,3,1,-2,-1,-1,3.295
660,1,-1,0,-1,2,-2,-1,-2,3.3000000000000003
661,0,1,0,-1,0,0,-2,-2,3.305
662,1,0,-1,-1,-4,-2,0,-1,3.31
663,-1,-2,0,0,0,-1,-1,0,3.315
664,0,-1,-1,-7,-3,-1,0,-1,3.3200000000000003
665,0,0,-2,1,-1,-2,-1,0,3.325
666,-1,0,0,-2,-3,-1,0,1,3.33
667,3,1,-4,-1,1,0,0,0,3.335
668,-1,-1,-1,1,0,0,-1,-1,3.34
669,0,-1,1,-1,0,0,0,-2,3.345
670,-5,0,-2,-3,-3,-1,-1,-1,3.35
671,1,-2,0,-1,-3,0,-1,-1,3.355
672,-4,-2,-1,-1,-1,0,-1,-1,3.36
673,1,-2,-2,0,-1,0,-2,0,3.365
674,0,3,0,1,-2,-2,-2,-1,3.37
675,-2,-4,-3,-9,-3,-2,-1,-2,3.375
676,3,2,-4,3,-1,-1,0,-1,3.38
677,-1,-1,-1,1,2,0,-1,0,3.3850000000000002
678,-1,-1,-2,0,-3,-1,0,-1,3.39
679,-1,0,-1,-1,-4,-1,0,-1,3.395
680,-2,0,1,-4,-2,-2,-1,-1,3.4
681,1,-1,-2,-2,-2,-1,0,-1,3.4050000000000002
682,0,-2,0,0,-1,-2,0,0,3.41
683,-2,2,0,0,-1,-1,-1,-1,3.415
684,0,-9,-2,5,5,1,-2,0,3.42
685,-4,2,0,0,-2,0,-1,0,3.4250000000000003
686,-1,0,-3,-3,-1,0,1,0,3.43
687,-1,-1,-1,0,1,-1,-3,-1,3.435
688,-2,-1,-1,-3,-1,-1,0,0,3.44
689,-1,-3,-1,1,0,-1,-1,-2,3.4450000000000003
690,0,-4,-2,-2,-1,-2,0,-2,3.45
691,-5,-1,2,0,2,0,-1,0,3.455
692,3,2,-1,-4,-6,-4,-1,-1,3.46
693,-1,1,0,5,2,1,0,0,3.465
694,-1,0,-2,-1,4,2,0,-1,3.47
695,1,1,-1,7,3,0,1,1,3.475
696,-3,-7,-2,-5,0,1,0,1,3.48
697,-1,0,-2,-2,-3,0,-1,-1,3.485
698,1,-3,-2,-2,-4,-2,-1,-2,3.49
699,0,2,0,0,-4,-1,0,-1,3.495
700,-2,0,0,-1,-3,-3,-1,-2,3.5
701,-1,-1,0,-2,0,-1,-1,0,3.505
702,-2,-1,0,0,3,0,-1,-1,3.5100000000000002
703,0,-4,-2,2,2,-1,0,-2,3.515
704,-2,3,-2,-1,-2,-1,0,-1,3.52
705,-2,0,-3,-1,0,0,-1,0,3.525
706,0,-3,-4,-1,-2,-2,-2,0,3.5300000000000002
707,-1,0,-1,-5,-4,-1,-1,-2,3.535
708,1,5,-1,-4,-3,1,-1,0,3.54
709,-2,-4,0,-2,3,-1,1,0,3.545
710,3,4,-2,-4,-7,-1,0,-1,3.5500000000000003
711,0,0,1,0,3,0,0,0,3.555
712,0,-3,0,3,1,-3,-1,-1,3.56
713,2,-2,-1,-4,-1,0,-2,0,3.565
714,-7,1,4,1,-1,0,0,-2,3.5700000000000003
715,0,2,3,-3,-2,-1,-2,1,3.575
716,-2,-4,-2,-3,-1,-1,-2,-1,3.58
717,-3,1,1,4,3,1,0,-1,3.585
718,0,-2,-1,-2,-3,-2,-1,-1,3.59
719,-1,-2,-2,0,-1,-2,0,-1,3.595
720,-2,-2,1,0,-1,0,0,-1,3.6
721,0,-4,-2,-4,-3,-2,-2,-1,3.605
722,0,0,2,-1,2,0,0,0,3.61
723,0,-2,-1,-3,-1,-2,-2,0,3.615
724,0,-2,0,6,4,2,0,0,3.62
725,-1,-1,2,-4,-1,-1,-1,0,3.625
726,-2,4,2,2,0,1,0,0,3.63
727,1,-3,-2,-5,-4,-2,-1,0,3.6350000000000002
728,-2,0,2,0,-2,-3,-1,0,3.64
729,-1,-1,-4,-2,1,-1,-2,-1,3.645
730,-1,-4,-5,-1,-4,-1,0,-1,3.65
731,-2,-2,0,3,3,1,-1,0,3.6550000000000002
732,-1,1,-2,-1,-1,0,0,0,3.66
733,3,0,1,1,-1,-1,-2,-3,3.665
734,0,0,-3,-3,-1,-2,-3,1,3.67
735,-3,-1,-2,-3,0,0,-1,-2,3.6750000000000003
736,0,-1,2,-1,0,0,-2,-1,3.68
737,0,-3,-3,0,-2,-2,1,-1,3.685
738,-1,0,1,1,2,0,-2,0,3.69
739,2,1,0,1,-3,-1,0,0,3.6950000000000003
740,-1,0,0,3,0,-2,0,-2,3.7
741,-2,0,-2,2,0,-1,0,-1,3.705
742,-4,0,1,-7,-3,-1,0,-2,3.71
743,-1,-5,-4,-2,-1,-1,-1,0,3.715
744,0,0,-3,-8,-2,1,-2,-1,3.72
745,3,-4,-2,3,-3,-2,-1,0,3.725
746,-4,3,0,0,0,2,1,0,3.73
747,-1,1,1,2,-2,-1,-1,-2,3.735
748,-1,-1,0,0,-2,-3,0,0,3.74
749,-2,2,0,-2,-2,-1,-2,-1,3.745
750,1,-3,-1,-2,2,-2,-1,-1,3.75
751,1,0,-2,1,0,0,2,1,3.755
752,-5,0,-1,1,2,1,2,0,3.7600000000000002
753,-3,1,2,-1,1,-2,0,-2,3.765
754,5,-2,0,-1,-3,-3,-2,1,3.77
755,-1,0,0,-4,-2,-2,-3,-2,3.775
756,1,-1,-3,1,2,-1,-2,-1,3.7800000000000002
757,-2,0,-3,3,1,0,0,0,3.785
758,-1,-3,-1,1,0,-1,-2,0,3.79
759,0,-3,-2,-2,2,0,0,0,3.795
760,-2,-5,-2,-4,-3,0,-2,1,3.8000000000000003
761,-1,2,-3,-6,1,1,-1,-2,3.805
762,2,-2,-3,4,-1,-1,-2,-2,3.81
763,-2,1,1,1,-3,-2,-1,-1,3.815
764,-1,2,0,-2,-4,-2,-2,-2,3.8200000000000003
765,-1,-4,-1,-1,0,-2,-1,0,3.825
766,2,-4,-3,-3,-1,0,1,-1,3.83
767,-1,2,0,2,1,0,-2,-3,3.835
768,-1,-4,-3,-4,-4,-1,0,0,3.84
769,0,0,-1,-3,-3,0,0,0,3.845
770,-2,-1,-1,-3,-2,0,-2,-1,3.85
771,0,-1,0,-3,-2,-1,-2,0,3.855
772,1,2,1,2,2,-1,-2,-1,3.86
773,0,-5,-3,-2,3,1,0,1,3.865
774,-4,-2,2,5,-4,-2,-1,-1,3.87
775,-1,-1,-1,-5,0,-2,0,-2,3.875
776,-2,-5,-2,3,1,2,0,0,3.88
777,1,0,1,-2,-4,-3,-1,0,3.8850000000000002
778,0,1,-1,-1,1,0,0,-1,3.89
779,-2,-3,0,-1,-4,-3,0,0,3.895
780,2,-2,-2,4,3,0,0,0,3.9
781,-3,3,2,-3,-3,0,0,0,3.9050000000000002
782,-2,-2,-3,-4,0,-3,0,-1,3.91
783,-2,0,-1,0,-1,-1,-2,0,3.915
784,2,0,-1,1,0,-1,-1,-2,3.92
785,-2,0,2,-1,-2,0,0,-1,3.9250000000000003
786,-1,-1,1,-1,-2,0,0,0,3.93
787,-1,-1,-1,-2,-2,0,-1,-2,3.935
788,-4,-1,2,-1,-1,0,0,1,3.94
789,0,0,-1,-2,-3,-2,-2,1,3.9450000000000003
790,-2,-1,-1,0,0,0,-1,-2,3.95
791,-1,-1,0,1,0,0,1,-1,3.955
792,-2,2,0,-5,-4,-1,-1,-2,3.96
793,-2,-1,-2,0,-1,-2,-3,0,3.9650000000000003
794,0,1,0,-1,1,0,0,-1,3.97
795,-1,-2,-3,1,-2,-1,0,-1,3.975
796,-3,-1,1,-4,-3,-2,-3,-1,3.98
797,-1,-1,0,-1,0,-2,-1,-1,3.985
798,-2,1,-1,-1,-1,-1,-1,0,3.99
799,-2,-2,0,-2,0,0,-1,1,3.995
800,-1,1,-3,-2,-3,-1,1,-1,4.0
801,-2,-4,-3,2,0,0,-1,-1,4.005
802,-3,-2,0,2,0,1,0,-3,4.01
803,2,0,-1,0,0,-1,0,-1,4.015
804,-1,-1,1,-4,-3,-1,-1,-1,4.0200000000000005
805,-1,2,0,-1,-2,-1,0,-1,4.025
806,-1,-1,-2,4,3,0,0,-2,4.03
807,-1,-1,-2,-4,-4,-2,-2,-1,4.035
808,1,-1,-1,-1,1,0,0,2,4.04
809,-1,-1,-3,-5,-3,0,-1,-1,4.045
810,-1,0,1,-2,0,-1,-1,1,4.05
811,-1,1,-4,1,-1,-1,-1,-3,4.055
812,-6,0,0,2,-3,-1,-1,-2,4.0600000000000005
813,1,1,0,-4,-2,-1,-1,-1,4.065
814,-1,2,0,2,5,2,1,-1,4.07
815,0,-3,-1,2,1,1,-1,-1,4.075
816,-3,-2,-2,-3,0,-2,-1,-2,4.08
817,1,-1,-1,1,-2,-2,-1,-1,4.085
818,1,-2,-3,-8,-6,-3,-1,-2,4.09
819,0,1,-1,1,2,-1,0,0,4.095
820,1,1,0,1,1,0,-2,-1,4.1
821,-1,-3,-1,0,1,2,1,0,4.105
822,0,-5,-3,-4,-3,1,-2,1,4.11
823,-4,1,2,1,-1,-2,-1,-1,4.115
824,0,-2,-2,-5,-1,-1,0,0,4.12
825,-2,-2,-3,-3,0,-3,0,-2,4.125
826,-1,2,0,0,-1,-1,-1,0,4.13
827,-2,-3,-2,0,1,0,0,0,4.135
828,-1,0,-1,2,-4,-2,-2,-1,4.14
829,-3,-1,3,8,3,0,1,1,4.1450000000000005
830,2,-4,-1,-5,-1,-1,-1,-1,4.15
831,2,-2,-3,-4,-5,-1,-1,-1,4.155
832,1,-1,0,3,3,0,-1,-2,4.16
833,-8,-2,2,1,0,-2,1,-1,4.165
834,-2,4,1,0,-2,-2,-1,-1,4.17
835,-1,-7,0,-2,-2,-1,-1,-1,4.175
836,0,-2,-2,0,0,0,-1,-1,4.18
837,2,0,-2,1,-2,1,-2,-2,4.1850000000000005
838,0,1,-3,-1,0,-1,0,0,4.19
839,-1,0,-1,-13,-4,0,0,-1,4.195
840,0,-2,-4,-3,-2,-1,-1,0,4.2
841,-2,-4,-3,0,-2,-2,-3,-1,4.205
842,-1,-2,-1,3,-1,-1,-1,0,4.21
843,3,0,-1,2,-1,-2,0,-1,4.215
844,3,-3,-2,-2,-4,-4,-2,1,4.22
845,0,1,-2,0,2,1,1,-1,4.225
846,-3,-3,0,-5,-3,0,-1,0,4.23
847,-3,-1,0,3,1,1,0,0,4.235
848,-1,0,-3,-1,-2,-1,0,-2,4.24
849,0,1,-1,-1,0,-1,-1,-1,4.245
850,1,2,1,2,0,-2,-1,-2,4.25
851,0,0,-2,-3,-2,-2,-1,0,4.255
852,-6,0,3,-1,-1,0,-1,0,4.26
853,0,-1,-1,-1,-1,0,0,-1,4.265
854,-4,-3,-2,4,0,0,0,-1,4.2700000000000005
855,-1,0,1,-7,1,1,-1,1,4.275
856,0,0,-2,-1,2,-1,0,-1,4.28
857,1,-3,-1,-2,0,0,-1,0,4.285
858,0,-1,-1,1,0,-1,-2,0,4.29
859,-1,-1,-1,3,-1,-3,-2,0,4.295
860,-2,1,0,0,-1,0,-1,0,4.3
861,0,-2,1,-3,-3,-1,-1,-2,4.305
862,1,0,-2,0,0,0,0,-1,4.3100000000000005
863,-2,2,1,7,3,-1,1,-1,4.315
864,2,0,-1,-1,-2,0,-1,-1,4.32
865,-2,-2,-1,-1,1,-1,-2,-1,4.325
866,0,0,-1,0,-3,-1,-1,-1,4.33
867,-2,-2,-2,-3,-3,-1,-1,0,4.335
868,1,0,-2,-4,-3,-3,1,0,4.34
869,1,-1,-2,2,4,1,0,1,4.345
870,-3,3,1,-1,1,0,0,0,4.3500000000000005
871,-2,-5,-2,2,1,0,0,-2,4.355
872,0,-1,2,5,-1,-1,-2,-3,4.36
873,0,-2,-5,-12,-6,-1,-1,0,4.365
874,0,0,0,-4,-2,-1,-1,0,4.37
875,2,1,-1,-3,-4,-1,-1,0,4.375
876,-1,-2,-2,0,0,-2,0,0,4.38
877,1,3,1,4,6,1,1,2,4.385
878,0,-2,0,-1,1,0,-2,-1,4.39
879,-1,0,-2,0,-1,0,-3,-1,4.3950000000000005
880,-1,-1,-3,-1,-1,-3,0,-2,4.4
881,-2,1,0,-1,-5,-3,-2,-1,4.405
882,2,-3,-3,-3,-1,0,-1,0,4.41
883,-2,0,2,2,0,-1,1,-1,4.415
884,0,-3,-1,-5,-3,0,-1,1,4.42
885,-1,0,1,0,-2,-3,0,1,4.425
886,-4,-2,-1,6,7,2,1,-1,4.43
887,-1,0,-2,-2,0,0,-1,-1,4.4350000000000005
888,-2,0,-2,0,-1,0,1,-1,4.44
889,-1,-1,0,-2,-4,-2,-2,1,4.445
890,-1,0,-1,-1,-3,-2,-2,-1,4.45
891,-7,1,3,0,1,1,-1,0,4.455
892,-1,1,0,-3,0,0,-2,-1,4.46
893,-2,-2,1,2,1,-2,0,-1,4.465
894,0,-4,0,-3,-2,-2,-1,-2,4.47
895,2,1,-2,1,0,0,-1,0,4.4750000000000005
896,0,-4,-1,-4,-1,-2,-2,-1,4.48
897,0,2,0,2,3,0,-1,-2,4.485
898,-4,-3,1,-1,-4,-2,0,-1,4.49
899,3,-1,-3,-2,-1,0,0,-1,4.495
900,0,3,-3,-1,1,-3,-2,-1,4.5
901,1,1,-2,-3,-1,0,-1,0,4.505
902,0,0,-3,-3,-1,-1,-2,-1,4.51
903,0,-1,-2,-6,-7,-1,-2,1,4.515
904,0,-1,1,2,3,-1,-1,0,4.5200000000000005
905,-3,-3,0,-1,-2,-2,0,-1,4.525
906,-1,0,-1,-2,-2,-1,-2,-1,4.53
907,0,0,-2,-1,-1,-1,-1,-1,4.535
908,-1,-3,0,0,-1,0,-2,-1,4.54
909,-1,-1,-1,2,-2,-1,-1,-1,4.545
910,-1,-1,-1,-2,0,-1,0,-1,4.55
911,1,-2,-2,1,0,0,-1,-2,4.555
912,-5,1,3,-1,-2,1,1,0,4.5600000000000005
913,-1,-1,-1,-1,-2,0,-1,-1,4.565
914,-1,-1,1,1,1,-1,-1,0,4.57
915,-1,-1,-1,2,-2,-2,-1,-1,4.575
916,0,-3,-2,-8,-3,-2,-1,-2,4.58
917,1,-1,-3,-3,2,1,-2,0,4.585
918,1,-2,-2,0,-1,1,1,0,4.59
919,0,0,2,0,2,-1,-2,-1,4.595
920,-2,-3,-2,1,1,-1,0,-1,4.6000000000000005
921,-1,-1,-1,-3,-1,-1,-1,-3,4.605
922,0,1,0,-1,-2,-2,-2,0,4.61
923,-4,0,2,-3,-3,-1,-1,1,4.615
924,-2,1,1,-1,-3,-1,0,0,4.62
925,-2,1,-4,4,1,-1,0,0,4.625
926,-3,-3,-3,-4,-2,-2,1,-1,4.63
927,1,-1,-4,2,0,0,-1,-3,4.635
928,1,-1,-2,-6,-3,-1,-1,0,4.64
929,-2,-3,-3,-7,-3,-2,-1,-1,4.6450000000000005
930,0,-2,-1,2,-2,-2,-3,0,4.65
931,-1,0,1,-3,2,0,-1,0,4.655
932,3,-2,-3,1,0,1,-2,-1,4.66
933,2,1,1,3,1,-1,-1,-1,4.665
934,-3,-4,-1,-1,-1,-1,0,-1,4.67
935,-1,-3,-3,-6,0,0,1,-2,4.675
936,-3,0,0,4,2,0,0,-1,4.68
937,0,15,0,-4,-5,-3,-3,-1,4.6850000000000005
938,1,12,0,7,7,0,-1,-1,4.69
939,-3,7,0,-1,-1,0,1,-1,4.695
940,1,-7,-2,1,-1,-2,0,0,4.7
941,-4,-15,0,-5,-5,-2,0,-1,4.705
942,-3,-8,1,3,-2,-1,0,0,4.71
943,1,-3,-1,0,1,0,-1,0,4.715
944,-1,-1,0,-4,-1,-1,-2,-1,4.72
945,0,-3,0,2,0,-2,0,-1,4.7250000000000005
946,1,-5,-2,-4,-2,-1,-2,0,4.73
947,1,-4,-1,-4,-3,-4,-2,-2,4.735
948,-3,0,0,-1,-1,-1,0,-1,4.74
949,2,-3,-3,1,4,1,-1,-1,4.745
950,-4,0,-2,0,0,-1,0,-3,4.75
951,1,2,-1,4,1,0,-1,0,4.755
952,-1,1,-1,-2,-3,-2,-3,-1,4.76
953,-1,-1,0,2,2,0,2,-1,4.765
954,-2,-1,-1,-5,-2,-2,-1,0,4.7700000000000005
955,1,-1,-1,0,-4,-2,-1,0,4.775
956,-5,2,2,-3,2,-1,0,-1,4.78
957,-2,-3,0,2,1,-1,-1,-2,4.785
958,1,-1,-2,-5,-3,-1,0,0,4.79
959,-1,-1,0,3,-1,-1,0,-1,4.795
960,0,-1,-1,1,-2,1,-2,0,4.8
961,1,-1,-2,-3,-3,0,-3,0,4.805
962,-4,0,1,-2,-4,-4,-2,-1,4.8100000000000005
963,-1,0,-2,3,0,2,-1,0,4.815
964,1,-6,-1,1,2,-2,0,0,4.82
965,-1,0,0,-3,-4,0,1,1,4.825
966,2,0,-3,0,1,2,-2,-1,4.83
967,-1,-2,-2,-4,-1,-1,-2,-2,4.835
968,0,3,-2,7,0,-1,-2,-2,4.84
969,0,-1,-3,-7,-5,1,-2,2,4.845
970,-1,3,0,-4,-5,-1,0,0,4.8500000000000005
971,-3,-1,0,5,5,0,0,0,4.855
972,1,-2,-1,-1,1,0,1,1,4.86
973,-1,-3,0,2,0,-2,-2,-1,4.865
974,0,-1,-2,-4,-3,0,0,2,4.87
975,1,-2,-1,0,-3,-3,-2,0,4.875
976,-4,1,0,-2,1,0,0,0,4.88
977,-2,-1,0,-2,-2,0,1,-2,4.885
978,2,-3,-1,0,0,0,-2,-2,4.89
979,0,0,1,-1,-2,0,-1,-1,4.8950000000000005
980,1,1,-2,2,-3,-1,-2,-2,4.9
981,0,0,-1,-1,-1,-2,-2,1,4.905
982,-3,1,0,1,0,1,0,-2,4.91
983,-1,-4,0,0,1,-1,-1,-1,4.915
984,-2,0,1,-3,-1,-2,0,0,4.92
985,-3,-3,0,-2,0,1,-1,-2,4.925
986,1,0,-2,1,1,0,0,-1,4.93
987,-1,0,0,-1,-5,-1,0,0,4.9350000000000005
988,0,0,-2,-2,-2,0,-1,1,4.94
989,-2,-1,-4,1,2,1,-1,0,4.945
990,-3,-2,2,0,1,0,0,-1,4.95
991,-1,-1,-2,-1,-2,0,-1,-1,4.955
992,1,-2,-3,-9,-4,-1,-1,-1,4.96
993,2,-1,1,4,-2,-1,-1,0,4.965
994,-1,2,3,0,0,0,-2,-1,4.97
995,0,-1,-2,-9,-5,-2,1,-1,4.9750000000000005
996,-1,-2,-1,0,-4,0,-1,-3,4.98
997,-2,1,-1,1,1,-2,0,0,4.985
998,0,-6,-5,-1,-2,-1,-1,0,4.99
999,0,0,1,1,-2,-2,1,-2,4.995
1000,-2,2,1,1,0,-2,-1,0,5.0
1001,-1,-3,-3,-1,-2,-1,0,-1,5.005
1002,0,0,1,-2,-3,-3,-1,0,5.01
1003,-1,0,-2,2,4,0,-1,-1,5.015
1004,1,-3,-3,0,0,-1,-1,0,5.0200000000000005
1005,-1,0,-1,-4,-1,-2,-1,-2,5.025
1006,0,1,0,-1,-1,1,0,-1,5.03
1007,-1,-3,-2,-3,-2,0,-1,0,5.035
1008,-2,0,0,3,1,0,0,-3,5.04
1009,-1,1,1,1,-1,0,0,-1,5.045
1010,-5,-2,-2,3,3,2,0,0,5.05
1011,3,-1,-2,-2,-3,-2,-2,-2,5.055
1012,0,2,-1,1,0,0,-1,2,5.0600000000000005
1013,0,-2,-2,-6,-2,-1,-1,-1,5.065
1014,2,-2,-1,-3,-1,-1,0,-2,5.07
1015,-3,-1,1,2,1,0,0,0,5.075
1016,0,-1,1,-1,1,-2,0,0,5.08
1017,1,-2,1,1,-1,-2,-1,-1,5.085
1018,-1,4,0,-1,-4,-5,-2,-2,5.09
1019,-1,-5,-2,3,5,2,-1,0,5.095
1020,0,0,-1,-2,-1,0,0,-2,5.1000000000000005
1021,0,2,-2,0,0,1,0,0,5.105
1022,-1,-2,-2,0,-2,-2,-1,-1,5.11
1023,0,0,2,-3,-4,-2,-1,0,5.115
1024,-2,0,-1,-1,1,-1,0,0,5.12
1025,0,0,-1,-1,0,-2,-1,0,5.125
1026,-1,-1,-3,-2,0,-1,0,1,5.13
1027,-1,1,0,0,-1,-1,-2,-1,5.135
1028,-2,-1,-2,4,2,-1,2,1,5.14
1029,-1,-2,-2,-4,-2,1,1,-1,5.1450000000000005
1030,2,1,0,-1,0,0,0,-1,5.15
1031,3,-1,-2,0,1,1,0,-1,5.155
1032,-1,0,-2,-1,-3,0,-1,-2,5.16
1033,-1,-2,-3,0,0,-1,-1,-1,5.165
1034,1,-2,-4,-4,-2,-1,-2,0,5.17
1035,-1,2,1,-2,0,-2,0,-2,5.175
1036,-1,-2,2,4,2,0,0,0,5.18
1037,-2,1,-1,4,3,-1,-1,0,5.1850000000000005
1038,0,-3,-4,-7,-2,1,-2,0,5.19
1039,-1,-1,-4,-3,-4,-1,-2,-1,5.195
1040,-1,-2,-2,-3,-3,0,-2,0,5.2
1041,-1,3,2,1,-2,-3,1,-1,5.205
1042,1,-2,-2,1,-1,-2,-1,-1,5.21
1043,-3,-6,-1,1,-1,0,-1,0,5.215
1044,-1,-1,0,-4,-4,-2,-2,-1,5.22
1045,-2,-2,-2,1,0,0,-2,0,5.2250000000000005
1046,0,1,0,1,1,1,2,0,5.23
1047,1,1,-2,-4,-1,-1,-3,0,5.235
1048,0,-4,-1,-2,1,-2,0,-1,5.24
1049,0,0,0,-1,-3,-2,-2,-1,5.245
1050,-1,0,1,1,-1,-2,0,0,5.25
1051,-1,-1,-4,-2,-2,-1,0,0,5.255
1052,1,-1,0,-2,-1,-1,-1,0,5.26
1053,-2,-1,-1,1,-1,0,0,0,5.265
1054,-1,0,-2,-1,-3,-2,-2,-1,5.2700000000000005
1055,-1,3,1,1,-1,-1,0,0,5.275
1056,-1,0,-4,-2,-1,-1,-1,-1,5.28
1057,1,-3,-2,0,-3,-2,0,2,5.285
1058,-1,-1,1,0,-1,0,-1,-1,5.29
1059,-1,-1,-2,-1,-3,-2,-1,0,5.295
1060,-4,-2,0,0,1,-1,-2,-1,5.3
1061,-1,-1,-1,-2,-1,0,-1,-1,5.305
1062,-1,-2,-3,0,0,-1,-1,0,5.3100000000000005
1063,-3,-1,-1,-3,-2,-1,0,-2,5.315
1064,-1,-2,-2,0,2,-1,-1,-1,5.32
1065,-1,0,-2,-3,-1,-2,-2,-3,5.325
1066,-3,0,-1,2,1,-2,-1,0,5.33
1067,-1,0,-1,0,0,-2,2,0,5.335
1068,0,-1,0,-2,0,-1,0,0,5.34
1069,-1,0,-1,-3,-3,0,-2,0,5.345
1070,1,1,0,-1,0,-1,1,-1,5.3500000000000005
1071,-3,-1,1,2,2,-1,0,-2,5.355
1072,-1,-1,-3,-1,-2,0,0,0,5.36
1073,-5,1,1,-2,-1,-2,-1,0,5.365
1074,-1,0,-2,2,0,1,-2,1,5.37
1075,-1,0,1,2,1,1,-1,0,5.375
1076,-1,2,0,2,-1,0,-1,-2,5.38
1077,0,-3,-2,0,1,1,-1,-1,5.385
1078,-1,-4,-1,-3,2,0,-1,-1,5.39
1079,-2,1,-2,-7,-1,0,-1,-1,5.3950000000000005
1080,2,-1,-3,0,-1,0,0,-1,5.4
1081,-2,-1,-1,0,-2,-2,1,-1,5.405
1082,2,0,-4,1,-1,-2,-1,-1,5.41
1083,-2,-4,-2,-1,-4,-1,0,-1,5.415
1084,-3,-1,-1,0,1,-1,-1,0,5.42
1085,1,3,-1,0,-1,0,-2,0,5.425
1086,-1,-2,0,-1,-2,-2,0,1,5.43
1087,0,-1,0,2,-6,-1,-2,0,5.4350000000000005
1088,0,-1,-1,-4,1,-1,0,-1,5.44
1089,-1,-2,0,2,2,1,0,0,5.445
1090,-3,-1,0,-2,0,2,-1,-1,5.45
1091,-1,0,0,1,1,-2,0,-1,5.455
1092,-1,1,0,0,-6,-2,0,-1,5.46
1093,-2,-2,0,2,5,0,0,-3,5.465
1094,0,-1,0,-5,0,-1,-1,1,5.47
1095,-1,-1,-2,0,0,0,-1,1,5.4750000000000005
1096,-3,2,-1,-1,-2,0,-1,-1,5.48
1097,0,0,0,-2,-3,-1,-1,0,5.485
1098,-2,-2,-2,-6,-3,-1,2,-2,5.49
1099,-1,2,0,-1,-1,0,-2,-1,5.495
1100,-1,0,2,-6,-6,-3,0,-1,5.5
1101,0,-3,0,5,7,0,0,0,5.505
1102,-3,-2,-1,3,-1,-2,-3,-1,5.51
1103,0,3,0,-2,-3,-1,0,-2,5.515
1104,1,-3,-3,0,-2,0,-1,-1,5.5200000000000005
1105,1,0,0,-4,-2,-3,-1,-2,5.525
1106,0,1,0,-1,-1,-2,0,-1,5.53
1107,1,-4,-2,-1,-1,-1,-1,0,5.535
1108,-3,1,1,-1,1,-1,-1,-2,5.54
1109,-1,2,-1,-5,-5,-2,-1,-1,5.545
1110,-1,-2,0,0,1,2,-2,-1,5.55
1111,1,-1,-1,1,-1,-2,-2,-2,5.555
1112,0,0,-2,2,0,-2,1,0,5.5600000000000005
1113,-1,-3,-2,-1,-1,-2,-2,-1,5.565
1114,-1,3,1,3,-1,1,0,-1,5.57
1115,-4,0,0,0,0,-2,-1,-1,5.575
1116,-1,-4,1,0,2,1,-1,-2,5.58
1117,-2,0,-1,-2,-3,-1,-1,-1,5.585
1118,3,-3,-3,1,-3,-1,-2,-2,5.59
1119,-2,-1,-3,-1,1,0,-1,-1,5.595
1120,0,0,-2,-2,-1,0,-1,-1,5.6000000000000005
1121,-1,-1,-2,-1,-2,1,1,-1,5.605
1122,-2,1,-3,-2,-1,-2,0,-1,5.61
1123,-1,-2,0,0,-1,-1,0,0,5.615
1124,-1,-2,-1,-3,-1,-1,-1,-1,5.62
1125,0,0,0,1,1,0,0,-1,5.625
1126,-1,-3,-1,-2,2,1,1,0,5.63
1127,1,-1,0,1,2,0,0,0,5.635
1128,-1,1,-2,-2,-1,0,-1,-1,5.64
1129,-3,-2,-2,0,-4,-1,0,-2,5.6450000000000005
1130,0,5,1,0,-2,0,-2,-1,5.65
1131,-2,1,1,-1,2,0,-1,-1,5.655
1132,2,-6,-3,-1,-2,-2,-1,0,5.66
1133,0,-1,-2,-1,-1,-1,-3,0,5.665
1134,-3,0,-1,2,0,-2,0,-1,5.67
1135,0,-1,-1,-2,-4,-1,0,-2,5.675
1136,-2,1,0,5,3,-2,-1,0,5.68
1137,0,-1,-2,-2,-1,0,0,-2,5.6850000000000005
1138,-1,-4,0,0,-3,0,-1,0,5.69
1139,-3,3,3,-1,-2,1,0,-2,5.695
1140,-1,0,-2,-4,-2,0,0,-1,5.7
1141,-2,-3,0,0,-1,-1,0,-1,5.705
1142,0,0,-3,-1,-1,-2,-2,1,5.71
1143,0,-1,-1,1,-1,-2,-1,-1,5.715
1144,0,-2,-2,1,-2,-2,-2,0,5.72
1145,-2,0,-1,-2,1,1,0,-2,5.7250000000000005
1146,-1,-1,0,-3,-1,-2,0,-1,5.73
1147,-1,-3,-1,1,-1,-2,-1,0,5.735
1148,-3,1,1,-2,0,1,-1,-1,5.74
1149,0,0,-2,3,-3,0,0,1,5.745
1150,-1,-1,1,-1,-2,0,0,-1,5.75
1151,-1,-2,-4,-4,1,-1,1,-1,5.755
1152,0,1,0,1,0,-1,-1,1,5.76
1153,-2,-2,0,-2,-2,-3,-2,0,5.765
1154,0,0,-1,-1,-2,0,2,-2,5.7700000000000005
1155,1,-2,-1,1,0,0,-2,0,5.775
1156,0,0,1,-4,-3,-1,-1,-2,5.78
1157,-2,2,-1,2,3,-1,-1,0,5.785
1158,-2,1,-2,1,-2,1,0,-1,5.79
1159,4,1,-3,-3,-2,-2,-1,-2,5.795
1160,-2,-7,-1,3,2,-1,0,-2,5.8
1161,1,-2,-1,-3,-1,-1,-1,-1,5.805
1162,-2,-3,-1,-1,-1,0,-1,0,5.8100000000000005
1163,-3,-1,-2,-4,0,-1,1,0,5.815
1164,-1,0,-2,-2,-4,-2,-1,-1,5.82
1165,0,-2,0,2,2,0,-2,0,5.825
1166,-2,-5,-2,2,0,-2,-2,-2,5.83
1167,-1,-3,1,1,2,0,-1,-2,5.835
1168,5,2,-3,-2,0,-1,-1,0,5.84
1169,-3,-1,-2,-4,-3,0,0,-2,5.845
1170,2,2,1,-4,-2,-1,-3,0,5.8500000000000005
1171,-1,-1,-2,-2,-2,-1,-1,0,5.855
1172,0,2,-1,0,0,0,0,-1,5.86
1173,2,0,0,1,-2,0,-1,0,5.865
1174,-1,-1,0,1,0,-2,-3,-1,5.87
1175,-1,-1,-3,0,-1,0,1,0,5.875
1176,-2,-1,-1,2,1,2,-1,1,5.88
1177,-1,1,-1,-4,-5,-3,-1,-1,5.885
1178,-3,-3,1,-2,0,1,1,-1,5.89
1179,-1,-1,-1,1,-2,-1,-2,0,5.8950000000000005
1180,-1,-3,-3,-2,-2,-3,0,-1,5.9
1181,-3,1,1,0,1,0,0,1,5.905
1182,0,-4,-2,-1,-2,-3,0,-1,5.91
1183,-2,-1,1,2,0,-1,-2,-2,5.915
1184,-4,-4,0,-1,0,0,0,-1,5.92
1185,1,-3,-3,-4,-2,-1,-1,-1,5.925
1186,0,-1,-3,1,-1,-1,0,-1,5.93
1187,-5,3,1,-1,-1,0,0,-1,5.9350000000000005
1188,1,2,-2,1,-1,0,-2,1,5.94
1189,2,-2,0,-1,2,-1,-1,-3,5.945
1190,0,2,-1,0,0,-2,-1,-1,5.95
1191,0,-2,0,-2,-4,-1,-2,-2,5.955
1192,-4,1,0,1,3,1,-1,-2,5.96
1193,0,1,-2,0,0,2,-1,-1,5.965
1194,-4,-2,0,-1,-1,0,0,-1,5.97
1195,0,0,1,-1,-1,-2,0,0,5.9750000000000005
1196,-2,-2,1,-5,-4,-4,0,0,5.98
1197,-1,-2,0,-3,2,1,1,2,5.985
1198,0,1,-1,0,2,1,0,1,5.99
1199,1,3,-2,0,1,0,0,-1,5.995
1200,-1,-2,-1,1,-2,0,-1,-1,6.0
1201,0,-1,-1,-2,-1,-3,-1,0,6.005
1202,0,3,1,-1,-2,-1,-3,-1,6.01
1203,0,-6,0,-3,-2,-1,-1,0,6.015000000000001
1204,0,1,0,-3,-2,-1,0,-1,6.0200000000000005
1205,0,-2,-2,2,-1,-3,-1,-1,6.025
1206,0,0,-1,-1,0,-1,-1,1,6.03
1207,2,-1,0,-1,-3,0,-2,-1,6.035
1208,-1,1,-1,-3,-3,-1,2,-1,6.04
1209,0,-2,-1,-2,-5,-1,0,-2,6.045
1210,1,-4,0,-1,-1,0,0,0,6.05
1211,-3,-3,-2,0,1,0,0,0,6.055
1212,0,-2,-4,1,1,-1,-1,-1,6.0600000000000005
1213,-1,3,-1,0,-3,0,-1,-1,6.065
1214,-5,0,-4,0,-3,1,1,-2,6.07
1215,-1,-2,-1,-3,0,-2,0,-1,6.075
1216,-1,0,-2,2,-2,-1,-3,-2,6.08
1217,-4,-5,-1,1,0,-1,-1,-2,6.085
1218,1,1,1,6,1,0,-1,0,6.09
1219,-1,1,1,-7,-1,0,0,1,6.095
1220,0,-1,-1,0,-1,0,0,-1,6.1000000000000005
1221,-1,0,0,-1,-1,-1,-1,0,6.105
1222,1,0,-1,-3,-1,-1,-2,0,6.11
1223,-1,-6,-3,0,-1,0,-1,-1,6.115
1224,1,0,-1,-7,-4,-1,0,0,6.12
1225,0,2,1,2,-1,1,-1,-2,6.125
1226,-1,-3,-1,0,0,0,0,-1,6.13
1227,-4,2,1,2,2,-1,-1,0,6.135
1228,0,0,-1,-2,-2,0,-2,-2,6.140000000000001
1229,0,-1,-2,-1,-1,-2,-1,0,6.1450000000000005
1230,-1,-2,1,-1,1,0,-1,-1,6.15
1231,0,2,-1,-1,-1,2,-1,-1,6.155
1232,-2,-1,0,2,-1,-2,1,-1,6.16
1233,-1,-1,-2,0,0,0,-1,-1,6.165
1234,-1,-1,-1,-2,1,-1,0,-2,6.17
1235,0,0,-2,-1,-3,0,-1,-1,6.175
1236,-3,2,1,3,1,-1,0,0,6.18
1237,0,0,-2,0,1,0,0,0,6.1850000000000005
1238,-1,0,-1,-1,-2,-1,-1,-1,6.19
1239,-2,-4,-2,2,-2,0,-1,-2,6.195
1240,0,0,-2,-4,1,-2,-1,-2,6.2
1241,-3,-2,-1,-1,-2,0,-1,-1,6.205
1242,-1,0,-1,-4,-3,-1,0,-1,6.21
1243,-2,0,-4,2,1,-1,-1,-1,6.215
1244,-1,-1,3,3,2,1,0,-1,6.22
1245,0,-1,1,-4,-1,-2,-1,0,6.2250000000000005
1246,2,1,-3,-1,2,-1,0,1,6.23
1247,-1,1,2,2,-2,-2,0,0,6.235
1248,0,0,-2,-6,-1,1,-2,-1,6.24
1249,-5,0,1,1,-1,0,-1,-3,6.245
1250,-3,0,0,-1,-3,0,0,-3,6.25
1251,1,0,-1,2,-1,-3,0,-1,6.255
1252,-2,-3,-4,-2,-4,1,-1,0,6.26
1253,0,-2,-1,-2,1,-1,0,0,6.265000000000001
1254,1,0,0,-1,-1,-3,0,-1,6.2700000000000005
1255,-1,-1,-1,0,-1,-3,-2,-1,6.275
1256,-1,-4,0,2,-2,-4,-1,-1,6.28
1257,0,-1,-2,0,-1,0,0,-1,6.285
1258,1,0,-5,0,-1,0,-1,0,6.29
1259,1,-4,-2,-3,-1,-1,1,-1,6.295
1260,1,4,-2,-2,0,0,0,1,6.3
1261,0,-4,-3,-1,-3,-1,0,0,6.305
1262,0,-4,-3,-1,-2,0,-2,-1,6.3100000000000005
1263,-1,0,-1,-3,0,-1,-1,-1,6.315
1264,-1,-2,-1,2,2,-1,-1,-1,6.32
1265,1,-1,0,-1,-3,-3,1,-1,6.325
1266,-5,-1,2,1,-1,0,-2,0,6.33
1267,3,-2,-2,-1,1,0,0,0,6.335
1268,-3,1,0,-2,3,0,0,0,6.34
1269,1,-1,-3,-2,-1,-2,0,-1,6.345
1270,-1,2,2,-2,-4,-2,0,-1,6.3500000000000005
1271,0,-2,0,-3,-5,-1,-2,-1,6.355
1272,-1,-3,2,4,4,0,-3,-1,6.36
1273,0,4,0,0,0,-1,-2,-1,6.365
1274,-2,-5,0,1,1,-2,0,-1,6.37
1275,-4,2,0,-3,0,-1,0,-2,6.375
1276,-1,-2,-3,-3,-5,-2,-2,-2,6.38
1277,-1,-1,-2,0,2,0,1,1,6.385
1278,-1,-4,0,-2,-1,-2,-2,0,6.390000000000001
1279,-4,1,2,5,1,0,0,1,6.3950000000000005
1280,0,0,0,-2,-5,-4,-1,-2,6.4
1281,2,-6,-2,-1,0,0,-2,-2,6.405
1282,-2,1,1,0,0,0,0,-1,6.41
1283,-1,-1,-1,-4,-1,-1,0,-1,6.415
1284,-2,0,-1,-1,-1,-1,0,0,6.42
1285,-2,-1,1,0,-1,-1,-1,-1,6.425
1286,0,-2,-1,-1,-1,-1,0,0,6.43
1287,0,4,-1,-4,-2,-1,0,-2,6.4350000000000005
1288,-2,-4,-3,-1,-1,0,-1,-1,6.44
1289,1,-3,0,-1,-2,-2,-1,-1,6.445
1290,-1,3,0,-3,-2,1,0,-1,6.45
1291,-1,1,1,2,0,-2,-2,-2,6.455
1292,-2,-1,-1,1,2,-2,1,1,6.46
1293,0,0,-3,-3,-4,-1,-1,-1,6.465
1294,-1,-2,-2,-2,1,0,-1,-1,6.47
1295,1,-3,-2,0,-1,0,-2,0,6.4750000000000005
1296,-1,3,2,0,0,0,0,-1,6.48
1297,-5,-1,-2,1,2,-1,-1,0,6.485
1298,-1,-1,-2,0,0,-1,-1,-1,6.49
1299,-2,0,0,-1,0,-2,-1,-1,6.495
1300,1,-2,-1,0,0,1,-1,-2,6.5
1301,-1,0,-3,-2,-5,-1,1,0,6.505
1302,0,0,-1,0,-2,0,-2,-1,6.51
1303,-2,-1,-3,0,2,-2,0,-1,6.515000000000001
1304,2,-1,-3,1,-1,-1,-1,-3,6.5200000000000005
1305,-1,-1,1,-4,-1,0,-1,-1,6.525
1306,-1,-2,-2,-1,0,-1,-1,-1,6.53
1307,-2,-2,-1,1,0,1,-1,-1,6.535
1308,-1,-1,-1,-3,-4,1,-2,2,6.54
1309,0,1,0,5,1,0,-1,-1,6.545
1310,-2,-3,0,-3,-1,0,0,-1,6.55
1311,0,1,-2,0,-4,0,0,0,6.555
1312,0,-1,-2,1,-1,1,0,-2,6.5600000000000005
1313,-4,2,1,-5,-2,-1,-2,-1,6.565
1314,-1,0,-1,2,0,-3,-1,1,6.57
1315,4,0,-5,-6,-2,-2,-1,-3,6.575
1316,0,0,1,-2,-1,-2,-1,0,6.58
1317,1,-2,0,4,1,0,1,-1,6.585
1318,-3,1,-1,-4,-2,-1,0,-2,6.59
1319,0,-3,-1,-1,0,1,-1,0,6.595
1320,-1,0,-1,-2,-1,-3,0,-2,6.6000000000000005
1321,0,0,-1,-1,0,-2,-2,-1,6.605
1322,1,-4,-1,1,0,-1,-1,0,6.61
1323,0,-4,-3,-4,-1,0,1,0,6.615
1324,-1,2,1,-2,-1,-1,-2,-2,6.62
1325,-1,-3,-1,3,2,1,-1,-2,6.625
1326,-1,0,1,-2,-3,-1,-1,0,6.63
1327,-1,0,-2,-1,-1,0,1,0,6.635
1328,-1,-2,-1,0,1,1,0,-2,6.640000000000001
1329,-2,2,1,0,-4,-3,0,1,6.6450000000000005
1330,2,1,-4,-2,-1,-2,-1,-1,6.65
1331,-1,-2,0,-3,-1,0,-1,0,6.655
1332,0,-2,-2,-2,-2,-2,1,-2,6.66
1333,0,0,-2,-5,-2,0,-1,0,6.665
1334,-2,0,0,0,-1,-2,-2,0,6.67
1335,-1,0,1,3,1,0,0,0,6.675
1336,-3,-2,-2,-3,-4,0,-2,1,6.68
1337,1,-4,0,5,3,0,0,-1,6.6850000000000005
1338,-2,0,-1,-5,2,1,-1,-1,6.69
1339,-1,1,0,-1,-3,-1,-2,-2,6.695
1340,3,1,-2,2,-3,-2,0,0,6.7
1341,-7,-1,4,6,3,-3,-1,-2,6.705
1342,-1,0,0,-11,-4,2,0,0,6.71
1343,-2,-2,0,5,4,0,-1,-1,6.715
1344,1,-2,-3,-2,-1,-1,-2,1,6.72
1345,0,-1,0,0,1,1,-1,-1,6.7250000000000005
1346,-1,-6,-2,3,-1,-3,-1,-2,6.73
1347,0,0,0,-2,-2,-3,-3,0,6.735
1348,0,-4,0,1,-3,-1,-1,-1,6.74
1349,1,-2,-3,-6,1,-1,0,-1,6.745
1350,-3,-1,-2,1,1,1,0,0,6.75
1351,0,-4,-2,-1,-1,-1,-1,1,6.755
1352,-3,2,4,3,3,1,0,-1,6.76
1353,0,2,-1,2,-4,-1,-2,0,6.765000000000001
1354,2,-2,-5,-8,0,1,0,-2,6.7700000000000005
1355,-8,3,5,0,-6,0,-1,-1,6.775
1356,-2,0,0,2,-1,-1,-1,1,6.78
1357,1,-1,-3,-3,1,2,-1,-2,6.785
1358,-1,3,3,2,-1,-4,-2,-1,6.79
1359,1,-2,-1,2,0,-1,-2,0,6.795
1360,-3,-5,-2,-4,-1,0,-1,0,6.8
1361,-4,0,0,4,-2,-2,0,0,6.805
1362,-1,-2,0,2,2,0,-2,-3,6.8100000000000005
1363,1,-1,-3,-3,-2,-2,0,-1,6.815
1364,-2,-3,-1,-6,-2,0,-3,-1,6.82
1365,1,-1,-3,-3,0,0,-1,-1,6.825
1366,0,3,2,5,2,0,-1,0,6.83
1367,1,1,-1,2,0,0,-2,-1,6.835
1368,-2,-5,-3,-4,-5,-1,0,-1,6.84
1369,-1,1,0,-3,-1,-1,0,1,6.845
1370,0,-2,-2,3,0,-2,-2,-1,6.8500000000000005
1371,-2,7,3,5,3,-1,0,-1,6.855
1372,2,-2,-2,-1,0,-3,-1,-2,6.86
1373,0,-1,-5,-10,-6,-1,-3,-1,6.865
1374,1,-3,0,7,3,-2,0,-1,6.87
1375,1,-4,-3,-8,-3,1,1,0,6.875
1376,-2,2,-1,-1,-1,0,-2,0,6.88
1377,-2,1,1,-2,-2,-1,1,0,6.885
1378,-3,1,1,-1,-4,-3,0,0,6.890000000000001
1379,0,-3,-1,-1,-1,-1,-1,-1,6.8950000000000005
1380,4,4,-1,4,2,-2,-1,-1,6.9
1381,0,-4,0,-4,-5,0,-1,-3,6.905
1382,-3,0,0,-3,-2,1,-1,-1,6.91
1383,1,-4,-4,-5,-2,-1,-2,-2,6.915
1384,0,1,-1,4,5,-1,-2,-1,6.92
1385,-1,1,1,7,-1,-3,-3,0,6.925
1386,-2,-2,0,-6,-6,0,0,0,6.93
1387,-1,-1,-1,-3,-3,-3,-2,-3,6.9350000000000005
1388,-3,0,1,1,0,0,-1,-1,6.94
1389,0,0,-2,2,2,0,1,0,6.945
1390,1,-2,-4,-7,-4,-1,1,-1,6.95
1391,0,0,0,-2,-1,-1,0,0,6.955
1392,0,1,0,1,1,0,0,0,6.96
1393,3,-1,0,2,1,0,0,-1,6.965
1394,1,-1,1,4,1,-1,-2,0,6.97
1395,0,-4,-3,1,5,0,0,0,6.9750000000000005
1396,1,0,-2,-3,-6,-3,-1,-2,6.98
1397,-2,-1,0,-9,-1,-1,0,-1,6.985
1398,-1,-2,-3,1,-1,-1,0,0,6.99
1399,1,-1,-2,-1,0,-1,-2,-2,6.995
1400,0,1,-1,-2,0,2,-1,-2,7.0
1401,-1,-4,-3,-2,-1,-2,1,0,7.005
1402,-2,4,3,3,0,-3,-1,0,7.01
1403,-2,0,0,2,-2,-1,0,-1,7.015000000000001
1404,-3,-4,-2,-3,3,1,-1,-2,7.0200000000000005
1405,-1,1,0,1,-2,-2,0,0,7.025
1406,0,-2,-3,-3,0,-2,-3,0,7.03
1407,-1,-1,0,1,-4,-2,-2,0,7.035
1408,-2,-2,0,-2,0,0,1,-1,7.04
1409,-1,-1,-2,1,1,1,-1,-2,7.045
1410,0,0,-2,2,1,0,0,-2,7.05
1411,-2,-2,-2,-5,-2,1,0,0,7.055
1412,1,0,-1,-3,0,0,1,1,7.0600000000000005
1413,2,-3,-2,4,0,-2,-3,-2,7.065
1414,-3,-1,1,-8,0,0,-1,-2,7.07
1415,-4,4,0,1,-2,0,-1,0,7.075
1416,-2,1,0,5,-2,-2,-1,-2,7.08
1417,0,1,1,1,-1,-1,-2,0,7.085
1418,0,-3,-3,-8,1,1,-3,-1,7.09
1419,1,-2,-3,-2,-2,-4,0,-2,7.095
1420,-1,0,1,-1,2,1,0,0,7.1000000000000005
1421,-3,1,-1,2,-1,1,-1,-1,7.105
1422,1,0,-1,0,-3,-1,-1,-1,7.11
1423,0,-2,-1,-3,0,-3,0,-2,7.115
1424,-2,-2,-4,-3,-3,-1,-2,-2,7.12
1425,2,-1,0,-4,-3,0,-1,1,7.125
1426,-1,-2,-1,5,1,0,0,0,7.13
1427,0,-2,-2,-1,-1,-1,-1,-2,7.135
1428,1,0,-2,-2,-2,-2,-1,-2,7.140000000000001
1429,0,-1,-2,2,3,-1,-1,-1,7.1450000000000005
1430,-1,0,0,-2,-3,-1,-1,-1,7.15
1431,-2,-1,1,3,-2,0,0,0,7.155
1432,-7,2,4,-2,1,0,-2,-1,7.16
1433,-5,-3,-2,1,1,0,0,-4,7.165
1434,2,2,-1,2,-2,0,0,0,7.17
1435,1,-7,-1,2,3,2,0,0,7.175
1436,1,-2,1,-8,-7,-2,0,-1,7.18
1437,-4,1,1,1,5,-1,-1,0,7.1850000000000005
1438,-3,-4,-3,-3,-5,-1,-1,0,7.19
1439,-3,0,0,3,3,0,0,0,7.195
1440,3,-5,-3,-1,-3,-3,-1,1,7.2
1441,0,-3,-3,-2,0,-2,-1,-2,7.205
1442,0,0,0,1,1,1,-2,-1,7.21
1443,0,2,-2,-3,-3,-2,-2,1,7.215
1444,-2,0,0,-2,-2,-3,0,0,7.22
1445,0,-1,-1,1,-2,-2,-1,-1,7.2250000000000005
1446,-2,-1,0,2,3,0,-1,-1,7.23
1447,-1,0,-1,-2,-4,-1,0,0,7.235
1448,2,0,-1,3,2,-2,-2,0,7.24
1449,2,1,-1,-2,-6,0,-1,-2,7.245
1450,3,-2,-4,-12,-5,-3,-2,-1,7.25
1451,-2,3,1,10,9,3,0,-2,7.255
1452,1,0,-4,-7,-3,0,1,-1,7.26
1453,1,-1,-1,1,5,0,-1,-1,7.265000000000001
1454,1,-6,-4,1,3,-1,-2,-2,7.2700000000000005
1455,-2,-1,0,-4,-3,-1,-1,0,7.275
1456,0,1,0,0,-3,-1,-1,-1,7.28
1457,-4,-3,1,0,2,2,2,0,7.285
1458,-1,3,5,7,0,-3,0,0,7.29
1459,-1,-1,-3,-1,-2,-2,-1,-1,7.295
1460,-2,-1,-3,-3,-2,1,0,0,7.3
1461,0,0,1,-3,-7,-3,-2,-1,7.305
1462,-2,0,-2,-3,1,1,0,0,7.3100000000000005
1463,1,-2,-3,0,-1,0,-1,-1,7.315
1464,0,-1,-2,-4,-1,-1,1,3,7.32
1465,-1,1,0,-6,-1,-2,-3,-1,7.325
1466,-1,0,0,4,-4,-2,-3,-7,7.33
1467,1,1,0,-3,1,0,0,-4,7.335
1468,0,0,0,2,-3,-1,0,0,7.34
1469,-1,-3,-4,1,5,2,1,4,7.345
1470,0,-4,1,2,-3,0,3,4,7.3500000000000005
1471,0,0,-1,-4,1,1,0,3,7.355
1472,1,-3,-6,-4,0,1,-6,-15,7.36
1473,-1,0,-6,-18,-7,-1,-3,-8,7.365
1474,-1,3,-2,0,-2,-1,-2,1,7.37
1475,0,-2,-1,-11,-11,-5,-2,1,7.375
1476,-4,4,7,14,10,1,3,9,7.38
1477,-2,-3,1,3,-1,-1,-3,-2,7.385
1478,-1,-2,0,-2,4,2,1,-5,7.390000000000001
1479,2,0,2,13,3,-2,0,2,7.3950000000000005
1480,-2,-3,-1,-3,-2,-1,2,4,7.4
1481,1,1,-2,-9,-5,1,-1,2,7.405
1482,-1,0,-1,-3,-2,-1,-1,-5,7.41
1483,-4,-4,-2,2,6,1,-3,-5,7.415
1484,0,1,0,3,1,-3,-1,0,7.42
1485,0,7,0,12,3,1,1,9,7.425
1486,0,-3,-4,-18,-9,-2,0,-4,7.43
1487,0,-2,-3,-2,0,-2,-3,-4,7.4350000000000005
1488,-1,-2,-1,2,1,0,0,0,7.44
1489,-2,-7,-4,1,-5,-4,2,-1,7.445
1490,0,5,5,3,2,-2,0,5,7.45
1491,-1,-3,-3,1,-3,-2,0,2,7.455
1492,1,2,2,-1,1,2,0,-8,7.46
1493,2,4,8,0,0,-3,3,19,7.465
1494,-2,-16,-17,1,-2,-1,-6,-8,7.47
1495,-6,6,-4,-12,2,0,-9,-27,7.4750000000000005
1496,-5,-11,-4,3,-3,-2,-5,-2,7.48
1497,1,10,6,3,-1,0,-1,-12,7.485
1498,-8,-20,-4,-13,-1,0,0,7,7.49
1499,4,-9,-2,-7,-7,1,7,18,7.495
1500,-4,-9,1,-5,6,1,1,3,7.5
1501,2,10,-2,4,0,-3,-2,-18,7.505
1502,1,8,3,10,1,-3,0,6,7.51
1503,-3,7,5,8,-4,-2,-1,-4,7.515000000000001
1504,1,4,0,-9,-1,1,-1,5,7.5200000000000005
1505,-4,-8,1,-5,-4,-1,1,1,7.525
1506,0,8,3,8,5,-1,0,-3,7.53
1507,-2,0,-1,7,3,0,0,-1,7.535
1508,-2,-4,-3,-2,-5,-2,1,8,7.54
1509,2,-5,-3,-9,-4,2,8,12,7.545
1510,3,-8,-3,-9,-1,1,3,22,7.55
1511,-8,-1,10,9,1,-3,-9,-59,7.555
1512,-13,-2,-4,3,28,6,0,20,7.5600000000000005
1513,-11,-5,-5,-2,-8,-4,-12,-35,7.565
1514,0,22,12,12,-1,-3,1,1,7.57
1515,12,20,-4,4,9,11,27,39,7.575
1516,10,-5,-8,-15,-16,-7,-9,14,7.58
1517,-16,-14,-6,-16,0,-3,-24,-71,7.585
1518,-6,-37,-5,-2,-1,-4,-15,-33,7.59
1519,-8,2,1,-5,-3,-3,-1,5,7.595
1520,18,28,12,24,-3,0,15,14,7.6000000000000005
1521,8,43,20,3,6,5,15,47,7.605
1522,2,-30,-3,-6,-9,-1,6,-4,7.61
1523,-5,11,-8,-3,6,2,-2,7,7.615
1524,-7,-14,-18,-17,-15,-3,-7,-17,7.62
1525,1,-27,-6,10,-6,-7,-6,12,7.625
1526,12,55,21,-2,-7,0,8,-1,7.63
1527,8,-10,14,3,0,1,6,8,7.635
1528,-3,-4,-21,-10,14,6,-12,-17,7.640000000000001
1529,1,-21,-11,5,-2,-5,-7,-7,7.6450000000000005
1530,-7,-10,-3,3,1,1,-1,-4,7.65
1531,-5,-13,3,-23,-17,-5,7,33,7.655
1532,8,58,34,51,-5,-2,10,13,7.66
1533,0,-40,-17,-21,14,8,-5,-37,7.665
1534,-23,-1,-5,10,17,5,-14,-30,7.67
1535,12,-31,-23,-27,-13,-4,-6,7,7.675
1536,10,35,17,4,-31,-5,25,40,7.68
1537,20,-19,13,10,24,5,13,58,7.6850000000000005
1538,-26,-11,-37,-81,-29,-13,-33,-64,7.69
1539,2,38,10,42,8,-8,-16,-5,7.695
1540,-11,-53,-3,-38,-8,6,26,30,7.7
1541,-48,14,15,5,-13,5,8,57,7.705
1542,-7,-43,-44,-7,-24,-17,-29,-49,7.71
1543,6,21,24,42,19,-2,-29,-75,7.715
1544,9,-47,7,-16,-30,-13,-4,-36,7.72
1545,61,-12,-18,-30,-7,13,82,123,7.7250000000000005
1546,23,71,37,-25,27,18,6,-16,7.73
1547,-10,-24,-17,37,28,0,-36,-51,7.735
1548,-28,30,6,44,22,-1,0,61,7.74
1549,-6,-35,-6,2,-59,-21,-49,-128,7.745
1550,-57,34,4,27,59,14,12,12,7.75
1551,68,13,-14,-71,-42,-7,27,35,7.755
1552,-40,47,33,93,72,5,-9,-40,7.76
1553,34,-54,-37,-98,-35,8,-6,-6,7.765000000000001
1554,14,35,24,113,7,-9,56,110,7.7700000000000005
1555,-7,-39,-19,-82,-63,-1,-2,80,7.775
1556,7,-14,-42,78,94,26,-36,-77,7.78
1557,8,61,61,21,-5,-7,-21,15,7.785
1558,-36,-96,-47,23,1,-10,-20,-44,7.79
1559,-31,11,-11,-46,30,11,20,26,7.795
1560,-4,-34,-10,-76,-95,-17,14,31,7.8
1561,-12,33,16,48,-36,-17,-7,21,7.805000000000001
1562,72,82,-14,-66,54,38,35,22,7.8100000000000005
1563,-28,-27,22,24,-43,-28,-12,33,7.815
1564,-19,-44,-15,32,48,-3,-39,-62,7.82
1565,-48,26,-18,-65,10,4,-3,-21,7.825
1566,0,71,64,47,-75,-19,35,106,7.83
1567,42,-90,-53,-18,13,29,76,89,7.835
1568,5,47,-8,-11,58,10,-42,-57,7.84
1569,-19,-3,-11,44,21,-19,-85,-68,7.845
1570,12,17,45,79,-10,-7,-16,48,7.8500000000000005
1571,-12,49,23,-76,-4,1,-12,-43,7.855
1572,-8,-82,-46,-20,-37,0,53,91,7.86
1573,-20,54,-17,-54,5,4,35,62,7.865
1574,5,14,7,-45,19,-3,-28,-113,7.87
1575,10,12,24,126,2,4,6,0,7.875
1576,-18,-46,-11,-60,11,-10,-15,-36,7.88
1577,-48,-73,-74,54,-5,-11,-11,-24,7.885
1578,90,-16,6,-55,-8,10,17,59,7.890000000000001
1579,-53,41,3,1,-29,-17,-29,-41,7.8950000000000005
1580,-20,30,32,61,-14,-20,-37,-48,7.9
1581,14,5,12,-85,44,29,41,58,7.905
1582,-19,17,-50,-6,-4,0,-27,-38,7.91
1583,24,-51,21,127,22,-10,-7,-44,7.915
1584,19,22,23,-128,-11,13,34,97,7.92
1585,-19,-37,-24,46,2,-13,-29,-94,7.925
1586,20,-15,19,103,14,4,37,59,7.930000000000001
1587,7,84,6,-103,-2,17,8,26,7.9350000000000005
1588,13,-27,8,-19,-44,-17,-18,-31,7.94
1589,21,101,21,-17,11,15,35,50,7.945
1590,-8,-58,14,-32,12,3,-3,21,7.95
1591,-33,84,2,48,-32,-25,-16,-27,7.955
1592,8,-74,13,46,34,6,6,86,7.96
1593,7,25,7,-66,10,13,-11,-80,7.965
1594,16,-60,-23,16,-38,-20,-4,63,7.97
1595,-49,20,-12,-70,20,1,-27,-30,7.9750000000000005
1596,24,11,4,-11,-65,-9,-2,-24,7.98
1597,15,99,44,78,5,-8,5,29,7.985
1598,-53,-55,-36,-12,42,20,-7,-31,7.99
1599,41,-23,26,-17,-23,-2,18,50,7.995
1600,43,25,-25,-49,38,17,24,50,8.0
1601,18,-25,12,23,-43,-16,-7,-42,8.005
1602,4,71,31,14,-17,-10,-14,-57,8.01
1603,14,-8,-34,-58,-27,1,9,24,8.015
1604,30,27,8,28,-3,4,18,10,8.02
1605,-78,-72,13,17,-16,-15,-44,-58,8.025
1606,8,37,13,32,-21,-22,-13,71,8.03
1607,-25,-122,-72,-19,50,17,-4,-42,8.035
1608,34,90,23,20,-27,-12,-14,-41,8.040000000000001
1609,24,10,36,29,0,12,51,117,8.045
1610,26,-45,-15,-23,9,-3,-15,-83,8.05
1611,-25,-1,11,-3,5,11,41,127,8.055
1612,47,72,37,102,36,10,22,7,8.06
1613,-85,-75,-75,-88,55,11,-85,-105,8.065
1614,20,-15,12,33,-19,-7,-28,20,8.07
1615,-41,-44,-40,2,0,7,14,50,8.075
1616,23,52,25,-29,-65,-6,57,50,8.08
1617,65,46,41,83,48,9,48,119,8.085
1618,-43,-36,-37,-67,-23,-7,-75,-102,8.09
1619,17,35,23,38,3,-13,-14,33,8.095
1620,14,20,-17,2,30,17,20,41,8.1
1621,-28,-30,-7,36,-77,-38,-42,-60,8.105
1622,-24,-47,-36,-45,28,10,27,26,8.11
1623,67,55,53,55,11,5,35,12,8.115
1624,-65,-44,-54,-25,-16,-10,-10,49,8.120000000000001
1625,17,-6,-4,-60,24,6,-1,-18,8.125
1626,-40,-27,-31,-31,-34,-10,-34,-28,8.13
1627,-23,69,17,33,0,-22,-66,-72,8.135
1628,50,57,23,63,-8,4,43,74,8.14
1629,4,-96,-60,-61,64,38,45,104,8.145
1630,-14,99,28,3,1,1,-14,-59,8.15
1631,23,11,0,13,-7,-5,20,50,8.155
1632,-38,-47,-56,-52,5,2,-53,-109,8.16
1633,-34,-12,11,46,-13,-11,3,12,8.165000000000001
1634,30,12,35,25,-75,-11,62,108,8.17
1635,36,64,-12,42,88,32,-13,-101,8.175
1636,-42,-94,-29,9,-10,-16,-36,-13,8.18
1637,-11,-9,-11,-32,2,10,-6,-61,8.185
1638,-6,-8,-9,-28,0,-4,-18,-3,8.19
1639,-8,-41,10,-11,-20,-10,19,16,8.195
1640,-1,12,5,1,-37,-5,8,32,8.2
1641,29,29,16,-11,38,5,-4,14,8.205
1642,-29,-59,7,37,-8,6,22,0,8.21
1643,-3,-4,13,0,16,2,-14,5,8.215
1644,-32,-71,-36,-38,2,-4,-14,-41,8.22
1645,46,62,-10,44,-50,-16,18,72,8.225
1646,19,-14,13,-52,25,9,21,-21,8.23
1647,-35,66,2,37,-32,-12,0,33,8.235
1648,10,-29,-8,-54,58,25,-28,-78,8.24
1649,-17,20,1,22,-14,-19,-39,-39,8.245000000000001
1650,-2,6,3,45,29,1,12,37,8.25
1651,24,-62,-46,-37,-21,5,15,-2,8.255
1652,-30,67,47,27,-50,-17,20,48,8.26
1653,13,-41,-6,-7,54,33,62,82,8.265
1654,30,30,-2,-15,19,5,-24,-37,8.27
1655,-34,-3,10,11,-3,-18,-64,-26,8.275
1656,41,23,28,-3,-17,-5,-2,48,8.28
1657,-1,25,11,18,-24,-20,-25,-68,8.285
1658,-53,-26,6,14,-8,-6,12,67,8.290000000000001
1659,49,86,36,-22,8,17,33,1,8.295
1660,-3,-62,-41,32,-11,9,64,52,8.3
1661,-14,-1,23,-37,-3,-15,-25,60,8.305
1662,-33,4,-25,-32,-6,-7,-53,-2,8.31
1663,-3,-41,0,52,-1,-7,-13,37,8.315
1664,13,58,29,50,-6,-5,-4,27,8.32
1665,50,27,41,-6,19,22,55,72,8.325
1666,5,-31,-61,-58,-12,9,22,-15,8.33
1667,-11,42,-3,-19,-20,-7,-25,-63,8.335
1668,-1,-92,-20,34,60,9,5,6,8.34
1669,24,76,19,-11,-65,-8,15,4,8.345
1670,-38,-64,-16,-25,30,-13,-40,-80,8.35
1671,-5,-3,-18,-18,1,4,8,-47,8.355
1672,-17,58,49,8,-23,-7,-4,-5,8.36
1673,-17,-98,-68,11,-22,-26,-43,-76,8.365
1674,1,30,9,-36,6,14,30,34,8.370000000000001
1675,38,3,-1,-13,-5,9,35,57,8.375
1676,-47,23,33,5,-5,-14,-48,-61,8.38
1677,-9,-28,-30,14,35,13,14,7,8.385
1678,72,23,37,4,-42,3,46,127,8.39
1679,-54,-40,-14,40,34,-1,-34,-111,8.395
1680,-19,58,11,-58,-5,-13,-61,-75,8.4
1681,-13,-1,-2,39,11,7,25,34,8.405
1682,18,41,9,-9,7,5,13,5,8.41
1683,-19,-119,-21,-20,-4,-7,-3,30,8.415000000000001
1684,46,62,11,-15,26,13,13,25,8.42
1685,5,-15,-30,6,-22,-9,-11,-31,8.425
1686,-8,20,-2,18,-8,-4,22,14,8.43
1687,18,-12,28,13,-29,-2,26,116,8.435
1688,-29,38,-19,11,17,-4,-64,-114,8.44
1689,15,-59,-4,-78,-5,1,-2,35,8.445
1690,8,21,9,2,2,5,14,39,8.45
1691,46,-18,-12,-4,-20,-10,5,9,8.455
1692,-15,14,8,26,-7,0,23,21,8.46
1693,-84,-29,-7,11,-13,-10,-19,-19,8.465
1694,0,-10,-18,-47,-6,4,-10,-67,8.47
1695,7,50,37,7,2,4,32,40,8.475
1696,16,-128,-52,-38,-7,-10,-14,-10,8.48
1697,3,54,26,39,-23,-11,-31,-49,8.485
1698,-31,-33,-10,38,24,0,17,71,8.49
1699,-2,45,-15,-62,5,2,-35,-100,8.495000000000001
1700,17,0,24,20,-7,-2,12,34,8.5
1701,19,3,-3,-38,22,20,31,41,8.505
1702,-6,-9,21,50,3,-4,-2,0,8.51
1703,5,-34,-8,-7,2,1,0,21,8.515
1704,-31,-25,-15,-26,-1,1,15,-10,8.52
1705,30,93,36,17,-25,-5,18,65,8.525
1706,-14,-60,-18,-21,-10,-13,-49,-97,8.53
1707,-25,-32,0,13,21,-7,-24,-13,8.535
1708,-9,-13,-14,-26,-19,-1,1,24,8.540000000000001
1709,30,3,5,24,-6,3,21,10,8.545
1710,29,85,29,32,5,4,19,48,8.55
1711,-32,-57,-30,-32,5,2,-15,-41,8.555
1712,0,-21,10,11,-5,-5,-1,6,8.56
1713,-8,3,0,14,10,4,-1,-7,8.565
1714,5,3,-16,4,-6,0,8,31,8.57
1715,15,1,20,17,-14,-9,-19,-59,8.575000000000001
1716,15,64,9,-6,33,11,15,32,8.58
1717,-16,-24,-6,7,22,8,-1,-12,8.585
1718,-5,8,4,22,-5,-13,-26,-34,8.59
1719,-30,-24,-10,-22,2,2,5,18,8.595
1720,13,4,-2,-8,-14,-1,6,0,8.6
1721,18,10,6,9,-5,-4,-1,1,8.605
1722,17,-5,11,28,8,1,6,10,8.61
1723,1,22,-1,-23,-7,-2,2,21,8.615
1724,-19,-15,-25,-12,-7,-2,-12,-15,8.620000000000001
1725,-3,-28,3,8,-1,-4,-10,-17,8.625
1726,11,23,25,10,10,3,9,5,8.63
1727,7,12,-8,4,4,3,8,14,8.635
1728,-11,-8,-20,-12,-6,-4,-2,-9,8.64
1729,9,5,-28,4,-1,-1,-1,-7,8.645
1730,-4,-4,19,-1,-2,1,0,1,8.65
1731,-8,0,6,12,3,-1,7,15,8.655
1732,-9,-16,-2,-7,-5,-4,-4,1,8.66
1733,2,27,22,16,1,-1,-5,-12,8.665000000000001
1734,1,8,-16,-8,-3,0,-3,-12,8.67
1735,-5,-17,0,4,0,-2,1,-2,8.675
1736,10,24,-5,-2,-4,0,-3,-16,8.68
1737,-10,-40,9,-5,1,-4,-12,2,8.685
1738,19,19,-5,8,6,1,8,20,8.69
1739,-1,-4,3,-10,-6,-1,1,10,8.695
1740,-9,-20,15,-18,-6,-1,3,-1,8.700000000000001
1741,2,7,21,-6,-4,-3,-2,-20,8.705
1742,-5,-8,2,-5,0,1,-10,-7,8.71
1743,9,8,-12,4,3,-1,1,7,8.715
1744,-2,-21,-15,-2,-3,-2,-1,-4,8.72
1745,4,26,-3,-1,1,0,-3,-1,8.725
1746,-6,-6,-11,-3,-3,0,5,-3,8.73
1747,-2,29,8,1,2,-1,-3,-5,8.735
1748,-2,-2,-13,4,2,1,-1,1,8.74
1749,1,-21,-15,3,0,-4,1,-2,8.745000000000001
1750,-4,-9,-20,-1,-3,-3,-1,-5,8.75
1751,-5,7,-2,2,4,1,-2,-3,8.755
1752,1,0,7,1,-2,-1,-2,5,8.76
1753,8,22,15,4,-1,-1,2,3,8.765
1754,-8,0,5,-11,-2,0,-1,-5,8.77
1755,-2,-9,2,2,0,1,-1,1,8.775
1756,-2,7,18,0,-2,-2,1,4,8.78
1757,1,-4,-12,-8,1,-1,1,-1,8.785
1758,-6,-2,15,-1,1,0,-1,-7,8.790000000000001
1759,-2,5,5,6,-1,-1,-2,2,8.795
1760,1,8,-32,-6,-2,0,0,2,8.8
1761,-6,11,-13,-5,-4,-3,-1,-6,8.805
1762,-4,2,0,-1,-1,-2,-3,-1,8.81
1763,0,2,-1,3,0,-2,-1,1,8.815
1764,4,14,8,2,0,0,2,-1,8.82
1765,-7,8,4,1,-2,0,-2,1,8.825000000000001
1766,0,19,-4,0,0,-1,0,-1,8.83
1767,1,3,0,1,-1,0,0,-1,8.835
1768,-2,-26,2,4,0,-3,-3,-1,8.84
1769,2,-26,-6,-5,-3,0,0,-2,8.845
1770,-2,-28,-9,-5,-1,-1,0,-2,8.85
1771,-2,-12,4,3,2,-1,-2,-1,8.855
1772,-1,-10,12,3,0,0,-2,2,8.86
1773,2,-8,21,-6,-3,0,-1,-1,8.865
1774,-2,-6,4,-4,-1,1,-1,-2,8.870000000000001
1775,-1,-15,0,-6,-3,-3,0,-2,8.875
1776,0,-3,-5,0,-1,1,0,2,8.88
1777,0,-3,-13,6,4,-2,0,-1,8.885
1778,-4,-13,-15,-7,-3,-2,0,-3,8.89
1779,-1,-3,-4,-1,-3,0,-2,-3,8.895
1780,-2,-4,-3,2,-1,-1,1,0,8.9
1781,1,8,1,-2,-2,2,0,0,8.905
1782,-2,11,-2,0,-1,0,-1,0,8.91
1783,-1,20,-5,2,-1,1,-1,-1,8.915000000000001
1784,-1,12,-1,-6,-3,-2,0,-2,8.92
1785,-1,10,-4,2,-1,-3,0,0,8.925
1786,2,-3,-4,-2,-3,-1,-1,1,8.93
1787,2,-2,-4,-3,-3,-2,-1,11,8.935
1788,-3,7,1,2,4,2,-1,-12,8.94
1789,-1,-5,-1,0,1,0,2,3,8.945
1790,-1,-7,-4,-4,-2,-1,-1,5,8.950000000000001
1791,-4,-5,0,0,-1,-2,-4,-14,8.955
1792,0,-5,0,-7,-3,-2,-1,4,8.96
1793,2,-10,-6,8,0,-2,-3,-4,8.965
1794,-3,-12,-4,-5,-3,0,-1,2,8.97
1795,-1,-15,-2,-10,-3,3,1,3,8.975
1796,0,-11,0,3,1,0,1,1,8.98
1797,-3,-6,0,-1,-1,-1,-1,-3,8.985
1798,0,-4,-2,1,-3,-3,-1,-2,8.99
1799,-2,-5,0,4,2,-1,-2,-2,8.995000000000001
1800,1,5,-1,2,2,2,0,0,9.0
1801,2,3,-3,-3,-2,-1,-1,1,9.005
1802,0,5,-1,-1,-2,-1,0,-3,9.01
1803,-1,-2,-1,-1,0,-1,0,-2,9.015
1804,1,9,1,1,2,1,-1,4,9.02
1805,-4,-13,-3,-2,-5,-1,-1,-1,9.025
1806,-2,-2,-1,-3,-2,-1,-1,-3,9.03
1807,1,-2,-3,2,3,2,1,0,9.035
1808,1,-8,-2,-3,-2,-3,-1,2,9.040000000000001
1809,0,8,0,-4,-3,-1,-1,-1,9.045
1810,-3,-4,1,2,2,0,1,-4,9.05
1811,-1,1,-2,-6,-4,-3,-1,1,9.055
1812,-2,8,-2,2,0,0,-2,-1,9.06
1813,0,5,2,1,-3,-1,-2,-4,9.065
1814,1,5,-1,-1,-2,0,1,0,9.07
1815,-2,-5,0,1,1,1,0,0,9.075000000000001
1816,0,-6,2,-1,-1,-3,1,1,9.08
1817,-2,-2,0,1,-1,-1,-2,0,9.085
1818,-1,-3,-3,2,1,-1,-2,1,9.09
1819,0,-5,0,-1,-1,-3,-1,-1,9.095
1820,0,-4,-3,-3,-2,-3,1,-1,9.1
1821,3,-7,5,1,2,1,-2,0,9.105
1822,-1,-1,-6,-1,-1,-1,-2,-2,9.11
1823,-2,0,0,0,-1,1,0,0,9.115
1824,-1,-3,-2,-1,-1,0,-1,0,9.120000000000001
1825,-2,2,-2,-2,-1,-3,0,-2,9.125
1826,1,-1,2,0,5,-1,-1,-1,9.13
1827,-1,0,-2,0,0,2,1,0,9.135
1828,2,1,1,4,3,2,0,-1,9.14
1829,-2,1,-1,2,0,0,0,-1,9.145
1830,-3,12,3,-8,-7,-2,-3,-3,9.15
1831,-1,-1,-3,-1,0,-1,0,-1,9.155
1832,0,0,-1,-4,-1,-2,-1,0,9.16
1833,0,-6,-4,0,0,0,-2,0,9.165000000000001
1834,1,-3,0,5,-1,-1,0,0,9.17
1835,-1,1,0,0,-2,-1,-2,-1,9.175
1836,-2,-4,-2,-3,-2,-2,-1,-2,9.18
1837,0,2,-1,-3,1,-1,-2,-1,9.185
1838,0,4,1,-3,-1,1,0,0,9.19
1839,0,2,0,4,-2,0,-2,-1,9.195
1840,0,1,-2,0,1,-1,-2,1,9.200000000000001
1841,-2,5,-1,-3,-1,-1,0,0,9.205
1842,-1,-5,3,0,-1,0,0,-2,9.21
1843,0,-2,-1,-1,2,-1,-2,-1,9.215
1844,1,-3,0,-3,-5,-2,-1,-2,9.22
1845,0,0,-2,-3,-2,2,-2,0,9.225
1846,-4,-1,-1,5,1,-1,-3,0,9.23
1847,-2,0,-2,-7,-5,-3,-2,-1,9.235
1848,-3,-1,-2,-4,-1,1,0,-2,9.24
1849,1,0,1,0,1,0,0,-2,9.245000000000001
1850,0,-1,-2,-4,-1,0,0,1,9.25
1851,-2,1,-1,3,-3,-1,-1,0,9.255
1852,0,-2,0,1,-2,-3,-1,1,9.26
1853,0,3,-1,-2,-5,-2,0,-1,9.265
1854,1,2,-1,-2,-1,-2,0,-1,9.27
1855,3,4,1,-4,4,1,0,0,9.275
1856,0,42,-1,2,-2,-1,-2,-2,9.28
1857,-1,68,-1,-1,-2,0,0,-1,9.285
1858,-2,30,-2,4,4,0,-2,-2,9.290000000000001
1859,1,10,-1,-5,-3,-3,-2,-1,9.295
1860,-2,-28,-4,-5,-1,-1,-1,-1,9.3
1861,-1,-40,1,1,-1,-1,0,0,9.305
1862,-1,-18,-3,-2,1,-2,-1,1,9.31
1863,-2,-23,-4,-7,-3,-1,0,0,9.315
1864,-1,-21,1,4,1,0,-1,-1,9.32
1865,-2,-18,0,2,1,-1,0,-1,9.325000000000001
1866,-1,-16,-1,-2,-5,-2,1,-1,9.33
1867,-2,-12,1,-1,1,0,-1,0,9.335
1868,-2,-2,2,-2,-2,0,-2,-1,9.34
1869,1,1,-3,-2,-2,-1,-1,0,9.345
1870,0,4,1,-1,1,-2,-1,-1,9.35
1871,-2,3,0,5,0,1,0,-1,9.355
1872,1,9,-4,-3,-3,-1,1,0,9.36
1873,0,-5,-1,-2,-1,-2,0,-2,9.365
1874,-1,0,-1,1,0,0,-2,-2,9.370000000000001
1875,-3,1,-1,-1,-4,-3,1,0,9.375
1876,-1,-8,1,5,4,0,0,-1,9.38
1877,0,-9,-4,-1,0,2,-1,-1,9.385
1878,1,-3,-1,-1,-2,1,-1,-1,9.39
1879,-2,2,-2,-1,-1,-1,0,0,9.395
1880,0,1,2,-2,-1,-1,-1,-1,9.4
1881,-1,-1,-1,1,-1,-2,0,0,9.405
1882,2,1,-3,-3,-1,-1,-1,-1,9.41
1883,1,-1,-1,-1,0,-1,0,1,9.415000000000001
1884,0,-3,-2,-3,-4,-3,-1,2,9.42
1885,-1,-4,0,-2,1,0,-1,-1,9.425
1886,0,0,-1,0,0,-1,-1,1,9.43
1887,1,3,2,5,-1,-1,0,-2,9.435
1888,-1,5,2,3,-1,-2,0,-3,9.44
1889,-2,-7,-4,-7,-4,-2,-2,-1,9.445
1890,-2,-2,-1,-6,-3,0,-1,1,9.450000000000001
1891,-2,3,-2,3,3,2,-1,-1,9.455
1892,-1,0,-2,-3,-3,-1,-1,-2,9.46
1893,-1,0,0,6,0,-1,-1,0,9.465
1894,-2,-1,2,-2,-3,0,1,1,9.47
1895,-2,2,-1,-1,-2,-2,-1,0,9.475
1896,-1,2,-1,1,0,-1,-2,0,9.48
1897,-1,0,1,1,-1,-1,0,-1,9.485
1898,-1,0,-3,-3,-1,-2,0,-2,9.49
1899,0,1,0,-1,0,-2,0,-1,9.495000000000001
1900,-3,-6,0,-1,1,1,0,-1,9.5
1901,3,1,-2,-4,0,-2,0,0,9.505
1902,-2,2,-2,1,-1,-1,1,0,9.51
1903,0,4,-1,0,0,-2,-1,0,9.515
1904,-1,-9,-1,-1,3,0,2,0,9.52
1905,0,-3,2,2,-1,-1,1,-1,9.525
1906,-1,-2,-2,-1,-1,0,0,0,9.53
1907,2,11,0,1,-5,-3,0,-2,9.535
1908,-3,11,-1,-8,1,1,-2,0,9.540000000000001
1909,-1,15,0,4,2,2,-1,0,9.545
1910,2,18,-2,0,1,-1,-2,-1,9.55
1911,-2,9,0,-4,-2,0,0,-1,9.555
1912,-1,10,-2,0,-2,-3,-2,-2,9.56
1913,-2,-6,-1,-3,0,0,-1,-1,9.565
1914,1,-11,0,2,-1,-1,-2,-2,9.57
1915,-2,-15,0,0,-1,2,0,-1,9.575000000000001
1916,-2,-15,0,-4,-3,-1,0,1,9.58
1917,-3,-11,0,-1,0,0,0,-1,9.585
1918,-2,-12,1,2,2,0,-1,0,9.59
1919,0,-9,-3,-6,-2,-2,-1,0,9.595
1920,-3,-6,1,2,0,1,0,0,9.6
1921,-1,-5,1,-2,-3,-2,-2,-1,9.605
1922,-1,-7,-1,2,2,1,-1,0,9.61
1923,-3,-7,2,4,1,0,-1,-1,9.615
1924,2,-1,-4,-5,-5,-3,-2,-2,9.620000000000001
1925,1,3,-3,-3,-1,-1,0,0,9.625
1926,-2,-2,-1,0,-2,-4,-2,-3,9.63
1927,-1,-3,-3,-1,1,0,-1,0,9.635
1928,-4,-1,1,1,-2,-3,0,-2,9.64
1929,0,0,-2,1,2,0,-2,-1,9.645
1930,-1,5,-1,-6,0,1,1,0,9.65
1931,-2,1,0,0,0,0,-2,-1,9.655
1932,2,3,-2,-1,-1,-1,-3,-2,9.66
1933,0,-2,-3,4,-1,-2,-2,0,9.665000000000001
1934,-8,-2,4,-3,-3,-1,0,-1,9.67
1935,4,3,-1,-3,-3,-3,-1,0,9.675
1936,2,-2,-2,-5,-3,1,-1,-1,9.68
1937,0,1,-2,-1,2,1,-1,1,9.685
1938,2,3,0,4,0,-2,0,1,9.69
1939,-4,-7,1,1,-1,-4,-2,-3,9.695
1940,-2,6,2,0,0,0,0,1,9.700000000000001
1941,0,2,0,-3,-2,-1,-2,-2,9.705
1942,0,3,0,0,-2,0,0,-1,9.71
1943,0,1,-1,0,-1,-1,-2,-2,9.715
1944,0,0,0,0,-2,1,0,-1,9.72
1945,-2,-2,0,-1,1,-1,1,-1,9.725
1946,-2,-2,-4,-1,-2,-1,-1,-2,9.73
1947,-6,-5,-1,-4,2,-1,0,-1,9.735
1948,-2,-2,-1,5,2,0,-2,-2,9.74
1949,-1,0,-2,-4,-5,-1,-3,-2,9.745000000000001
1950,-1,-2,-1,2,-2,-1,-1,1,9.75
1951,1,4,0,1,1,1,2,0,9.755
1952,-1,0,-2,-1,3,-2,0,-3,9.76
1953,-1,2,-2,-3,-4,-2,0,-1,9.765
1954,2,2,-1,0,-1,-2,-4,-1,9.77
1955,-1,9,-1,0,-2,-1,-2,-1,9.775
1956,-3,0,-1,1,1,3,0,1,9.78
1957,-2,-1,-1,-3,-3,-2,-2,-2,9.785
1958,2,-6,-1,1,-1,0,-1,-2,9.790000000000001
1959,2,0,0,-1,0,-1,2,0,9.795
1960,1,-4,-1,-1,-3,-2,-4,0,9.8
1961,1,-4,-3,0,1,0,0,0,9.805
1962,-4,-3,-1,-1,-2,-1,-1,-2,9.81
1963,-2,-2,-3,-2,-2,-1,-1,-3,9.815
1964,-3,1,0,1,-2,-1,-1,0,9.82
1965,-3,0,0,-1,1,1,0,0,9.825000000000001
1966,-2,1,-3,0,0,-2,-1,1,9.83
1967,0,0,-1,1,-3,-1,-1,-1,9.835
1968,-3,-5,-2,-8,-1,-2,1,-1,9.84
1969,0,1,0,0,-4,-1,0,-1,9.845
1970,0,3,-1,-3,2,1,-1,-2,9.85
1971,-3,-3,0,0,0,0,0,-1,9.855
1972,2,0,-1,0,-3,0,-1,-1,9.86
1973,1,-1,0,0,0,-1,0,0,9.865
1974,0,1,0,-1,-2,-2,-1,-1,9.870000000000001
1975,0,2,-2,-4,-2,-1,-3,1,9.875
1976,-3,8,3,4,5,2,0,0,9.88
1977,1,10,-1,-1,-2,-1,-1,0,9.885
1978,2,5,-2,2,-3,-1,0,-2,9.89
1979,1,0,1,-3,2,-2,-1,0,9.895
1980,1,-4,-2,0,-2,0,0,0,9.9
1981,-3,-3,0,4,-2,0,0,-1,9.905
1982,-1,-6,0,-2,1,-2,-1,0,9.91
1983,-1,-5,0,-1,-1,-1,-3,-1,9.915000000000001
1984,3,-3,-3,-2,-2,-1,-2,0,9.92
1985,-3,-3,3,-2,-2,-1,-2,0,9.925
1986,-2,-2,-3,-3,-3,0,-2,-2,9.93
1987,-1,-5,-1,1,-1,-1,-1,-1,9.935
1988,2,-3,-2,-4,-2,-1,-1,-1,9.94
1989,1,-4,-1,-3,-4,0,-1,0,9.945
1990,0,-2,-1,-2,1,0,0,2,9.950000000000001
1991,1,0,-1,1,1,1,0,0,9.955
1992,-2,-2,-2,2,1,-2,0,1,9.96
1993,-5,1,2,2,1,-2,0,-1,9.965
1994,0,-2,0,-3,-3,-1,-1,0,9.97
1995,-1,0,1,4,4,1,2,-2,9.975
1996,0,-3,-3,-4,-3,-2,-2,0,9.98
1997,-3,-5,0,-3,-1,-1,-2,-2,9.985
1998,1,1,-2,-5,-1,-1,-1,-1,9.99
1999,-4,-1,1,-1,-4,-2,-2,-1,9.995000000000001
2000,-3,0,0,6,4,0,-1,-2,10.0
2001,-1,-5,-5,-2,1,-2,0,-1,10.005
2002,0,-2,-2,1,0,-1,-1,-1,10.01
2003,-1,-4,-3,-2,-3,-1,-1,1,10.015
2004,-2,0,1,-7,-2,0,0,-1,10.02
2005,2,-1,-3,-1,1,1,-2,0,10.025
2006,0,0,0,1,0,1,0,-2,10.03
2007,0,-2,-1,-2,-1,0,-1,0,10.035
2008,-1,0,0,2,-1,-2,-2,-1,10.040000000000001
2009,1,2,0,-3,-3,-2,0,-1,10.045
2010,-3,-4,-1,-2,2,-1,1,-1,10.05
2011,0,2,-1,2,1,1,0,0,10.055
2012,-3,-2,1,0,-1,-1,-1,-2,10.06
2013,0,1,-1,0,-1,-1,-1,0,10.065
2014,0,1,-3,-2,-1,-1,-1,0,10.07
2015,-2,4,0,-4,-3,-2,-2,0,10.075000000000001
2016,0,0,-4,-2,-2,-1,1,-1,10.08
2017,-1,3,-1,-2,0,-1,1,-1,10.085
2018,0,-3,-1,-2,-2,-3,-1,-1,10.09
2019,2,0,-4,0,3,1,0,-1,10.095
2020,0,-1,3,2,-2,0,-1,0,10.1
2021,0,-1,0,1,0,-2,0,-1,10.105
2022,1,1,-1,-2,-1,1,0,-2,10.11
2023,-1,-1,-3,-5,-3,-3,-1,-2,10.115
2024,-1,0,0,1,1,0,-1,1,10.120000000000001
2025,-2,-3,-2,6,-1,1,-2,-1,10.125
2026,-1,1,3,2,0,-1,-1,0,10.13
2027,-1,-2,0,0,-2,-2,0,-2,10.135
2028,-1,2,-1,-3,-2,-1,-1,-2,10.14
2029,-1,0,-1,-1,-2,-1,-2,-1,10.145
2030,-2,-1,-1,0,-1,0,-2,-1,10.15
2031,-1,-1,1,-1,-2,1,-1,-1,10.155
2032,-1,-4,1,4,0,-2,0,0,10.16
2033,1,0,-1,-5,3,2,0,0,10.165000000000001
2034,-2,-1,-3,-1,0,1,-1,-2,10.17
2035,0,-1,-2,-1,-1,-2,-1,0,10.175
2036,0,-2,-1,-1,-2,-3,-1,-2,10.18
2037,0,-3,-1,-1,-1,-2,0,1,10.185
2038,-7,-4,2,-1,0,-1,-3,-1,10.19
2039,-2,0,-1,-1,-1,0,-2,-1,10.195
2040,0,-3,0,-2,-2,1,-2,0,10.200000000000001
2041,-2,2,1,1,-5,-2,-1,-1,10.205
2042,1,-2,-4,-4,3,0,0,0,10.21
2043,-1,-4,-2,1,-1,0,-1,-1,10.215
2044,0,3,0,1,0,0,0,0,10.22
2045,-1,-1,-2,-1,1,-1,1,0,10.225
2046,0,1,1,-1,-3,0,-1,-1,10.23
2047,0,-1,0,2,2,0,0,0,10.235
2048,0,1,-2,-2,-2,-3,1,-1,10.24
2049,0,-2,-2,-6,-4,-3,-2,0,10.245000000000001
2050,-1,-2,-2,2,-3,0,0,0,10.25
2051,-2,0,-1,1,3,3,1,-1,10.255
2052,-2,4,0,-1,-2,-1,-2,-2,10.26
2053,-1,-1,-1,-1,0,-2,-1,-2,10.265
2054,-2,1,0,-4,-4,-2,-1,0,10.27
2055,-1,-4,0,-1,0,-1,0,-1,10.275
2056,0,-1,-3,-2,-1,-1,-1,-1,10.28
2057,-2,1,1,1,0,0,-1,1,10.285
2058,1,-4,-1,1,0,0,1,-2,10.290000000000001
2059,1,1,1,1,-1,-1,-2,0,10.295
2060,-2,-1,-1,-4,-2,0,-1,0,10.3
2061,-1,3,-2,1,2,-1,-2,0,10.305
2062,-4,5,2,1,0,-1,-2,-2,10.31
2063,1,0,-2,-3,-2,-1,-1,-1,10.315
2064,1,-2,-3,-2,-1,-2,0,-1,10.32
2065,0,-3,-1,-1,-2,-1,0,0,10.325000000000001
2066,-1,-6,0,1,-1,0,0,-1,10.33
2067,-3,-4,-2,-3,-2,-1,-1,-1,10.335
2068,-1,-4,-1,-1,-1,-1,-3,-1,10.34
2069,-4,-2,-1,-7,-2,-1,1,-2,10.345
2070,-1,0,-2,3,6,0,1,-1,10.35
2071,-1,0,0,-1,-3,-1,0,0,10.355
2072,0,-4,-2,1,1,1,-1,-2,10.36
2073,-2,-2,-2,0,-2,-1,-2,-1,10.365
2074,0,2,-2,-3,-2,-1,0,-2,10.370000000000001
2075,-2,1,1,-3,-1,-2,-2,1,10.375
2076,-2,2,3,-3,-3,-1,1,0,10.38
2077,0,0,-1,8,2,1,-2,-2,10.385
2078,1,-2,-2,-8,-3,-1,-1,0,10.39
2079,-1,0,-3,-1,1,-1,0,-2,10.395
2080,-5,0,1,-1,-2,-1,0,0,10.4
2081,0,-3,-2,0,-1,0,0,-1,10.405
2082,-1,-1,-2,2,0,-1,0,0,10.41
2083,0,-1,-1,-1,-2,-1,-2,-3,10.415000000000001
2084,1,-2,-3,-2,0,-1,-2,-1,10.42
2085,-1,1,-2,-2,-1,-1,0,0,10.425
2086,-2,-1,0,-1,-1,-1,0,-2,10.43
2087,0,0,0,-2,1,0,0,-1,10.435
2088,1,-3,-3,0,0,-1,-2,-1,10.44
2089,0,1,0,0,-1,-3,-1,-2,10.445
2090,-1,-1,-1,-1,-1,-1,0,0,10.450000000000001
2091,-1,-1,0,-1,-1,-1,-1,-1,10.455
2092,-1,1,2,0,1,0,1,-1,10.46
2093,-2,0,0,-5,-3,-2,-1,-1,10.465
2094,0,-2,3,3,3,-1,-1,-1,10.47
2095,-3,-2,-1,5,1,0,-1,0,10.475
2096,-1,-2,-2,-3,0,0,0,0,10.48
2097,-1,-4,-2,0,0,0,2,0,10.485
2098,0,1,-1,-4,-5,-4,-1,-1,10.49
2099,1,-1,-2,-1,-1,-1,0,-2,10.495000000000001
2100,-1,-2,1,1,-2,0,-1,0,10.5
2101,-3,-1,0,-2,-3,-1,-1,-1,10.505
2102,0,0,0,-1,-2,-1,-1,1,10.51
2103,-3,1,2,1,3,2,1,0,10.515
2104,-1,-2,-1,-1,-1,-2,0,0,10.52
2105,-1,-2,0,1,2,-1,-2,-2,10.525
2106,0,2,0,1,-3,-2,-1,1,10.53
2107,0,-2,-3,-2,-2,-2,-3,-2,10.535
2108,-4,0,-1,-1,0,1,-1,-1,10.540000000000001
2109,-4,-3,1,0,-1,0,0,0,10.545
2110,0,-2,-3,-3,0,-2,0,-2,10.55
2111,2,1,-2,1,0,-2,0,2,10.555
2112,2,-5,-2,-1,0,-3,-2,0,10.56
2113,1,-1,-1,0,-1,-2,-2,-2,10.565
2114,-1,-1,-1,0,-2,1,0,0,10.57
2115,-2,0,-2,-2,-3,-1,-2,-2,10.575000000000001
2116,-2,-1,-1,0,0,0,-1,0,10.58
2117,-1,2,-1,-1,-1,-1,-2,0,10.585
2118,3,-2,-2,-4,-1,0,-2,-1,10.59
2119,-1,0,0,1,-2,-2,-2,0,10.595
2120,-2,-2,-1,0,0,0,0,-1,10.6
2121,1,-1,-1,-2,0,-1,0,0,10.605
2122,-4,-1,2,3,0,0,-1,-2,10.61
2123,-5,-3,0,-2,-2,-1,1,-2,10.615
2124,0,1,0,-1,-3,-2,-1,0,10.620000000000001
2125,1,0,-1,-2,-2,-2,-1,-1,10.625
2126,-4,-5,3,2,0,1,0,0,10.63
2127,2,0,-1,3,1,0,-1,-2,10.635
2128,-3,-1,-1,-2,1,0,-1,-1,10.64
2129,1,-1,-2,-1,-1,1,0,-1,10.645
2130,2,0,-4,-4,-3,-1,-3,2,10.65
2131,0,-1,-2,-2,-2,-3,-1,-2,10.655
2132,1,0,-2,-2,1,1,0,-1,10.66
2133,1,-2,-1,0,0,0,-2,-2,10.665000000000001
2134,0,3,0,-6,-3,0,-1,-2,10.67
2135,-1,-7,-1,-1,-2,-2,-1,-1,10.675
2136,1,2,0,4,3,-1,-1,-1,10.68
2137,0,-2,0,0,-2,0,0,0,10.685
2138,-1,-1,-2,2,-1,-3,-1,-1,10.69
2139,0,-3,1,-2,1,1,-1,-1,10.695
2140,0,-1,0,2,-1,-2,0,-1,10.700000000000001
2141,-1,1,-2,-5,-3,-1,1,-2,10.705
2142,0,-2,-1,4,2,1,0,-1,10.71
2143,0,0,-2,-5,-3,0,0,0,10.715
2144,-4,-3,-1,-1,1,0,-1,-1,10.72
2145,-2,1,0,2,0,0,-1,-1,10.725
2146,0,-1,0,-2,-4,-4,-2,-2,10.73
2147,-2,-2,1,-1,-2,-2,1,1,10.735
2148,2,5,-4,-3,-1,0,1,-2,10.74
2149,-5,0,3,2,2,0,-1,0,10.745000000000001
2150,-1,1,-1,2,1,0,-1,0,10.75
2151,0,1,-1,2,-1,0,-2,0,10.755
2152,1,0,-3,-4,-4,-2,-1,0,10.76
2153,-3,-1,-2,-5,-2,0,1,0,10.765
2154,3,-3,-3,-2,-1,-2,-2,-1,10.77
2155,-1,0,1,4,3,-2,-3,-1,10.775
2156,-5,-2,1,-4,-2,-1,-1,-1,10.78
2157,1,0,-2,-2,1,2,-1,-2,10.785
2158,-1,-2,-3,0,-1,-1,-1,0,10.790000000000001
2159,0,-4,-2,-3,-1,0,0,1,10.795
2160,1,-4,-3,2,-1,0,-3,-1,10.8
2161,0,0,-1,-1,-1,-2,0,0,10.805
2162,-1,1,2,-2,1,-1,1,0,10.81
2163,-2,-1,-4,-3,-3,-2,-2,1,10.815
2164,2,1,1,1,0,0,-1,0,10.82
2165,-1,3,0,-1,-1,-1,0,1,10.825000000000001
2166,-1,-4,0,0,2,0,0,-1,10.83
2167,0,0,-1,-1,-1,-2,0,-1,10.835
2168,-2,-3,0,-1,-4,-3,0,-1,10.84
2169,1,-7,-4,-1,-3,-2,-2,-1,10.845
2170,1,1,-3,5,7,0,-1,-1,10.85
2171,0,-1,1,-1,-1,0,0,0,10.855
2172,-2,1,0,-4,-1,0,-1,-1,10.86
2173,-1,-4,-3,-3,-3,-1,-1,1,10.865
2174,0,0,-1,-3,-3,-2,1,0,10.870000000000001
2175,1,-1,-2,-2,-1,0,1,-1,10.875
2176,-1,0,1,-1,-2,-1,0,0,10.88
2177,-2,0,2,4,1,0,0,-1,10.885
2178,-1,0,-4,-5,-2,-1,0,-2,10.89
2179,-3,0,-2,-2,-1,-1,0,-1,10.895
2180,-3,-4,0,-1,0,1,-1,-1,10.9
2181,-2,0,1,0,-1,-2,0,-1,10.905
2182,-3,-1,1,0,-1,-1,0,0,10.91
2183,0,-3,-1,1,-1,-2,-1,-2,10.915000000000001
2184,-1,-1,-2,0,0,-2,-1,-1,10.92
2185,1,-4,-2,0,2,-3,-1,-3,10.925
2186,-1,-1,-3,-1,-4,-1,-1,1,10.93
2187,-1,-1,-2,0,-1,0,-2,-2,10.935
2188,2,-5,-4,-4,-2,-1,-2,-1,10.94
2189,-2,1,-1,-1,0,0,-1,-1,10.945
2190,-2,-2,-1,-6,-3,0,0,-1,10.950000000000001
2191,0,3,2,-1,-1,-1,-1,-1,10.955
2192,0,1,-2,0,2,0,3,4,10.96
2193,-1,-2,-1,-1,-2,-1,-1,14,10.965
2194,-5,-1,-3,0,-3,0,-8,-33,10.97
2195,-1,0,-2,0,0,-1,-2,0,10.975
2196,-2,-1,2,1,0,-3,-1,-6,10.98
2197,2,0,-1,-1,1,0,-1,4,10.985
2198,-2,1,2,-2,-1,0,0,8,10.99
2199,-2,0,-2,-1,-1,-1,0,-4,10.995000000000001
2200,-1,0,-1,-5,-1,1,-1,1,11.0
2201,0,0,-2,1,2,-1,-1,-4,11.005
2202,0,-3,-1,0,0,-2,0,4,11.01
2203,-1,0,0,0,0,-2,0,-2,11.015
2204,-1,-2,0,0,1,1,-1,2,11.02
2205,-1,-1,-2,0,-2,-1,-2,-5,11.025
2206,0,-3,-3,0,1,1,-1,1,11.03
2207,0,0,-1,0,1,-1,1,4,11.035
2208,-2,1,-1,-1,-4,-3,-2,-2,11.040000000000001
2209,-2,1,-1,-4,-2,0,0,-5,11.045
2210,-1,-2,-1,1,-2,-1,1,3,11.05
2211,1,-2,0,-3,-2,-1,-2,0,11.055
2212,2,0,-5,0,-1,-1,-1,-3,11.06
2213,3,-5,-3,0,0,-2,-2,-5,11.065
2214,2,3,2,-2,-2,-3,0,5,11.07
2215,-1,-3,-2,-2,-2,-1,-2,-1,11.075000000000001
2216,0,-1,1,2,2,-1,1,-3,11.08
2217,-3,-2,-3,-4,-4,-1,-2,-1,11.085
2218,-1,0,2,4,2,0,-1,1,11.09
2219,0,-2,-2,-4,0,0,0,-2,11.095
2220,-2,-1,-1,1,-5,-1,0,0,11.1
2221,0,-1,-2,-1,-2,0,0,1,11.105
2222,-2,-2,0,2,1,0,0,-1,11.11
2223,-2,0,1,-1,-2,-2,-2,0,11.115
2224,-1,-1,-1,-2,1,-2,0,1,11.120000000000001
2225,-3,-3,0,3,4,0,1,-1,11.125
2226,2,1,-1,1,0,0,0,0,11.13
2227,1,0,-3,-2,-1,-1,0,0,11.135
2228,0,2,-2,-2,-3,-1,1,0,11.14
2229,-1,-2,0,-1,0,0,0,0,11.145
2230,-2,-3,0,-1,-1,-1,0,-1,11.15
2231,-1,-7,-3,-6,-2,-2,-2,-2,11.155
2232,2,2,0,0,-1,0,-1,0,11.16
2233,-2,0,-2,1,0,-2,-3,-3,11.165000000000001
2234,-2,0,1,-2,-2,-2,0,1,11.17
2235,-1,1,-1,1,1,1,-1,-1,11.175
2236,-1,-2,0,0,-2,0,-1,-1,11.18
2237,3,2,-1,0,2,-1,0,0,11.185
2238,-2,-5,-3,-3,3,0,-1,-1,11.19
2239,0,3,0,3,-5,0,-1,0,11.195
2240,-3,-6,-2,-1,0,0,-1,-3,11.200000000000001
2241,0,-2,1,1,-3,-2,-1,-3,11.205
2242,-2,-2,-3,-1,-2,0,0,-1,11.21
2243,0,0,0,-2,-1,-1,-1,-2,11.215
2244,-1,0,0,-2,-1,-2,0,0,11.22
2245,-1,1,1,0,-1,-1,-2,-1,11.225
2246,-3,-2,-1,2,0,-1,-1,-1,11.23
2247,0,0,-2,-1,-1,1,2,-2,11.235
2248,-1,-1,1,1,-1,-2,-1,-1,11.24
2249,0,-1,-1,-6,-2,0,-2,0,11.245000000000001
2250,-4,-1,-1,-4,-2,-1,0,-1,11.25
2251,0,0,-1,0,0,1,0,0,11.255
2252,-2,-1,-1,-1,1,0,-1,0,11.26
2253,-3,-1,1,1,-3,-2,0,0,11.265
2254,1,-1,-3,-1,-3,0,-2,-1,11.27
2255,-3,-2,-1,-2,2,-1,-1,0,11.275
2256,0,-5,-2,-2,-1,-1,-2,-1,11.28
2257,-5,0,1,-1,-1,-1,1,0,11.285
2258,1,3,0,-1,-3,-2,0,1,11.290000000000001
2259,-3,-2,-3,0,2,0,0,-1,11.295
2260,0,4,0,1,1,-1,0,-2,11.3
2261,2,-2,-4,0,-1,-2,-1,-2,11.305
2262,-3,-2,-1,-1,0,-2,0,-1,11.31
2263,-4,-1,3,3,-1,-1,-1,-3,11.315
2264,-1,-1,-4,-2,-3,-1,-1,1,11.32
2265,0,0,-1,-1,0,-1,0,-1,11.325000000000001
2266,0,-3,0,0,-6,-1,-1,-1,11.33
2267,-1,-1,0,1,2,1,-2,-1,11.335
2268,-2,0,-1,1,-2,0,-1,-3,11.34
2269,-1,-3,-1,1,1,-1,-2,0,11.345
2270,-1,-2,-3,-3,0,2,-1,-1,11.35
2271,-1,2,4,3,-2,-2,-1,0,11.355
2272,-1,-2,1,-2,1,0,0,-3,11.36
2273,-1,-1,-2,-2,-2,-2,-2,-1,11.365
2274,0,2,0,4,3,-2,0,-1,11.370000000000001
2275,0,-4,-5,-7,-1,-2,0,-2,11.375
2276,1,1,0,-1,-2,0,-1,-3,11.38
2277,-3,2,-1,-3,-3,0,-1,-4,11.385
2278,-1,-2,-1,-3,-3,-1,-1,-1,11.39
2279,0,-2,-2,0,-3,-2,-2,0,11.395
2280,0,0,-3,-2,0,-1,-1,1,11.4
2281,-2,-1,-3,-4,-1,-1,-1,0,11.405
2282,1,-2,0,1,-1,-2,-1,0,11.41
2283,0,-1,1,0,0,1,0,-1,11.415000000000001
2284,-2,-2,0,1,0,1,0,0,11.42
2285,0,-1,2,3,2,0,0,0,11.425
2286,-2,0,-3,-3,-3,-3,-2,0,11.43
2287,2,-2,-2,2,1,-1,0,-1,11.435
2288,0,2,-1,-4,-1,-2,-1,0,11.44
2289,1,-1,-1,1,-3,-2,0,0,11.445
2290,-1,3,2,-1,1,1,1,-1,11.450000000000001
2291,-1,0,-1,3,2,3,-1,0,11.455
2292,-2,-2,2,0,1,0,0,-1,11.46
2293,1,1,0,-1,-2,1,0,-1,11.465
2294,0,0,0,1,-2,-1,-1,-1,11.47
2295,-2,-4,-2,-7,-6,-3,0,-1,11.475
2296,-1,-2,-1,-2,1,-1,0,0,11.48
2297,2,-1,-5,-3,-1,-2,-1,-1,11.485
2298,-1,-1,2,2,-1,1,-2,-1,11.49
2299,0,-1,-2,-1,-2,-2,-3,-1,11.495000000000001
2300,-3,5,-2,-3,-2,-1,-1,-1,11.5
2301,-2,8,-1,-4,-3,0,1,0,11.505
2302,1,5,-2,0,5,-1,0,0,11.51
2303,-1,-2,2,1,-1,0,1,-1,11.515
2304,1,-12,-2,2,0,-2,0,-1,11.52
2305,-1,-6,0,2,2,1,0,0,11.525
2306,-7,-6,1,-9,-5,0,-1,0,11.53
2307,-2,-4,-2,-3,-3,-2,-1,0,11.535
2308,-1,-2,0,2,2,0,0,-1,11.540000000000001
2309,-1,-7,-2,-3,-2,-1,-1,-2,11.545
2310,2,-2,2,1,0,0,-1,1,11.55
2311,3,2,-1,-2,0,0,-1,0,11.555
2312,-8,-3,3,0,-1,-1,0,0,11.56
2313,0,3,1,2,0,-2,-2,-1,11.565
2314,-2,-3,-1,-2,-3,-1,-1,-2,11.57
2315,2,5,0,0,-1,-2,-1,0,11.575000000000001
2316,1,-3,-3,2,0,-1,-2,-1,11.58
2317,-1,-2,1,1,0,-2,-2,-1,11.585
2318,-1,0,1,4,1,-2,-1,-1,11.59
2319,-1,-2,-3,-12,-4,0,1,-1,11.595
2320,-2,-4,-3,0,-1,-1,-2,-2,11.6
2321,-1,-1,-1,0,1,0,0,-1,11.605
2322,4,-2,-5,1,0,0,0,1,11.61
2323,0,0,1,4,-1,-1,-2,-2,11.615
2324,-1,1,-2,-9,-5,0,1,0,11.620000000000001
2325,1,-2,-1,-1,-3,-2,0,-1,11.625
2326,-2,1,0,-1,1,-1,-1,0,11.63
2327,-1,-1,-2,1,0,1,0,-1,11.635
2328,-1,0,-2,1,-1,-1,-1,-1,11.64
2329,-4,1,0,2,-1,-1,1,-1,11.645
2330,-2,-6,0,5,2,-2,0,-2,11.65
2331,-4,-1,-2,-4,-2,-1,-2,-1,11.655
2332,0,6,4,8,-1,-2,-3,0,11.66
2333,0,-3,-4,-4,4,1,2,1,11.665000000000001
2334,1,2,-3,-9,-7,-2,-1,0,11.67
2335,-1,-3,-2,1,0,1,0,-1,11.675
2336,-2,1,1,-1,-3,-5,-3,0,11.68
2337,-2,7,2,9,3,2,-1,-2,11.685
2338,2,19,-5,-13,-3,-1,-1,-1,11.69
2339,-1,4,-4,-5,-2,0,0,-1,11.695
2340,-5,5,3,2,-1,1,0,0,11.700000000000001
2341,-2,-8,1,3,-2,-3,-2,-2,11.705
2342,-3,-7,1,1,-3,0,1,-2,11.71
2343,1,-3,2,0,-2,-4,-3,-2,11.715
2344,5,-7,-8,0,0,-1,0,-1,11.72
2345,-1,-8,-7,-9,0,1,0,-1,11.725
2346,0,-5,0,1,-2,0,0,-2,11.73
2347,-2,-5,0,2,1,-2,-3,-3,11.735
2348,1,-2,2,7,0,-3,-2,0,11.74
2349,1,-2,-3,-9,-1,0,1,0,11.745000000000001
2350,6,0,-3,-6,-1,0,2,11,11.75
2351,-10,-11,-20,0,1,-1,-5,-17,11.755
2352,1,1,0,0,4,-1,-2,-2,11.76
2353,-1,-7,-6,-2,-3,-3,-3,-3,11.765
2354,-1,-1,4,2,2,-2,1,-3,11.77
2355,5,2,4,-2,-5,-2,4,14,11.775
2356,-1,2,0,-9,-7,-2,-1,0,11.78
2357,0,-1,1,-3,2,0,-4,-4,11.785
2358,-4,5,7,14,1,0,0,-1,11.790000000000001
2359,4,2,2,7,4,1,8,30,11.795
2360,1,-2,-4,-4,-2,2,5,-10,11.8
2361,-3,3,2,-24,-8,-2,-6,-4,11.805
2362,-4,-6,-4,2,3,-2,-16,-48,11.81
2363,-6,3,3,-15,-3,-2,-5,-4,11.815
2364,-1,-7,-1,5,0,-2,3,13,11.82
2365,15,2,0,9,-4,-3,8,23,11.825000000000001
2366,-17,-3,-5,-8,-4,-2,0,-3,11.83
2367,-8,6,3,8,-3,-2,-2,-9,11.835
2368,-1,-5,-4,0,6,3,-4,3,11.84
2369,3,3,0,6,2,0,-1,-7,11.845
2370,6,-7,-5,-5,-3,0,3,15,11.85
2371,1,3,10,2,2,3,2,-1,11.855
2372,-3,-3,-4,-5,-2,-1,0,-6,11.86
2373,-7,0,-1,10,-3,-4,-3,-1,11.865
2374,6,1,-4,-6,-1,3,5,10,11.870000000000001
2375,1,2,4,4,-3,-2,0,6,11.875
2376,2,-4,-5,-9,14,4,-3,-21,11.88
2377,12,2,-2,-1,-2,0,-1,1,11.885
2378,-5,5,1,6,-1,-5,-6,-8,11.89
2379,-14,-9,-5,-7,-3,-3,-2,-8,11.895
2380,3,-1,2,6,-4,1,2,16,11.9
2381,4,15,15,13,2,-5,-3,-16,11.905
2382,-10,-12,-7,3,3,3,1,12,11.91
2383,19,6,-5,10,9,1,2,-10,11.915000000000001
2384,-11,-25,-16,-28,-11,-5,-8,-4,11.92
2385,-14,-3,-10,-20,-4,2,2,-3,11.925
2386,14,10,13,4,-6,-4,1,8,11.93
2387,5,-24,-3,18,0,-1,5,30,11.935
2388,2,25,6,0,-10,-5,-5,-36,11.94
2389,5,-10,-5,5,-5,-2,1,1,11.945
2390,-18,-17,-8,-10,12,4,-7,-20,11.950000000000001
2391,-10,10,-2,-19,-8,-2,-6,-31,11.955
2392,-1,-16,3,3,-3,-1,10,39,11.96
2393,-6,13,5,12,-4,-3,-5,3,11.965
2394,5,0,4,3,-1,-5,-4,-10,11.97
2395,4,-6,-1,1,-4,-2,-1,10,11.975
2396,12,8,-6,15,16,2,1,-6,11.98
2397,-10,-2,-11,-48,-12,6,7,12,11.985
2398,2,8,-1,-2,-7,0,6,13,11.99
2399,15,-1,4,10,5,1,2,-5,11.995000000000001
2400,-11,4,18,14,-9,-7,1,19,12.0
2401,-2,-46,-15,22,1,-6,-7,-12,12.005
2402,11,-8,-19,-21,0,8,10,10,12.01
2403,-13,-7,-3,-3,-3,-2,1,9,12.015
2404,-1,32,12,21,-5,-7,-18,-56,12.02
2405,-17,-33,-7,-45,13,6,-11,-3,12.025
2406,2,11,1,47,-6,-9,-21,-36,12.030000000000001
2407,9,-19,-7,-24,1,4,16,31,12.035
2408,-22,-13,-11,-19,-13,1,15,43,12.040000000000001
2409,6,41,15,6,-13,-2,11,16,12.045
2410,5,-21,-10,3,19,2,-11,-12,12.05
2411,20,1,9,-17,-1,-2,-21,-33,12.055
2412,-21,28,-2,16,-5,-8,-23,-34,12.06
2413,-25,3,17,55,4,-8,9,19,12.065
2414,28,-36,-21,-54,21,23,34,49,12.07
2415,6,39,7,11,-8,-6,-6,10,12.075000000000001
2416,-16,-38,-10,-27,-9,-5,1,10,12.08
2417,7,52,6,-2,28,10,-16,-41,12.085
2418,-5,20,21,-14,-28,-12,-4,-3,12.09
2419,3,-66,-9,15,-14,-3,3,-9,12.095
2420,19,-4,-3,54,12,-4,-8,24,12.1
2421,-1,-17,-2,-58,-27,-4,-15,-14,12.105
2422,4,5,-5,42,27,-6,-9,-24,12.11
2423,-41,5,-5,-10,-29,5,27,26,12.115
2424,19,23,-4,-105,0,8,11,35,12.120000000000001
2425,13,-36,-17,28,6,-2,5,-25,12.125
2426,-8,51,2,-44,-19,5,8,21,12.13
2427,21,55,12,23,10,-1,9,-3,12.135
2428,11,-60,2,78,14,5,-9,16,12.14
2429,-47,9,10,26,10,-11,-37,-42,12.145
2430,-6,3,-12,-30,-12,-3,-12,-3,12.15
2431,-22,25,-2,-1,6,4,8,19,12.155000000000001
2432,-26,-71,-22,-22,10,5,-7,7,12.16
2433,25,24,25,47,-28,-19,2,5,12.165000000000001
2434,-24,-41,-17,-7,28,10,30,39,12.17
2435,6,47,19,-13,18,19,18,7,12.175
2436,-6,32,2,1,-13,-4,-5,-6,12.18
2437,-11,21,-6,10,-7,0,-19,-49,12.185
2438,14,-55,-10,2,11,-6,4,26,12.19
2439,25,8,4,-28,-33,-10,-5,-1,12.195
2440,4,19,25,5,-10,-11,6,20,12.200000000000001
2441,-16,-44,-27,2,11,15,10,-31,12.205
2442,32,-5,-1,-2,-28,-5,-9,26,12.21
2443,-37,-5,-2,-12,52,2,-31,-83,12.215
2444,-10,50,25,35,-52,-24,-19,-41,12.22
2445,12,-24,-8,3,32,9,31,113,12.225
2446,-17,-29,3,3,-5,3,15,-10,12.23
2447,53,38,18,-26,13,-1,-7,-1,12.235
2448,5,-33,-11,76,10,4,22,57,12.24
2449,22,-10,-20,-74,8,14,-17,-40,12.245000000000001
2450,-48,65,20,40,26,-6,-50,-97,12.25
2451,-7,-112,-23,16,-49,-22,-4,31,12.255
2452,46,58,49,43,0,5,64,63,12.26
2453,-7,-1,9,-72,37,10,-7,-18,12.265
2454,-34,68,-7,-16,-49,-22,-49,52,12.27
2455,-55,-105,-54,12,-1,-25,-37,-17,12.275
2456,20,18,-34,-55,10,23,30,31,12.280000000000001
2457,43,6,34,49,-47,-21,24,33,12.285
2458,41,25,30,12,-24,-6,12,-17,12.290000000000001
2459,23,38,-2,56,26,8,30,48,12.295
2460,-38,-54,-4,-79,8,27,27,37,12.3
2461,42,80,-12,43,-3,3,-14,-67,12.305
2462,-61,-7,-8,0,46,0,-48,-122,12.31
2463,-9,10,8,20,29,4,-7,12,12.315
2464,-9,-24,-10,13,-1,-8,-18,-23,12.32
2465,10,46,14,-41,-33,-3,46,102,12.325000000000001
2466,37,-8,-34,-50,-16,13,32,32,12.33
2467,4,-76,-30,-69,-33,-11,-51,-84,12.335
2468,-28,15,28,45,46,-7,-35,-35,12.34
2469,-8,-3,-61,-31,-31,4,26,51,12.345
2470,45,-7,58,76,-15,2,66,127,12.35
2471,-20,41,-11,51,83,24,-2,-46,12.355
2472,-4,42,44,-2,-39,-26,-56,-57,12.36
2473,-56,-57,-31,-16,8,-11,-26,-21,12.365
2474,44,30,30,12,6,9,42,85,12.370000000000001
2475,4,-22,-2,-55,-36,7,10,-29,12.375
2476,32,-1,-44,29,53,3,-28,-11,12.38
2477,-43,-19,-31,-45,55,26,12,-24,12.385
2478,-19,-20,0,-2,-52,-13,-14,-54,12.39
2479,-80,22,47,-2,40,12,2,-2,12.395
2480,6,-25,-16,-8,-35,-8,-8,-41,12.4
2481,77,62,85,127,-62,-19,41,113,12.405000000000001
2482,-4,-72,-29,-49,91,18,-10,-19,12.41
2483,9,19,-18,-7,-45,-21,-36,-17,12.415000000000001
2484,-1,55,7,14,24,15,38,77,12.42
2485,-65,-100,4,20,-16,-17,-55,-116,12.425
2486,11,52,9,-8,-17,-12,-18,-9,12.43
2487,-31,-9,-15,47,2,-6,18,61,12.435
2488,6,-8,-3,-74,20,17,19,7,12.44
2489,60,81,43,22,-19,-5,0,43,12.445
2490,-75,24,25,21,-29,-11,-7,-47,12.450000000000001
2491,4,33,-2,-18,-31,-3,-11,-6,12.455
2492,13,-43,-20,2,45,9,3,-12,12.46
2493,30,-6,-2,-38,10,20,19,50,12.465
2494,4,24,-20,-61,17,-2,-13,-41,12.47
2495,-4,-20,-8,-11,-14,-8,-9,12,12.475
2496,43,60,34,59,-82,-21,38,58,12.48
2497,-23,-54,-22,22,94,31,13,20,12.485
2498,-33,3,-1,20,-2,-8,-34,-9,12.49
2499,3,94,50,-24,8,-3,14,-18,12.495000000000001
2500,-24,-64,-45,-66,-18,-2,-39,-30,12.5
2501,-47,32,14,71,-33,-33,-33,-33,12.505
2502,24,-68,-23,20,3,11,3,18,12.51
2503,17,4,12,25,-8,8,19,14,12.515
2504,29,52,-19,-13,0,8,22,57,12.52
2505,14,-61,-17,-8,26,-2,1,3,12.525
2506,7,-14,6,36,-17,-6,31,33,12.530000000000001
2507,19,45,13,-28,4,12,0,-10,12.535
2508,-57,15,-5,-46,-25,-13,-34,-59,12.540000000000001
2509,-2,-37,-13,-33,-71,-21,-22,-16,12.545
2510,19,-42,-2,52,98,11,14,2,12.55
2511,83,28,-6,-65,-40,10,37,101,12.555
2512,-36,13,-10,62,-6,-8,-20,-101,12.56
2513,9,0,6,-66,14,7,-1,17,12.565
2514,-49,7,-37,-36,-52,-17,-19,-17,12.57
2515,4,-43,9,30,-9,-9,13,49,12.575000000000001
2516,-10,-15,21,-24,13,2,-14,-78,12.58
2517,-10,24,-55,11,-29,-9,26,63,12.585
2518,9,-9,-5,11,2,5,-8,-21,12.59
2519,-61,-17,-10,-13,23,-15,-53,-33,12.595
2520,-4,-28,-23,-31,-19,-2,-11,-23,12.6
2521,22,18,32,17,39,8,16,8,12.605
2522,70,43,6,5,-22,13,52,99,12.61
2523,-18,59,-10,-19,12,-3,-11,-26,12.615
2524,-2,-100,6,50,-12,-14,-3,16,12.620000000000001
2525,-21,12,3,-74,27,12,11,37,12.625
2526,21,104,22,-19,-6,15,-9,-90,12.63
2527,-15,-82,-6,51,-12,-12,-8,-12,12.635
2528,16,-25,-20,-13,17,7,13,29,12.64
2529,-9,40,23,13,-6,-7,-11,-24,12.645
2530,-8,-32,1,-22,-28,-10,0,31,12.65
2531,-10,-9,-17,-9,-7,0,1,-25,12.655000000000001
2532,44,52,9,-10,10,4,9,16,12.66
2533,19,-27,36,84,-49,-16,7,66,12.665000000000001
2534,-83,-58,-36,-42,85,15,-61,-113,12.67
2535,14,29,16,18,-3,2,17,74,12.675
2536,-23,-29,-21,-14,12,0,-3,33,12.68
2537,13,50,-1,25,-25,0,-11,-31,12.685
2538,13,43,11,24,17,2,22,22,12.69
2539,1,-53,11,58,11,0,-1,-46,12.695
2540,-6,-26,-44,-101,19,16,18,16,12.700000000000001
2541,8,9,-31,-13,2,0,13,14,12.705
2542,28,-17,19,27,-48,-22,-18,5,12.71
2543,6,-1,10,28,33,10,-4,-9,12.715
2544,-60,50,25,50,-15,-9,-9,-52,12.72
2545,-4,14,2,-34,42,15,1,-14,12.725
2546,-20,-66,-31,10,-17,-14,-5,22,12.73
2547,30,38,19,-2,-11,1,13,32,12.735
2548,50,-2,25,-16,-19,5,15,31,12.74
2549,-39,-24,-35,-29,33,-3,-22,-38,12.745000000000001
2550,-19,33,20,21,-30,-13,-9,-41,12.75
2551,27,0,-17,-4,6,4,14,31,12.755
2552,21,-29,7,75,50,4,-7,-19,12.76
2553,11,61,21,-56,-28,6,-4,-21,12.765
2554,-10,-28,18,-26,-5,-4,-2,34,12.77
2555,-14,-30,-23,3,-20,-8,-4,-42,12.775
2556,-5,1,8,4,-1,0,13,55,12.780000000000001
2557,3,33,-10,-5,16,5,-9,-28,12.785
2558,26,31,16,24,-47,-15,-8,10,12.790000000000001
2559,-15,-6,-8,-45,52,19,27,49,12.795
2560,14,-12,-13,43,-3,-5,6,14,12.8
2561,-1,-60,24,4,-5,-6,-28,-75,12.805
2562,-16,3,-52,-8,6,2,0,3,12.81
2563,-15,9,15,24,-13,-7,-7,-28,12.815
2564,-7,-15,-27,-62,-4,1,-13,-29,12.82
2565,-5,15,13,17,-5,-6,-3,-3,12.825000000000001
2566,11,-14,3,-14,-6,4,15,16,12.83
2567,25,13,28,24,0,-1,12,33,12.835
2568,1,28,5,-1,1,-1,2,1,12.84
2569,-24,3,-14,-17,-15,-2,-3,7,12.845
2570,7,-24,4,5,36,8,10,50,12.85
2571,-14,-3,-13,-13,-11,-9,-33,-87,12.855
2572,-3,14,13,-8,-17,0,-5,-5,12.86
2573,16,18,4,25,13,5,24,62,12.865
2574,-7,-19,24,6,-7,3,10,10,12.870000000000001
2575,14,-12,-30,-57,-17,-6,-30,-52,12.875
2576,-38,13,-4,-8,-1,-15,-34,-49,12.88
2577,-16,-50,-19,-4,-10,-7,1,13,12.885
2578,19,9,7,-3,-1,4,16,17,12.89
2579,14,-3,20,17,-10,4,16,34,12.895
2580,3,7,-11,-18,-11,-1,6,1,12.9
2581,9,-2,-2,12,5,2,4,9,12.905000000000001
2582,3,8,11,4,5,1,-2,7,12.91
2583,-5,13,-17,-4,-2,-1,-4,-24,12.915000000000001
2584,2,-3,10,2,0,1,2,15,12.92
2585,-9,-25,-24,-1,4,1,-6,-16,12.925
2586,6,3,-12,-8,-1,1,-4,-15,12.93
2587,-8,6,5,-1,-5,-2,5,22,12.935
2588,2,12,-15,-5,-3,-1,1,1,12.94
2589,7,-8,2,4,0,3,2,-1,12.945
2590,-2,0,-24,-10,0,-3,-6,-23,12.950000000000001
2591,-2,-5,16,8,-3,-2,2,12,12.955
2592,-1,1,13,-5,-3,-2,0,4,12.96
2593,-2,-11,1,-5,-2,0,-6,-15,12.965
2594,8,13,6,5,2,0,-2,2,12.97
2595,-3,-8,-30,-5,0,1,4,6,12.975
2596,5,10,9,5,0,1,0,-4,12.98
2597,-9,0,8,4,1,-3,-9,-7,12.985
2598,5,-3,3,-8,-1,-1,2,0,12.99
2599,-5,-8,1,-3,-2,-3,6,6,12.995000000000001
2600,7,7,8,0,1,-2,-1,0,13.0
2601,-16,-3,-4,0,1,0,4,-10,13.005
2602,-13,2,1,3,-1,0,-8,-6,13.01
2603,4,0,-4,-3,-4,0,-2,4,13.015
2604,3,3,-5,0,0,-2,1,5,13.02
2605,3,0,1,3,1,-4,-6,-6,13.025
2606,-4,3,1,-1,-1,-2,0,-6,13.030000000000001
2607,0,2,-6,-2,-1,2,1,5,13.035
2608,3,16,6,2,2,0,0,-1,13.040000000000001
2609,2,9,0,-2,-1,-2,-2,-5,13.045
2610,-5,25,-1,-4,-2,-2,1,-3,13.05
2611,-2,6,0,-2,0,0,0,4,13.055
2612,-3,-3,-1,0,0,1,1,-2,13.06
2613,1,-15,-6,-4,-3,1,-3,-5,13.065
2614,-2,-8,1,-2,-1,-2,1,2,13.07
2615,0,-10,-3,0,-2,-3,1,1,13.075000000000001
2616,-1,-4,-3,1,0,0,-1,-1,13.08
2617,-2,-9,-1,0,-1,-3,-1,-2,13.085
2618,-3,4,1,3,-1,2,0,-1,13.09
2619,-2,5,0,0,-1,-1,1,-1,13.095
2620,-4,3,1,-3,-2,-1,-1,0,13.1
2621,1,3,1,-3,1,-1,-2,-2,13.105
2622,-4,-5,-1,0,1,0,-1,-1,13.11
2623,-2,-6,-4,-4,-3,-1,0,-2,13.115
2624,1,13,20,1,-1,0,0,1,13.120000000000001
2625,-1,6,9,2,1,-1,-1,-3,13.125
2626,-7,18,-1,0,-2,-1,-1,-1,13.13
2627,-2,7,-8,0,-1,-1,-2,1,13.135
2628,-3,-3,-9,1,-1,1,0,0,13.14
2629,0,-10,-6,-1,-1,-2,-2,-1,13.145
2630,-4,-12,-3,0,-1,-1,0,-2,13.15
2631,4,-15,-1,-1,-4,-4,-1,2,13.155000000000001
2632,-3,-13,-3,3,4,0,1,-1,13.16
2633,-3,-21,-4,-6,-2,0,-1,0,13.165000000000001
2634,-2,-15,1,-2,1,-1,0,-1,13.17
2635,-1,-11,0,-1,0,0,-2,-1,13.175
2636,0,-14,-4,2,-6,-3,1,-3,13.18
2637,1,-4,1,-2,-2,-3,-1,0,13.185
2638,2,-13,-7,3,6,3,0,0,13.19
2639,-4,-4,2,-5,-2,1,0,1,13.195
2640,0,-10,-1,-3,0,2,-2,0,13.200000000000001
2641,-1,-4,-1,0,-1,-1,-2,0,13.205
2642,1,-3,1,-4,-6,-3,-1,-1,13.21
2643,2,1,3,6,2,-1,1,1,13.215
2644,0,-2,-2,-2,-3,0,-3,7,13.22
2645,-1,-1,-2,3,-2,0,-3,-12,13.225
2646,0,-4,-1,-2,0,-1,-2,-1,13.23
2647,-2,-1,-1,0,-1,0,-2,-2,13.235
2648,-3,2,1,-5,-1,-1,2,1,13.24
2649,1,1,0,2,-1,1,0,4,13.245000000000001
2650,0,-1,-1,-4,0,1,1,-2,13.25
2651,-2,-3,-2,1,1,0,0,1,13.255
2652,1,-2,-3,1,-2,-3,-1,-4,13.26
2653,0,1,1,-2,-2,-1,-1,1,13.265
2654,-4,1,-2,-4,-4,0,0,-1,13.27
2655,1,-6,-1,0,4,1,1,1,13.275
2656,4,5,-1,1,-1,0,-1,-2,13.280000000000001
2657,1,6,1,9,-1,-4,0,1,13.285
2658,1,-2,-1,-5,6,6,3,6,13.290000000000001
2659,0,1,1,-6,-1,-1,-2,2,13.295
2660,-1,-1,-5,-4,-4,-2,-5,-12,13.3
2661,-1,8,0,0,0,-1,-1,1,13.305
2662,2,2,2,7,-1,-3,-1,-3,13.31
2663,-1,-4,-6,-11,-6,0,0,4,13.315
2664,0,2,0,1,-1,-1,2,1,13.32
2665,0,1,-1,2,-1,-1,1,0,13.325000000000001
2666,-8,-2,4,-3,-3,-2,-1,-1,13.33
2667,-1,1,-2,6,2,1,-3,-5,13.335
2668,2,4,-3,0,-1,-1,-2,2,13.34
2669,-6,-2,-3,-7,-1,2,0,-1,13.345
2670,2,2,-4,-1,1,-2,0,0,13.35
2671,-1,4,2,4,-4,-5,-2,-3,13.355
2672,-1,-4,0,-2,0,0,-2,-3,13.36
2673,2,-1,-4,-2,4,3,0,2,13.365
2674,-1,0,-1,-1,-4,-1,-1,-3,13.370000000000001
2675,-1,2,2,1,-1,-3,0,-2,13.375
2676,1,2,-2,8,4,2,0,2,13.38
2677,2,-4,-2,-7,-7,-2,-1,-3,13.385
2678,-1,-1,-3,-8,-5,-1,-1,0,13.39
2679,-1,-1,0,3,-3,-3,-2,-2,13.395
2680,-3,-2,-1,-9,-5,-3,0,-1,13.4
2681,3,-2,-1,-2,3,0,0,1,13.405000000000001
2682,0,-1,-2,0,-1,0,0,0,13.41
2683,0,-2,1,-4,-2,-1,-2,-1,13.415000000000001
2684,0,0,3,0,-3,-2,-2,0,13.42
2685,-2,2,3,6,2,-2,-1,-2,13.425
2686,0,0,-4,-4,-5,-2,-2,-1,13.43
2687,-2,-5,-1,0,4,3,1,-1,13.435
2688,-2,-4,-1,-6,-3,2,0,0,13.44
2689,-2,2,-1,-9,-4,-1,0,0,13.445
2690,-1,0,3,4,0,0,-1,-2,13.450000000000001
2691,-1,4,-3,0,-1,-3,-1,-2,13.455
2692,-2,-4,-3,-1,-2,-1,-1,0,13.46
2693,-1,0,-1,-2,-1,-1,0,0,13.465
2694,1,-1,-1,5,2,-3,0,0,13.47
2695,1,3,1,0,-1,0,-1,1,13.475
2696,0,1,-2,-8,1,-2,-1,-1,13.48
2697,-2,1,1,3,-2,-3,-1,-1,13.485
2698,1,-3,-5,-7,-4,-2,-3,-2,13.49
2699,-2,-2,0,3,4,1,1,-2,13.495000000000001
2700,1,3,0,3,2,0,0,-1,13.5
2701,-2,-4,-3,-2,-2,0,0,0,13.505
2702,-2,-3,-3,2,-4,-2,-1,-1,13.51
2703,-1,0,1,-2,-5,-1,-1,0,13.515
2704,-1,-5,-1,1,0,-2,0,-1,13.52
2705,1,-1,-3,1,1,-1,-4,-1,13.525
2706,-2,-1,-2,-3,0,-1,1,0,13.530000000000001
2707,-2,1,-2,0,0,1,0,-2,13.535
2708,0,1,2,0,-2,-2,-1,-1,13.540000000000001
2709,1,3,1,-5,-6,-2,-2,0,13.545
2710,-2,-2,-3,-2,-1,-2,-3,-1,13.55
2711,1,-3,-1,0,-1,-1,-2,-1,13.555
2712,-1,1,0,-5,-2,1,0,-1,13.56
2713,-1,-1,0,1,2,0,0,-1,13.565
2714,-1,4,1,2,1,0,1,0,13.57
2715,-1,2,-2,-6,-5,-3,-1,-2,13.575000000000001
2716,0,-3,-1,5,2,-1,-1,0,13.58
2717,-3,-4,-2,-5,-4,0,-1,-1,13.585
2718,0,0,1,4,5,1,0,0,13.59
2719,-2,-4,-3,1,-2,-2,-2,-1,13.595
2720,-1,1,0,1,5,2,-1,0,13.6
2721,1,-2,-2,-5,-2,-1,0,-2,13.605
2722,-1,-2,4,-2,-5,-2,-2,-2,13.61
2723,-2,3,0,4,-2,-1,-2,-1,13.615
2724,-2,-1,-2,-4,4,2,0,-2,13.620000000000001
2725,-2,-4,-3,-2,-3,0,0,-2,13.625
2726,-1,1,-1,-1,-2,0,-2,0,13.63
2727,0,2,-1,-5,-4,-1,-1,-1,13.635
2728,-1,0,0,4,0,-3,-1,-1,13.64
2729,-1,1,2,10,5,-3,0,-1,13.645
2730,0,5,-2,-2,-1,1,0,0,13.65
2731,-3,-8,-6,-19,-5,-1,1,-2,13.655000000000001
2732,0,1,-1,3,0,2,0,0,13.66
2733,0,-4,-4,-3,0,0,-1,-2,13.665000000000001
2734,0,1,0,4,-1,0,0,0,13.67
2735,0,-1,1,4,-1,-1,0,-1,13.675
2736,0,3,-1,-3,-6,-5,-2,-1,13.68
2737,-2,-5,0,1,11,5,0,0,13.685
2738,-1,-1,-1,-2,-2,-2,-1,-1,13.69
2739,-1,1,-1,1,2,1,-1,0,13.695
2740,0,3,0,-4,-3,-4,0,0,13.700000000000001
2741,-1,0,1,-2,-5,-4,-2,0,13.705
2742,-1,-3,-2,3,0,0,-2,-2,13.71
2743,1,2,0,6,11,4,0,1,13.715
2744,0,-4,-4,-6,-3,0,0,0,13.72
2745,0,1,-1,-4,-2,0,-2,0,13.725
2746,-1,-2,-1,-6,-2,-1,-1,0,13.73
2747,-1,1,0,-1,-4,-2,-1,0,13.735
2748,-1,1,0,5,-1,-1,-2,-2,13.74
2749,1,3,-2,-1,-1,-1,0,0,13.745000000000001
2750,1,-4,1,3,-3,-4,-1,-2,13.75
2751,-3,-1,-1,5,0,1,0,-3,13.755
2752,-2,-2,-4,-10,0,2,-1,0,13.76
2753,0,-2,0,-2,-5,-2,-1,0,13.765
2754,-1,-1,-2,1,0,0,-1,-1,13.77
2755,-1,0,1,2,0,-3,-3,-1,13.775
2756,0,-1,2,-2,-3,-1,0,-2,13.780000000000001
2757,-1,0,-2,0,-3,-3,0,-1,13.785
2758,-2,-1,1,-3,-3,-5,-3,-1,13.790000000000001
2759,-1,-4,-5,2,6,2,1,-2,13.795
2760,-1,-2,0,3,0,0,-1,-1,13.8
2761,-1,0,0,1,2,-1,-1,-1,13.805
2762,-2,-1,-2,-2,0,1,0,0,13.81
2763,0,1,0,-4,-7,-3,-2,-1,13.815
2764,1,3,-1,0,-2,-4,-2,0,13.82
2765,-1,1,-3,-2,-3,-1,-2,-1,13.825000000000001
2766,-3,-6,-1,5,7,3,1,0,13.83
2767,0,-2,0,-10,-4,-1,-1,0,13.835
2768,-1,-2,-2,-1,-3,2,1,0,13.84
2769,-2,-3,1,3,-1,0,0,-1,13.845
2770,1,0,-2,-2,-3,2,-1,0,13.85
2771,0,0,-1,3,1,-1,1,1,13.855
2772,-2,-3,0,0,-2,-2,-1,-1,13.86
2773,0,0,0,-7,-3,-2,-1,-1,13.865
2774,1,1,1,0,-3,-3,0,0,13.870000000000001
2775,-2,1,5,7,2,1,1,-1,13.875
2776,-2,-5,-6,-11,0,0,1,0,13.88
2777,-2,-1,0,1,-1,1,-2,0,13.885
2778,-2,4,-1,-4,-1,-1,-1,-2,13.89
2779,1,-3,-2,-3,-4,-3,-1,-2,13.895
2780,0,2,1,5,0,-3,-1,-1,13.9
2781,-2,-3,-1,2,1,1,-2,-1,13.905000000000001
2782,-1,-1,-2,-3,-3,-1,-1,-2,13.91
2783,-2,2,-1,-1,-2,-3,-1,-2,13.915000000000001
2784,-5,-6,2,13,10,2,-1,-2,13.92
2785,1,-3,-3,-9,2,1,1,0,13.925
2786,1,1,-1,-3,-1,1,-1,-1,13.93
2787,-1,-1,-3,-4,-3,0,-1,0,13.935
2788,-1,0,0,1,-4,-5,1,-2,13.94
2789,-2,1,3,3,0,-2,-1,-1,13.945
2790,-2,-3,-1,-1,0,0,1,-1,13.950000000000001
2791,1,-6,-4,-3,-1,0,-1,1,13.955
2792,0,0,-3,-1,-1,-2,-2,-1,13.96
2793,-1,1,0,0,-2,-3,-1,1,13.965
2794,-1,-3,-1,-3,1,1,-1,-3,13.97
2795,-2,-4,-4,0,1,0,-1,-1,13.975
2796,-3,1,3,-1,-3,-2,-1,-1,13.98
2797,-2,-3,1,-1,-2,-2,-1,0,13.985
2798,-1,7,1,9,3,0,0,1,13.99
2799,-1,-2,-3,-1,2,0,-2,0,13.995000000000001
2800,-1,-2,-3,-1,-1,2,-2,-1,14.0
2801,2,-1,-2,-2,-3,-3,-1,-1,14.005
2802,1,1,1,-2,-2,-2,-1,-2,14.01
2803,0,-1,2,4,-2,-2,-1,-1,14.015
2804,0,-4,-3,-11,0,1,-2,0,14.02
2805,-3,-1,-3,-1,1,-3,-1,-1,14.025
2806,-1,-4,-2,-2,-2,2,1,0,14.030000000000001
2807,-1,0,0,-2,-5,-2,-2,-2,14.035
2808,2,-1,-4,4,4,2,0,-2,14.040000000000001
2809,0,1,-2,2,-1,0,1,0,14.045
2810,0,-4,1,-2,-3,-3,-1,0,14.05
2811,1,0,-2,-10,-7,-1,-1,1,14.055
2812,0,-1,1,3,-1,-1,-1,-2,14.06
2813,0,-3,-1,0,1,1,-1,-1,14.065
2814,-1,1,0,0,0,-2,0,0,14.07
2815,-3,1,0,1,1,0,-1,-1,14.075000000000001
2816,-2,-2,0,-6,-4,-3,-1,0,14.08
2817,2,-1,-3,-2,0,0,0,-1,14.085
2818,0,-2,-3,-1,-2,-1,0,-1,14.09
2819,-1,1,0,-1,0,0,-1,-1,14.095
2820,0,3,2,1,-1,1,0,0,14.1
2821,-4,-4,-3,-5,2,5,1,-1,14.105
2822,0,1,-1,0,2,-1,-1,0,14.11
2823,0,-6,-3,0,0,-1,0,-1,14.115
2824,-2,-1,1,3,-3,-3,-3,-1,14.120000000000001
2825,2,2,3,0,-2,-3,-2,0,14.125
2826,2,1,-4,-6,-4,0,-1,-1,14.13
2827,-3,0,0,1,3,1,0,0,14.135
2828,1,5,-1,-1,-1,0,-2,-1,14.14
2829,-3,-6,-2,1,-3,-1,-1,-1,14.145
2830,-6,-4,2,0,1,0,0,-2,14.15
2831,0,-1,-2,-4,-3,-2,0,-2,14.155000000000001
2832,-1,0,1,-5,-5,-2,-1,0,14.16
2833,0,2,-1,3,3,1,1,0,14.165000000000001
2834,0,4,-2,-6,0,1,0,-1,14.17
2835,0,1,0,0,-2,1,-1,-1,14.175
2836,-3,-7,0,-1,0,-3,0,0,14.18
2837,-1,-1,0,0,-3,-2,-1,-1,14.185
2838,0,0,-1,-1,-2,-3,-1,-1,14.19
2839,-1,3,1,0,1,0,-2,0,14.195
2840,-2,-5,-6,-2,0,-2,-2,-1,14.200000000000001
2841,0,0,0,0,-5,-3,-1,-1,14.205
2842,-3,-3,2,6,1,0,-1,-1,14.21
2843,0,2,1,-4,1,0,2,0,14.215
2844,1,5,-1,5,5,-1,-1,0,14.22
2845,0,3,-2,-3,-1,0,0,0,14.225
2846,-1,-2,-4,-5,1,1,-1,-2,14.23
2847,1,-4,-1,0,-4,-2,-1,-1,14.235
2848,-1,3,1,-1,1,1,-1,-1,14.24
2849,-1,-6,0,-1,-2,-1,0,-3,14.245000000000001
2850,1,1,0,-3,-3,-3,-3,1,14.25
2851,-1,-2,-2,-2,-3,-3,-1,0,14.255
2852,0,0,-4,5,0,1,-1,-1,14.26
2853,-1,-1,-1,-2,-1,0,-2,-1,14.265
2854,2,-1,-2,-3,-2,-1,-2,-1,14.27
2855,-4,0,0,-1,-1,-1,-1,-1,14.275
2856,0,0,1,-1,-3,-2,2,-1,14.280000000000001
2857,-1,3,-2,2,0,-1,-1,0,14.285
2858,-2,-6,1,-2,-1,-1,-1,-2,14.290000000000001
2859,2,-1,-4,1,3,0,-2,-1,14.295
2860,-1,3,0,-4,-6,-1,0,0,14.3
2861,0,2,0,4,5,0,1,0,14.305
2862,-1,-1,-2,-1,-4,-1,0,0,14.31
2863,0,3,-1,1,1,-1,-1,0,14.315
2864,-2,-10,-3,-7,-6,-2,-2,-2,14.32
2865,-1,-5,1,4,2,-3,-2,-2,14.325000000000001
2866,-2,-2,-4,-3,4,4,1,1,14.33
2867,0,-4,-1,2,0,-1,-1,-1,14.335
2868,-1,3,1,-2,-1,-1,0,0,14.34
2869,0,2,1,-3,-8,-3,-2,-3,14.345
2870,-1,0,-5,0,-2,-2,-1,-1,14.35
2871,-2,-9,0,-1,-1,-1,0,-1,14.355
2872,-2,-1,-1,4,1,-2,0,-1,14.36
2873,0,-2,-1,-2,-3,-1,-1,-1,14.365
2874,0,2,0,-7,-4,2,0,-1,14.370000000000001
2875,0,0,0,-4,-1,0,-2,-1,14.375
2876,0,1,0,1,0,-1,-2,-1,14.38
2877,-1,2,0,1,3,-1,-1,-1,14.385
2878,-2,-5,-2,3,0,-1,-1,-1,14.39
2879,0,-1,-1,-6,-7,-3,-1,-1,14.395
2880,-1,-4,0,6,6,3,1,-1,14.4
2881,-1,-1,-3,0,3,2,0,-1,14.405000000000001
2882,0,2,2,1,-1,-2,-1,-1,14.41
2883,1,2,-2,0,1,0,-2,-1,14.415000000000001
2884,0,-3,-3,-5,-5,-3,-1,-1,14.42
2885,1,7,1,-3,-4,-2,-2,0,14.425
2886,-1,-8,1,0,-1,-2,-1,-1,14.43
2887,-3,0,-3,0,-3,0,0,-2,14.435
2888,0,0,-2,1,4,3,-1,-1,14.44
2889,0,0,-2,-3,-3,-1,1,0,14.445
2890,0,1,-1,1,0,-1,0,-2,14.450000000000001
2891,-3,1,-3,-1,-2,-1,-2,0,14.455
2892,0,-4,-1,-1,1,1,0,-2,14.46
2893,-2,-2,0,-2,-1,0,-1,0,14.465
2894,-1,1,2,-4,-5,-3,-1,-1,14.47
2895,-2,-2,-1,3,13,3,1,0,14.475
2896,1,2,-2,-2,-3,0,-2,1,14.48
2897,-1,-1,-2,0,-3,-1,0,-1,14.485
2898,-4,-1,0,2,0,0,0,-1,14.49
2899,0,-4,1,-3,-3,-2,-1,0,14.495000000000001
2900,0,1,-3,-5,-5,-3,-1,-1,14.5
2901,-2,-3,-2,3,-2,-2,-3,1,14.505
2902,1,1,-2,-8,1,0,1,0,14.51
2903,0,2,-1,1,1,-1,1,0,14.515
2904,-1,-1,1,-2,2,-2,0,0,14.52
2905,-1,-6,-2,-3,-3,0,0,-1,14.525
2906,-1,0,-1,3,-2,-1,-2,0,14.530000000000001
2907,1,1,1,-1,-3,-2,-2,-1,14.535
2908,-2,-4,-1,-1,-4,-1,0,0,14.540000000000001
2909,0,3,-1,-4,4,1,0,-1,14.545
2910,0,-3,-1,5,0,0,0,1,14.55
2911,-5,-7,0,-1,0,-1,1,-3,14.555
2912,-4,-1,-1,2,0,-3,-1,0,14.56
2913,1,-1,-3,-2,-1,-1,-1,0,14.565
2914,0,2,-1,1,-1,-1,-1,-1,14.57
2915,-1,-9,-1,-1,-3,0,-2,-1,14.575000000000001
2916,2,-1,-2,-1,-1,1,0,-1,14.58
2917,-6,-3,2,2,3,0,-1,0,14.585
2918,-2,1,-3,-4,-5,-2,1,0,14.59
2919,1,3,-2,-1,-2,-1,-1,0,14.595
2920,1,3,-1,-5,-2,-1,0,-3,14.6
2921,-1,-4,-1,-4,-3,-2,-1,0,14.605
2922,2,-2,1,3,1,-2,-3,-1,14.61
2923,2,3,-1,-1,-1,-1,-2,0,14.615
2924,-1,-1,-5,-2,-2,-1,-1,-2,14.620000000000001
2925,0,3,0,-1,0,-2,-1,-1,14.625
2926,-1,0,-2,0,1,-1,-3,-1,14.63
2927,0,1,0,2,2,-1,2,1,14.635
2928,-1,-2,0,4,3,2,0,0,14.64
2929,-2,-3,-2,-4,-4,-2,-2,0,14.645
2930,-1,-4,-3,-3,-1,0,1,0,14.65
2931,0,3,-2,-2,-3,-1,-2,0,14.655000000000001
2932,-1,-3,-1,-1,0,0,0,0,14.66
2933,2,2,0,0,0,0,1,0,14.665000000000001
2934,-2,-6,2,1,-1,-2,-2,-1,14.67
2935,-2,2,-3,-6,-1,1,-1,0,14.675
2936,-3,2,-1,0,1,-2,-2,-1,14.68
2937,1,-2,-2,0,-2,1,0,0,14.685
2938,-1,4,-1,-1,0,-1,-1,0,14.69
2939,-5,-3,4,1,-1,-1,0,-1,14.695
2940,-2,-2,2,-1,-6,-3,-1,-1,14.700000000000001
2941,-2,-1,1,5,5,0,-1,-2,14.705
2942,1,-2,-4,-3,-4,2,-1,-1,14.71
2943,1,-1,-1,-7,-4,-2,-3,-1,14.715
2944,-1,0,-1,-3,-1,0,-2,-2,14.72
2945,-1,-3,2,3,-2,-2,-3,-1,14.725
2946,-1,-3,1,5,1,0,-1,1,14.73
2947,1,1,-1,-2,2,-1,0,-1,14.735
2948,0,-1,0,-5,-3,-3,0,0,14.74
2949,-1,-2,-1,2,2,1,0,-1,14.745000000000001
2950,0,1,-4,-3,2,1,-2,0,14.75
2951,-1,-1,-1,1,-3,-1,1,0,14.755
2952,-2,-2,-2,-1,-1,2,0,1,14.76
2953,-2,-2,-4,-5,-3,-2,1,-1,14.765
2954,-3,0,-2,-1,-1,-1,0,-2,14.77
2955,4,4,-2,0,-2,-2,0,-1,14.775
2956,0,2,-1,1,-2,-3,-2,-1,14.780000000000001
2957,-1,-2,-2,4,-1,-1,-1,-1,14.785
2958,0,3,-1,-7,-1,-1,-2,0,14.790000000000001
2959,-5,1,2,1,-1,-1,-1,0,14.795
2960,0,-3,-1,-2,-2,0,-1,0,14.8
2961,-1,0,-1,-2,-3,-3,0,1,14.805
2962,1,2,0,7,-1,-1,-1,-2,14.81
2963,-1,-1,-2,1,4,0,0,-1,14.815
2964,-2,-4,0,-3,-4,0,1,0,14.82
2965,-5,0,1,0,2,2,-1,0,14.825000000000001
2966,-1,-3,1,0,-1,-1,0,-1,14.83
2967,-2,-1,-2,0,1,1,1,-2,14.835
2968,0,-1,1,2,0,0,0,0,14.84
2969,1,-3,-4,-5,-2,-1,-1,-1,14.845
2970,-1,-4,-1,-4,0,-2,1,-1,14.85
2971,-3,-3,-1,0,-2,0,-1,-1,14.855
2972,1,3,-3,-1,1,0,-2,-3,14.86
2973,-1,-2,0,0,-1,-1,-1,0,14.865
2974,-3,-3,-1,-2,3,0,-1,-1,14.870000000000001
2975,-1,-5,-2,0,-3,1,0,-2,14.875
2976,1,1,-1,-7,-5,-2,0,0,14.88
2977,-2,3,1,1,-1,0,-2,-2,14.885
2978,-2,-2,2,8,1,-2,-2,0,14.89
2979,3,-1,-2,-3,2,1,-2,0,14.895
2980,0,0,0,-4,-1,-2,-1,0,14.9
2981,-1,-6,-1,-1,-4,-3,-1,0,14.905000000000001
2982,-2,0,0,-4,0,0,-2,-1,14.91
2983,0,-2,-5,-3,-4,-3,-1,-2,14.915000000000001
2984,-2,-1,0,-1,-1,-2,-1,-2,14.92
2985,-1,-2,1,2,2,1,1,-3,14.925
2986,-3,1,-1,1,-1,0,1,1,14.93
2987,0,-1,1,0,0,-1,-2,0,14.935
2988,-2,-2,-3,0,0,-1,-1,-2,14.94
2989,-3,-1,-2,-3,-1,-1,-1,-1,14.945
2990,1,0,-2,-2,-3,-1,-3,-1,14.950000000000001
2991,-2,1,0,2,4,0,-1,-2,14.955
2992,1,-2,1,-2,-1,-3,-1,2,14.96
2993,-4,-2,0,-1,2,0,0,0,14.965
2994,-3,-3,1,4,5,1,1,-1,14.97
2995,0,1,0,-6,-5,-2,-1,0,14.975
2996,0,-2,0,5,0,1,-1,-1,14.98
2997,-4,-2,0,-5,-2,-1,-1,-1,14.985
2998,0,2,-4,-8,-8,-3,0,0,14.99
2999,-4,-7,-5,-2,1,-2,1,0,14.995000000000001
3000,0,0,0,6,0,0,1,-1,15.0
3001,4,0,-2,-3,5,3,0,0,15.005
3002,-1,-1,0,2,-3,-2,-1,-1,15.01
3003,0,0,0,-8,-6,-2,-3,1,15.015
3004,0,-1,-3,-1,1,1,-2,-1,15.02
3005,0,-2,-5,-3,-5,-1,-2,0,15.025
3006,-1,-2,-1,0,2,-1,0,-3,15.030000000000001
3007,0,1,1,6,0,-1,0,1,15.035
3008,-2,0,2,-3,-2,-2,-1,-2,15.040000000000001
3009,0,3,0,-4,-3,-1,-2,-2,15.045
3010,0,1,0,-1,0,-2,-2,0,15.05
3011,1,0,-1,-3,-5,0,-1,0,15.055
3012,-1,0,-2,0,3,0,-1,-1,15.06
3013,0,-5,0,3,1,-2,-1,1,15.065
3014,-3,2,2,-1,1,-1,0,0,15.07
3015,-1,-1,-2,4,5,1,-1,-2,15.075000000000001
3016,-3,-2,-1,5,2,0,1,0,15.08
3017,4,-3,-4,-12,-6,-2,-2,-1,15.085
3018,-3,-2,-2,-5,-2,0,-1,0,15.09
3019,-2,1,1,1,2,0,0,0,15.095
3020,-1,4,-1,2,-2,1,-2,0,15.1
3021,-2,-1,0,1,-2,-1,-1,-1,15.105
3022,0,-3,-2,2,-1,-1,-1,-3,15.11
3023,-4,-3,-2,-3,-1,-1,-1,-1,15.115
3024,0,0,-2,2,2,-1,-1,-2,15.120000000000001
3025,-4,-1,1,4,0,-1,0,-1,15.125
3026,2,-1,2,-1,-1,0,0,0,15.13
3027,2,1,-4,-3,2,1,-2,-1,15.135
3028,-1,-4,-2,0,0,-3,-2,0,15.14
3029,1,0,-1,-7,-6,-1,-3,0,15.145
3030,1,2,0,5,6,0,0,1,15.15
3031,-2,-2,0,0,-5,-3,-1,0,15.155000000000001
3032,5,-1,-2,0,3,-1,-1,0,15.16
3033,-2,1,-1,2,1,-2,0,-2,15.165000000000001
3034,-1,0,1,-3,-5,-1,0,-1,15.17
3035,-2,1,2,-8,-6,-2,-2,-3,15.175
3036,0,-2,-1,1,2,1,-2,0,15.18
3037,1,0,-2,1,-2,0,-1,0,15.185
3038,-3,-7,0,1,-2,-1,-1,-3,15.19
3039,0,1,2,0,1,0,1,0,15.195
3040,-2,0,-1,-4,-4,0,-2,0,15.200000000000001
3041,-2,0,-1,1,2,-2,-1,-1,15.205
3042,1,-1,-2,0,-3,-2,-1,1,15.21
3043,0,0,-3,2,-1,-2,-1,0,15.215
3044,-2,2,2,0,0,2,0,-2,15.22
3045,0,-6,0,5,2,1,0,0,15.225
3046,-2,1,-1,-6,-2,-1,-1,-2,15.23
3047,-2,2,-1,-2,-3,-2,-2,-1,15.235
3048,-3,-4,-3,-4,1,0,0,-1,15.24
3049,-1,3,-1,3,2,0,0,1,15.245000000000001
3050,2,-2,0,-3,-3,0,-1,0,15.25
3051,1,1,-2,-1,2,-2,-2,-1,15.255
3052,-6,-6,-2,-5,0,-1,-1,-1,15.26
3053,-3,-5,-2,-4,-2,0,-1,-3,15.265
3054,-1,3,0,2,2,1,-2,-2,15.27
3055,0,-3,0,-1,-2,0,-1,-1,15.275
3056,0,0,1,-1,-3,-3,-1,0,15.280000000000001
3057,2,2,-2,-1,-2,-2,0,0,15.285
3058,-7,-5,1,-1,-1,-2,-2,1,15.290000000000001
3059,-1,-5,-4,3,0,-1,0,0,15.295
3060,-2,2,3,5,3,1,2,1,15.3
3061,-1,-4,-1,-7,-7,-3,-1,0,15.305
3062,2,1,-2,-6,-4,-1,-1,-1,15.31
3063,-1,-4,-1,0,1,-1,0,-1,15.315
3064,-1,-1,0,-2,-4,-1,-2,-2,15.32
3065,0,4,2,6,5,1,0,-1,15.325000000000001
3066,1,-1,-1,0,-1,0,1,-1,15.33
3067,-1,2,3,7,3,0,-2,1,15.335
3068,1,-1,-4,-10,-6,0,-1,-1,15.34
3069,1,-4,-3,-3,2,-1,0,-1,15.345
3070,-1,-1,-3,0,0,-2,0,2,15.35
3071,-2,-1,1,-2,-1,-1,0,-1,15.355
3072,-1,-1,-3,0,-2,0,-3,-1,15.36
3073,0,4,2,-1,-6,-2,-2,0,15.365
3074,2,-3,-4,-1,4,-1,-1,1,15.370000000000001
3075,0,3,0,-1,0,1,1,0,15.375
3076,0,1,3,2,-2,-3,0,1,15.38
3077,-1,-1,-1,-4,-2,-2,-2,-2,15.385
3078,1,-4,-3,-3,-4,-2,-1,-2,15.39
3079,-2,-2,2,3,0,-1,0,-2,15.395
3080,-2,3,-1,-3,1,1,3,-1,15.4
3081,-1,-4,1,0,0,0,-1,2,15.405000000000001
3082,-4,-1,2,1,0,0,0,0,15.41
3083,-1,-2,-3,1,2,-1,-1,-2,15.415000000000001
3084,0,-5,-1,2,2,0,0,0,15.42
3085,1,1,-2,5,0,-1,-1,-2,15.425
3086,-1,-3,-3,-13,-5,-1,-1,0,15.43
3087,0,-1,-2,-5,-3,0,-2,0,15.435
3088,1,2,0,2,-1,-3,-2,-2,15.44
3089,-3,-5,-3,-1,-2,-2,-1,-1,15.445
3090,0,1,-2,3,2,1,0,-1,15.450000000000001
3091,-1,-1,0,2,0,0,1,1,15.455
3092,1,0,0,-3,-1,-1,-1,-1,15.46
3093,0,0,1,-1,0,-1,0,-1,15.465
3094,-2,0,-3,0,-4,-3,-1,-2,15.47
3095,-2,-2,1,3,3,-1,0,0,15.475
3096,-2,-3,-4,-4,0,0,-1,0,15.48
3097,0,1,-1,-2,0,1,-1,-2,15.485000000000001
3098,-1,-2,-1,1,-3,0,-1,0,15.49
3099,1,0,-2,-2,-4,-2,0,0,15.495000000000001
3100,0,2,1,2,-4,-2,0,1,15.5
3101,1,3,-1,-2,0,-1,0,-1,15.505
3102,0,-1,-3,1,0,-1,-2,-1,15.51
3103,-2,-1,2,-3,-5,-1,-1,-1,15.515
3104,-3,-1,-1,3,2,-3,-1,-3,15.52
3105,5,4,-2,-4,1,-1,-1,1,15.525
3106,-3,-4,-2,-4,2,-1,0,-1,15.530000000000001
3107,2,1,-2,-1,-2,-2,-1,0,15.535
3108,-1,1,-2,-5,-5,-1,0,-1,15.540000000000001
3109,-1,-2,1,-2,-4,-2,-2,-2,15.545
3110,1,1,-1,2,-4,-1,-1,-1,15.55
3111,0,0,-1,5,10,4,0,0,15.555
3112,0,-4,-3,-2,-3,0,-1,0,15.56
3113,-2,-1,-4,-5,-3,-1,0,0,15.565
3114,0,1,1,-2,-2,-1,-1,-1,15.57
3115,-3,-3,2,-3,-3,1,0,-2,15.575000000000001
3116,1,-2,1,2,0,-1,-1,0,15.58
3117,-2,1,3,-2,-3,0,-1,-1,15.585
3118,-3,-2,-3,-2,1,-1,-2,-1,15.59
3119,-2,-1,-1,7,4,-1,0,-1,15.595
3120,-1,0,-1,-1,-2,1,0,0,15.6
3121,0,-1,-6,-9,-5,-2,-2,-1,15.605
3122,0,0,1,2,1,-1,-2,0,15.610000000000001
3123,-2,-1,0,-5,-5,-1,-2,-1,15.615
3124,-3,-6,1,0,2,0,-1,0,15.620000000000001
3125,-2,-1,0,3,1,-2,0,-1,15.625
3126,1,1,0,-3,-3,0,1,0,15.63
3127,2,0,-1,-6,-4,-2,-1,1,15.635
3128,1,-1,0,0,-1,1,0,-1,15.64
3129,-1,-2,-1,-1,1,2,-1,1,15.645
3130,-2,-1,-2,6,5,-1,-1,-2,15.65
3131,0,-2,-2,-3,-4,-1,-1,-1,15.655000000000001
3132,-3,0,0,-2,1,-1,0,1,15.66
3133,0,0,-1,0,-2,-1,-1,0,15.665000000000001
3134,3,2,-1,1,2,1,-1,-3,15.67
3135,-2,0,0,-3,-3,-2,-2,-1,15.675
3136,-1,0,-3,-3,-3,-1,-1,-2,15.68
3137,-3,-5,-2,-6,-1,-1,0,-4,15.685
3138,-1,-1,0,5,2,-2,-1,0,15.69
3139,0,-1,-2,-2,4,1,0,-2,15.695
3140,3,-1,-5,-4,-1,-2,-1,0,15.700000000000001
3141,1,8,0,0,-4,0,-4,0,15.705
3142,-3,-3,-2,-1,2,3,0,-1,15.71
3143,0,0,-1,2,0,-2,-1,-2,15.715
3144,-1,1,0,3,1,0,1,-1,15.72
3145,0,-4,-3,-1,0,0,-1,0,15.725
3146,-2,-2,0,-3,-4,-2,0,0,15.73
3147,-1,-3,0,-1,-1,-1,-1,-1,15.735000000000001
3148,-2,2,-1,2,7,2,-1,-2,15.74
3149,0,-1,-1,2,-1,2,0,0,15.745000000000001
3150,0,1,0,-9,-4,-1,-1,0,15.75
3151,-3,-2,1,2,1,-1,0,1,15.755
3152,-3,0,0,-3,-9,-3,-2,-1,15.76
3153,-2,-3,-1,3,2,-1,1,0,15.765
3154,-3,1,-2,-3,-4,1,0,-1,15.77
3155,8,2,-2,-8,-2,-1,-1,0,15.775
3156,-3,-6,-4,2,0,0,0,0,15.780000000000001
3157,-1,1,0,6,3,0,0,-1,15.785
3158,0,-6,-6,-7,-5,-1,-2,-1,15.790000000000001
3159,-1,5,3,2,-1,-1,-1,-2,15.795
3160,1,-1,10,5,-2,0,-2,-2,15.8
3161,0,-16,-14,-19,-5,0,1,-1,15.805
3162,0,-5,2,7,2,0,0,-1,15.81
3163,-3,3,-1,-2,-3,-1,0,-1,15.815
3164,-4,1,4,12,4,-2,-1,1,15.82
3165,-3,5,5,-1,-3,0,3,3,15.825000000000001
3166,1,0,-1,-8,0,1,-1,7,15.83
3167,-2,-9,-9,-1,0,2,-2,-17,15.835
3168,4,9,-1,-7,-3,-1,-1,1,15.84
3169,-5,6,7,7,-1,-1,-1,-3,15.845
3170,-1,2,5,2,-6,-3,2,2,15.85
3171,1,2,-2,4,2,2,6,23,15.855
3172,-2,-3,-3,-6,-2,-1,-4,-11,15.860000000000001
3173,-4,-1,-2,-7,0,0,-7,-22,15.865
3174,-1,0,0,4,3,-3,-3,1,15.870000000000001
3175,-1,-3,-4,2,-1,1,0,-2,15.875
3176,-1,-1,-3,-7,-4,0,1,0,15.88
3177,0,-3,2,6,2,-2,2,8,15.885
3178,1,7,2,1,-3,-1,2,3,15.89
3179,0,0,-1,1,-3,-4,-7,-5,15.895
3180,-4,-3,-7,-21,1,4,-1,-2,15.9
3181,-1,9,1,3,2,-1,-1,-2,15.905000000000001
3182,-2,-5,-2,2,1,0,-2,-5,15.91
3183,0,-2,2,0,-4,-3,1,9,15.915000000000001
3184,1,0,3,7,-3,-4,2,10,15.92
3185,3,-1,2,6,5,1,-4,-12,15.925
3186,-5,-5,-2,-6,-1,0,0,1,15.93
3187,-2,-1,0,-3,1,1,-1,-6,15.935
3188,7,0,-6,-1,-4,-4,-2,-3,15.94
3189,-2,-1,3,-3,-2,-1,2,12,15.945
3190,-4,-3,-1,2,-1,2,1,-2,15.950000000000001
3191,-2,-1,2,-6,-1,-2,-5,-10,15.955
3192,-1,-6,-9,9,-2,-1,1,-1,15.96
3193,-2,-17,-6,-10,-2,-2,2,11,15.965
3194,0,8,0,5,3,1,2,0,15.97
3195,-5,6,-1,-7,4,1,-1,4,15.975
3196,-1,-17,-2,6,3,-2,-9,-15,15.98
3197,3,4,-1,-6,-5,-2,0,1,15.985000000000001
3198,-12,-24,-9,-14,-4,-2,-5,-4,15.99
3199,1,0,3,4,2,2,2,0,15.995000000000001
3200,-2,11,4,-3,-2,-5,0,6,16.0
3201,2,6,1,14,-1,-2,1,0,16.005
3202,7,-2,-1,-8,2,2,3,5,16.01
3203,3,-3,-4,-3,-7,-1,-1,-6,16.015
3204,-6,2,4,2,-1,1,-1,0,16.02
3205,-9,0,-5,-4,-4,0,-1,-1,16.025
3206,4,12,1,5,5,4,4,6,16.03
3207,3,-2,3,1,-5,-4,2,5,16.035
3208,2,-4,-1,4,2,1,-2,-8,16.04
3209,-6,-1,1,-18,-5,-1,-10,-18,16.045
3210,-3,1,0,4,4,-3,-5,-5,16.05
3211,3,-6,-2,5,2,0,-1,-2,16.055
3212,-1,-7,0,-2,0,1,5,8,16.06
3213,-11,-6,1,7,-10,-5,5,11,16.065
3214,7,11,9,3,5,1,3,14,16.07
3215,6,0,-5,-4,-3,-3,-6,-30,16.075
3216,-20,-15,-6,-6,1,-3,-6,-2,16.080000000000002
3217,-26,1,-4,0,1,3,-2,-12,16.085
3218,2,-11,-6,-11,-9,-6,-1,-4,16.09
3219,4,8,6,-3,4,1,5,16,16.095
3220,14,13,4,0,4,-1,-1,-1,16.1
3221,10,-8,-5,3,1,3,2,10,16.105
3222,4,5,0,-2,-3,1,0,-4,16.11
3223,-10,-3,4,5,-1,-3,-3,-7,16.115000000000002
3224,-6,1,-3,-6,-4,0,-1,-5,16.12
3225,5,1,0,0,2,-1,0,1,16.125
3226,5,8,0,0,-12,-4,6,13,16.13
3227,-7,-6,1,13,15,4,3,13,16.135
3228,-3,-2,-2,-7,6,1,-7,-35,16.14
3229,10,-3,-2,0,3,-1,-3,-2,16.145
3230,6,0,-6,-1,-6,-3,-5,-11,16.15
3231,-14,-5,-7,-11,-13,-4,-1,4,16.155
3232,-5,10,10,8,1,-1,12,27,16.16
3233,12,9,4,12,2,-2,7,28,16.165
3234,-10,-26,-12,-5,-1,0,-11,-51,16.17
3235,14,-7,-4,3,8,0,0,16,16.175
3236,-4,-6,0,9,1,-3,-4,-9,16.18
3237,-27,-21,10,2,10,7,-7,-24,16.185
3238,2,16,-40,-27,-5,-4,-7,6,16.19
3239,5,6,-3,-2,-9,-1,3,17,16.195
3240,15,4,0,-8,-7,0,7,-4,16.2
3241,-8,20,9,17,0,-6,2,13,16.205000000000002
3242,0,3,10,12,-3,-1,-4,-15,16.21
3243,-2,-2,-5,-17,0,-3,-9,-19,16.215
3244,8,-4,-12,-4,2,3,5,22,16.22
3245,5,2,1,2,0,2,7,20,16.225
3246,-5,-7,8,23,18,4,0,-24,16.23
3247,-14,-16,3,-23,-6,0,8,8,16.235
3248,17,13,-1,21,10,-1,-3,-15,16.240000000000002
3249,21,-9,1,-14,-34,-9,-14,-25,16.245
3250,-43,-16,16,22,36,4,7,31,16.25
3251,13,19,2,22,-7,2,12,32,16.255
3252,3,6,5,-47,2,6,-3,-25,16.26
3253,29,-13,-9,-10,-2,5,2,4,16.265
3254,-24,12,5,-14,-27,-12,-8,4,16.27
3255,24,13,-7,9,-1,-4,-1,-15,16.275
3256,19,-8,0,13,4,3,12,71,16.28
3257,-40,-28,-35,-17,0,-3,-21,-104,16.285
3258,9,-21,-7,-9,6,2,-11,38,16.29
3259,-23,10,16,37,-9,-11,-25,-95,16.295
3260,-2,5,28,87,-5,-16,-5,18,16.3
3261,-2,26,2,-44,90,42,38,58,16.305
3262,35,-48,-48,-7,-15,5,18,30,16.31
3263,-26,-25,-16,15,9,2,-3,-16,16.315
3264,40,40,35,33,-43,-22,11,65,16.32
3265,-27,-17,16,30,-28,-22,-5,55,16.325
3266,12,20,-19,-84,32,26,-14,-96,16.330000000000002
3267,0,-39,-12,-5,1,4,18,71,16.335
3268,-55,-51,-30,18,5,0,-14,-19,16.34
3269,4,26,18,41,-30,-26,-54,-39,16.345
3270,72,15,43,24,-48,-13,55,119,16.35
3271,23,8,7,58,18,3,-1,-53,16.355
3272,-89,-36,-51,-128,-1,18,-20,39,16.36
3273,-27,4,19,55,-21,-25,-13,23,16.365000000000002
3274,-36,-4,-16,-21,13,-1,-53,-116,16.37
3275,32,59,5,-79,-53,-13,8,68,16.375
3276,44,26,60,127,12,7,70,75,16.38
3277,62,9,-42,-115,10,24,10,-71,16.385
3278,-5,-39,14,71,1,-17,-29,20,16.39
3279,-93,-1,-4,31,-9,-5,-26,-91,16.395
3280,5,66,11,-51,-46,-14,-23,-42,16.4
3281,-14,4,-15,45,29,9,35,45,16.405
3282,98,84,69,21,-23,5,59,97,16.41
3283,-15,-95,-41,-73,-4,4,5,28,16.415
3284,12,21,-14,27,58,20,-28,-62,16.42
3285,-52,-10,31,87,30,-23,-3,-45,16.425
3286,-23,-12,-68,-50,23,28,-7,2,16.43
3287,-56,0,17,36,-25,-6,-25,-54,16.435
3288,-2,-32,30,6,11,-11,-13,-29,16.44
3289,78,56,21,6,-38,0,-6,-24,16.445
3290,2,-12,-14,5,11,-1,12,52,16.45
3291,34,66,3,0,10,-6,24,15,16.455000000000002
3292,-31,-112,-19,42,71,25,29,38,16.46
3293,13,8,-30,-72,5,13,2,55,16.465
3294,-17,26,12,6,-53,-35,-55,-90,16.47
3295,3,-10,-5,-8,13,-2,-14,0,16.475
3296,14,65,58,69,-51,-14,33,50,16.48
3297,-38,-32,-72,-66,7,3,-21,-59,16.485
3298,14,65,58,69,-51,-14,33,50,16.490000000000002
3299,-38,-32,-72,-66,7,3,-21,-59,16.495
3300,-44,-26,-22,-40,0,0,-4,-6,16.5
3301,48,25,9,26,3,4,-6,-10,16.505
3302,-2,5,28,87,-5,-16,-5,18,16.51
3303,-2,26,2,-44,90,42,38,58,16.515
3304,35,-48,-48,-7,-15,5,18,30,16.52
3305,-26,-25,-16,15,9,2,-3,-16,16.525
3306,40,40,35,33,-43,-22,11,65,16.53
3307,-27,-17,16,30,-28,-22,-5,55,16.535
3308,-16,21,26,8,-11,2,6,0,16.54
3309,19,4,-12,58,-25,-3,53,113,16.545
3310,-7,43,40,-73,-27,1,-1,64,16.55
3311,8,-102,7,81,97,12,-41,-88,16.555
3312,-24,46,-28,-73,-23,-4,-25,3,16.56
3313,-35,-10,7,-21,-7,4,-6,1,16.565
3314,-19,-68,-24,30,5,-23,-12,-18,16.57
3315,75,54,57,40,-34,-1,38,83,16.575
3316,4,-39,-73,-63,-34,-8,12,24,16.580000000000002
3317,7,9,27,-7,31,9,-9,-39,16.585
3318,13,-54,-40,37,18,4,-3,-45,16.59
3319,-30,42,5,-77,-7,8,-2,-1,16.595
3320,2,-28,-43,-77,-21,-3,12,22,16.6
3321,2,23,67,89,-45,-19,8,64,16.605
3322,-5,40,32,-40,30,9,-31,-98,16.61
3323,-38,-36,-61,-72,35,10,-31,14,16.615000000000002
3324,15,-41,-3,-17,3,0,-3,-21,16.62
3325,33,27,37,52,26,17,32,60,16.625
3326,-3,24,2,17,-21,-18,-3,-10,16.63
3327,-13,-17,-19,80,-2,-7,5,18,16.635
3328,24,37,-31,-59,-18,1,30,38,16.64
3329,-4,-67,-13,-59,17,12,-3,28,16.645
3330,-37,-20,-11,45,7,-14,-37,-62,16.65
3331,16,14,20,9,-19,-3,-2,91,16.655
3332,19,29,22,27,-9,-19,-59,-119,16.66
3333,-11,-11,-3,-17,-47,-10,18,29,16.665
3334,-1,31,-2,-21,33,33,54,45,16.67
3335,14,-28,-4,78,-36,-21,-12,-40,16.675
3336,11,37,-2,-7,101,29,4,22,16.68
3337,15,-71,-14,-21,-27,-13,-15,-12,16.685
3338,-10,74,44,114,69,20,37,11,16.69
3339,-5,-51,-6,-6,25,21,41,126,16.695
3340,-28,-25,-21,-66,-19,-15,-72,-108,16.7
3341,-23,0,-13,16,-39,-20,-33,-11,16.705000000000002
3342,20,32,22,-28,-38,3,36,81,16.71
3343,18,62,6,-26,24,5,30,14,16.715
3344,-11,-39,3,63,-2,-11,-21,-47,16.72
3345,61,27,-3,-43,10,12,49,82,16.725
3346,-70,-97,-33,21,-5,-9,-23,-31,16.73
3347,-49,25,9,-35,-10,-9,-62,-15,16.735
3348,-4,-21,-4,0,-6,1,1,24,16.740000000000002
3349,-2,34,-17,-29,26,2,-12,7,16.745
3350,77,19,79,68,-23,1,62,127,16.75
3351,-27,-23,-52,-88,-15,11,7,-66,16.755
3352,-31,-12,-27,-14,13,-9,-5,30,16.76
3353,26,4,20,127,-6,-8,5,-15,16.765
3354,9,20,-12,-118,-6,3,-41,-39,16.77
3355,-28,-18,-36,4,-8,-13,-51,-95,16.775
3356,44,28,31,27,-60,-8,19,68,16.78
3357,-24,53,-28,-55,51,19,31,34,16.785
3358,-9,-63,-17,50,-15,-5,52,127,16.79
3359,-2,-41,10,-23,-7,0,32,48,16.795
3360,-23,25,0,2,3,-11,-77,-76,16.8
3361,-8,-47,2,21,-21,-25,-77,-108,16.805
3362,22,120,20,37,-18,-10,-20,4,16.81
3363,16,-20,-19,-93,38,26,54,81,16.815
3364,34,35,11,6,0,9,44,23,16.82
3365,-37,-69,5,-12,-3,-2,9,20,16.825
3366,41,-18,7,-8,-12,-1,5,57,16.830000000000002
3367,12,64,34,127,15,-11,-25,-69,16.835
3368,-8,-18,4,-56,18,13,-1,-21,16.84
3369,-40,8,4,-12,-9,-5,-33,-78,16.845
3370,10,20,-25,29,7,-3,14,27,16.85
3371,-2,-37,-14,-29,-7,-4,17,49,16.855
3372,0,17,17,-28,-4,7,17,-7,16.86
3373,13,45,36,74,-18,-9,-7,-17,16.865000000000002
3374,-58,-96,-83,-117,26,21,-11,-53,16.87
3375,-12,34,32,15,-32,-11,-4,29,16.875
3376,38,-6,4,65,-2,4,37,44,16.88
3377,17,-22,-13,-48,14,8,15,84,16.885
3378,-88,-1,24,41,-19,-27,-84,-128,16.89
3379,27,-44,-36,-62,-15,-7,-17,-2,16.895
3380,-24,-10,-33,-25,1,12,8,31,16.9
3381,35,64,14,34,25,4,11,17,16.905
3382,37,-16,10,-38,-4,6,19,-5,16.91
3383,-15,8,17,45,-19,-6,5,11,16.915
3384,67,36,42,95,5,-5,36,118,16.92
3385,-90,-45,-51,-75,63,22,-31,-91,16.925
3386,12,21,-8,-5,-14,-7,-28,46,16.93
3387,52,119,54,53,-3,3,2,4,16.935
3388,-6,-128,-52,-75,-53,-16,-4,0,16.94
3389,22,5,-27,44,43,16,1,12,16.945
3390,-17,17,24,6,-26,-9,14,15,16.95
3391,15,-28,9,-16,36,13,12,-8,16.955000000000002
3392,-41,51,27,67,9,-8,-7,4,16.96
3393,12,-58,-10,-94,-68,-17,-15,-57,16.965
3394,14,-7,-24,10,14,9,3,-34,16.97
3395,41,-19,5,-1,-6,5,39,121,16.975
3396,-29,41,31,67,18,-11,-36,-122,16.98
3397,-65,-52,-17,-87,-24,-6,-16,-20,16.985
3398,15,56,-14,22,28,9,14,53,16.990000000000002
3399,-13,-71,5,-34,-17,-1,7,-36,16.995
3400,-42,-59,-24,17,1,-8,-15,1,17.0
3401,44,8,-11,74,-33,-19,-7,33,17.005
3402,27,13,-16,-6,55,21,40,-9,17.01
3403,-38,19,-13,-54,24,19,17,82,17.015
3404,-32,-37,11,-14,-54,-25,-65,-95,17.02
3405,-17,20,24,96,50,2,3,98,17.025
3406,22,91,27,-50,-12,-1,-2,48,17.03
3407,48,-61,-23,15,-33,-19,-7,8,17.035
3408,13,1,-61,-52,4,17,49,40,17.04
3409,17,48,32,-3,-26,2,15,-18,17.045
3410,-16,-45,-14,31,11,-13,-33,-60,17.05
3411,-23,-6,7,25,-22,-6,11,17,17.055
3412,10,67,26,-71,34,21,17,14,17.06
3413,-15,-63,-57,-35,-53,-18,-15,25,17.065
3414,-9,-40,34,62,1,-7,-38,-68,17.07
3415,45,56,-49,-55,5,6,6,47,17.075
3416,-4,41,49,79,31,2,-6,-41,17.080000000000002
3417,38,14,-2,-4,-2,0,13,59,17.085
3418,-61,-45,-4,10,-17,-10,9,-17,17.09
3419,-12,-20,-1,-18,-13,0,-17,-47,17.095
3420,59,-4,-18,-56,12,16,28,50,17.1
3421,3,22,18,5,37,19,11,-52,17.105
3422,-29,6,34,-2,-29,-27,-38,-39,17.11
3423,-1,28,-39,10,-31,-15,-12,-44,17.115000000000002
3424,-15,-6,12,10,8,1,24,124,17.12
3425,-12,38,-2,-24,-37,-12,-33,-118,17.125
3426,4,-29,-10,-9,23,9,-2,42,17.13
3427,-45,-61,16,-6,-6,-5,-12,-50,17.135
3428,22,-13,-19,23,3,5,21,93,17.14
3429,57,87,44,42,-3,-4,17,-42,17.145
3430,-32,-17,-13,-27,7,5,1,8,17.150000000000002
3431,17,49,10,47,-26,-12,-6,45,17.155
3432,14,-26,-22,-105,40,19,-3,-86,17.16
3433,-10,1,34,8,4,6,29,120,17.165
3434,41,7,-28,14,7,4,-17,-48,17.17
3435,-27,54,13,30,2,-9,-38,-49,17.175
3436,-40,-73,12,42,2,-8,-4,10,17.18
3437,-13,4,-44,-116,3,18,12,-10,17.185
3438,8,-49,9,49,-4,-3,19,50,17.19
