slno,emg1,emg2,emg3,emg4,emg5,emg6,emg7,emg8,Time
0,-19,-8,-4,-3,-4,-6,-7,-13,0.0
1,-1,0,-2,-2,1,3,15,20,0.005
2,11,1,-2,-2,-2,-1,10,12,0.01
3,0,2,1,0,0,-1,-16,-30,0.015
4,-5,-2,1,-1,-1,-1,-5,39,0.02
5,16,0,2,0,-1,-5,1,8,0.025
6,1,-3,-4,-1,-2,0,-11,-41,0.03
7,2,0,6,2,4,0,5,1,0.035
8,-11,-4,-2,-3,-1,-2,3,-5,0.04
9,1,5,-5,-6,-6,-3,-3,-16,0.045
10,-27,-8,1,3,3,4,1,5,0.05
11,19,4,1,1,0,0,-11,19,0.055
12,-13,5,-3,-2,-1,-2,12,15,0.06
13,6,0,0,-1,-2,-9,-20,-31,0.065
14,18,-17,-8,-1,0,-7,14,22,0.07
15,-4,14,11,-5,-5,0,-39,-65,0.075
16,2,-1,-7,0,3,7,12,-36,0.08
17,-12,-3,-3,-1,0,-4,-11,-13,0.085
18,-19,3,2,-1,-3,-4,11,24,0.09
19,-19,0,5,4,5,6,32,-9,0.095
20,75,22,2,-1,-4,-10,-12,0,0.1
21,2,-1,-2,0,0,1,3,15,0.105
22,17,3,-4,0,0,-3,-20,0,0.11
23,-49,-16,-2,-1,-2,2,20,-17,0.115
24,-7,-17,2,2,3,0,1,-9,0.12
25,14,15,0,-2,-2,-4,-1,16,0.125
26,13,-4,-7,-2,-4,-4,14,12,0.13
27,-27,-1,3,6,3,-3,-14,17,0.135
28,42,2,0,-3,0,5,-5,-35,0.14
29,1,-2,4,0,2,3,13,-14,0.145
30,-18,-4,-12,-6,-5,-9,-34,-53,0.15
31,16,5,-2,-3,-1,5,32,5,0.155
32,-33,1,-7,-1,0,-2,-6,32,0.16
33,41,-9,14,3,2,4,-3,30,0.165
34,9,11,-7,1,1,1,31,34,0.17
35,9,-7,-6,-3,0,0,-29,16,0.17500000000000002
36,28,4,1,-2,-3,-6,-6,-17,0.18
37,-51,12,-3,-3,-4,-5,-12,-19,0.185
38,3,-4,11,2,1,4,15,65,0.19
39,-19,-2,-8,-4,-2,-4,-2,22,0.195
40,54,2,2,2,4,6,20,43,0.2
41,-73,-13,-4,-2,-3,-5,-13,-27,0.20500000000000002
42,11,7,-1,2,1,-3,-16,23,0.21
43,-36,-20,-3,-7,-9,-14,-37,-51,0.215
44,-3,5,6,1,0,7,16,-18,0.22
45,-27,-3,-6,0,1,1,9,7,0.225
46,42,4,10,2,1,-2,-19,0,0.23
47,4,0,-4,1,-1,-1,-18,-66,0.23500000000000001
48,-8,1,-3,1,-2,-1,20,-7,0.24
49,38,5,3,-2,0,3,-18,-28,0.245
50,1,-4,1,-6,-5,-5,8,-20,0.25
51,7,41,-1,-5,0,2,19,51,0.255
52,-32,-9,1,1,-3,-5,-20,-34,0.26
53,29,-3,-5,-4,-4,-6,7,47,0.265
54,22,-8,6,0,-2,1,-13,7,0.27
55,-42,-21,-1,2,2,2,13,-26,0.275
56,-34,66,24,2,-1,1,-2,-3,0.28
57,-2,-41,-32,-4,0,0,0,16,0.28500000000000003
58,-28,-4,0,0,-2,-2,-8,-13,0.29
59,13,-5,6,3,2,1,14,34,0.295
60,-36,-15,-11,-6,-6,-9,-22,-49,0.3
61,-22,12,8,-1,-2,-3,4,-13,0.305
62,5,-6,-3,-1,3,5,2,-7,0.31
63,16,-6,-2,1,1,2,6,16,0.315
64,13,-9,3,0,-1,-2,-3,28,0.32
65,18,21,3,-1,-3,-1,4,1,0.325
66,-23,20,-7,1,-1,1,7,-14,0.33
67,5,2,7,-1,-5,-2,7,-12,0.335
68,14,25,-7,1,2,3,3,15,0.34
69,5,25,25,0,-1,0,-1,-29,0.34500000000000003
70,-22,-54,1,4,2,0,-2,-20,0.35000000000000003
71,10,30,3,-5,-3,-3,-9,-31,0.355
72,1,-40,-14,3,2,1,0,19,0.36
73,11,30,-5,-2,-3,-3,2,6,0.365
74,-37,-41,-2,0,3,0,1,-26,0.37
75,1,8,10,4,1,-1,-4,25,0.375
76,-10,9,11,-3,-2,-2,12,24,0.38
77,6,-21,-23,-4,-1,-8,-67,0,0.385
78,-1,3,-8,-3,-3,12,35,22,0.39
79,19,-10,-9,-4,-5,2,-5,3,0.395
80,-3,1,13,0,-2,-4,-5,28,0.4
81,6,-5,0,1,-2,0,23,-7,0.405
82,16,3,-1,-5,-7,-7,-14,-10,0.41000000000000003
83,6,36,8,3,4,5,2,-7,0.41500000000000004
84,4,-48,-17,-4,-4,0,-1,20,0.42
85,30,-7,-3,4,4,7,13,7,0.425
86,6,-12,-6,2,1,0,-10,-15,0.43
87,-4,-34,4,-1,-2,-2,10,-6,0.435
88,26,58,18,-1,-3,-2,-2,4,0.44
89,-25,-32,-12,0,3,5,5,29,0.445
90,-4,34,5,-2,-1,-25,-64,-18,0.45
91,12,-22,-6,0,-1,25,47,86,0.455
92,-12,-17,-13,-2,0,0,6,-25,0.46
93,-3,4,10,-2,-4,-5,20,30,0.465
94,0,12,3,0,-1,-6,4,-15,0.47000000000000003
95,-29,-14,-9,-7,-12,-17,-65,-24,0.47500000000000003
96,-5,-12,-8,-2,1,6,49,-41,0.48
97,7,-10,-6,0,2,5,17,21,0.485
98,-19,18,9,2,-2,2,8,21,0.49
99,23,-25,-24,-7,-8,-13,8,-22,0.495
100,-27,1,1,1,6,-2,-34,-53,0.5
101,6,-4,-5,0,-4,1,-4,-20,0.505
102,-3,-8,-10,-1,-2,-6,-1,-2,0.51
103,5,41,21,3,1,-4,-15,-21,0.515
104,6,28,-8,-2,-5,-2,-6,10,0.52
105,0,-11,5,-1,-1,1,29,11,0.525
106,-27,-1,4,-5,-3,-7,-41,-12,0.53
107,-6,-24,-13,0,0,1,52,-6,0.535
108,13,-14,-12,-4,-3,-3,-23,7,0.54
109,-36,5,3,-2,0,5,31,-48,0.545
110,25,11,3,0,-3,9,22,28,0.55
111,-16,-5,-2,-2,0,-8,-29,-45,0.555
112,-5,8,6,0,-3,-3,53,-21,0.56
113,6,-23,-7,-4,-2,0,-30,30,0.5650000000000001
114,14,-15,-2,-1,-1,-9,-14,30,0.5700000000000001
115,22,36,7,6,8,-3,35,16,0.5750000000000001
116,-12,-30,-4,0,0,29,38,2,0.58
117,16,33,8,2,-1,-2,-56,17,0.585
118,-5,-25,-16,-3,2,24,90,-3,0.59
119,-19,19,16,-1,-3,-15,-49,-18,0.595
120,27,6,16,3,-3,-15,-52,50,0.6
121,36,-2,-29,-1,-2,-22,-43,64,0.605
122,-10,-10,-3,-1,0,8,0,-62,0.61
123,9,3,1,3,2,9,-22,-30,0.615
124,-10,-15,1,-1,-2,-2,72,54,0.62
125,-15,-6,-6,0,2,7,17,-13,0.625
126,3,-3,3,-3,0,3,-8,30,0.63
127,15,29,10,3,1,4,-4,-9,0.635
128,-8,-10,2,-4,-2,-13,-56,13,0.64
129,-9,6,21,6,4,11,37,-33,0.645
130,-3,14,1,1,-1,-5,15,-15,0.65
131,1,-23,-11,-3,1,-5,-10,14,0.655
132,-11,-4,-2,-2,-5,0,-67,26,0.66
133,-4,8,0,0,4,10,19,-32,0.665
134,4,13,9,-1,-4,-18,-35,-83,0.67
135,-10,-26,-13,-1,0,12,52,35,0.675
136,-6,1,-11,-1,-3,-13,-12,9,0.68
137,-9,-6,4,0,-3,2,4,-9,0.685
138,18,8,-4,-1,1,4,10,27,0.6900000000000001
139,-18,-11,-2,-3,-2,-17,-50,-11,0.6950000000000001
140,-1,-8,-7,-1,2,11,48,-39,0.7000000000000001
141,-28,2,2,-5,-9,-22,-19,-22,0.705
142,-18,-5,4,-1,-4,9,-10,-7,0.71
143,22,-14,-9,3,3,-6,-10,16,0.715
144,-4,-6,-3,3,6,8,43,-4,0.72
145,5,12,6,2,-2,5,15,25,0.725
146,-23,11,-10,0,2,0,-23,-27,0.73
147,-1,-5,10,-5,-9,-6,9,36,0.735
148,19,-9,-4,-4,-2,-17,-67,-29,0.74
149,6,-12,-4,-2,2,-8,-45,-12,0.745
150,9,-5,-6,-4,-7,13,47,39,0.75
151,9,-1,-2,0,6,4,25,19,0.755
152,30,-1,1,5,2,5,9,-4,0.76
153,-7,1,-10,0,2,2,-5,-20,0.765
154,0,14,1,-3,-2,-6,-42,-49,0.77
155,7,7,14,1,-5,-9,-17,16,0.775
156,-20,-7,-11,-6,-5,-4,28,20,0.78
157,10,-10,-9,0,3,4,-32,-34,0.785
158,2,-1,2,4,0,-21,-30,8,0.79
159,2,-2,-3,0,8,44,80,-40,0.795
160,-29,9,-1,-4,2,-10,-34,-9,0.8
161,7,-1,4,-3,-9,35,81,23,0.805
162,18,-2,0,3,0,-40,-4,25,0.81
163,-9,14,6,2,-1,16,24,-2,0.8150000000000001
164,2,4,-4,1,4,6,-8,23,0.8200000000000001
165,-11,-2,3,-4,1,-3,-18,-21,0.8250000000000001
166,8,-4,-2,-2,0,10,22,31,0.8300000000000001
167,10,10,-9,-5,-8,-16,-9,-11,0.835
168,4,-23,-1,-4,-6,3,4,-18,0.84
169,7,2,0,4,3,-25,-48,1,0.845
170,-16,-1,-3,2,3,31,48,22,0.85
171,-10,-3,-3,2,2,1,-5,-17,0.855
172,27,12,2,1,-2,6,-19,55,0.86
173,15,-6,-6,-3,-3,-17,-1,-18,0.865
174,15,-3,4,1,1,5,15,47,0.87
175,2,-3,-2,3,2,12,11,-20,0.875
176,5,5,1,-4,-4,-6,-5,2,0.88
177,6,2,7,0,-2,-1,-13,22,0.885
178,-2,3,-3,0,2,3,5,-25,0.89
179,7,-7,-5,-2,-5,-13,-30,17,0.895
180,4,5,-1,-1,2,1,15,-26,0.9
181,-10,2,2,-3,-2,2,14,11,0.905
182,-24,-1,1,-2,-4,-7,-22,-31,0.91
183,7,-6,-4,1,-1,-10,-9,-7,0.915
184,-1,1,1,1,-3,0,10,-14,0.92
185,-5,-2,-1,0,1,0,12,26,0.925
186,22,3,2,-1,2,3,-6,-4,0.93
187,-4,-4,-2,-2,-2,-8,-24,1,0.935
188,-34,-3,-2,-1,-2,0,-11,-23,0.9400000000000001
189,-7,-2,1,0,-2,-3,9,-17,0.9450000000000001
190,-13,-4,-5,-1,-2,2,-12,-15,0.9500000000000001
191,-13,-9,-5,-5,-5,-11,-15,-5,0.9550000000000001
192,3,4,1,-1,0,2,16,16,0.96
193,-8,-1,0,-2,0,-2,5,-12,0.965
194,9,4,4,4,-1,0,1,4,0.97
195,2,0,-7,-3,-1,2,-4,-11,0.975
196,-21,3,-1,1,-2,-5,5,-8,0.98
197,-2,-3,-1,-2,-1,-6,-6,4,0.985
198,-31,1,-1,-1,2,1,-34,-21,0.99
199,-10,10,8,1,2,5,-11,-44,0.995
200,-12,-14,-2,0,0,-1,-11,-24,1.0
201,15,0,-5,0,3,9,-3,19,1.0050000000000001
202,8,3,0,-1,-1,-1,8,24,1.01
203,0,-3,-1,0,-2,-6,-18,21,1.0150000000000001
204,-51,4,4,1,2,2,-2,-25,1.02
205,36,-4,2,-1,-2,9,24,-34,1.025
206,-2,-2,-21,-4,0,-3,-3,-7,1.03
207,-2,-3,11,0,0,1,37,30,1.035
208,19,2,2,1,0,2,-46,7,1.04
209,-26,-3,3,-1,-3,-11,2,-17,1.045
210,16,-3,3,0,1,5,-9,39,1.05
211,-1,-5,-2,0,0,-7,-1,2,1.055
212,14,-3,-2,-2,-3,-5,8,10,1.06
213,-10,6,10,1,0,9,21,46,1.065
214,27,-5,-1,-2,1,0,3,-8,1.07
215,-4,-5,-18,-4,-1,-1,-19,-18,1.075
216,13,3,7,2,2,9,33,4,1.08
217,-5,7,-13,-2,-3,-6,-9,-4,1.085
218,-28,-13,2,-3,-4,-4,18,0,1.09
219,3,1,5,1,0,4,-7,8,1.095
220,-1,3,-5,-3,-6,-12,-14,-10,1.1
221,-10,0,6,0,-5,-12,11,-15,1.105
222,-9,4,6,2,8,11,-6,-12,1.11
223,-25,5,-4,-3,-4,-1,3,-13,1.115
224,5,-3,-9,-2,1,0,-7,2,1.12
225,6,-3,6,-2,-4,-8,10,-6,1.125
226,1,12,3,-2,-5,-11,-46,-26,1.1300000000000001
227,10,11,8,4,4,-5,2,17,1.135
228,2,-2,-6,0,-1,14,16,-33,1.1400000000000001
229,6,-4,-2,-1,4,6,9,-1,1.145
230,3,-5,-3,0,-5,-1,3,5,1.1500000000000001
231,1,-2,-2,0,-1,-1,-6,-13,1.155
232,8,12,5,0,-2,-17,-28,17,1.16
233,-13,-9,-2,1,1,9,16,2,1.165
234,-39,0,-5,-2,-4,-9,10,0,1.17
235,7,-3,-5,0,-3,4,9,-11,1.175
236,18,-4,1,-2,-3,-8,-3,-48,1.18
237,0,-1,1,-3,0,-5,-14,25,1.185
238,13,-1,5,2,1,2,-19,45,1.19
239,4,-8,1,2,2,7,22,-19,1.195
240,8,18,1,-2,-2,-6,7,30,1.2
241,11,4,-6,0,0,-8,-27,-18,1.205
242,1,9,5,1,0,11,6,-9,1.21
243,-16,-26,-10,-2,-3,-4,-8,39,1.215
244,46,10,9,5,2,10,-19,27,1.22
245,-30,-5,-6,-2,-4,-14,-10,-14,1.225
246,0,7,-2,-4,-3,-13,23,-25,1.23
247,-5,-6,-2,1,3,7,-11,-20,1.235
248,-29,-8,2,-1,-2,-4,1,2,1.24
249,2,4,0,-1,0,6,-20,-9,1.245
250,9,-15,-1,0,-2,-7,14,12,1.25
251,-9,15,0,-6,-3,-1,-18,-9,1.2550000000000001
252,-9,-9,2,0,-3,-1,24,2,1.26
253,0,-17,-13,-1,-1,-1,-6,2,1.2650000000000001
254,-14,17,1,-1,-1,1,7,-6,1.27
255,9,-21,-22,-8,1,-1,5,27,1.2750000000000001
256,11,9,6,3,-2,0,-9,-22,1.28
257,-9,7,3,-1,1,3,-4,-14,1.285
258,18,-3,4,0,0,2,4,3,1.29
259,8,-14,-5,0,0,-7,-4,0,1.295
260,-11,-14,-3,-3,-3,2,-3,10,1.3
261,4,13,0,-1,-4,0,26,6,1.305
262,5,-9,3,1,-1,-2,-25,-10,1.31
263,1,26,10,0,0,-3,2,2,1.315
264,-13,-20,-12,0,-1,-2,-6,3,1.32
265,-2,6,8,2,1,0,-4,18,1.325
266,-8,-8,-11,-4,-2,-1,-4,-29,1.33
267,4,2,3,-2,-3,6,5,14,1.335
268,10,-4,-5,0,2,-1,-1,-4,1.34
269,-2,-8,-6,-1,-1,1,-11,2,1.345
270,9,23,4,-1,-3,-7,-7,13,1.35
271,-3,-4,4,0,-2,-2,21,2,1.355
272,-14,-2,-1,-4,-1,-1,3,-12,1.36
273,5,-15,4,0,-2,1,2,-3,1.365
274,-20,1,-17,1,-1,-1,4,5,1.37
275,1,7,17,2,0,3,5,48,1.375
276,42,36,3,1,0,-8,5,-12,1.3800000000000001
277,28,-17,-4,-1,-1,0,23,-23,1.385
278,-15,-7,-4,-3,-1,3,9,14,1.3900000000000001
279,-12,4,-5,-1,-5,-12,-37,-3,1.395
280,-19,-13,1,-1,2,4,8,2,1.4000000000000001
281,0,7,2,-1,0,0,1,0,1.405
282,14,-1,1,0,0,0,-6,0,1.41
283,9,1,1,0,-5,-12,9,-4,1.415
284,-9,-9,-4,-2,-3,8,10,-6,1.42
285,-10,3,-9,-1,1,2,-10,-15,1.425
286,-3,0,6,-1,1,4,2,-1,1.43
287,-8,-5,0,-1,1,5,-7,-23,1.435
288,-9,7,2,-4,-4,-6,0,19,1.44
289,-1,-4,1,-3,-5,-7,-29,-25,1.445
290,22,-18,-26,-1,1,6,14,3,1.45
291,-17,1,4,-1,-7,-3,-1,-18,1.455
292,-12,1,-1,0,5,-2,-15,-8,1.46
293,7,-2,2,-1,-1,2,6,30,1.465
294,-2,2,10,0,-3,-1,6,-1,1.47
295,-10,-2,-9,-1,2,4,-18,-27,1.475
296,11,-29,-19,-4,-4,-12,-19,24,1.48
297,-10,21,6,-1,-1,-4,-1,25,1.485
298,-9,-16,4,1,0,-9,8,-8,1.49
299,31,19,1,0,4,25,3,-17,1.495
300,1,4,3,1,1,-1,-1,-3,1.5
301,-12,6,6,0,0,2,19,-22,1.5050000000000001
302,9,-12,-3,-1,-4,-12,-16,15,1.51
303,-6,-14,-23,-8,-3,2,10,6,1.5150000000000001
304,0,-5,1,0,-1,-1,-4,-32,1.52
305,2,3,-1,-1,0,2,23,-2,1.5250000000000001
306,-7,12,13,1,0,5,10,-7,1.53
307,-10,-1,3,0,2,-3,5,-6,1.5350000000000001
308,12,5,1,-3,-3,3,3,13,1.54
309,-5,-10,-5,-3,-6,-13,-7,29,1.545
310,-17,31,10,3,10,24,-6,-20,1.55
311,12,-39,-7,3,1,-12,36,30,1.555
312,28,6,2,-1,-2,-4,-10,31,1.56
313,5,4,-4,2,4,13,-10,-12,1.565
314,15,-6,-4,-5,-4,-13,12,26,1.57
315,-1,7,2,1,-2,-4,8,12,1.575
316,-26,3,1,1,2,2,-16,-22,1.58
317,-2,-2,8,0,0,-3,-25,-14,1.585
318,8,-7,-10,-2,-2,1,1,7,1.59
319,-8,-4,-8,0,-1,3,10,-14,1.595
320,21,-5,9,1,-4,-10,8,0,1.6
321,-13,16,5,-4,2,5,-6,-6,1.605
322,-7,2,-3,-2,-6,-4,-7,0,1.61
323,-13,14,7,1,4,-2,-15,-3,1.615
324,6,-27,-16,0,0,-3,6,7,1.62
325,3,-17,-8,2,1,5,6,39,1.625
326,-1,-11,5,1,-2,5,1,-7,1.6300000000000001
327,-8,-9,-4,-4,-3,-6,-8,-2,1.635
328,8,3,-5,-2,0,6,-9,6,1.6400000000000001
329,-4,28,9,3,1,-5,0,-18,1.645
330,-9,-13,2,-2,-3,-6,0,-2,1.6500000000000001
331,11,-11,14,-2,-7,-9,-1,14,1.655
332,-12,12,-20,-2,-1,5,-17,-5,1.6600000000000001
333,6,-25,-18,-4,-1,-7,-11,9,1.665
334,1,13,-4,-2,-4,2,-11,-2,1.67
335,9,13,3,-1,2,-7,-5,-4,1.675
336,-21,-25,1,-2,3,18,23,-2,1.68
337,-1,4,-2,-1,-1,3,-2,-6,1.685
338,3,1,-1,0,-1,-5,-7,-3,1.69
339,-3,1,0,-1,-2,-2,-3,-7,1.695
340,-10,16,6,-3,1,1,5,5,1.7
341,-3,-6,-2,0,-5,-3,-6,-10,1.705
342,13,-10,-4,3,5,4,14,4,1.71
343,0,21,11,3,0,4,-1,-10,1.715
344,-4,-25,-2,0,0,-9,5,-4,1.72
345,5,14,4,-3,0,2,-1,-1,1.725
346,-7,7,0,-3,4,5,-3,-3,1.73
347,-5,-14,-7,-4,-8,-5,-5,0,1.735
348,-3,9,4,-1,-2,-7,1,-2,1.74
349,-5,-7,-9,-3,2,-1,1,-4,1.745
350,3,-9,1,-1,-3,-5,-5,-2,1.75
351,-3,-4,-4,0,5,9,-1,-7,1.7550000000000001
352,0,4,2,-1,-4,-5,3,-4,1.76
353,-3,-9,-3,0,-7,1,-1,-4,1.7650000000000001
354,-1,7,2,1,9,-2,-1,0,1.77
355,6,0,1,-1,-6,-2,-4,3,1.7750000000000001
356,-6,-6,-5,2,4,2,7,0,1.78
357,4,-5,2,1,-2,-8,0,3,1.7850000000000001
358,-4,1,-1,-1,2,4,1,-1,1.79
359,0,-7,-2,1,5,5,3,-1,1.795
360,-4,3,-2,-2,-4,-2,2,-1,1.8
361,2,1,-3,-2,-1,1,-2,-1,1.805
362,-2,-3,4,-2,-4,-5,-1,1,1.81
363,-4,7,-7,-3,1,2,-3,0,1.815
364,-1,8,7,0,-8,-3,2,-4,1.82
365,0,-8,-6,-2,7,6,3,-1,1.825
366,-2,-6,-11,-1,-8,-11,-2,-1,1.83
367,2,3,1,0,2,2,-3,0,1.835
368,-4,3,-1,-1,2,0,-1,0,1.84
369,0,1,3,-2,-4,-7,-3,-3,1.845
370,-2,2,-1,0,-3,-3,-2,0,1.85
371,-1,3,0,-2,-3,-2,-3,0,1.855
372,-2,0,2,1,-1,0,-1,0,1.86
373,-1,-1,0,2,-2,-2,-1,0,1.865
374,1,2,0,-4,2,-2,0,-2,1.87
375,1,-2,-2,2,9,1,1,-1,1.875
376,-3,1,0,3,-1,-2,-2,-1,1.8800000000000001
377,0,1,4,10,-8,-5,-2,-1,1.885
378,0,-1,-5,-21,-4,-6,-3,-2,1.8900000000000001
379,0,-2,-7,-5,10,4,2,1,1.895
380,2,-2,-1,0,1,8,2,2,1.9000000000000001
381,3,-4,0,7,3,0,1,-1,1.905
382,-2,-3,1,1,-11,-3,-1,-1,1.9100000000000001
383,1,3,3,-15,-2,-4,-3,-1,1.915
384,4,12,-5,0,-6,-1,-1,0,1.92
385,-2,-25,-6,-12,-6,0,-2,-3,1.925
386,0,0,-2,7,0,-1,0,0,1.93
387,0,-2,4,10,-1,-1,-1,-1,1.935
388,-3,-4,0,-7,-6,1,0,-1,1.94
389,-3,-1,-2,-13,-5,-2,0,-1,1.945
390,-3,-5,-2,1,15,11,0,0,1.95
391,-3,-10,-1,1,-17,-10,-1,0,1.955
392,2,13,6,9,8,-8,-2,0,1.96
393,-3,6,2,11,6,1,1,0,1.965
394,0,-2,-1,-4,7,6,1,-1,1.97
395,-3,-6,-7,8,-2,2,-3,0,1.975
396,-5,-7,-1,9,-7,-3,-2,0,1.98
397,-2,-3,2,-18,-19,-15,-4,-3,1.985
398,2,8,0,18,29,8,2,2,1.99
399,3,2,-9,-36,-3,7,5,3,1.995
400,-3,-10,-5,4,-2,10,-2,-1,2.0
401,2,8,-4,-7,-14,-12,-2,0,2.005
402,-2,-4,2,11,-4,-10,0,0,2.0100000000000002
403,0,2,9,-3,-1,0,-1,0,2.015
404,1,1,3,-1,21,12,2,0,2.02
405,0,-2,-2,2,-8,1,-2,-1,2.025
406,-1,-2,-2,-8,-22,-8,-6,-3,2.0300000000000002
407,-2,9,-1,5,5,-1,-2,-1,2.035
408,-1,-15,-10,-5,-4,-3,-2,0,2.04
409,3,4,1,6,15,7,0,1,2.045
410,-1,-1,-4,-10,-8,-5,-1,0,2.05
411,-4,-7,1,9,-2,-2,-1,-4,2.055
412,0,7,2,7,0,-2,-2,-2,2.06
413,7,5,1,5,5,2,0,-1,2.065
414,-3,-8,0,-7,-1,-3,1,-2,2.07
415,-5,0,0,15,-10,-5,-4,0,2.075
416,-8,-4,1,-23,-13,-6,-3,-4,2.08
417,-6,-4,-1,7,10,5,-2,1,2.085
418,2,-1,4,28,8,3,-2,-1,2.09
419,-2,-6,-5,-35,-4,-1,-1,-3,2.095
420,1,2,-4,5,-1,-4,1,1,2.1
421,-2,-1,-6,-12,1,6,2,0,2.105
422,-1,3,0,-3,-12,-6,1,1,2.11
423,-1,0,0,11,-4,-2,-2,-2,2.115
424,0,0,1,-2,0,0,1,0,2.12
425,0,2,2,4,1,-3,0,-1,2.125
426,0,2,-2,1,-2,-1,-1,0,2.13
427,1,2,1,2,4,1,1,2,2.1350000000000002
428,1,2,3,-9,2,0,0,-1,2.14
429,0,3,-1,6,9,6,-2,0,2.145
430,-6,-7,-2,-8,-2,-4,-2,-2,2.15
431,1,-6,0,-11,-3,0,-4,0,2.1550000000000002
432,1,4,0,-15,-4,-5,0,-1,2.16
433,-2,-1,-1,-4,2,1,2,-1,2.165
434,3,7,0,-5,-6,1,0,0,2.17
435,5,6,2,9,4,-3,-2,0,2.1750000000000003
436,-9,-22,-8,2,1,-2,-2,-3,2.18
437,-1,-3,-1,-11,-11,-4,-3,-3,2.185
438,1,-1,0,2,13,4,-1,-1,2.19
439,0,0,1,14,-1,2,0,0,2.195
440,3,3,1,4,2,0,-1,1,2.2
441,-2,0,0,0,-2,0,0,-1,2.205
442,-3,-3,-3,-6,-7,1,-1,-2,2.21
443,-3,-2,-1,1,-6,-6,0,-2,2.215
444,2,3,2,5,-1,-2,2,1,2.22
445,-1,-4,0,-1,0,4,2,0,2.225
446,3,3,-2,-5,-3,-1,-2,-1,2.23
447,-1,-2,-1,-1,-2,-2,0,-2,2.235
448,-2,0,0,-2,-2,0,-4,-3,2.24
449,0,1,1,1,5,1,0,-2,2.245
450,1,-5,1,-2,-1,1,-1,0,2.25
451,-1,-1,-6,-3,-3,-3,-1,0,2.255
452,-2,-4,-3,-41,-2,-5,0,-2,2.2600000000000002
453,-4,-3,-2,-22,4,-3,-1,-2,2.265
454,-3,-2,-1,-3,-1,0,2,-1,2.27
455,0,0,1,11,0,0,-2,1,2.275
456,0,4,-2,23,-3,0,0,0,2.2800000000000002
457,-1,-1,-2,17,4,0,-3,-1,2.285
458,-2,1,1,6,-3,5,-2,-1,2.29
459,2,2,-1,10,-6,-12,-1,0,2.295
460,-2,-3,3,9,-4,-2,-2,0,2.3000000000000003
461,1,2,2,4,4,1,0,-1,2.305
462,-2,-3,-6,-3,-4,-1,0,0,2.31
463,1,5,-3,-2,-1,4,1,-2,2.315
464,-2,-3,-4,1,-3,-2,-2,0,2.32
465,0,-1,1,1,-6,1,2,-1,2.325
466,1,2,1,-1,-1,0,-1,0,2.33
467,2,1,-2,-8,2,-1,0,1,2.335
468,1,-1,6,4,-1,-3,0,1,2.34
469,-2,-4,-5,1,-3,-2,-5,0,2.345
470,-1,-2,-3,-9,-6,-4,-2,0,2.35
471,-3,-4,3,-1,-3,0,-1,-2,2.355
472,-1,1,-5,0,9,1,-2,-2,2.36
473,1,2,-1,0,-1,4,0,-2,2.365
474,-2,-2,1,-3,-4,-2,-3,0,2.37
475,0,-3,-2,-5,6,6,-1,-1,2.375
476,1,3,-2,-1,-7,-6,-1,0,2.38
477,-1,-2,0,1,-5,-7,-5,-2,2.3850000000000002
478,-1,-1,0,-2,-4,-1,4,-1,2.39
479,-2,1,5,-3,0,4,-8,-2,2.395
480,0,-1,-4,-4,2,4,-2,0,2.4
481,-2,-6,-6,-6,4,-3,-1,-1,2.4050000000000002
482,0,1,-1,2,-1,-3,-1,0,2.41
483,3,5,2,0,3,-2,-1,-1,2.415
484,1,2,8,4,-1,1,1,-1,2.42
485,-1,0,-2,-1,-5,-5,-3,1,2.4250000000000003
486,1,2,0,1,5,-1,-5,1,2.43
487,-2,-3,3,-4,2,5,4,-1,2.435
488,0,0,-10,-1,-4,-2,-1,-2,2.44
489,2,5,-12,1,0,-2,0,0,2.445
490,-4,-4,2,15,0,2,0,-4,2.45
491,-3,-3,-4,1,2,1,2,1,2.455
492,0,2,8,-6,-1,-9,-14,1,2.46
493,-3,-7,-3,-8,-1,7,15,-3,2.465
494,1,-1,0,-7,0,0,11,1,2.47
495,1,1,2,-2,-3,-8,-17,0,2.475
496,-3,-5,-4,-1,-1,-2,-1,-1,2.48
497,-1,2,-6,-2,4,-1,-10,0,2.485
498,-2,-2,-3,-3,-6,-3,2,0,2.49
499,-1,-1,-2,2,2,6,7,2,2.495
500,0,9,4,-1,4,-1,0,0,2.5
501,-5,-6,17,1,-5,-5,-8,-11,2.505
502,3,2,-18,-10,0,0,-3,6,2.5100000000000002
503,-2,-2,-4,-5,-3,-2,4,-3,2.515
504,3,5,1,-1,-1,2,2,5,2.52
505,4,8,10,3,4,2,3,2,2.525
506,3,-8,-3,-2,3,-2,-5,-3,2.5300000000000002
507,-6,-7,-2,-5,-3,-6,-2,-3,2.535
508,-3,-5,-5,3,1,1,1,-4,2.54
509,-2,4,5,3,-4,-9,-13,2,2.545
510,-4,-6,1,-1,-5,0,5,2,2.5500000000000003
511,2,1,1,9,1,6,6,2,2.555
512,1,-11,-3,1,-5,0,6,-2,2.56
513,1,-1,-5,1,-2,-2,-1,3,2.565
514,-3,2,2,-2,-2,-2,-1,-2,2.57
515,-3,-6,-3,-4,0,-1,-4,-1,2.575
516,0,-1,1,-12,-3,0,0,-2,2.58
517,-2,-6,-4,-9,-6,-3,-3,-4,2.585
518,-3,5,2,4,1,-1,-4,-3,2.59
519,-3,-8,2,4,-4,-4,6,0,2.595
520,-1,-1,-6,6,0,-3,-9,0,2.6
521,1,0,1,4,-1,1,3,1,2.605
522,-2,-3,2,-1,-1,0,-6,-9,2.61
523,0,0,-7,-2,-2,1,6,5,2.615
524,0,0,-3,-2,-3,-1,3,1,2.62
525,8,-6,-3,-2,-4,4,12,4,2.625
526,-14,3,4,1,0,-1,-8,-11,2.63
527,0,4,-5,0,0,-6,-8,0,2.6350000000000002
528,-10,-1,4,0,-1,-1,-2,-15,2.64
529,23,4,12,6,-1,5,5,2,2.645
530,8,5,7,6,4,2,-2,2,2.65
531,-4,-11,-7,-4,-1,-5,-4,0,2.6550000000000002
532,-9,-4,-39,-9,-1,0,8,6,2.66
533,5,9,-6,-6,-4,-7,-3,-6,2.665
534,-2,1,-1,-7,-2,-3,0,2,2.67
535,2,15,19,3,3,0,-5,-4,2.6750000000000003
536,3,-2,33,2,0,4,-6,5,2.68
537,-13,-4,0,-2,0,0,0,0,2.685
538,2,2,-4,-2,1,-3,-14,0,2.69
539,1,0,-16,-7,-4,-4,-1,0,2.695
540,5,-3,-7,-6,-4,-3,2,-1,2.7
541,-8,-5,1,2,3,-2,0,0,2.705
542,-4,-7,5,2,0,1,3,0,2.71
543,-6,-7,-10,-1,-2,1,0,-2,2.715
544,0,-2,-2,3,0,0,0,0,2.72
545,-4,-2,0,-3,-3,-3,-4,-2,2.725
546,7,3,-2,-2,0,0,2,2,2.73
547,2,-1,3,-1,1,0,3,-4,2.735
548,2,4,0,-1,0,-2,1,-4,2.74
549,-7,-4,-4,-4,1,-1,-1,-1,2.745
550,-3,-1,-12,-1,0,-2,1,-1,2.75
551,1,5,-2,-2,-1,0,-1,-2,2.755
552,2,17,10,5,2,1,0,-1,2.7600000000000002
553,-5,3,-1,-3,-3,-2,-3,0,2.765
554,1,1,9,-3,-2,2,1,-1,2.77
555,-2,-7,-3,-4,-2,-2,0,-3,2.775
556,0,2,-2,-1,-3,-1,-2,1,2.7800000000000002
557,-2,0,-6,0,0,-2,0,1,2.785
558,5,3,-2,-1,-4,-4,2,0,2.79
559,4,11,15,5,6,1,1,1,2.795
560,-7,-24,-3,-1,-2,0,-1,-2,2.8000000000000003
561,-3,-2,-13,-1,2,-4,-2,1,2.805
562,0,-5,-5,-5,-1,4,6,-4,2.81
563,3,-5,-5,-5,-5,0,2,6,2.815
564,4,6,6,1,-1,1,0,0,2.82
565,-2,-2,7,6,1,5,-1,2,2.825
566,-2,3,1,5,-1,-6,-2,0,2.83
567,-6,1,-4,3,0,-1,0,-6,2.835
568,-1,-4,-8,0,1,2,6,-1,2.84
569,-1,-1,-7,-2,3,-3,-19,-2,2.845
570,1,3,-3,-2,0,1,0,-1,2.85
571,3,4,4,2,-1,2,10,-1,2.855
572,-5,-13,-6,-2,-2,-2,-10,-1,2.86
573,-5,-12,-8,-6,-7,-3,2,-3,2.865
574,0,1,13,4,2,4,-2,2,2.87
575,-1,-13,-35,-7,-2,-5,-7,-2,2.875
576,0,4,16,1,-8,-9,5,0,2.88
577,1,7,-17,0,-2,0,5,0,2.8850000000000002
578,-2,-5,8,4,5,-1,-1,0,2.89
579,-2,4,26,1,5,8,3,-2,2.895
580,6,14,4,1,1,3,-3,-1,2.9
581,0,-1,7,-5,-7,-6,-4,-1,2.9050000000000002
582,-5,-8,-9,-4,-5,-4,3,0,2.91
583,-4,-8,-10,-5,-3,-3,3,2,2.915
584,3,-1,-5,-3,3,1,0,1,2.92
585,-3,3,10,-18,-1,-2,1,-2,2.9250000000000003
586,-1,-2,-10,-14,-2,-3,-6,-3,2.93
587,-6,-3,0,-2,-2,-4,-2,0,2.935
588,-10,-6,-11,3,-4,-3,-3,-3,2.94
589,-5,-1,5,15,3,7,4,2,2.945
590,1,-1,-6,0,-1,-2,0,-1,2.95
591,2,-4,0,3,-2,0,-8,-1,2.955
592,1,0,-4,1,2,1,-1,1,2.96
593,-9,-18,-2,-1,-2,1,-1,-4,2.965
594,-1,0,2,2,0,0,1,2,2.97
595,-1,-5,2,1,-1,-1,-3,0,2.975
596,0,-3,4,-1,3,-1,1,-1,2.98
597,7,6,3,5,2,-2,3,0,2.985
598,2,-3,-5,3,-2,-3,2,1,2.99
599,-1,5,5,1,2,-2,0,-2,2.995
600,-2,-4,-15,-8,-3,-3,-1,-3,3.0
601,5,2,-1,0,0,0,-2,0,3.005
602,-9,-9,-3,-1,-1,3,-3,-2,3.0100000000000002
603,7,11,6,2,1,-1,-6,-1,3.015
604,4,11,7,1,2,-2,0,4,3.02
605,-6,-11,2,2,3,0,3,-2,3.025
606,5,5,8,3,2,1,-5,4,3.0300000000000002
607,0,-7,2,-1,-4,-1,-1,-5,3.035
608,0,-6,0,-1,-4,0,1,0,3.04
609,5,7,-3,-2,-1,1,3,0,3.045
610,1,-4,-4,-3,-1,-3,-1,-2,3.0500000000000003
611,-6,-7,-5,2,1,-4,3,0,3.055
612,-1,-4,-5,-4,-3,-3,-1,-1,3.06
613,-10,-5,-4,0,-2,3,4,0,3.065
614,-6,-1,0,-1,0,0,-2,3,3.0700000000000003
615,-3,0,-6,-5,-3,3,5,-5,3.075
616,-3,-6,-1,0,-1,-3,-5,0,3.08
617,-1,4,9,0,1,-3,-4,-6,3.085
618,-3,-4,-5,-4,-4,-6,-3,2,3.09
619,0,-2,-3,-1,-1,2,2,7,3.095
620,0,3,4,0,1,0,-3,-2,3.1
621,5,5,-1,-3,0,-2,-3,-2,3.105
622,-4,-11,-7,-4,1,6,-1,-5,3.11
623,2,-2,-8,-3,-3,-3,-12,5,3.115
624,3,3,0,1,-2,-1,8,-14,3.12
625,0,1,1,1,-1,5,1,7,3.125
626,3,2,1,0,0,-1,3,-3,3.13
627,-1,-3,-2,-1,-1,1,-1,2,3.1350000000000002
628,-1,3,0,1,1,0,-4,3,3.14
629,0,-3,-3,3,-1,-3,-3,-2,3.145
630,2,2,2,0,-1,-4,-2,-6,3.15
631,1,-1,4,-2,-1,-2,-4,-1,3.1550000000000002
632,-2,-7,-2,-2,0,2,-4,-1,3.16
633,0,-7,-5,-3,-1,2,-2,-2,3.165
634,1,4,1,2,0,-1,5,2,3.17
635,-7,-7,-1,1,-2,-1,3,-3,3.1750000000000003
636,-1,-1,1,1,-1,0,0,3,3.18
637,-4,-1,1,-3,-3,-5,-4,-15,3.185
638,-1,-7,-6,-3,-3,-4,-4,5,3.19
639,6,12,1,-3,0,0,2,8,3.1950000000000003
640,-1,2,1,-2,-1,2,-2,-1,3.2
641,1,-7,-7,-3,0,0,-6,9,3.205
642,0,7,4,2,0,6,14,-10,3.21
643,-8,6,1,3,-2,-4,1,-9,3.215
644,-1,-1,1,0,-1,1,0,3,3.22
645,-7,-2,-1,-1,-4,-7,-4,-2,3.225
646,-3,-4,-7,-4,-5,-4,-8,2,3.23
647,-1,-7,-10,-8,-6,3,-4,0,3.235
648,2,10,1,-3,-1,0,0,-1,3.24
649,-1,-6,4,1,1,0,1,-2,3.245
650,-2,-6,-3,-2,3,0,-2,-1,3.25
651,1,6,3,-1,-1,-2,-2,-1,3.255
652,-1,-4,-1,0,1,-3,-4,-3,3.2600000000000002
653,7,6,-3,-2,0,-1,4,3,3.265
654,-5,-1,4,5,-2,-1,-1,1,3.27
655,-7,-15,-3,1,2,-1,-2,-6,3.275
656,-2,-3,-8,1,-2,-1,-1,-1,3.2800000000000002
657,0,4,0,-1,-4,3,3,1,3.285
658,3,8,2,-1,0,0,-1,-5,3.29
659,2,3,1,1,-2,1,-1,2,3.295
660,-2,-7,3,-2,0,2,3,1,3.3000000000000003
661,11,10,1,1,1,1,3,13,3.305
662,-2,3,0,-1,1,-2,-3,-9,3.31
663,-3,3,1,3,2,0,2,-1,3.315
664,-5,3,-1,0,-1,-2,-2,-17,3.3200000000000003
665,4,7,2,1,1,-3,-1,15,3.325
666,-5,-1,0,-3,-4,-2,-2,-2,3.33
667,4,9,2,3,2,2,2,0,3.335
668,3,1,1,1,1,-1,1,5,3.34
669,-3,-8,-1,-3,-3,0,-3,-11,3.345
670,-2,-8,-4,-3,-4,-2,-3,1,3.35
671,-1,-2,2,2,-3,-2,-2,-3,3.355
672,-6,4,0,-2,-4,-3,-2,0,3.36
673,-4,1,-1,-3,0,-3,2,-3,3.365
674,2,0,-2,-3,0,2,0,0,3.37
675,-5,-8,-5,-1,1,-9,-2,-6,3.375
676,4,2,-1,-1,-2,-16,-2,8,3.38
677,-1,0,-1,0,0,-6,3,2,3.3850000000000002
678,4,5,-1,2,1,-1,0,0,3.39
679,1,-1,-1,-1,-1,8,0,4,3.395
680,-3,-4,1,0,0,8,-1,2,3.4
681,-9,-2,-2,0,1,7,-2,-22,3.4050000000000002
682,5,-3,-1,0,-2,5,-1,12,3.41
683,-7,5,0,-2,-1,1,-2,-15,3.415
684,0,0,1,-4,-3,0,-5,-9,3.42
685,1,-1,-3,-1,-1,4,3,9,3.4250000000000003
686,-2,-9,-5,-2,0,2,-2,-5,3.43
687,9,10,1,-3,-2,-2,-2,3,3.435
688,-3,-10,-4,-5,-2,3,4,-3,3.44
689,1,7,2,-3,-3,-4,-1,-8,3.4450000000000003
690,-1,1,3,1,3,-5,0,1,3.45
691,-1,-9,-2,60,0,-5,-2,1,3.455
692,-6,-5,-5,24,0,-1,-1,0,3.46
693,-3,-2,3,9,-1,2,-1,1,3.465
694,-2,0,2,-12,-1,-1,0,-16,3.47
695,-2,4,4,-29,1,-2,0,9,3.475
696,8,-8,-2,-17,0,1,-1,5,3.48
697,2,-4,1,-7,1,-2,-6,-1,3.485
698,0,0,-1,-8,-1,-2,1,3,3.49
699,-6,-4,0,-11,0,3,7,-7,3.495
700,-13,-7,-6,-4,0,3,5,-5,3.5
701,3,-1,-4,-11,-1,-5,-2,5,3.505
702,-3,-4,1,2,-4,-1,-1,-2,3.5100000000000002
703,2,-8,-5,-6,-1,-1,-3,1,3.515
704,4,1,2,-2,1,-2,1,17,3.52
705,-5,1,-2,-2,-1,-1,-4,-16,3.525
706,0,1,-4,-1,-3,0,0,2,3.5300000000000002
707,1,1,0,-3,-4,-2,0,-1,3.535
708,-2,-3,-7,-5,-1,-2,-13,-8,3.54
709,3,3,-1,2,0,-2,13,7,3.545
710,2,-4,-1,6,1,1,1,-5,3.5500000000000003
711,1,-1,3,-4,5,2,0,0,3.555
712,2,-1,-2,2,-1,-2,-2,-3,3.56
713,-2,-3,2,4,-4,-3,-7,2,3.565
714,-3,1,0,1,-1,-1,-3,-9,3.5700000000000003
715,-2,-5,-3,-5,-3,-2,2,9,3.575
716,6,6,4,2,-2,1,-2,6,3.58
717,2,-7,2,3,1,3,-1,-4,3.585
718,-4,-12,-7,0,0,-1,-1,3,3.59
719,-1,-2,-2,-4,0,-1,-7,-4,3.595
720,-1,6,1,-2,-2,-1,3,-6,3.6
721,-4,-11,-5,-3,0,-1,3,1,3.605
722,-1,1,1,-2,-2,-2,-2,3,3.61
723,2,9,2,2,3,0,-2,4,3.615
724,2,-1,-3,-3,-3,-1,1,2,3.62
725,-6,-12,-10,-2,-5,1,-4,-5,3.625
726,-4,-7,-4,-1,-2,-2,-1,2,3.63
727,-3,-9,-3,-4,1,-2,-2,-6,3.6350000000000002
728,-1,3,-1,-4,-1,-1,2,9,3.64
729,-1,3,1,4,2,3,0,1,3.645
730,2,6,1,3,0,-1,3,-3,3.65
731,-5,-12,-7,-8,-5,-2,0,-5,3.6550000000000002
732,3,3,1,-1,0,0,1,-8,3.66
733,0,12,-3,-1,-2,-4,-4,-1,3.665
734,-3,6,3,1,-1,-2,-2,8,3.67
735,1,3,-2,-2,-3,0,0,2,3.6750000000000003
736,-3,-9,3,1,4,-2,-1,0,3.68
737,-1,-13,-4,-1,-2,-3,-1,-2,3.685
738,5,2,6,0,-2,0,-2,-2,3.69
739,-4,-2,-6,-3,-3,-2,-2,-2,3.6950000000000003
740,-3,0,-2,-1,-2,0,2,-3,3.7
741,6,11,5,1,1,2,-8,0,3.705
742,2,-1,-10,-7,-2,0,3,5,3.71
743,4,4,2,-1,0,1,0,0,3.715
744,-1,5,3,1,-3,0,1,-2,3.72
745,-6,-5,-3,-1,-1,-3,2,-3,3.725
746,-5,-2,2,-2,-2,-5,-8,3,3.73
747,-5,-8,-3,-3,0,1,3,-6,3.735
748,-2,-1,-4,-1,3,-3,0,-4,3.74
749,-1,0,-2,0,-2,-2,-2,-1,3.745
750,-6,-3,1,4,-1,1,-4,-2,3.75
751,-1,6,3,5,-2,1,-1,0,3.755
752,1,0,0,0,-2,1,-3,-1,3.7600000000000002
753,-6,-8,-2,-3,0,-1,-5,-1,3.765
754,1,-1,-1,0,0,0,2,-12,3.77
755,1,1,-2,-1,0,2,0,9,3.775
756,-4,-6,2,0,-1,-1,6,2,3.7800000000000002
757,3,5,-2,2,-1,-1,1,6,3.785
758,-2,-2,0,0,1,0,0,-1,3.79
759,4,3,0,4,0,-3,-2,-3,3.795
760,3,1,-1,-4,0,0,-2,-3,3.8000000000000003
761,-6,-6,0,-2,-1,-2,1,0,3.805
762,-2,3,5,3,2,-1,-3,-1,3.81
763,-7,-14,-6,-2,-3,-5,1,-2,3.815
764,-1,0,-2,-3,-4,-4,-12,-2,3.8200000000000003
765,5,3,4,1,1,4,12,1,3.825
766,-2,-3,-7,-4,-3,1,-1,-1,3.83
767,2,4,4,6,0,-1,-4,-1,3.835
768,1,0,-3,2,0,-2,-6,1,3.84
769,3,7,2,-1,-1,-1,-2,1,3.845
770,-2,1,-1,3,1,1,-1,-1,3.85
771,-3,4,0,-3,-1,-1,1,0,3.855
772,-5,-3,-2,1,-2,3,3,-3,3.86
773,3,7,1,0,-2,-2,-6,0,3.865
774,1,-2,-1,-2,-2,-2,1,2,3.87
775,1,-4,2,-2,-1,-1,-2,-2,3.875
776,-2,7,6,4,2,2,5,-1,3.88
777,-2,-4,-5,-1,-3,0,-2,-1,3.8850000000000002
778,-7,-18,-8,-4,-3,-4,-3,1,3.89
779,1,-2,-2,-3,-2,-3,-5,-2,3.895
780,-1,-2,-1,-2,-1,0,1,1,3.9
781,1,3,3,-1,0,1,0,-2,3.9050000000000002
782,-1,6,2,1,-1,0,-5,-1,3.91
783,-1,-1,-1,-3,-1,0,5,3,3.915
784,-4,-9,-5,-4,-2,-2,1,-1,3.92
785,-3,-8,-1,-2,-1,-5,-1,-3,3.9250000000000003
786,2,0,1,2,1,-1,-2,1,3.93
787,-3,-6,-4,-4,-2,1,-4,-12,3.935
788,-3,-5,0,1,-3,-3,-2,5,3.94
789,-2,-2,-1,1,0,2,7,0,3.9450000000000003
790,4,10,-5,-2,-2,1,0,3,3.95
791,-4,-2,0,-1,-3,-1,-3,-2,3.955
792,-2,1,-4,-3,-4,-3,-7,-6,3.96
793,3,1,-1,-2,-3,-2,-5,-4,3.9650000000000003
794,4,2,1,0,-1,-2,5,-3,3.97
795,3,5,-2,-1,-1,-2,0,1,3.975
796,-3,0,5,2,2,-2,2,-2,3.98
797,-6,-6,1,-1,2,-2,-5,-1,3.985
798,-3,3,1,0,1,0,4,-1,3.99
799,-4,-9,-3,-4,1,1,0,0,3.995
800,0,3,2,-1,1,3,-1,2,4.0
801,1,1,-4,-3,-2,1,3,4,4.005
802,2,1,0,2,0,-1,-2,-6,4.01
803,3,2,0,1,-3,-4,-6,1,4.015
804,0,-3,-3,2,-2,0,-4,-1,4.0200000000000005
805,0,0,3,1,-2,-2,2,-2,4.025
806,3,-1,0,-1,1,-2,2,2,4.03
807,3,4,-1,-1,1,0,0,2,4.035
808,-1,-7,-6,-5,-3,-3,-6,-4,4.04
809,-2,2,2,-1,-3,4,2,-2,4.045
810,-2,-4,1,0,-3,0,2,2,4.05
811,-3,1,0,0,3,0,0,0,4.055
812,0,2,0,-1,2,1,1,1,4.0600000000000005
813,-1,-6,-6,-3,2,-2,-4,-1,4.065
814,0,2,1,0,0,-2,-2,-2,4.07
815,0,4,-1,0,-3,-2,-3,-4,4.075
816,0,2,-1,0,-2,-2,2,6,4.08
817,1,4,-3,-1,-1,1,-1,2,4.085
818,-2,-6,-5,-2,-3,0,-1,2,4.09
819,-2,-2,1,2,0,-4,-1,0,4.095
820,1,5,1,0,1,-4,1,-3,4.1
821,-1,0,-1,0,-2,-3,-1,-1,4.105
822,0,6,3,1,-2,-2,-11,-3,4.11
823,-1,-1,-1,-1,-3,-2,13,-1,4.115
824,-1,-8,-3,-2,-1,-1,-2,-3,4.12
825,-3,-7,0,-1,0,-2,-1,-2,4.125
826,0,-2,-2,-1,0,4,0,0,4.13
827,3,-1,2,-3,-1,-3,-7,3,4.135
828,3,5,0,-1,-3,0,3,2,4.14
829,-2,1,1,-1,-1,-2,1,0,4.1450000000000005
830,-4,-7,-2,-2,0,-3,-2,0,4.15
831,-1,-1,3,2,1,0,4,0,4.155
832,1,-2,0,0,0,0,1,-3,4.16
833,-3,-3,-1,0,-1,-1,-4,-3,4.165
834,-2,1,0,0,0,0,4,-2,4.17
835,-4,-1,0,-2,-2,-2,-1,-1,4.175
836,0,4,3,-4,-1,-2,-4,-1,4.18
837,1,0,0,0,-3,1,-2,-2,4.1850000000000005
838,-3,-12,-5,-5,0,0,5,2,4.19
839,-1,1,-1,-1,-2,0,-5,-2,4.195
840,-2,-4,-5,0,1,3,3,-3,4.2
841,2,5,1,4,2,2,-3,1,4.205
842,0,3,-4,-2,0,-1,-2,-1,4.21
843,1,2,-1,-2,0,0,-2,0,4.215
844,-3,-1,-2,-1,-2,-2,-3,-2,4.22
845,0,-3,-4,-3,-1,-4,-7,-3,4.225
846,4,6,6,3,1,-4,7,1,4.23
847,-2,-2,-5,1,1,0,-1,1,4.235
848,-1,0,-1,0,-3,0,0,0,4.24
849,-2,-2,-4,-4,-1,-2,0,-3,4.245
850,1,4,1,0,1,-2,-3,-2,4.25
851,0,-1,-1,-3,1,-3,-2,1,4.255
852,-2,2,2,0,2,-1,-2,-1,4.26
853,-2,-3,-1,-3,0,2,7,0,4.265
854,-2,-2,0,-3,-3,0,1,-12,4.2700000000000005
855,-2,-9,-9,-2,-4,4,4,7,4.275
856,0,-4,-3,-1,1,-1,-4,1,4.28
857,-1,-4,2,0,0,0,-5,-3,4.285
858,1,1,1,1,0,-2,-10,2,4.29
859,-4,-5,2,2,-1,-1,-3,-6,4.295
860,0,3,-1,-1,-3,1,-1,-2,4.3
861,1,0,-4,-2,-4,1,9,1,4.305
862,0,-4,-1,0,-2,-2,-4,-1,4.3100000000000005
863,-3,-8,-2,2,0,0,0,-3,4.315
864,-2,-2,-3,0,-3,-2,-4,0,4.32
865,-3,-1,-4,-4,-1,0,-3,-2,4.325
866,-6,-5,-3,-4,-4,0,0,0,4.33
867,-4,-4,1,-3,-3,-5,-1,-2,4.335
868,1,3,6,4,-2,-2,2,0,4.34
869,2,4,-2,-1,1,-1,1,0,4.345
870,3,3,-1,2,-3,-1,2,2,4.3500000000000005
871,2,-1,4,0,-1,1,-1,-3,4.355
872,0,-4,-19,-5,0,-1,2,-2,4.36
873,1,1,7,0,0,-1,-6,-2,4.365
874,0,-4,-6,-1,0,0,0,1,4.37
875,5,14,9,3,1,1,0,0,4.375
876,-4,-7,1,1,-1,-1,1,-3,4.38
877,-1,-2,-5,1,1,-1,-3,1,4.385
878,-4,-7,0,-2,1,3,-3,-3,4.39
879,1,1,-4,-1,-1,2,0,1,4.3950000000000005
880,3,3,2,1,0,-2,6,1,4.4
881,-1,-5,-2,0,0,-5,-4,1,4.405
882,1,3,4,1,-1,0,-3,0,4.41
883,-2,0,-9,-4,-3,-2,-6,-4,4.415
884,-3,1,1,0,3,-3,-5,0,4.42
885,-3,-33,-1,-2,2,-1,6,0,4.425
886,0,-3,-1,-1,2,-4,0,2,4.43
887,3,9,-2,1,0,0,0,-1,4.4350000000000005
888,0,17,3,1,0,1,-1,1,4.44
889,1,22,1,-3,-4,-1,-5,-2,4.445
890,-3,0,-8,-4,-3,1,5,0,4.45
891,0,3,-2,-1,-2,0,1,-2,4.455
892,2,2,6,0,-3,0,2,-1,4.46
893,0,0,0,1,-1,-1,-5,1,4.465
894,-2,-2,-2,-1,0,-2,-2,-1,4.47
895,-3,1,1,2,0,-3,3,1,4.4750000000000005
896,-3,-12,-4,0,-3,-1,2,-2,4.48
897,3,12,3,1,0,0,-2,-1,4.485
898,-1,2,-1,1,-1,-1,-1,-1,4.49
899,-3,-15,-8,-2,-1,-2,0,-2,4.495
900,-1,-8,2,-2,0,-3,-8,-2,4.5
901,-1,1,0,3,-1,2,9,2,4.505
902,-3,-3,3,2,-1,-1,-6,0,4.51
903,-4,0,3,1,-1,0,1,-1,4.515
904,-1,-4,3,-1,0,-2,-3,0,4.5200000000000005
905,-3,-2,6,-1,-1,2,-1,-3,4.525
906,-1,-9,-29,-6,-1,-1,2,-1,4.53
907,1,-1,6,-1,0,-3,-4,-1,4.535
908,1,-2,-5,-2,1,0,-3,-2,4.54
909,-1,0,1,2,-2,-1,-2,1,4.545
910,-1,3,5,-2,-4,-2,4,0,4.55
911,4,10,-3,-3,0,3,4,1,4.555
912,-1,-1,1,-1,-1,-3,-1,0,4.5600000000000005
913,-2,-3,-2,-1,-1,0,-3,-2,4.565
914,0,0,5,2,0,-2,-7,-1,4.57
915,2,2,-2,0,0,-1,2,2,4.575
916,2,3,3,-1,-1,-2,5,2,4.58
917,-4,-6,-4,-6,-3,-3,-2,-2,4.585
918,-5,-9,0,-2,-3,0,0,-1,4.59
919,-6,-5,0,-3,-2,-4,-1,-5,4.595
920,-2,1,-2,0,0,0,1,0,4.6000000000000005
921,-2,2,-6,-1,0,0,-3,-3,4.605
922,2,-1,3,-1,-1,-2,-1,-1,4.61
923,1,-1,-1,0,0,3,0,1,4.615
924,0,1,1,1,-2,-1,-2,-1,4.62
925,-1,2,3,0,-1,-3,1,0,4.625
926,2,2,1,1,0,-2,-6,1,4.63
927,-1,-2,0,-2,-4,1,1,-1,4.635
928,-2,-3,-3,-4,-3,-1,-3,-1,4.64
929,1,3,-1,2,1,3,6,1,4.6450000000000005
930,0,5,1,1,2,0,-2,-3,4.65
931,-1,1,-2,1,1,-2,-4,0,4.655
932,1,-1,-2,0,1,1,-2,-1,4.66
933,4,-2,-2,2,0,-2,-2,-1,4.665
934,1,1,0,-2,-2,-2,1,-2,4.67
935,-3,-8,-3,0,-2,-1,-1,-1,4.675
936,-1,-4,-1,-1,0,-1,3,-1,4.68
937,2,1,-3,-2,1,1,-1,-2,4.6850000000000005
938,0,4,0,-3,1,-1,0,0,4.69
939,-1,1,0,0,0,-3,-6,-4,4.695
940,-5,-8,-3,2,0,0,0,0,4.7
941,-2,-2,-3,-2,-2,-4,-2,-1,4.705
942,-1,-3,-1,0,-1,2,0,0,4.71
943,3,6,1,0,-3,1,1,-1,4.715
944,1,2,-7,-2,-1,-2,-3,0,4.72
945,-3,-2,1,-4,-3,-1,2,0,4.7250000000000005
946,2,3,6,3,0,0,0,-1,4.73
947,-1,1,0,-3,-2,-1,-2,-2,4.735
948,1,-1,3,7,3,3,-1,0,4.74
949,-1,-2,-2,0,-1,-1,-2,-2,4.745
950,-2,0,-2,-2,-3,-2,0,-1,4.75
951,-3,-7,-1,-2,-2,-3,-5,-1,4.755
952,-1,-2,-1,-3,1,-2,-2,-1,4.76
953,1,-1,-1,0,2,0,-3,-1,4.765
954,1,4,4,3,0,1,1,1,4.7700000000000005
955,0,-2,-6,0,0,0,1,3,4.775
956,-1,3,3,-1,-3,-1,-8,-1,4.78
957,-4,-9,-1,-1,-3,-1,4,0,4.785
958,-3,-29,-1,-3,-1,-1,1,1,4.79
959,3,3,2,2,1,0,5,0,4.795
960,-1,3,-5,-3,-2,-2,2,-1,4.8
961,1,22,1,4,1,0,-3,-1,4.805
962,-3,16,-5,-6,-2,-2,-1,-1,4.8100000000000005
963,2,8,-2,-1,-2,-1,-2,0,4.815
964,-1,6,3,1,1,2,1,0,4.82
965,-1,-1,-1,-2,-2,-2,-6,-1,4.825
966,-4,-4,-3,-3,-1,1,1,-3,4.83
967,-1,-3,-2,-2,0,-3,-3,-2,4.835
968,1,-4,-1,-2,-2,-1,-2,-1,4.84
969,-5,-10,-1,0,-3,0,0,-1,4.845
970,0,-1,3,1,-1,1,-1,0,4.8500000000000005
971,-3,-3,-2,-3,-1,-1,-1,-1,4.855
972,1,-1,-1,-2,-3,-2,-2,-2,4.86
973,-3,-8,0,1,1,-1,3,-1,4.865
974,-1,0,-1,0,-2,1,0,0,4.87
975,-5,-9,0,1,0,-1,2,-1,4.875
976,-2,-2,-4,-4,0,-3,-1,-3,4.88
977,0,-4,-3,-3,-2,-3,-1,0,4.885
978,0,1,-3,-2,0,-1,-2,0,4.89
979,-1,1,2,1,1,1,-1,1,4.8950000000000005
980,2,4,2,0,0,1,0,2,4.9
981,-3,-9,-2,-1,-1,-1,-1,-2,4.905
982,-1,-4,-8,-2,-2,0,-5,-1,4.91
983,-1,-4,0,-1,-1,1,2,-2,4.915
984,-1,-2,-4,1,-1,-1,1,-1,4.92
985,2,5,2,-2,-2,-4,0,1,4.925
986,-2,0,2,1,1,-5,1,0,4.93
987,1,1,0,-1,0,-4,-1,0,4.9350000000000005
988,-2,-7,-2,-3,-1,1,2,0,4.94
989,-3,-7,-1,-1,2,0,1,-1,4.945
990,-2,-3,0,1,1,-1,-8,-1,4.95
991,0,3,-3,1,0,1,1,2,4.955
992,-2,-7,-1,-1,-1,-2,-6,-1,4.96
993,2,1,-1,-1,-1,2,7,-1,4.965
994,1,1,1,0,0,0,2,0,4.97
995,1,3,3,1,-1,0,-3,-1,4.9750000000000005
996,-1,1,4,3,0,1,0,-2,4.98
997,-6,-4,-6,-4,-3,-2,-4,-2,4.985
998,1,6,-1,-5,-2,-4,-2,-1,4.99
999,-1,-7,1,-2,-1,1,0,-1,4.995
1000,-2,-1,-3,-1,-2,0,8,0,5.0
1001,2,2,1,0,-1,-2,-4,-3,5.005
1002,-1,0,-1,2,1,1,1,-2,5.01
1003,0,3,-4,-2,-1,-4,-9,-2,5.015
1004,-2,-5,0,-1,1,-2,2,-2,5.0200000000000005
1005,-3,-10,1,-1,0,1,2,-1,5.025
1006,-1,-4,-3,-3,-3,-1,-4,0,5.03
1007,-1,-3,-1,0,0,1,5,1,5.035
1008,-2,-2,-2,0,-1,-1,-1,-2,5.04
1009,1,3,-2,2,1,0,0,0,5.045
1010,0,1,1,1,0,-1,-2,-2,5.05
1011,-3,-3,0,0,0,-1,-3,1,5.055
1012,-1,2,-1,-2,0,-3,0,0,5.0600000000000005
1013,-2,-1,1,-1,-1,-2,-3,-1,5.065
1014,1,3,3,2,0,-3,-3,0,5.07
1015,3,7,2,0,0,-2,0,-3,5.075
1016,1,3,-2,-1,1,-1,-2,0,5.08
1017,4,4,0,1,1,3,2,-1,5.085
1018,1,0,0,-2,-1,0,2,0,5.09
1019,-4,-5,-3,-1,-3,-4,2,-1,5.095
1020,1,1,2,0,0,0,-4,0,5.1000000000000005
1021,-1,-4,-1,-3,2,0,-5,1,5.105
1022,-2,-2,-4,-1,0,-1,3,-1,5.11
1023,3,4,0,-1,1,0,1,-2,5.115
1024,1,3,-1,-2,-1,-3,-2,-2,5.12
1025,-3,-3,-1,3,1,-1,0,0,5.125
1026,-2,-1,-2,-2,0,-2,-5,-2,5.13
1027,-1,-2,1,-1,-1,0,-7,2,5.135
1028,0,-3,-10,-2,-5,-1,4,0,5.14
1029,2,5,9,-2,-2,-4,-6,-1,5.1450000000000005
1030,-1,-1,1,1,2,2,2,-1,5.15
1031,-2,-6,2,0,-3,1,8,0,5.155
1032,-1,1,-1,2,-3,-1,-3,-1,5.16
1033,4,6,-6,0,-3,-3,-4,0,5.165
1034,-1,-1,0,-1,-2,-2,1,3,5.17
1035,-4,-6,-3,-2,-2,-3,-2,-1,5.175
1036,0,4,6,0,-2,1,-1,1,5.18
1037,1,-4,-1,0,0,0,0,-1,5.1850000000000005
1038,0,2,-1,-2,-2,2,-2,-2,5.19
1039,-2,-31,-6,-2,1,0,-3,-3,5.195
1040,-3,-7,-2,-1,-1,-1,-1,-1,5.2
1041,-1,10,2,1,-1,-2,-7,-3,5.205
1042,-1,10,-1,3,0,1,15,4,5.21
1043,1,21,0,1,-1,-2,-4,2,5.215
1044,2,8,1,-2,0,-2,1,-1,5.22
1045,-1,-1,1,-4,-3,-1,-4,-2,5.2250000000000005
1046,-4,-11,-2,-1,0,1,-2,-2,5.23
1047,0,-3,-3,-2,-2,-1,1,0,5.235
1048,-1,-5,1,1,1,0,-3,-1,5.24
1049,1,6,-4,0,0,0,5,1,5.245
1050,-2,-5,1,-4,-2,-3,-3,-1,5.25
1051,-2,2,-1,-1,1,-1,-4,-1,5.255
1052,-3,-7,-3,-4,0,-2,-4,-3,5.26
1053,-1,-3,-4,-5,-2,-2,-2,-3,5.265
1054,-2,-11,-6,0,1,-4,2,-2,5.2700000000000005
1055,1,0,0,-2,-2,-1,-3,0,5.275
1056,0,-3,1,0,0,0,1,1,5.28
1057,1,-1,5,0,0,0,2,-1,5.285
1058,-3,-1,1,0,-4,0,-18,-1,5.29
1059,-3,1,-4,-2,-2,0,11,0,5.295
1060,-1,0,-4,-1,-1,1,3,0,5.3
1061,-1,1,-2,-2,-2,-1,2,1,5.305
1062,2,4,1,1,-2,-3,-4,-1,5.3100000000000005
1063,3,4,2,4,1,0,-3,-1,5.315
1064,-2,-8,-3,-1,-1,0,-1,-1,5.32
1065,-3,-7,-1,0,-2,0,1,2,5.325
1066,-2,-2,-2,-1,-2,-1,-1,-1,5.33
1067,-1,4,-2,-3,-3,0,1,1,5.335
1068,1,4,2,0,2,-2,-9,-2,5.34
1069,1,5,1,1,-1,-1,3,0,5.345
1070,-2,-5,-4,-1,-2,0,3,-5,5.3500000000000005
1071,-2,-6,-8,-3,-3,0,-4,0,5.355
1072,2,4,3,-1,0,-1,-2,-1,5.36
1073,-2,-4,-6,-2,1,-2,-2,-1,5.365
1074,2,7,5,1,2,0,4,2,5.37
1075,-1,-1,0,-1,0,-1,-2,-1,5.375
1076,-4,-5,-3,-2,-1,-1,-1,0,5.38
1077,-1,-2,1,0,-1,-1,-2,-1,5.385
1078,0,-1,-1,-2,-1,-1,0,0,5.39
1079,-2,3,0,-1,-2,-1,-6,-3,5.3950000000000005
1080,1,-2,-2,-1,-2,0,2,-1,5.4
1081,-2,-7,-3,-1,0,0,-1,-1,5.405
1082,2,3,0,0,0,-1,-1,-1,5.41
1083,1,2,4,2,0,-2,-2,-2,5.415
1084,-2,-9,-5,-2,0,0,-1,0,5.42
1085,-2,0,-2,-1,0,-2,-1,0,5.425
1086,-2,-2,0,-3,-2,0,-3,0,5.43
1087,-5,-10,-2,-1,-2,-2,-5,-2,5.4350000000000005
1088,3,9,3,2,-1,1,7,0,5.44
1089,0,-2,-1,-1,0,1,3,0,5.445
1090,-1,-4,-3,-1,2,0,1,0,5.45
1091,-1,0,-2,-2,-2,-1,-3,0,5.455
1092,0,-1,-2,-3,-2,-2,-2,1,5.46
1093,-1,1,0,2,-1,1,-4,-2,5.465
1094,1,2,0,-1,0,1,5,1,5.47
1095,-1,1,0,-1,1,-1,-4,-2,5.4750000000000005
1096,-1,-1,-1,1,-1,-1,7,-1,5.48
1097,1,-1,-2,-1,-1,-2,-1,-2,5.485
1098,0,-1,-1,-2,-1,-1,-2,-2,5.49
1099,-2,2,-1,0,0,2,5,-1,5.495
1100,-4,-4,0,-1,-1,0,-3,-2,5.5
1101,0,4,1,1,1,0,-1,0,5.505
1102,2,1,-2,1,-1,-3,-2,0,5.51
1103,0,-3,-1,-1,-3,-3,0,-1,5.515
1104,0,1,1,0,0,-4,-3,-1,5.5200000000000005
1105,-2,-4,-5,-1,-1,-1,-3,0,5.525
1106,-2,-4,0,-2,-2,-1,-3,-2,5.53
1107,0,-1,0,-2,-1,1,0,-1,5.535
1108,2,6,2,0,-2,3,3,-1,5.54
1109,-3,-7,-4,-1,-2,0,-3,-1,5.545
1110,-4,-8,-2,1,0,1,1,0,5.55
1111,1,4,-1,-2,-2,-4,-4,-1,5.555
1112,-2,-7,-3,-2,0,0,-2,-1,5.5600000000000005
1113,-2,0,-3,-2,-1,-2,-6,-1,5.565
1114,0,2,2,-2,-2,-2,-1,-5,5.57
1115,0,1,-2,1,1,2,16,4,5.575
1116,2,7,1,1,-1,0,-3,1,5.58
1117,0,-2,1,2,1,1,3,1,5.585
1118,1,3,-3,-1,0,-1,-4,-1,5.59
1119,-1,1,0,-1,-1,-2,-5,-2,5.595
1120,-1,1,1,0,-2,-1,-1,-2,5.6000000000000005
1121,0,-1,1,-1,-1,0,0,-1,5.605
1122,0,0,-2,-3,0,0,0,-3,5.61
1123,-1,-1,1,0,1,-1,0,-1,5.615
1124,-2,-7,-6,-4,-1,-3,-1,-3,5.62
1125,-1,3,1,-3,-2,-1,-1,-2,5.625
1126,-2,-3,-1,3,-1,-1,0,0,5.63
1127,18,3,0,-1,-2,0,-2,-1,5.635
1128,11,-2,-3,0,0,-1,-6,-1,5.64
1129,7,3,0,1,-2,-2,3,-1,5.6450000000000005
1130,-2,3,-1,-1,-2,1,1,2,5.65
1131,-11,-2,-2,-1,1,0,-2,-2,5.655
1132,-8,4,2,1,1,-1,-4,0,5.66
1133,-7,-1,1,1,-1,-2,-1,-1,5.665
1134,-4,-4,-3,-2,1,-1,1,0,5.67
1135,-7,-2,1,1,-1,-1,-4,-1,5.675
1136,-2,1,-1,-1,-1,1,0,-2,5.68
1137,-8,-12,-3,-5,-3,-1,-3,-1,5.6850000000000005
1138,2,1,3,2,0,-2,0,-1,5.69
1139,-1,-2,0,-2,0,-2,-3,-1,5.695
1140,-7,-12,1,1,0,1,1,-1,5.7
1141,-3,-3,0,-1,1,0,3,0,5.705
1142,-1,-2,-2,1,0,0,-3,-2,5.71
1143,0,1,1,2,2,-1,1,-1,5.715
1144,-1,3,-1,-2,-3,-2,0,-1,5.72
1145,-2,-1,-2,-3,-1,-1,-4,-1,5.7250000000000005
1146,-4,-7,0,-4,-3,-2,-7,-2,5.73
1147,-2,3,-5,-3,-1,2,6,0,5.735
1148,-4,-12,-5,0,0,-3,0,-2,5.74
1149,4,4,-4,0,-2,0,2,-2,5.745
1150,3,5,0,-2,-1,-1,-5,-2,5.75
1151,-3,-4,0,-1,-2,0,-3,-1,5.755
1152,-2,3,-2,0,-3,1,1,1,5.76
1153,1,2,0,-1,-1,-2,0,3,5.765
1154,-4,-10,-3,-1,0,-1,0,-2,5.7700000000000005
1155,-1,-1,0,-2,-1,0,-3,-2,5.775
1156,0,1,0,-2,-1,1,-4,-2,5.78
1157,1,5,4,4,2,1,-3,-1,5.785
1158,-1,0,2,-1,-1,0,5,1,5.79
1159,-3,-13,-8,-2,-1,-1,-1,-2,5.795
1160,0,3,0,-3,-3,-2,-2,0,5.8
1161,-3,-5,-5,-2,0,0,4,-2,5.805
1162,3,7,2,0,0,-1,-5,-2,5.8100000000000005
1163,0,2,3,2,0,-1,2,1,5.815
1164,1,0,-1,-1,1,0,0,0,5.82
1165,-1,-2,-1,-2,0,0,-1,0,5.825
1166,-2,-1,-3,0,0,1,1,-1,5.83
1167,1,2,1,-1,-2,-1,0,-1,5.835
1168,3,1,-1,0,2,-2,-6,-2,5.84
1169,0,-4,-1,-3,-1,-1,4,0,5.845
1170,0,-1,0,0,-1,-1,1,1,5.8500000000000005
1171,-2,-2,-2,0,-2,-2,-1,-2,5.855
1172,-1,3,2,-2,-2,0,1,0,5.86
1173,-1,-1,-1,1,1,-1,-3,-1,5.865
1174,1,3,0,-1,-3,-1,1,-1,5.87
1175,-1,-6,-1,0,-1,0,-3,0,5.875
1176,0,0,0,1,-1,-1,0,1,5.88
1177,-1,4,3,1,0,-1,0,0,5.885
1178,0,-5,-6,-5,-3,-2,-5,-2,5.89
1179,-5,-6,0,-3,-1,-2,1,2,5.8950000000000005
1180,0,3,-1,-2,-2,-1,4,-1,5.9
1181,1,1,-2,0,0,1,-3,-1,5.905
1182,1,1,0,-3,0,-1,0,-1,5.91
1183,2,4,1,-1,-1,0,1,-1,5.915
1184,-2,-3,-2,-3,-2,-2,-1,0,5.92
1185,1,1,1,-3,-2,-1,7,1,5.925
1186,-4,-8,0,2,-1,0,0,1,5.93
1187,2,4,0,0,1,-1,-3,-1,5.9350000000000005
1188,-2,-2,-1,-1,-2,-1,-2,-2,5.94
1189,-1,0,2,0,0,-2,-6,-2,5.945
1190,-1,0,-1,-1,1,-3,3,-2,5.95
1191,-4,-4,-1,0,-2,-1,-3,-2,5.955
1192,-2,-5,-2,0,-1,-2,-1,-2,5.96
1193,-2,-2,-2,-4,-3,0,-10,-2,5.965
1194,-1,3,-1,1,0,1,5,1,5.97
1195,2,4,2,-3,0,-2,-1,0,5.9750000000000005
1196,-1,-2,-2,-2,-2,-2,-1,-1,5.98
1197,4,3,-1,1,0,-1,0,0,5.985
1198,-2,-5,-2,0,-1,-3,-3,-1,5.99
1199,2,4,1,1,-1,-1,-2,1,5.995
1200,-2,-3,1,1,1,1,2,-1,6.0
1201,-3,-4,-5,-1,0,0,2,-1,6.005
1202,-2,0,-1,-2,-2,-1,-3,-1,6.01
1203,0,0,-5,-4,-2,0,1,-2,6.015000000000001
1204,-2,-2,0,1,0,-2,-1,-1,6.0200000000000005
1205,-4,-2,-1,1,-1,0,0,0,6.025
1206,1,2,1,-1,1,-1,-4,-3,6.03
1207,-1,-2,-2,2,-2,-1,2,-1,6.035
1208,-2,-4,-2,-1,-2,0,-2,-1,6.04
1209,-3,-2,-2,-3,-2,0,2,-2,6.045
1210,1,2,0,-2,-2,-2,-7,1,6.05
1211,-1,-4,-3,-2,1,0,0,1,6.055
1212,-1,2,0,-3,0,-4,-3,1,6.0600000000000005
1213,-1,1,2,1,1,-4,-4,-2,6.065
1214,-3,-7,-2,-2,-1,-2,-1,-1,6.07
1215,-1,1,0,0,-1,1,-4,0,6.075
1216,2,-1,-2,0,-2,3,2,-1,6.08
1217,-2,-7,-6,-3,-1,-2,-4,-2,6.085
1218,2,2,1,1,-1,4,8,1,6.09
1219,1,2,0,-1,-2,0,-6,-3,6.095
1220,0,1,1,-2,-2,-2,3,1,6.1000000000000005
1221,-1,0,2,0,-3,-4,-6,-2,6.105
1222,-1,-1,-2,-1,-2,-3,0,-1,6.11
1223,3,4,0,0,1,-3,-3,0,6.115
1224,-1,0,1,0,0,2,1,0,6.12
1225,-1,-4,-3,0,-3,-1,0,0,6.125
1226,1,5,3,-1,0,1,-2,0,6.13
1227,-6,-11,-4,-1,1,0,1,-2,6.135
1228,1,0,-3,0,1,0,-4,-1,6.140000000000001
1229,2,5,3,1,0,0,-1,0,6.1450000000000005
1230,0,1,-8,0,-1,1,3,0,6.15
1231,2,4,5,2,0,-5,1,-2,6.155
1232,-5,-6,3,-1,-1,-2,0,-3,6.16
1233,0,1,-2,-1,-3,-1,-4,0,6.165
1234,0,-2,-3,-3,-1,-1,4,0,6.17
1235,-3,-4,-2,-1,-2,0,-1,-3,6.175
1236,2,2,-1,-3,-2,-3,-2,1,6.18
1237,-2,-6,-1,-2,-2,-2,-10,-2,6.1850000000000005
1238,-4,-3,1,0,-1,-2,-1,-3,6.19
1239,0,0,-1,-1,0,0,11,4,6.195
1240,1,-2,0,0,1,-3,-3,0,6.2
1241,0,-1,-6,-4,2,-1,2,-2,6.205
1242,1,2,-2,0,0,-1,-6,-2,6.21
1243,-5,-3,9,-2,-1,-1,-6,-3,6.215
1244,-6,-6,-5,-3,-2,-1,-2,-1,6.22
1245,-2,1,7,2,-3,-2,-4,-1,6.2250000000000005
1246,-2,-9,-4,-1,0,-2,6,0,6.23
1247,1,1,-4,-1,-2,-2,-4,0,6.235
1248,6,14,3,0,1,1,5,1,6.24
1249,0,-6,-3,1,2,-2,2,-1,6.245
1250,-1,1,0,-2,-3,-1,-3,2,6.25
1251,0,0,-2,-4,-4,-1,-2,-1,6.255
1252,-3,-3,-1,0,-2,-1,-5,-2,6.26
1253,-1,0,-1,-2,-1,4,1,0,6.265000000000001
1254,1,-1,4,1,1,-2,4,3,6.2700000000000005
1255,0,-5,-3,-2,0,1,-3,-1,6.275
1256,0,-3,0,0,-2,0,2,-4,6.28
1257,1,4,2,1,1,2,4,-1,6.285
1258,0,1,-1,0,-1,0,-4,0,6.29
1259,2,5,-2,0,0,-2,3,0,6.295
1260,1,-3,-4,-3,-3,-3,-6,0,6.3
1261,0,0,1,-1,-2,-3,-1,0,6.305
1262,-1,1,-4,1,-2,-4,3,-1,6.3100000000000005
1263,-2,-2,0,-1,1,0,-6,-1,6.315
1264,-1,0,3,0,-1,1,4,2,6.32
1265,0,-2,-1,0,0,-1,1,2,6.325
1266,-2,-1,-1,-3,-1,-2,-4,-1,6.33
1267,-1,2,-3,2,-2,0,3,0,6.335
1268,-1,-1,-3,-2,0,0,0,-2,6.34
1269,0,1,3,-4,-3,-2,0,-2,6.345
1270,0,-2,-1,-1,2,1,-3,-1,6.3500000000000005
1271,-2,-6,1,1,-2,-3,-5,-1,6.355
1272,-1,1,-2,0,1,1,6,0,6.36
1273,0,2,-1,0,-1,-3,-2,-1,6.365
1274,-1,-3,-3,-1,-1,0,-4,-1,6.37
1275,-3,-7,-2,-3,-1,0,9,0,6.375
1276,1,0,-4,-3,-2,1,-5,-1,6.38
1277,-2,-3,-1,-1,1,0,0,0,6.385
1278,-1,1,2,3,0,-2,-5,-1,6.390000000000001
1279,-3,-5,-6,-1,-1,-2,-4,0,6.3950000000000005
1280,-3,-3,-3,-3,-3,-3,-3,-1,6.4
1281,1,8,1,0,-1,0,8,3,6.405
1282,2,3,2,3,2,1,-4,-2,6.41
1283,-1,-2,-1,-2,-1,0,1,-2,6.415
1284,-2,-9,-4,-1,1,-1,-3,-1,6.42
1285,-3,-2,-4,-3,-1,-3,-2,-1,6.425
1286,1,4,2,0,-1,0,1,1,6.43
1287,-2,1,-2,0,-1,-2,-2,-2,6.4350000000000005
1288,-2,-3,-2,-2,-3,-4,-6,-1,6.44
1289,-2,-6,-2,-3,-1,1,4,0,6.445
1290,1,5,1,-2,-2,-3,-1,-3,6.45
1291,2,4,1,1,0,1,1,-1,6.455
1292,1,2,0,0,-1,-1,5,-1,6.46
1293,1,0,1,1,2,1,-2,0,6.465
1294,-1,2,-2,-2,-1,-1,1,-2,6.47
1295,2,7,1,0,1,-1,-6,-2,6.4750000000000005
1296,-3,1,1,1,1,2,3,0,6.48
1297,3,-1,0,0,-1,1,1,1,6.485
1298,-4,-8,-4,-2,-2,-1,-3,0,6.49
1299,1,-1,-2,-1,-1,-1,-2,0,6.495
1300,-5,-9,-4,-2,-2,-1,-1,-1,6.5
1301,3,0,0,2,2,2,0,0,6.505
1302,2,-8,-2,-3,1,-1,3,0,6.51
1303,10,-3,0,-1,-1,-2,2,0,6.515000000000001
1304,-26,0,7,2,-1,-1,0,-4,6.5200000000000005
1305,-11,-10,-12,-4,-5,-7,-6,-4,6.525
1306,-4,-4,1,0,0,0,-10,-3,6.53
1307,3,0,-1,0,-1,2,17,4,6.535
1308,12,1,-3,-4,-1,-2,-2,0,6.54
1309,0,4,4,-1,0,1,0,0,6.545
1310,-1,0,-1,-2,-2,0,-3,-2,6.55
1311,-2,-4,-4,-2,-1,-2,-6,0,6.555
1312,9,5,4,2,1,1,1,1,6.5600000000000005
1313,-6,-1,-3,-3,-3,0,-2,-3,6.565
1314,-2,-3,-4,-3,-2,0,2,1,6.57
1315,-2,9,6,1,1,1,-5,-2,6.575
1316,-1,-4,-6,-1,-4,-2,0,-2,6.58
1317,4,3,3,3,1,0,0,3,6.585
1318,25,1,2,-1,0,1,7,2,6.59
1319,-14,-4,0,-2,-3,-1,-4,-3,6.595
1320,-13,5,0,1,0,-2,-7,-6,6.6000000000000005
1321,-7,-1,0,-1,-3,-1,-3,-3,6.605
1322,-3,8,5,2,1,-2,-1,0,6.61
1323,4,-5,-10,-2,1,-1,7,1,6.615
1324,9,-3,2,0,-1,0,0,2,6.62
1325,-2,-7,-4,-3,-3,-2,-7,-2,6.625
1326,-4,1,-1,-2,-3,-1,4,-1,6.63
1327,1,-1,1,0,1,0,-6,0,6.635
1328,-1,-2,-2,-1,1,-1,4,2,6.640000000000001
1329,1,5,2,2,2,3,6,1,6.6450000000000005
1330,-6,-3,-5,-5,-2,0,-2,-3,6.65
1331,-4,-3,2,0,1,0,-3,-3,6.655
1332,-2,-2,-1,1,-3,-1,-2,4,6.66
1333,1,-5,0,-2,1,-2,-2,-2,6.665
1334,1,-1,0,-1,0,-3,0,-1,6.67
1335,0,3,-8,-1,-2,-1,-1,-1,6.675
1336,3,3,-2,-1,0,-1,-4,-2,6.68
1337,1,-3,-2,-1,-1,-2,-1,0,6.6850000000000005
1338,-3,5,1,1,-1,1,2,-2,6.69
1339,-2,3,16,1,-2,-1,-3,-1,6.695
1340,2,-2,-11,-2,0,-1,-5,-3,6.7
1341,0,2,-14,-5,-2,-2,0,0,6.705
1342,-7,-5,-1,-2,-1,-3,6,0,6.71
1343,-2,-6,-7,-2,-2,1,-3,-2,6.715
1344,-2,-4,8,3,1,2,-1,2,6.72
1345,-2,-6,4,-1,0,0,-3,-3,6.7250000000000005
1346,-1,1,-1,3,1,-1,-6,0,6.73
1347,-1,-1,0,-2,-2,-1,1,0,6.735
1348,-1,-2,2,-3,-2,-1,-2,-3,6.74
1349,1,2,-3,-2,-3,-1,-3,-3,6.745
1350,-1,-1,0,-1,-2,-1,4,0,6.75
1351,3,-4,-2,0,-1,-1,0,0,6.755
1352,2,0,1,0,-2,0,1,-1,6.76
1353,-9,-3,-2,1,-1,-2,0,-1,6.765000000000001
1354,-4,-3,-1,-2,1,0,-2,-2,6.7700000000000005
1355,-1,-2,0,0,0,2,5,2,6.775
1356,-7,2,-4,-2,-1,-3,-7,-6,6.78
1357,11,-6,1,0,-2,-2,9,5,6.785
1358,-12,-7,-5,-4,-4,-2,-1,2,6.79
1359,11,4,-3,1,0,0,-7,-5,6.795
1360,-2,10,17,3,1,3,-1,0,6.8
1361,8,-6,11,-2,-2,-3,-12,-9,6.805
1362,-7,-15,-34,-4,-3,-5,-9,4,6.8100000000000005
1363,-15,-9,-20,-1,-2,-5,-1,0,6.815
1364,4,-1,-3,-8,0,-2,6,-4,6.82
1365,-25,-5,11,0,0,2,10,0,6.825
1366,7,7,10,0,-1,2,1,-6,6.83
1367,1,-1,4,2,1,1,-3,13,6.835
1368,2,-2,-1,2,1,0,-1,1,6.84
1369,7,7,-5,-1,0,-1,1,-1,6.845
1370,2,-4,7,2,-1,0,0,-4,6.8500000000000005
1371,-4,4,3,-1,-1,-2,-3,-4,6.855
1372,1,5,0,0,-2,-3,-3,0,6.86
1373,6,6,-6,-2,-2,1,1,1,6.865
1374,-9,-13,-3,-1,0,-2,3,1,6.87
1375,-1,0,0,-3,-2,-3,0,-5,6.875
1376,-1,-9,-10,-4,-4,0,-1,1,6.88
1377,-1,9,2,2,0,-2,-5,-1,6.885
1378,-2,-1,3,0,-1,0,-7,-3,6.890000000000001
1379,-1,0,-2,-3,-1,1,3,-2,6.8950000000000005
1380,0,-3,-5,0,1,3,0,-1,6.9
1381,0,-7,-5,1,1,2,6,4,6.905
1382,24,8,7,-4,-2,1,18,9,6.91
1383,-37,-11,2,-4,-8,-9,-17,-17,6.915
1384,26,39,44,9,-2,-7,-16,-3,6.92
1385,-33,-9,-21,2,1,-2,-9,-4,6.925
1386,-19,-56,-66,-17,-3,0,-6,-3,6.93
1387,19,9,6,-6,-1,3,7,6,6.9350000000000005
1388,-7,-8,-10,-9,-4,0,2,0,6.94
1389,10,14,27,0,2,0,6,0,6.945
1390,6,18,21,9,3,0,0,-1,6.95
1391,-1,-2,-4,2,0,2,3,2,6.955
1392,-6,-9,-2,2,0,-1,-3,1,6.96
1393,12,6,-4,-1,-1,1,-4,-1,6.965
1394,-6,6,1,0,-2,0,0,1,6.97
1395,7,-1,2,2,-2,0,-1,-2,6.9750000000000005
1396,-4,-7,-7,0,2,-1,2,1,6.98
1397,7,-4,-9,-2,1,-2,-2,2,6.985
1398,31,21,17,6,5,4,10,1,6.99
1399,-16,1,8,-2,-7,8,44,29,6.995
1400,-2,-15,-16,2,-16,-11,-17,-23,7.0
1401,-23,-5,-4,1,13,-4,-31,-12,7.005
1402,-7,34,20,3,11,3,-10,-2,7.01
1403,41,11,1,-15,-17,-1,8,-5,7.015000000000001
1404,-29,-20,-27,-24,-13,3,52,45,7.0200000000000005
1405,53,-25,-11,-16,-1,0,-29,-16,7.025
1406,-8,40,6,-9,16,-6,-47,-30,7.03
1407,-7,-22,-34,18,-2,-6,-25,-19,7.035
1408,12,1,-13,-5,-9,0,14,16,7.04
1409,-62,-28,-15,12,22,13,52,38,7.045
1410,-26,-23,15,-6,-3,1,2,-23,7.05
1411,6,26,22,-8,-1,-5,-17,-19,7.055
1412,-22,-12,2,9,-5,-4,-22,-19,7.0600000000000005
1413,31,24,8,3,-8,-5,6,11,7.065
1414,7,-16,1,15,-11,4,24,22,7.07
1415,26,1,-4,-20,-3,-3,-2,7,7.075
1416,20,13,8,11,16,3,0,-8,7.08
1417,-21,2,-2,-1,-6,1,20,25,7.085
1418,11,7,5,-3,-18,-9,-17,-9,7.09
1419,-15,-3,4,-29,-40,-13,-43,-32,7.095
1420,16,11,-1,19,87,27,19,-6,7.1000000000000005
1421,42,-12,-22,-44,-32,3,42,40,7.105
1422,-65,4,-14,44,26,-16,-56,-56,7.11
1423,-1,-27,3,11,3,-4,-32,3,7.115
1424,19,-4,-6,14,-20,-5,-14,-11,7.12
1425,-12,15,18,-24,6,8,25,17,7.125
1426,8,2,-3,-27,-12,5,34,35,7.13
1427,23,0,13,42,9,6,38,37,7.135
1428,-27,5,26,2,-9,-8,-25,-27,7.140000000000001
1429,-54,26,27,23,2,-3,-29,-46,7.1450000000000005
1430,18,-25,-44,-34,-28,-6,1,15,7.15
1431,-34,-6,5,23,21,3,8,0,7.155
1432,79,6,1,-21,-7,0,20,28,7.16
1433,-65,-19,10,3,-19,-12,-17,-12,7.165
1434,-46,-9,22,33,6,-2,-6,-14,7.17
1435,90,1,-18,-19,30,14,26,39,7.175
1436,-86,9,5,-23,-17,-4,-4,1,7.18
1437,-11,-23,-11,76,7,-8,-16,-14,7.1850000000000005
1438,10,-21,13,-30,-25,-5,1,-12,7.19
1439,-11,28,11,1,23,5,-15,-21,7.195
1440,22,4,-10,-9,1,-1,-21,-11,7.2
1441,13,9,-31,-39,-9,-4,-5,-7,7.205
1442,-35,-18,1,2,0,12,37,10,7.21
1443,54,18,19,47,7,-6,-10,16,7.215
1444,34,16,-3,6,0,-3,-5,2,7.22
1445,42,-8,2,15,6,4,27,20,7.2250000000000005
1446,-15,-16,0,-21,-23,-10,-12,-19,7.23
1447,-89,-36,-17,-6,-20,-9,-29,-48,7.235
1448,-25,-14,-14,-23,3,-1,-10,14,7.24
1449,28,5,3,-7,21,7,2,-10,7.245
1450,61,0,-3,-25,-10,4,25,47,7.25
1451,-17,18,2,29,23,4,3,-10,7.255
1452,-26,-11,-3,10,-18,-9,-5,-9,7.26
1453,25,26,32,-16,-20,-3,-5,1,7.265000000000001
1454,26,14,-5,55,49,14,-6,-9,7.2700000000000005
1455,-43,-26,-13,-23,-27,-9,9,12,7.275
1456,39,-2,-16,-4,18,-1,2,5,7.28
1457,-57,-15,-10,-19,-10,-6,-15,-9,7.285
1458,9,21,2,-29,-12,-7,5,-2,7.29
1459,-13,20,5,-5,-19,5,4,-19,7.295
1460,48,-11,17,26,43,13,6,9,7.3
1461,-40,-17,4,31,4,-7,-13,5,7.305
1462,20,-5,1,16,-4,-3,-10,-3,7.3100000000000005
1463,5,-12,-7,-23,7,3,4,-5,7.315
1464,-37,-16,14,3,-49,-13,5,5,7.32
1465,6,-7,-5,-5,24,4,-19,-24,7.325
1466,12,12,-17,-19,-7,-2,14,25,7.33
1467,7,-12,6,-20,-6,-8,-4,16,7.335
1468,-11,0,-18,21,1,-2,4,1,7.34
1469,-10,2,18,6,-12,-2,-6,-19,7.345
1470,23,3,-20,-13,-22,-5,-17,-11,7.3500000000000005
1471,18,15,-10,2,35,16,21,7,7.355
1472,-39,-1,0,11,-11,3,10,9,7.36
1473,10,-2,1,21,-6,-9,-10,-5,7.365
1474,25,23,8,-21,37,8,-13,-14,7.37
1475,-21,-16,3,21,-10,-3,-4,7,7.375
1476,3,-4,-10,-4,5,2,2,-6,7.38
1477,29,21,-1,-21,-2,0,10,6,7.385
1478,-52,-7,19,23,-5,-7,-8,-8,7.390000000000001
1479,13,-11,-8,-18,0,3,6,9,7.3950000000000005
1480,-24,1,6,13,-4,1,6,-5,7.4
1481,65,12,-14,-35,-10,-7,-14,10,7.405
1482,-6,5,7,36,12,-1,3,11,7.41
1483,7,-1,-1,-11,3,2,2,3,7.415
1484,-66,-9,-5,-15,-19,1,14,-19,7.42
1485,-13,-3,-6,11,4,2,-8,-15,7.425
1486,9,-2,6,7,22,-1,-12,23,7.43
1487,6,12,-9,-17,-12,-5,-5,-14,7.4350000000000005
1488,34,10,1,6,-4,4,24,26,7.44
1489,-52,-12,-2,-5,-10,-7,-15,-25,7.445
1490,8,5,-7,-40,-9,2,-13,-18,7.45
1491,10,8,11,13,-4,1,13,5,7.455
1492,13,9,2,-13,8,-8,-11,14,7.46
1493,-23,-2,-8,-7,-7,3,13,0,7.465
1494,12,-12,3,6,-8,-2,23,10,7.47
1495,-21,-9,-4,-35,-29,-15,-35,-31,7.4750000000000005
1496,40,22,18,-20,-13,-2,-11,1,7.48
1497,-10,0,-24,21,37,11,11,11,7.485
1498,-38,-6,0,20,-3,-4,-3,-12,7.49
1499,-26,-18,-4,-17,-20,-2,8,9,7.495
1500,23,-22,-4,-8,7,-8,-5,5,7.5
1501,27,11,2,1,13,8,-4,-4,7.505
1502,-43,7,11,18,2,5,-4,-4,7.51
1503,-12,16,-6,5,3,2,24,21,7.515000000000001
1504,28,7,0,-28,-6,-4,-21,-35,7.5200000000000005
1505,5,-8,16,-5,-7,-7,-12,7,7.525
1506,-4,0,0,18,9,5,11,12,7.53
1507,29,2,5,-9,-9,-9,-11,-17,7.535
1508,-38,-14,-4,2,6,3,0,1,7.54
1509,21,12,5,11,-7,6,23,8,7.545
1510,-52,0,-3,-5,3,-1,-8,-17,7.55
1511,18,0,17,-1,-23,-3,6,12,7.555
1512,9,-11,-19,33,41,10,-1,3,7.5600000000000005
1513,15,0,-8,-44,-8,6,18,-3,7.565
1514,-4,-12,-2,34,14,-9,-23,1,7.57
1515,15,19,4,6,6,0,-1,-2,7.575
1516,-19,-8,-15,-3,-19,-7,-2,-9,7.58
1517,2,-1,9,-7,-12,-1,-9,-3,7.585
1518,57,11,4,-20,-24,3,33,27,7.59
1519,-44,7,-1,57,39,-2,-12,-15,7.595
1520,5,-17,-3,-38,3,4,-7,2,7.6000000000000005
1521,0,-16,-15,21,0,-4,-1,-1,7.605
1522,-3,-9,-6,-27,-7,2,7,-2,7.61
1523,-17,-5,-2,4,1,2,0,-2,7.615
1524,-3,-2,12,-2,-10,-1,6,7,7.62
1525,-9,1,-16,-1,-3,-7,-18,-11,7.625
1526,5,8,3,5,-1,-5,-13,-18,7.63
1527,11,5,-1,-7,3,3,5,17,7.635
1528,-14,10,4,8,0,3,8,-6,7.640000000000001
1529,6,-12,1,2,-1,0,7,13,7.6450000000000005
1530,10,4,1,-13,-9,-7,-7,-7,7.65
1531,-11,-13,-16,1,8,-1,-8,-14,7.655
1532,1,3,1,-14,-11,-2,-8,-2,7.66
1533,2,4,5,12,1,5,15,10,7.665
1534,1,-12,-12,-7,-1,-22,-17,10,7.67
1535,0,0,5,-5,3,-3,-14,-33,7.675
1536,-4,7,2,7,-2,22,30,10,7.68
1537,11,-7,-6,-3,-3,-1,-10,2,7.6850000000000005
1538,11,4,0,0,1,2,-4,14,7.69
1539,-15,-9,-5,-9,0,0,13,-9,7.695
1540,-9,5,-10,1,-10,-9,-8,-6,7.7
1541,1,9,11,-7,-6,2,15,5,7.705
1542,0,-13,-8,9,18,7,8,4,7.71
1543,12,6,-3,-1,8,-6,-15,10,7.715
1544,-4,-1,10,0,-7,-3,-4,-15,7.72
1545,11,7,-1,-10,-7,-3,4,2,7.7250000000000005
1546,-8,-6,-9,-2,-13,-11,-16,-8,7.73
1547,1,0,1,-5,1,9,-1,5,7.735
1548,3,10,-3,0,-5,-2,-1,3,7.74
1549,-7,11,3,11,0,-6,8,-7,7.745
1550,1,1,-4,-8,4,5,-1,0,7.75
1551,-4,-2,-3,-1,-1,0,-4,0,7.755
1552,12,-3,0,-5,-5,-8,-7,4,7.76
1553,-8,-17,-4,13,4,1,-6,-5,7.765000000000001
1554,-2,-1,8,4,2,7,11,-5,7.7700000000000005
1555,1,-12,-3,-9,3,3,11,8,7.775
1556,-6,1,4,3,-1,-3,-7,-1,7.78
1557,-4,0,8,-2,1,-5,-7,-12,7.785
1558,3,4,-15,-1,-14,0,5,-2,7.79
1559,22,2,0,-15,-9,2,12,19,7.795
1560,-23,-6,2,23,15,-8,-15,-1,7.8
1561,2,-3,-2,0,8,0,-12,-5,7.805000000000001
1562,-5,4,9,2,-1,1,2,-6,7.8100000000000005
1563,5,3,-1,-1,-9,0,0,-7,7.815
1564,-3,-6,-4,-10,-9,-6,2,8,7.82
1565,-12,11,0,-10,-4,-6,-10,-2,7.825
1566,3,-29,-5,-4,1,2,0,5,7.83
1567,-9,-6,-2,1,-3,-5,-4,-6,7.835
1568,-4,-4,2,-2,-2,0,11,0,7.84
1569,15,0,5,20,-8,3,5,-5,7.845
1570,3,7,2,-13,11,6,9,13,7.8500000000000005
1571,-29,-6,-15,-1,6,-3,-8,-1,7.855
1572,1,-2,1,4,0,-4,-14,-10,7.86
1573,2,14,23,-4,-3,-6,8,4,7.865
1574,0,1,6,4,-12,-8,-16,-18,7.87
1575,-2,-24,-71,-13,-6,3,0,6,7.875
1576,-5,8,14,-8,-2,-6,2,11,7.88
1577,6,30,17,8,-1,-12,-7,-2,7.885
1578,8,-7,-27,6,7,5,12,12,7.890000000000001
1579,-11,-28,-39,-14,-4,14,-7,-30,7.8950000000000005
1580,-5,-37,-41,-13,-5,13,16,4,7.9
1581,13,4,-3,-11,2,-4,1,0,7.905
1582,2,21,25,7,1,-9,-3,7,7.91
1583,-2,1,36,12,0,-12,-8,7,7.915
1584,-9,1,-2,4,2,-5,-3,-24,7.92
1585,2,-6,6,-2,0,5,-4,17,7.925
1586,6,14,7,-3,-2,2,2,2,7.930000000000001
1587,-3,4,9,4,-3,3,8,-3,7.9350000000000005
1588,3,14,14,4,1,-1,-5,-5,7.94
1589,-8,-7,-13,-4,2,-2,-9,-2,7.945
1590,-2,-27,-9,-5,-2,9,0,-3,7.95
1591,3,-7,5,-7,-6,-6,13,7,7.955
1592,1,-1,1,3,3,-1,-5,4,7.96
1593,-9,-11,-17,3,1,2,-6,-6,7.965
1594,-4,-12,-4,-3,-4,-1,10,-7,7.97
1595,5,20,19,5,0,-4,-5,4,7.9750000000000005
1596,7,24,15,-1,-3,4,-3,-3,7.98
1597,-9,-5,-30,-8,-2,1,-4,-6,7.985
1598,-5,7,-5,-5,-3,1,10,-2,7.99
1599,5,13,18,4,2,-9,-10,5,7.995
1600,4,11,-12,-1,1,-15,-10,5,8.0
1601,-6,6,31,12,5,24,7,9,8.005
1602,-10,13,-9,7,0,4,1,-35,8.01
1603,-2,-15,42,-7,-3,3,-2,-2,8.015
1604,3,-24,-19,-12,-6,-1,16,-10,8.02
1605,4,50,46,21,9,-21,-9,17,8.025
1606,1,1,-38,1,4,26,-7,64,8.03
1607,7,-56,2,-11,-12,10,25,-43,8.035
1608,-15,-17,17,-6,-5,-4,-19,-30,8.040000000000001
1609,-8,-34,-11,-16,-4,-6,4,-19,8.045
1610,1,37,40,11,3,-13,-4,-1,8.05
1611,1,26,-37,10,7,-4,-6,24,8.055
1612,5,-2,-6,4,1,5,1,12,8.06
1613,0,-4,-6,3,0,0,2,-3,8.065
1614,-4,-17,-25,-11,-5,-9,2,5,8.07
1615,4,18,-4,6,2,3,-2,-2,8.075
1616,-5,-11,3,-1,0,-2,3,-6,8.08
1617,-2,-5,-10,-2,-1,1,-4,1,8.085
1618,-5,-16,-1,-7,-4,-4,-4,-14,8.09
1619,0,10,8,1,1,-4,2,7,8.095
1620,-1,12,16,5,1,2,-2,5,8.1
1621,2,-1,7,-5,0,2,0,-2,8.105
1622,0,12,5,4,4,-2,0,-6,8.11
1623,-6,-6,-8,-1,0,0,0,2,8.115
1624,4,-6,-50,-13,-4,3,-4,0,8.120000000000001
1625,-7,-58,-25,-21,-11,-3,-4,7,8.125
1626,-6,-9,10,7,-3,-6,-2,-19,8.13
1627,-2,33,2,23,11,-1,-4,1,8.135
1628,4,15,63,-10,-7,3,9,-6,8.14
1629,4,-9,8,-10,-5,-10,-7,15,8.145
1630,-12,-8,9,-5,-4,-6,-4,-11,8.15
1631,1,-3,-24,11,3,2,-1,2,8.155
1632,2,8,-24,6,3,2,2,-1,8.16
1633,-1,6,-18,-10,1,2,2,-4,8.165000000000001
1634,0,-6,0,-8,-2,-3,0,4,8.17
1635,-2,-8,-7,1,-2,-2,1,-1,8.175
1636,3,6,7,7,3,-1,-1,3,8.18
1637,-3,1,7,2,-2,0,1,-6,8.185
1638,-2,-4,-3,-1,0,0,-1,-5,8.19
1639,4,4,18,-7,-2,-1,2,3,8.195
1640,2,6,13,2,-2,0,-1,7,8.2
1641,-6,-13,-55,-5,1,0,-1,-6,8.205
1642,5,-3,0,-1,-1,1,2,2,8.21
1643,0,1,17,-7,-5,-3,-4,3,8.215
1644,1,3,2,3,3,-2,-4,2,8.22
1645,1,10,-14,9,2,5,2,-7,8.225
1646,8,9,25,3,1,1,2,0,8.23
1647,-5,-4,10,-8,-2,-3,-1,3,8.235
1648,-1,-7,-4,8,3,0,-3,0,8.24
1649,-4,-7,11,2,-3,1,0,-4,8.245000000000001
1650,2,3,-4,-2,0,1,0,7,8.25
1651,0,8,6,0,1,-4,-4,-6,8.255
1652,-1,-5,-37,-7,-4,-3,-2,-2,8.26
1653,-1,1,-8,-8,0,3,2,0,8.265
1654,-5,-9,36,8,-1,2,0,5,8.27
1655,-6,-1,-12,2,0,-1,-3,-16,8.275
1656,2,-3,-2,-3,-1,-3,1,9,8.28
1657,5,4,15,1,-3,-10,-10,-3,8.285
1658,3,8,-24,-9,-3,7,5,4,8.290000000000001
1659,1,-2,2,0,-2,0,3,1,8.295
1660,-4,3,5,7,-2,-4,-11,-7,8.3
1661,-5,1,2,4,1,1,3,-5,8.305
1662,-5,-2,-16,0,-1,-6,-4,-4,8.31
1663,2,-6,2,-4,-1,-1,2,8,8.315
1664,-3,-3,-2,-5,1,0,0,0,8.32
1665,2,5,6,2,-1,2,2,2,8.325
1666,2,-4,-13,-5,-2,-2,-4,-8,8.33
1667,-2,-1,-4,-2,-2,-2,0,4,8.335
1668,-1,-6,-2,-1,-2,-2,-3,0,8.34
1669,-1,8,4,1,1,0,0,-3,8.345
1670,1,-3,1,-4,-2,-2,0,-2,8.35
1671,1,1,-10,-5,0,-1,0,4,8.355
1672,0,-3,-5,1,0,-1,1,0,8.36
1673,0,1,12,4,-1,0,-1,0,8.365
1674,1,1,5,-7,-2,-1,-2,-1,8.370000000000001
1675,-2,-3,1,2,-1,1,-1,-4,8.375
1676,-1,0,-3,0,-1,2,3,5,8.38
1677,1,-3,-15,-4,-1,-1,-5,2,8.385
1678,-3,-6,10,2,0,-5,-3,-1,8.39
1679,4,8,-12,-6,-3,-2,0,-1,8.395
1680,-3,-11,-9,0,-2,0,4,-2,8.4
1681,-6,-6,5,-1,-2,-3,-7,-2,8.405
1682,-1,4,-12,-2,-3,-4,-2,-7,8.41
1683,3,6,11,1,-2,-1,-1,2,8.415000000000001
1684,-2,0,0,0,-1,0,0,-3,8.42
1685,-3,-1,5,-3,0,0,1,-1,8.425
1686,-1,3,-2,0,-1,-1,-2,-5,8.43
1687,-5,-7,0,-2,-1,2,-4,8,8.435
1688,-2,0,6,2,-1,-3,-1,2,8.44
1689,0,-2,-6,1,-2,1,1,5,8.445
1690,2,0,-2,2,2,-3,-2,-6,8.45
1691,-1,2,-6,-1,0,-3,-4,-12,8.455
1692,-4,1,14,-5,0,4,1,6,8.46
1693,1,-4,-23,-2,-1,0,5,-1,8.465
1694,3,2,1,2,2,1,0,4,8.47
1695,-5,-16,-15,-5,-1,-2,-1,2,8.475
1696,-4,2,10,1,1,-1,-1,-9,8.48
1697,-1,0,-2,-4,-2,1,4,0,8.485
1698,-1,-4,2,0,-2,-3,-5,1,8.49
1699,0,2,-1,-1,-1,-1,-2,0,8.495000000000001
1700,-6,-12,-10,-4,-1,-5,-1,-3,8.5
1701,0,-4,1,2,1,1,0,1,8.505
1702,-5,-7,-4,0,-2,-1,4,0,8.51
1703,2,7,4,-2,-2,-2,-8,0,8.515
1704,2,4,-2,2,-1,-1,-1,0,8.52
1705,2,2,4,-1,0,-2,-5,-1,8.525
1706,1,2,-1,-1,2,1,1,-1,8.53
1707,-1,6,6,1,0,3,2,4,8.535
1708,0,-3,-4,-1,1,3,0,-2,8.540000000000001
1709,-1,1,-4,0,0,-2,-1,-5,8.545
1710,-9,-16,-7,-3,-1,2,0,1,8.55
1711,0,0,7,-1,0,-1,-1,-1,8.555
1712,2,-2,-6,-3,-2,-2,-4,-3,8.56
1713,-2,-5,3,4,-1,-2,2,-3,8.565
1714,3,7,-1,-4,-2,-1,0,5,8.57
1715,-2,-3,-2,1,-1,1,3,5,8.575000000000001
1716,-2,2,-5,4,1,-3,-1,-4,8.58
1717,0,2,8,2,0,1,-5,-1,8.585
1718,-1,3,-2,-1,-1,-2,-1,-6,8.59
1719,-3,-5,2,0,-1,1,-1,-3,8.595
1720,1,6,0,-2,-2,-1,-2,2,8.6
1721,0,0,-3,-2,-1,-1,4,-2,8.605
1722,-1,-4,2,-1,-2,-4,-3,-3,8.61
1723,-1,0,-3,0,-1,3,3,1,8.615
1724,-2,-7,-8,0,-2,-1,-2,-1,8.620000000000001
1725,-1,-5,2,-3,-1,-3,0,0,8.625
1726,-3,-6,-11,-3,1,-3,-2,-1,8.63
1727,-2,1,1,0,-3,-2,-3,0,8.635
1728,-2,3,2,0,-2,2,5,1,8.64
1729,3,9,2,-2,-2,-3,-10,-3,8.645
1730,-4,-7,-5,0,1,0,-1,0,8.65
1731,-2,-2,-8,-2,1,-1,-2,-2,8.655
1732,1,-4,1,0,-2,-2,-2,-1,8.66
1733,1,1,-3,-2,-1,2,1,1,8.665000000000001
1734,1,0,6,-1,-3,2,0,0,8.67
1735,-2,-4,-1,1,0,0,1,-1,8.675
1736,-1,-11,3,0,1,0,1,-1,8.68
1737,-2,-6,-1,0,-3,-1,1,0,8.685
1738,-3,-3,-4,1,0,-2,-1,-13,8.69
1739,-2,-3,-3,-6,-2,-2,0,8,8.695
1740,0,9,2,-2,-1,1,-2,2,8.700000000000001
1741,-1,1,-3,-3,-2,-4,-2,1,8.705
1742,1,2,2,-1,-2,-2,0,-2,8.71
1743,1,2,-1,0,1,-2,2,-3,8.715
1744,5,12,4,1,0,1,-2,1,8.72
1745,-2,-7,-5,1,1,2,-1,-1,8.725
1746,-2,-5,1,0,-2,1,1,3,8.73
1747,-1,-1,4,1,-2,-2,-2,-5,8.735
1748,-3,-1,-3,-5,0,-3,-1,-1,8.74
1749,-3,-1,-2,-1,-2,0,1,-2,8.745000000000001
1750,-1,0,0,-3,-2,-2,-2,3,8.75
1751,-2,3,4,1,-1,2,4,0,8.755
1752,-3,-4,-3,2,0,-3,-7,-4,8.76
1753,-1,-1,0,0,-1,1,-2,-2,8.765
1754,1,4,12,2,0,-2,-3,1,8.77
1755,0,-8,-23,-4,-2,2,3,-2,8.775
1756,2,0,1,0,-1,0,-4,-2,8.78
1757,-1,1,-5,-2,0,-3,1,-1,8.785
1758,-2,-1,0,0,-2,2,1,-8,8.790000000000001
1759,-1,4,19,1,2,-3,-9,8,8.795
1760,0,5,0,-1,-1,3,7,1,8.8
1761,3,-10,-32,-8,-2,-3,-3,3,8.805
1762,-2,3,1,-1,-1,2,3,-1,8.81
1763,-3,-4,-4,-2,-1,-4,-1,-4,8.815
1764,-1,3,8,1,-1,-1,-3,-1,8.82
1765,-5,-7,13,2,0,-1,0,0,8.825000000000001
1766,1,1,-5,3,2,1,2,2,8.83
1767,0,1,0,0,-1,-3,-4,-4,8.835
1768,-1,-3,-2,-3,-1,-4,-2,-1,8.84
1769,-4,1,3,-4,-1,1,1,-3,8.845
1770,3,0,-5,-2,-2,0,0,5,8.85
1771,2,5,3,2,-3,-3,-6,-1,8.855
1772,-3,-9,-3,1,-1,-2,0,-2,8.86
1773,0,5,4,3,2,-1,-2,-1,8.865
1774,-1,-1,3,-2,-1,-1,1,2,8.870000000000001
1775,-1,-8,-5,-2,1,-1,-3,0,8.875
1776,-1,-2,-2,-1,-3,0,0,-5,8.88
1777,-1,-2,-3,-1,-3,-2,-3,-4,8.885
1778,-1,-1,6,0,-1,-2,-2,0,8.89
1779,0,1,-1,-1,-2,2,3,-2,8.895
1780,-2,-3,-2,-3,-1,-3,0,7,8.9
1781,-2,2,3,1,-1,-2,0,-1,8.905
1782,2,6,-2,-2,0,-2,-3,4,8.91
1783,-1,0,-3,-3,-1,-4,-4,-6,8.915000000000001
1784,-2,-1,-1,-1,-2,3,4,-4,8.92
1785,1,3,3,-1,-1,-1,0,2,8.925
1786,1,0,-6,-1,-2,-1,0,-3,8.93
1787,-2,-2,0,0,-4,0,0,0,8.935
1788,2,5,-1,-3,-2,-2,-3,-2,8.94
1789,0,1,4,0,-1,1,2,-3,8.945
1790,1,1,-1,1,0,-2,-2,-1,8.950000000000001
1791,0,-1,3,0,2,-1,-1,-1,8.955
1792,0,0,1,0,1,0,1,0,8.96
1793,0,-4,-3,0,1,-1,0,0,8.965
1794,0,-2,-1,0,-1,0,-1,1,8.97
1795,-1,-2,-2,-3,-2,1,1,-2,8.975
1796,0,-1,-1,-1,-1,-3,-2,-1,8.98
1797,-2,-1,2,-1,-1,0,1,-2,8.985
1798,-3,-8,-5,-2,-1,-4,-6,-1,8.99
1799,-1,-3,3,1,-1,0,2,0,8.995000000000001
1800,-4,-5,-2,2,0,-2,-2,-9,9.0
1801,-3,-4,-4,2,1,-2,-4,1,9.005
1802,0,0,1,-2,-3,1,5,9,9.01
1803,3,-1,1,-1,-3,-2,-2,-3,9.015
1804,0,-2,-1,2,0,0,0,1,9.02
1805,-2,-1,-1,-2,-1,2,0,-4,9.025
1806,-2,3,1,1,0,-2,-3,-3,9.03
1807,-3,2,-2,-2,0,-1,3,1,9.035
1808,0,3,-3,-1,-2,1,-1,1,9.040000000000001
1809,-3,-1,10,0,-1,0,-1,-2,9.045
1810,1,2,-1,-3,-2,-3,-2,-3,9.05
1811,-1,-6,-16,-3,-2,-2,0,0,9.055
1812,-2,-1,-5,0,0,0,-2,1,9.06
1813,2,2,0,3,0,2,1,1,9.065
1814,-2,-1,6,1,0,0,0,-4,9.07
1815,0,-4,4,-1,1,0,-1,-1,9.075000000000001
1816,0,4,-4,-2,-2,-4,-2,0,9.08
1817,3,3,6,-1,-3,-3,-1,1,9.085
1818,-3,-6,-4,-2,-2,-1,0,-2,9.09
1819,-1,4,0,0,0,0,-1,-1,9.095
1820,0,-5,-4,-1,-1,2,2,1,9.1
1821,-1,-3,-3,-1,0,-1,1,-1,9.105
1822,0,1,-2,2,-1,-3,-9,-1,9.11
1823,-2,4,1,0,-3,-1,-1,-4,9.115
1824,1,-4,3,1,-1,-3,0,8,9.120000000000001
1825,-3,-2,-3,-2,-1,2,-2,-1,9.125
1826,-1,-1,-2,0,0,3,1,1,9.13
1827,1,6,5,2,1,1,5,0,9.135
1828,-2,-6,4,-7,-4,-1,-5,-5,9.14
1829,1,-5,-11,-2,-1,-1,-2,0,9.145
1830,0,-4,-2,-2,1,-2,-3,-2,9.15
1831,0,-1,-1,-3,-2,-4,-5,-1,9.155
1832,-4,-3,4,0,0,2,3,-1,9.16
1833,1,3,8,3,1,-1,-1,0,9.165000000000001
1834,-3,-4,-3,-2,-1,2,3,-2,9.17
1835,0,0,-5,0,-2,0,-2,0,9.175
1836,2,-1,-1,0,-1,0,-2,-1,9.18
1837,-2,-3,1,-3,-2,-3,-2,-3,9.185
1838,-1,0,-4,-3,1,2,0,-1,9.19
1839,-1,0,1,1,-2,0,-1,1,9.195
1840,-1,3,0,0,1,-1,-1,-2,9.200000000000001
1841,1,1,-4,-2,-1,2,5,-1,9.205
1842,-4,-4,-1,0,-1,-5,-12,0,9.21
1843,-1,-3,-3,0,0,0,3,0,9.215
1844,0,3,0,1,0,-3,-2,-2,9.22
1845,-1,-5,-8,-2,-1,-1,-1,6,9.225
1846,0,-5,-6,-2,-3,-1,3,0,9.23
1847,1,-1,0,0,1,1,-3,1,9.235
1848,-1,-8,1,-1,0,-2,2,-5,9.24
1849,2,8,3,1,1,0,-2,-4,9.245000000000001
1850,-2,-1,0,-3,0,-2,0,0,9.25
1851,0,0,0,-1,0,-3,-2,-2,9.255
1852,-2,-2,-1,-1,-1,0,0,-2,9.26
1853,-1,1,-2,-2,-3,-3,-1,-2,9.265
1854,3,3,0,1,-1,0,3,0,9.27
1855,1,2,3,-1,-1,-1,-1,-2,9.275
1856,-1,-1,1,3,1,-1,-4,0,9.28
1857,-2,4,-1,0,-2,0,0,0,9.285
1858,-2,-1,1,-1,-1,-2,-2,0,9.290000000000001
1859,-2,-5,-5,-3,-1,2,3,1,9.295
1860,2,0,-5,-2,-2,-1,-1,2,9.3
1861,-3,-2,4,-2,0,-1,-2,-2,9.305
1862,-1,-3,-2,-1,-2,0,3,-3,9.31
1863,-1,-6,0,-1,0,1,1,-6,9.315
1864,-5,-3,-4,-3,-1,-2,-1,6,9.32
1865,-3,-3,3,2,1,1,-1,-1,9.325000000000001
1866,0,5,19,3,1,-2,-3,3,9.33
1867,-3,-9,-16,-4,-2,1,4,-3,9.335
1868,-1,2,-11,-3,-2,-2,1,-5,9.34
1869,-1,-7,-7,-3,0,-2,-4,0,9.345
1870,-1,-1,1,0,-1,0,1,-1,9.35
1871,1,1,9,1,0,-2,-5,1,9.355
1872,7,17,6,3,-3,1,1,-3,9.36
1873,-7,-14,-4,-1,1,0,2,0,9.365
1874,-2,-4,0,1,0,-1,-1,-3,9.370000000000001
1875,-1,2,-1,-2,-2,-1,-1,-1,9.375
1876,0,-9,-9,-2,-3,-4,-5,-1,9.38
1877,5,6,2,0,-1,1,3,2,9.385
1878,0,1,-5,-3,-1,-1,0,-1,9.39
1879,-1,2,2,0,4,2,3,0,9.395
1880,0,2,4,-2,-2,-3,-2,-2,9.4
1881,2,4,0,0,-2,-1,-4,-3,9.405
1882,-5,-3,-4,-1,-1,-1,2,-4,9.41
1883,0,-1,-2,-1,-1,-3,-3,6,9.415000000000001
1884,-2,-2,4,-1,0,0,-1,-1,9.42
1885,-2,-3,-4,-2,-1,-2,-2,-3,9.425
1886,4,2,-4,-2,-2,2,4,4,9.43
1887,1,3,3,0,-2,-4,-4,-3,9.435
1888,4,10,1,0,-1,0,2,-1,9.44
1889,-6,-10,-3,-3,-1,0,0,0,9.445
1890,-3,-3,-1,-1,0,-3,1,1,9.450000000000001
1891,-4,-4,-2,-1,2,1,-1,-8,9.455
1892,1,-4,1,1,0,-1,0,1,9.46
1893,2,5,-1,1,-2,-1,-2,3,9.465
1894,3,2,-2,-1,-4,-1,1,-2,9.47
1895,3,3,3,1,0,-1,-2,3,9.475
1896,-6,-10,-5,-3,-1,-1,-2,-2,9.48
1897,-5,-2,0,-2,-2,-1,-1,-3,9.485
1898,-1,0,-3,0,0,-3,-3,1,9.49
1899,-1,1,-1,1,-3,-1,-1,1,9.495000000000001
1900,-2,-2,-1,-2,-1,5,1,-3,9.5
1901,1,5,2,1,-1,-3,0,-2,9.505
1902,-1,0,-7,-3,-2,3,1,-1,9.51
1903,-1,1,4,0,-2,-4,-9,-2,9.515
1904,-4,-12,-8,-2,-2,-1,0,-1,9.52
1905,-1,-2,0,0,0,0,-1,-4,9.525
1906,0,1,-2,-3,-2,0,-5,2,9.53
1907,-1,-2,-2,-2,-1,1,4,4,9.535
1908,0,-1,1,1,0,2,1,2,9.540000000000001
1909,1,-2,-2,-2,-1,-2,-3,0,9.545
1910,0,0,-1,0,-1,-1,1,-5,9.55
1911,-1,-1,-2,1,2,-2,-4,-3,9.555
1912,1,5,0,3,3,-2,-1,2,9.56
1913,2,6,5,2,0,2,6,-2,9.565
1914,-4,-6,-1,-2,-1,-6,-11,-3,9.57
1915,-2,-5,-3,-1,-3,-1,0,0,9.575000000000001
1916,0,2,-1,-2,-1,-2,-1,-1,9.58
1917,0,0,-3,-1,-4,-1,1,0,9.585
1918,2,-1,0,1,-1,0,2,0,9.59
1919,3,6,-1,-3,-2,-2,0,1,9.595
1920,-7,-11,1,-3,-1,-2,-4,-4,9.6
1921,0,-2,-5,-1,-1,0,-1,1,9.605
1922,-3,-4,0,-3,-1,2,2,-4,9.61
1923,0,0,-2,-1,-1,-1,-1,2,9.615
1924,1,5,5,-2,-2,2,0,1,9.620000000000001
1925,-2,-3,-2,-3,0,-6,-10,0,9.625
1926,1,6,3,2,1,-3,0,2,9.63
1927,-5,-6,-2,0,1,2,4,-3,9.635
1928,-1,-2,-2,-1,0,0,-1,-4,9.64
1929,0,-1,-1,-2,-1,0,3,1,9.645
1930,2,1,0,0,1,-2,0,9,9.65
1931,-2,-5,-10,-2,-1,-3,-3,-2,9.655
1932,0,-1,7,1,0,-1,4,6,9.66
1933,-3,-1,0,-3,-3,-4,-9,-6,9.665000000000001
1934,-1,1,0,-1,-2,0,1,-4,9.67
1935,5,11,3,-3,-2,-2,0,1,9.675
1936,-2,-5,0,4,2,-1,-3,-2,9.68
1937,-3,-8,-4,-1,0,0,0,-3,9.685
1938,-3,-7,-5,-2,0,-1,-3,-3,9.69
1939,-2,-3,-2,-4,-2,3,2,0,9.695
1940,-1,-1,-5,-3,-3,-5,-6,-5,9.700000000000001
1941,0,1,4,0,2,2,1,1,9.705
1942,1,1,1,1,-1,-3,-3,2,9.71
1943,-2,0,1,2,-4,-1,2,-3,9.715
1944,-1,-1,1,1,0,-2,-1,-1,9.72
1945,-1,2,-2,2,0,-2,-2,2,9.725
1946,1,2,-1,1,-1,-1,1,-1,9.73
1947,-2,0,4,3,1,1,2,0,9.735
1948,-1,0,-3,1,0,2,0,-2,9.74
1949,2,1,-4,-4,-2,-2,-1,8,9.745000000000001
1950,0,0,0,-2,0,-1,0,-3,9.75
1951,1,1,3,-1,0,-3,-3,0,9.755
1952,-2,0,-2,-1,-1,-1,1,0,9.76
1953,2,0,-4,-2,-2,-1,0,-4,9.765
1954,0,-1,-1,0,-2,1,0,0,9.77
1955,-4,-4,-1,-1,-1,-3,-2,-1,9.775
1956,0,2,1,1,1,1,2,-2,9.78
1957,0,-3,-5,-2,-2,-3,-9,-3,9.785
1958,-1,-4,-2,-1,-2,-2,0,0,9.790000000000001
1959,2,-3,-4,1,-2,-1,1,1,9.795
1960,-1,0,0,-2,-3,-2,0,0,9.8
1961,-2,6,8,1,0,2,4,0,9.805
1962,-2,-5,-1,0,0,1,-1,-3,9.81
1963,0,1,1,0,1,0,-2,-3,9.815
1964,1,-1,-7,-2,-1,1,-1,2,9.82
1965,-2,-3,-2,-1,-1,-6,2,-2,9.825000000000001
1966,-1,-4,-3,-4,-2,0,0,-4,9.83
1967,3,2,3,2,-1,-3,-1,1,9.835
1968,-3,-5,-1,-1,-2,0,-3,1,9.84
1969,-2,-2,-1,-1,0,-1,0,-2,9.845
1970,-2,2,-2,-2,1,0,-2,0,9.85
1971,1,3,3,1,-1,-3,-5,0,9.855
1972,-1,-1,-2,-2,-1,-2,0,-2,9.86
1973,-1,1,1,2,-1,0,-2,0,9.865
1974,-2,0,0,0,-2,-1,1,-1,9.870000000000001
1975,-1,-2,-2,-1,-1,-2,0,-1,9.875
1976,2,3,-1,-1,0,-3,-1,-1,9.88
1977,-1,-2,-1,2,0,0,0,-1,9.885
1978,1,0,0,0,1,-1,3,8,9.89
1979,-2,-3,-6,-2,0,0,-1,-2,9.895
1980,-1,0,1,-2,-2,0,2,-1,9.9
1981,0,0,-2,-1,-1,2,-2,-3,9.905
1982,-1,2,1,0,0,-1,-4,-3,9.91
1983,-2,-7,-4,-3,-1,0,-3,1,9.915000000000001
1984,-1,-1,0,0,-1,-1,-1,-2,9.92
1985,1,2,2,-1,-1,2,2,0,9.925
1986,-2,-2,-3,-2,-3,-3,-5,-1,9.93
1987,-4,-3,-4,-2,-1,-4,0,-1,9.935
1988,2,5,1,1,0,-3,-6,-1,9.94
1989,-1,-4,-4,-5,-3,-1,1,-1,9.945
1990,1,1,3,1,-1,3,4,2,9.950000000000001
1991,1,1,-2,0,-1,0,-2,-2,9.955
1992,5,6,-2,1,1,-2,2,2,9.96
1993,-3,-7,0,0,-2,-3,0,2,9.965
1994,0,1,0,-2,0,0,-1,-1,9.97
1995,0,-4,-3,-1,-2,1,1,-1,9.975
1996,-1,0,-2,-2,-1,0,-2,-1,9.98
1997,0,2,0,-2,0,1,-2,0,9.985
1998,-2,-3,-2,-1,0,-1,-2,-3,9.99
1999,-3,-5,-1,-3,0,-1,0,-1,9.995000000000001
2000,-1,-4,0,0,0,1,1,-1,10.0
2001,-1,-1,-2,0,-1,-2,1,-1,10.005
2002,1,1,-2,-1,-1,-2,-4,0,10.01
2003,-2,-8,-1,-3,0,0,1,0,10.015
2004,1,2,3,2,0,0,-3,-1,10.02
2005,-2,-3,-4,-2,0,0,-1,-3,10.025
2006,-1,-5,-2,-2,-3,1,3,-1,10.03
2007,1,4,2,3,0,4,1,-6,10.035
2008,-1,-1,-3,-2,-1,-3,0,8,10.040000000000001
2009,3,6,2,0,-2,0,0,6,10.045
2010,-4,-5,-4,-2,-3,-3,-4,-6,10.05
2011,2,-1,-1,-2,-2,3,2,2,10.055
2012,-3,-3,-2,0,-3,0,0,-5,10.06
2013,1,3,1,0,-2,0,-2,-2,10.065
2014,0,1,-1,0,0,1,2,-1,10.07
2015,-3,1,2,-1,-1,-5,-7,-1,10.075000000000001
2016,-2,-9,-4,-4,-1,1,-1,-4,10.08
2017,-1,0,-2,-1,1,-3,-1,0,10.085
2018,0,3,0,-1,0,0,0,-1,10.09
2019,-3,1,-2,-1,-2,-3,-2,1,10.095
2020,0,2,1,1,0,-1,-1,3,10.1
2021,-5,-11,-4,-2,0,2,4,-1,10.105
2022,-1,0,-2,-2,-1,-1,-3,1,10.11
2023,1,-2,-2,-4,0,-3,-4,-1,10.115
2024,0,4,2,1,0,-1,1,-3,10.120000000000001
2025,2,1,-1,-3,-2,-1,0,-1,10.125
2026,-1,-4,-1,0,-1,-1,0,0,10.13
2027,3,5,3,4,-3,0,2,2,10.135
2028,0,-2,-4,0,0,0,-2,-1,10.14
2029,0,0,1,2,-1,-2,-2,-2,10.145
2030,0,1,1,0,1,-1,-2,0,10.15
2031,1,6,-1,0,-1,-1,-2,-1,10.155
2032,-1,0,0,2,-1,-1,1,0,10.16
2033,-1,-3,-5,-2,0,-1,-1,0,10.165000000000001
2034,-1,-4,-2,-4,-2,-1,0,-9,10.17
2035,-1,-3,-2,-2,-1,-3,-3,6,10.175
2036,2,1,2,-3,-3,2,5,0,10.18
2037,1,3,0,0,-1,-4,-8,-2,10.185
2038,1,4,1,3,0,1,-4,2,10.19
2039,-6,-13,-7,-7,-2,0,4,-3,10.195
2040,-3,-6,-5,-2,-3,-3,-3,-2,10.200000000000001
2041,0,2,1,-2,-2,0,-2,1,10.205
2042,1,0,0,0,0,-2,2,0,10.21
2043,-1,2,2,4,1,3,2,-3,10.215
2044,-5,-6,-3,-3,-2,-1,-1,-1,10.22
2045,-1,1,1,0,1,-1,2,-2,10.225
2046,-1,-2,-4,-2,-3,-3,-3,-1,10.23
2047,-2,-2,-2,-2,-2,0,0,-1,10.235
2048,2,4,1,1,1,1,-1,-1,10.24
2049,-1,0,-3,0,-2,0,-1,-3,10.245000000000001
2050,-2,-1,-1,-1,0,-1,1,0,10.25
2051,-2,-1,-2,0,-3,-1,-2,-2,10.255
2052,2,-3,0,-1,-1,-1,0,0,10.26
2053,-2,-3,0,-1,-1,-1,-1,0,10.265
2054,1,4,-3,-4,-2,1,-1,3,10.27
2055,1,2,2,3,4,0,-1,-1,10.275
2056,-4,-7,-3,-4,-1,-5,-7,-3,10.28
2057,-2,-5,-2,1,1,-1,1,-1,10.285
2058,0,1,2,-1,-2,-2,-1,0,10.290000000000001
2059,-1,1,1,3,-1,0,5,-2,10.295
2060,-1,0,0,0,1,0,0,1,10.3
2061,0,0,1,-1,-1,-1,-1,0,10.305
2062,-3,-3,1,0,0,-4,-4,-1,10.31
2063,3,1,-2,-2,-1,2,3,0,10.315
2064,1,0,1,3,0,-4,-6,-1,10.32
2065,-2,-6,-6,-3,-2,1,2,-2,10.325000000000001
2066,-2,-2,0,0,-1,-3,-6,-1,10.33
2067,-1,0,1,-2,-2,-3,0,-10,10.335
2068,0,2,-2,-4,-1,1,3,9,10.34
2069,1,-1,-2,-2,0,0,-2,1,10.345
2070,3,-1,-2,1,0,0,-1,1,10.35
2071,1,5,3,-1,0,-1,-4,2,10.355
2072,-3,-3,-3,-2,-1,0,-3,-7,10.36
2073,-2,-2,1,2,0,0,-1,-2,10.365
2074,-1,-2,1,-1,0,1,4,0,10.370000000000001
2075,-2,-10,-4,0,-1,-4,-2,2,10.375
2076,2,7,2,0,0,0,1,-1,10.38
2077,-1,1,-1,-1,0,-2,-1,0,10.385
2078,-2,-1,-2,-4,-3,1,-1,-2,10.39
2079,-2,-3,-1,0,-1,-3,-1,0,10.395
2080,0,0,2,1,0,-1,0,-2,10.4
2081,-3,-3,-1,-1,-1,-2,-2,-1,10.405
2082,0,0,-1,-1,-1,-1,0,-3,10.41
2083,0,2,1,-2,-2,-1,-2,1,10.415000000000001
2084,0,-3,-4,-1,-3,2,2,1,10.42
2085,1,1,0,0,-1,1,2,-2,10.425
2086,-1,-2,-2,2,1,0,-2,-1,10.43
2087,-2,-3,-4,-3,-1,-1,-2,0,10.435
2088,-2,-1,-2,-4,0,-2,-4,-3,10.44
2089,0,7,0,-2,-1,-3,3,-2,10.445
2090,-1,2,2,-1,-2,-2,0,-2,10.450000000000001
2091,1,0,-6,-1,0,3,2,7,10.455
2092,-2,-1,-2,0,-4,-1,-4,0,10.46
2093,1,1,-1,-1,-1,-3,-6,1,10.465
2094,1,-2,-2,0,-1,1,0,-3,10.47
2095,0,4,1,0,0,-1,0,-3,10.475
2096,-1,1,-2,-3,-1,0,-1,-3,10.48
2097,-1,-4,-1,0,0,2,1,-1,10.485
2098,0,4,3,1,-1,0,1,2,10.49
2099,-1,-3,1,0,-1,0,-2,-1,10.495000000000001
2100,1,-2,-3,0,-1,0,0,0,10.5
2101,-1,1,1,0,-1,-2,-4,-2,10.505
2102,0,0,-7,2,1,0,2,0,10.51
2103,-2,-4,2,-2,-1,-1,-2,-1,10.515
2104,-2,-1,5,0,2,-2,3,-3,10.52
2105,-1,-1,-7,-3,-3,1,-3,-1,10.525
2106,-2,-2,-2,-1,-1,-1,-2,0,10.53
2107,0,1,-1,-1,-1,-1,-1,-2,10.535
2108,1,1,0,1,0,1,4,0,10.540000000000001
2109,-3,-6,-3,-2,0,1,0,0,10.545
2110,-2,-1,-2,-2,-2,1,1,1,10.55
2111,-1,0,-2,0,-1,-2,-3,-1,10.555
2112,-1,1,2,-1,-1,-3,-2,-1,10.56
2113,2,1,2,3,0,-1,-1,0,10.565
2114,0,-1,-4,-1,-1,-1,-3,-2,10.57
2115,1,4,1,-2,-1,0,-2,-4,10.575000000000001
2116,-1,-1,-2,-3,-3,-2,-1,1,10.58
2117,0,-4,0,0,0,-1,1,0,10.585
2118,-2,-1,1,-1,0,-3,-1,1,10.59
2119,-3,-4,-4,-3,-1,-2,-2,1,10.595
2120,0,-1,-4,-2,-2,0,0,-2,10.6
2121,-4,-4,-8,-3,-2,-1,-1,-2,10.605
2122,1,-2,4,1,-1,1,1,-1,10.61
2123,0,-1,0,-2,-1,0,-2,-1,10.615
2124,-1,1,3,1,0,0,3,-1,10.620000000000001
2125,-1,2,0,-3,-1,1,1,1,10.625
2126,0,1,2,0,-1,-5,-5,-1,10.63
2127,-4,-7,-7,0,-2,0,1,-1,10.635
2128,1,1,1,1,-1,-3,-3,-1,10.64
2129,0,3,4,2,1,-2,0,-2,10.645
2130,-4,-4,-4,-2,0,0,2,-2,10.65
2131,0,2,1,-1,1,-2,-4,1,10.655
2132,-2,-4,-6,-2,-2,1,0,-1,10.66
2133,1,2,2,1,0,-1,1,-1,10.665000000000001
2134,0,0,-1,-1,-3,0,-2,0,10.67
2135,-1,1,1,-1,-1,-2,2,0,10.675
2136,-2,-8,-4,-1,0,2,0,0,10.68
2137,-4,-6,-1,-3,-2,-3,-4,-2,10.685
2138,0,-3,-3,0,-1,-1,-2,0,10.69
2139,-1,3,2,1,1,0,6,1,10.695
2140,0,-2,-4,-1,-1,-2,-1,0,10.700000000000001
2141,2,9,0,-3,0,1,2,0,10.705
2142,-1,1,2,-3,0,-2,-6,-3,10.71
2143,-2,-5,1,-1,-1,1,-4,-2,10.715
2144,-2,0,-1,-1,-2,-2,2,1,10.72
2145,0,0,-2,0,0,1,0,-1,10.725
2146,-2,-6,-4,-1,-2,-2,1,0,10.73
2147,-1,-4,-1,0,-2,-1,-3,-3,10.735
2148,-2,0,0,-2,-2,-1,-2,-2,10.74
2149,0,-6,-1,-1,-2,1,3,2,10.745000000000001
2150,1,4,0,1,0,-2,-7,1,10.75
2151,-5,-10,-4,-1,-2,0,-2,-1,10.755
2152,-1,-1,2,0,2,-2,-1,-1,10.76
2153,-2,-1,-1,-2,-2,0,0,-2,10.765
2154,1,0,-1,-2,0,0,5,0,10.77
2155,0,0,-2,0,-1,-1,-1,0,10.775
2156,2,4,0,1,-1,0,-3,-2,10.78
2157,-2,-4,-4,0,-1,-2,-1,-8,10.785
2158,2,2,2,2,-1,-1,5,10,10.790000000000001
2159,0,1,-1,-2,-2,-2,-1,0,10.795
2160,1,1,1,0,-1,-1,1,0,10.8
2161,-1,1,-4,-1,-1,-1,-5,-2,10.805
2162,-7,-13,-1,-1,-1,-2,0,-7,10.81
2163,1,3,2,-1,-2,-2,0,0,10.815
2164,-2,-5,-2,-1,0,0,-1,-1,10.82
2165,1,1,-1,-1,-3,-3,-1,0,10.825000000000001
2166,2,3,-1,0,1,-2,0,-2,10.83
2167,0,-1,-5,-2,1,1,0,-1,10.835
2168,0,0,-2,-4,-1,-2,0,-2,10.84
2169,0,2,11,1,-1,1,-1,1,10.845
2170,-1,2,2,2,-1,0,2,0,10.85
2171,0,3,-3,1,0,0,-2,-2,10.855
2172,2,3,0,2,1,-1,-4,-2,10.86
2173,-1,-6,-2,1,1,0,2,1,10.865
2174,-6,-9,-1,-3,-2,-2,0,-1,10.870000000000001
2175,1,-2,-1,0,-1,0,-2,0,10.875
2176,-1,2,0,0,0,-2,-4,-1,10.88
2177,-6,-5,-3,-1,0,-2,-2,0,10.885
2178,0,4,3,0,-3,0,2,-1,10.89
2179,0,-2,-2,-2,0,2,2,0,10.895
2180,-3,-4,-1,-2,-3,-1,1,0,10.9
2181,-1,1,0,-1,-3,-1,-4,0,10.905
2182,-1,-2,-7,-2,-2,1,-2,-3,10.91
2183,-3,-2,4,-2,-3,-3,-2,-2,10.915000000000001
2184,-2,-3,3,-1,-1,-1,0,-2,10.92
2185,2,2,-3,0,2,-3,0,1,10.925
2186,-1,-1,-5,-2,0,1,-2,-2,10.93
2187,-1,2,-1,0,1,-1,-5,-3,10.935
2188,1,-1,-6,1,2,1,7,1,10.94
2189,-4,-4,-4,-2,-2,-1,-1,-3,10.945
2190,-5,-3,2,-1,0,1,2,-1,10.950000000000001
2191,1,5,0,0,-1,-4,-2,-1,10.955
2192,-6,-11,0,-2,-3,-2,-5,-3,10.96
2193,1,-1,-6,0,-4,-1,-1,-3,10.965
2194,-2,-2,1,1,-1,1,0,0,10.97
2195,4,9,3,0,-2,-2,0,5,10.975
2196,2,-1,-3,2,0,0,-2,3,10.98
2197,3,5,4,0,1,0,1,0,10.985
2198,-1,1,0,-2,-1,0,-3,-3,10.99
2199,0,-7,-7,-3,-4,-1,2,-3,10.995000000000001
2200,-2,2,4,-2,-2,-1,7,2,11.0
2201,0,-4,1,-2,0,-2,-6,-5,11.005
2202,1,6,-4,-4,-2,-1,-1,-3,11.01
2203,-5,-11,-13,-2,-2,-3,1,0,11.015
2204,1,4,8,0,-2,0,-2,0,11.02
2205,4,5,3,2,0,0,-1,1,11.025
2206,-2,-6,-2,-3,-2,-3,-2,-1,11.03
2207,-2,-2,-1,0,1,0,-3,-4,11.035
2208,-2,-5,-8,-2,-1,-1,-2,-3,11.040000000000001
2209,4,8,-3,-1,-1,3,4,1,11.045
2210,-1,-4,-8,1,1,-6,-10,0,11.05
2211,5,-8,32,5,-3,1,4,4,11.055
2212,-20,-4,-5,-3,-3,-1,-8,-1,11.06
2213,6,5,-5,-5,1,1,4,-1,11.065
2214,6,-1,-6,-3,1,1,7,6,11.07
2215,15,-1,-10,-2,-2,-1,0,-3,11.075000000000001
2216,-7,7,20,6,2,-1,-1,0,11.08
2217,-12,5,15,2,-2,-3,-2,-4,11.085
2218,-9,-2,-7,-2,-3,2,-4,-1,11.09
2219,7,-5,-13,1,0,0,8,-2,11.095
2220,21,5,-9,-9,-5,-3,-2,7,11.1
2221,-24,-10,16,-1,-4,-4,0,1,11.105
2222,-11,-8,-47,-7,-4,1,-3,-14,11.11
2223,-16,8,16,-5,0,0,-10,1,11.115
2224,17,-1,-6,3,1,3,-2,-8,11.120000000000001
2225,12,6,8,3,2,1,5,5,11.125
2226,-1,8,28,8,2,-3,-3,4,11.13
2227,-17,-3,-10,-4,-1,-1,-3,-4,11.135
2228,3,6,10,9,2,-1,1,-1,11.14
2229,1,-12,-23,-5,-2,-1,-5,1,11.145
2230,1,5,8,-4,-2,2,8,-5,11.15
2231,16,-2,-7,0,1,-1,2,6,11.155
2232,-23,-6,1,-5,-2,0,4,1,11.16
2233,4,-3,-1,4,0,-1,-2,2,11.165000000000001
2234,-8,-8,-3,-4,-2,1,6,4,11.17
2235,23,2,5,1,-1,0,-5,-6,11.175
2236,6,7,-2,-2,-5,-1,-4,-7,11.18
2237,-36,0,0,17,-2,-2,-8,-11,11.185
2238,13,-4,16,-6,-8,-4,2,-1,11.19
2239,-28,-2,-8,11,9,7,22,13,11.195
2240,-16,-4,-3,-17,11,-4,-17,-7,11.200000000000001
2241,3,-12,-30,-16,5,-3,-15,-4,11.205
2242,7,10,26,3,-7,-6,4,15,11.21
2243,-4,-2,-26,-7,-7,-3,-13,-9,11.215
2244,21,-6,-4,5,-8,1,5,4,11.22
2245,4,7,16,-1,-5,0,2,-6,11.225
2246,-7,0,8,8,13,2,10,1,11.23
2247,-15,-1,4,-3,0,3,1,-1,11.235
2248,-9,-2,3,3,5,0,8,5,11.24
2249,6,9,-1,-8,-9,-3,-3,-1,11.245000000000001
2250,0,-7,-8,-1,-6,0,12,11,11.25
2251,28,-5,15,13,14,1,-19,-12,11.255
2252,-30,20,-3,-5,-10,-9,-27,-22,11.26
2253,-26,-26,-5,12,4,-4,-3,-4,11.265
2254,8,19,0,1,-9,2,10,16,11.27
2255,23,-7,8,-24,-7,4,23,10,11.275
2256,-18,-37,-26,-27,-6,4,18,10,11.28
2257,69,16,-3,9,3,2,-9,0,11.285
2258,-76,-1,2,-3,2,-8,-33,-27,11.290000000000001
2259,-31,-4,-9,-26,-7,-6,4,8,11.295
2260,18,4,-3,12,-15,-6,-6,-14,11.3
2261,75,-5,-7,12,14,8,31,22,11.305
2262,0,26,5,-5,11,4,-8,-6,11.31
2263,-22,-4,5,-6,-16,-8,-16,-24,11.315
2264,-21,-21,11,-7,1,4,17,20,11.32
2265,28,-31,-20,-5,-3,-1,0,7,11.325000000000001
2266,44,-11,-4,12,-8,-4,15,8,11.33
2267,10,-1,4,-3,-27,-8,-4,7,11.335
2268,25,22,15,9,42,2,-21,-20,11.34
2269,-63,13,22,21,-3,3,3,-10,11.345
2270,14,-16,-32,-13,-1,-3,-9,-8,11.35
2271,-32,10,12,2,8,7,28,20,11.355
2272,-30,-3,8,7,-27,-17,-16,-3,11.36
2273,15,-27,-3,-24,8,1,-6,-7,11.365
2274,-25,32,-5,15,4,-2,-27,-33,11.370000000000001
2275,-20,-5,-7,-1,3,0,6,9,11.375
2276,39,18,9,20,-6,7,17,-6,11.38
2277,-15,-1,8,-36,-10,-4,9,17,11.385
2278,-49,-1,1,11,-1,-10,-20,-18,11.39
2279,71,29,4,-1,-7,1,6,5,11.395
2280,-26,-18,-10,-17,8,4,-8,1,11.4
2281,24,-7,-20,8,-5,-11,-20,-2,11.405
2282,9,15,16,-3,3,13,29,16,11.41
2283,37,9,-1,4,-7,-7,2,13,11.415000000000001
2284,-4,-27,-6,11,3,-3,3,-13,11.42
2285,-57,21,13,-1,-5,0,-5,-10,11.425
2286,17,-19,4,25,4,-2,-15,-12,11.43
2287,-31,14,1,-18,-4,0,-6,-6,11.435
2288,5,5,6,-16,12,13,34,12,11.44
2289,16,0,-11,3,-23,-8,-8,12,11.445
2290,21,-30,-14,-7,29,-5,-12,-3,11.450000000000001
2291,3,-5,-9,12,4,2,8,18,11.455
2292,58,25,-8,7,-9,-10,-16,-4,11.46
2293,-37,9,23,-4,-11,-1,18,-10,11.465
2294,-21,-43,-11,-10,16,10,-3,0,11.47
2295,-6,2,7,-1,-16,-11,-16,-23,11.475
2296,30,-7,-25,-16,25,18,25,28,11.48
2297,-20,-15,-20,-23,-13,-14,-8,16,11.485
2298,29,16,13,43,-6,-4,4,8,11.49
2299,-40,-32,-4,-1,6,-3,-9,-7,11.495000000000001
2300,-10,11,-5,15,-17,-2,-14,-19,11.5
2301,-35,10,30,3,33,15,0,-38,11.505
2302,1,-4,3,-22,-15,-3,23,41,11.51
2303,-11,-8,-1,7,-10,-3,6,-8,11.515
2304,21,9,-26,20,9,-2,-24,-19,11.52
2305,31,0,-1,-6,-3,2,9,15,11.525
2306,-18,10,15,-4,2,-5,-11,-7,11.53
2307,-44,-25,-15,-12,12,8,4,-3,11.535
2308,-12,-25,-17,-5,-15,-5,20,30,11.540000000000001
2309,40,7,8,5,0,-7,-32,-27,11.545
2310,13,4,17,8,-2,5,6,-10,11.55
2311,4,-11,1,-19,-13,-6,-14,-8,11.555
2312,-32,0,24,2,13,7,13,13,11.56
2313,-11,-3,1,20,0,2,16,25,11.565
2314,-28,-14,-10,-17,-14,0,-4,-14,11.57
2315,34,25,-48,7,18,3,-15,-12,11.575000000000001
2316,31,-3,7,-1,-35,-11,-8,-6,11.58
2317,-61,18,20,-1,17,2,6,-12,11.585
2318,68,17,53,6,6,6,21,32,11.59
2319,-40,-35,-13,28,14,4,-14,-32,11.595
2320,17,-8,-23,-48,-11,-3,-13,3,11.6
2321,-5,2,-23,22,-11,-4,-15,-18,11.605
2322,11,-6,-26,-43,-7,-1,13,8,11.61
2323,45,18,42,26,7,0,8,17,11.615
2324,9,15,20,21,6,6,21,-18,11.620000000000001
2325,-26,-34,-32,-29,-10,-8,-31,-14,11.625
2326,-29,5,5,4,-3,-6,-29,-37,11.63
2327,6,-8,-7,-12,-1,-2,6,22,11.635
2328,-12,11,6,4,0,1,3,-2,11.64
2329,16,15,6,-21,-20,-2,11,3,11.645
2330,10,-15,-9,20,21,9,7,1,11.65
2331,-19,-18,0,0,-2,-6,-10,-2,11.655
2332,-1,4,-9,-5,-3,-4,5,7,11.66
2333,23,12,17,4,2,4,14,9,11.665000000000001
2334,6,-2,1,11,-10,-3,-18,-14,11.67
2335,35,22,-6,-27,3,7,14,15,11.675
2336,-49,-11,-2,28,23,7,22,15,11.68
2337,-12,8,-2,-12,-11,-12,-40,-25,11.685
2338,8,-7,-27,-11,9,7,2,1,11.69
2339,-33,10,-1,-14,-14,-6,3,-10,11.695
2340,44,13,10,3,-2,-8,-10,16,11.700000000000001
2341,-17,-26,-3,7,-1,-3,2,0,11.705
2342,8,7,-9,-15,-13,-6,2,13,11.71
2343,16,8,7,4,3,2,-1,-3,11.715
2344,-2,-7,7,-7,2,1,-6,-9,11.72
2345,-25,-4,-11,7,6,2,8,-2,11.725
2346,12,10,-1,-9,-13,-6,-10,-1,11.73
2347,3,-2,-2,4,5,7,23,6,11.735
2348,-2,-5,10,-10,-28,-12,-31,-16,11.74
2349,4,9,-12,-2,35,12,1,-1,11.745000000000001
2350,6,1,2,23,4,5,24,31,11.75
2351,1,9,22,21,-6,-6,0,-8,11.755
2352,-20,2,-7,12,-1,2,-9,-17,11.76
2353,-21,-8,-1,-9,9,3,18,19,11.765
2354,-7,-12,-20,-32,-11,-5,-15,-15,11.77
2355,5,14,-1,1,1,-2,-7,-2,11.775
2356,37,0,1,-9,-6,-1,4,20,11.78
2357,33,-3,3,9,-9,-2,0,4,11.785
2358,-48,4,-1,-13,-3,7,34,9,11.790000000000001
2359,23,-10,-1,4,-3,-9,-36,-22,11.795
2360,-20,0,-3,-25,-8,-4,-10,-8,11.8
2361,47,5,1,33,21,7,11,4,11.805
2362,-29,-5,2,3,-4,-7,-9,-8,11.81
2363,-8,-2,5,6,-6,2,4,3,11.815
2364,-19,-6,-15,-32,6,-2,4,-10,11.82
2365,16,2,5,-2,-4,1,1,4,11.825000000000001
2366,6,-7,-6,3,-9,-4,-2,-7,11.83
2367,-1,-8,-2,5,-1,0,-4,1,11.835
2368,-29,5,12,-7,-21,-6,-1,4,11.84
2369,27,-2,-8,5,32,14,21,10,11.845
2370,7,-4,2,26,10,1,-4,-2,11.85
2371,-37,4,-8,-17,-1,-1,-1,13,11.855
2372,24,2,10,42,14,6,1,-23,11.86
2373,-31,1,-1,-12,-12,-11,-27,-4,11.865
2374,-22,13,-6,-10,-3,1,7,3,11.870000000000001
2375,30,-18,0,15,-4,-1,4,2,11.875
2376,10,-10,-4,-13,-2,-3,-9,-12,11.88
2377,-44,-10,1,1,-15,-5,-8,-6,11.885
2378,15,-3,-8,4,17,1,-13,-13,11.89
2379,-18,6,-3,-25,-2,1,-2,6,11.895
2380,15,4,0,-1,-1,-2,5,13,11.9
2381,-12,0,4,23,1,2,19,14,11.905
2382,-17,-1,-1,-38,-20,-4,-5,-10,11.91
2383,31,-6,-4,-12,-2,-7,-10,-10,11.915000000000001
2384,-41,8,6,55,17,9,1,-2,11.92
2385,60,11,8,-17,-6,2,7,17,11.925
2386,-18,-4,-7,9,-3,1,0,-14,11.93
2387,-56,-5,1,2,3,-2,-4,-10,11.935
2388,28,-4,-17,-49,-9,-7,-20,-9,11.94
2389,-29,4,0,7,6,-3,5,4,11.945
2390,45,-6,-1,-8,-7,-2,1,8,11.950000000000001
2391,10,-1,0,12,-2,2,2,-3,11.955
2392,-40,-8,7,3,-1,-2,5,11,11.96
2393,6,-1,3,-11,-11,-2,-5,-15,11.965
2394,47,2,-9,2,-1,1,-6,-1,11.97
2395,-37,-1,-3,-9,0,-1,4,3,11.975
2396,9,-4,3,9,7,1,7,12,11.98
2397,12,-6,-9,0,1,4,9,5,11.985
2398,-7,4,5,6,1,-4,-7,-7,11.99
2399,19,-2,2,2,3,2,2,-4,11.995000000000001
2400,-19,-5,2,-11,-6,-3,3,0,12.0
2401,14,-3,-9,-4,-7,-3,-8,2,12.005
2402,-15,-2,2,3,2,-1,-7,-1,12.01
2403,-4,7,2,2,7,1,-3,-4,12.015
2404,5,-5,-5,-1,-5,-5,-7,-10,12.02
2405,-7,9,9,6,-14,6,30,13,12.025
2406,3,-2,-3,-27,-9,-8,-23,-15,12.030000000000001
2407,-6,-5,-13,13,20,-1,-15,-5,12.035
2408,-8,-4,-1,8,3,-2,-6,-7,12.040000000000001
2409,5,3,-8,-8,-7,-5,1,8,12.045
2410,-21,1,9,0,-11,-4,11,8,12.05
2411,11,4,2,-3,-9,-3,-2,-10,12.055
2412,19,-7,-12,-8,0,1,9,19,12.06
2413,-10,-9,-5,-8,-4,-6,-13,-10,12.065
2414,3,0,3,10,2,-3,-1,3,12.07
2415,-10,1,3,-3,1,2,-9,-10,12.075000000000001
2416,4,11,2,2,-6,-4,5,4,12.08
2417,-13,-11,10,7,-5,-2,4,-3,12.085
2418,1,-16,-13,24,37,13,-5,-11,12.09
2419,8,3,-1,3,1,1,2,8,12.095
2420,-8,3,5,-2,0,0,2,5,12.1
2421,-1,4,-8,-11,-12,-6,-18,-16,12.105
2422,18,6,7,-11,-7,-3,14,19,12.11
2423,-30,-6,-2,4,-2,4,12,-10,12.115
2424,-9,-9,-4,-6,2,2,-12,-9,12.120000000000001
2425,-4,1,-2,3,3,0,1,-6,12.125
2426,0,2,5,1,-6,-5,-1,0,12.13
2427,16,-5,5,-2,-4,-3,1,7,12.135
2428,-1,-2,-20,5,-2,-1,-6,0,12.14
2429,-1,-1,3,-13,3,-2,4,0,12.145
2430,-10,6,15,6,-5,-18,-1,20,12.15
2431,9,2,-14,0,-2,10,-7,-31,12.155000000000001
2432,8,0,-2,-1,7,14,13,7,12.16
2433,2,-6,-4,-3,0,0,-1,-16,12.165000000000001
2434,-2,-2,-1,-1,-2,-4,-1,0,12.17
2435,-5,2,12,1,-2,-18,0,7,12.175
2436,-9,11,25,3,3,6,4,20,12.18
2437,17,12,6,1,-1,-3,-2,1,12.185
2438,-3,-20,-32,-8,-6,-18,-3,10,12.19
2439,12,-16,-37,-6,-4,11,1,23,12.195
2440,-6,-7,-1,-2,4,16,3,-25,12.200000000000001
2441,-3,23,20,10,2,-6,-8,-23,12.205
2442,-18,21,33,8,-1,14,-4,-9,12.21
2443,-1,22,-20,-6,0,-14,1,4,12.215
2444,21,-31,-42,-15,-8,-3,-5,30,12.22
2445,-9,-9,13,2,1,4,3,4,12.225
2446,-6,-9,10,1,-3,-5,-6,-10,12.23
2447,15,14,27,7,3,11,5,-2,12.235
2448,0,21,10,4,2,-14,-2,2,12.24
2449,0,-15,-29,-8,-3,-1,-1,2,12.245000000000001
2450,3,-9,-15,-4,-4,4,0,-8,12.25
2451,4,-8,16,0,0,0,0,2,12.255
2452,-9,5,10,4,0,-4,-2,-15,12.26
2453,4,-2,-4,-3,-3,-4,-4,5,12.265
2454,7,9,-3,-4,-10,4,5,0,12.27
2455,-5,1,6,21,22,4,2,-1,12.275
2456,-7,-2,-2,-6,-2,-6,-1,-7,12.280000000000001
2457,-3,-3,-13,-1,1,2,-2,1,12.285
2458,-1,5,2,-7,-4,0,-6,-10,12.290000000000001
2459,40,4,2,-6,-7,1,32,29,12.295
2460,-36,-18,-4,11,-5,-1,-13,-14,12.3
2461,-32,-7,1,-9,13,1,-18,-2,12.305
2462,-8,0,-5,3,3,4,-4,-10,12.31
2463,1,-2,-3,-7,-8,-3,-7,-6,12.315
2464,12,6,3,-6,0,-4,3,1,12.32
2465,10,1,2,-2,-10,6,13,6,12.325000000000001
2466,4,-5,-7,-1,1,-2,4,3,12.33
2467,-10,3,21,3,-1,-18,3,-2,12.335
2468,-8,12,17,1,-4,-11,-37,-51,12.34
2469,11,-9,-43,-8,-3,10,14,45,12.345
2470,7,-9,-7,-6,3,-11,-1,-10,12.35
2471,0,17,15,3,-2,21,23,41,12.355
2472,-6,4,-43,3,2,-9,-9,-24,12.36
2473,-1,-36,17,-9,-1,-5,-13,-45,12.365
2474,-2,-5,16,-2,-3,4,-1,3,12.370000000000001
2475,-17,-14,-3,-13,-6,-18,-15,-14,12.375
2476,0,14,18,6,3,5,13,16,12.38
2477,3,23,12,9,2,4,-1,-1,12.385
2478,1,-1,1,1,-1,1,10,13,12.39
2479,-6,3,1,-1,-3,0,-11,-12,12.395
2480,9,3,4,-2,1,5,8,11,12.4
2481,4,1,-10,-1,-4,-4,-1,0,12.405000000000001
2482,-6,-6,2,1,0,0,0,0,12.41
2483,-6,0,-6,-2,-2,-4,-11,-6,12.415000000000001
2484,3,-7,-5,-7,-2,1,4,17,12.42
2485,3,-3,-13,-1,-3,-1,5,-10,12.425
2486,0,19,2,4,1,-8,-5,-9,12.43
2487,-6,21,45,9,5,13,7,4,12.435
2488,7,-38,-53,-8,-2,-6,9,-4,12.44
2489,3,-19,-48,-12,-4,-1,2,21,12.445
2490,5,8,6,-2,1,8,7,-1,12.450000000000001
2491,4,-2,1,0,-1,-13,-32,-13,12.455
2492,-17,-12,38,2,-1,5,11,-9,12.46
2493,3,6,19,0,0,-6,-7,3,12.465
2494,1,-2,-21,-8,-4,2,2,-2,12.47
2495,0,1,1,-3,-2,1,7,4,12.475
2496,0,18,33,11,2,2,0,5,12.48
2497,7,19,4,14,3,0,-2,4,12.485
2498,-10,-25,-55,-25,-6,0,-3,-2,12.49
2499,-1,-6,4,-3,-3,-2,-2,-7,12.495000000000001
2500,-4,-3,-12,-3,1,0,0,1,12.5
2501,-4,5,28,7,1,-3,0,-6,12.505
2502,1,17,23,17,5,1,-3,2,12.51
2503,-3,-22,-40,-7,-5,1,0,0,12.515
2504,-1,-11,-6,-9,-3,0,-1,1,12.52
2505,-1,8,7,4,-2,-4,-3,-1,12.525
2506,-2,3,11,5,1,-2,-1,-1,12.530000000000001
2507,5,1,-5,-4,0,-3,-5,-6,12.535
2508,3,10,19,1,1,3,6,11,12.540000000000001
2509,-15,-39,-84,-16,-6,-4,-2,-12,12.545
2510,1,-6,20,11,-1,2,-8,0,12.55
2511,-2,-25,-51,-14,-3,-2,2,-1,12.555
2512,7,15,20,6,4,-2,-2,4,12.56
2513,-5,14,21,6,1,1,-2,-8,12.565
2514,1,-3,3,-11,-3,-3,2,4,12.57
2515,-2,-11,-12,-4,-4,0,3,2,12.575000000000001
2516,1,-6,-18,-4,-2,-2,-3,-3,12.58
2517,-1,-1,10,0,-2,1,2,0,12.585
2518,-2,5,3,6,3,-2,-1,-1,12.59
2519,-3,8,16,3,2,-1,-3,-4,12.595
2520,0,-6,-12,-3,-2,-1,1,1,12.6
2521,-6,2,10,3,0,-1,-1,-2,12.605
2522,-2,-2,7,0,0,-1,-2,6,12.61
2523,7,1,-11,-3,0,1,0,-2,12.615
2524,-2,-6,9,-1,-2,0,-3,-3,12.620000000000001
2525,1,6,9,2,1,1,-2,0,12.625
2526,-4,-6,-5,-1,2,3,2,1,12.63
2527,-6,-11,-13,-12,-4,-1,-2,-3,12.635
2528,-2,4,-4,-5,-2,-5,-3,0,12.64
2529,-3,-2,27,-2,-2,0,1,9,12.645
2530,0,-6,-28,-3,-2,0,-2,-10,12.65
2531,6,10,31,11,2,0,0,0,12.655000000000001
2532,-6,2,-4,3,0,-1,-2,-7,12.66
2533,3,7,5,-5,-2,-5,-3,0,12.665000000000001
2534,-1,5,4,2,-1,4,5,-3,12.67
2535,-1,2,-5,1,-3,0,-1,-3,12.675
2536,1,-2,-6,-1,0,-3,-7,1,12.68
2537,0,-4,-1,-8,-3,-3,-1,-5,12.685
2538,-1,-8,-4,-2,0,-4,-4,2,12.69
2539,-1,6,1,-1,-1,2,1,0,12.695
2540,0,-4,2,-1,1,3,5,3,12.700000000000001
2541,-1,-6,4,5,1,-1,1,-5,12.705
2542,-3,-2,-11,-4,-1,2,0,-3,12.71
2543,-3,3,-1,4,1,-4,0,1,12.715
2544,-3,-1,-5,1,-2,-2,0,-1,12.72
2545,3,5,8,2,0,1,-1,0,12.725
2546,2,2,5,-5,-5,-2,0,1,12.73
2547,-2,-7,-17,-5,-3,0,-2,-3,12.735
2548,1,-1,-5,-2,-1,-2,-1,1,12.74
2549,1,3,4,3,2,1,-1,-2,12.745000000000001
2550,0,5,0,2,0,-1,0,2,12.75
2551,-5,-6,8,1,-1,0,-2,-4,12.755
2552,1,2,0,2,-1,-5,-2,0,12.76
2553,0,-1,-6,-6,0,1,0,-10,12.765
2554,-4,-5,2,2,-1,0,1,6,12.77
2555,-3,-10,-11,-11,-3,-2,-1,4,12.775
2556,2,2,-5,1,-1,1,1,3,12.780000000000001
2557,0,5,13,12,-1,0,0,5,12.785
2558,-2,1,-5,-9,0,0,-2,-7,12.790000000000001
2559,-3,0,9,3,1,0,-2,-3,12.795
2560,-4,-5,-3,-4,-2,0,5,0,12.8
2561,0,-5,-8,-1,-2,-4,-5,-1,12.805
2562,-1,0,-3,3,0,0,2,-5,12.81
2563,0,0,-3,-4,-3,-4,-3,1,12.815
2564,2,5,12,1,-1,0,1,18,12.82
2565,-4,-4,-19,-2,-1,0,-2,-24,12.825000000000001
2566,-2,-4,-4,-3,-1,-2,-1,-2,12.83
2567,-3,-4,1,2,0,-1,-4,1,12.835
2568,1,0,-5,-4,1,2,0,-2,12.84
2569,-1,1,5,-3,-2,-2,0,5,12.845
2570,-2,1,6,-1,-2,0,-1,1,12.85
2571,-1,-3,-7,1,1,-1,0,-2,12.855
2572,3,5,9,1,0,-3,-2,-4,12.86
2573,-1,-3,-8,-6,-3,1,0,-3,12.865
2574,2,-1,-4,2,1,-3,0,5,12.870000000000001
2575,4,4,11,6,2,2,1,3,12.875
2576,-2,-7,-9,-6,-3,-2,-1,-2,12.88
2577,-1,-1,-5,-5,1,-2,-1,7,12.885
2578,1,2,-8,-4,-3,-2,-1,-4,12.89
2579,-1,2,9,5,1,2,1,-1,12.895
2580,-6,-4,8,2,-1,-3,-2,-9,12.9
2581,1,-3,-3,1,0,-1,0,3,12.905000000000001
2582,-1,0,2,1,0,0,2,1,12.91
2583,-1,-1,-7,-1,0,-2,-5,0,12.915000000000001
2584,1,0,-3,-3,0,-1,-2,-4,12.92
2585,-6,-5,2,-1,-1,-1,-1,1,12.925
2586,0,-2,1,3,-2,-3,-1,2,12.93
2587,4,6,-5,-2,-3,0,3,0,12.935
2588,-1,-4,0,-1,-1,0,-1,0,12.94
2589,1,6,3,-5,-2,-2,-1,1,12.945
2590,2,0,-1,-1,2,-1,-2,-2,12.950000000000001
2591,-2,-3,-1,-2,0,-4,0,-3,12.955
2592,-1,1,-2,-2,-1,-1,-2,-1,12.96
2593,2,7,4,1,-1,-4,-2,4,12.965
2594,-5,-11,0,3,0,2,0,-4,12.97
2595,-1,0,-2,-11,-3,-1,1,5,12.975
2596,0,-2,-7,-1,0,1,-2,1,12.98
2597,0,-1,3,2,0,-1,2,3,12.985
2598,0,3,2,0,1,-3,-2,-3,12.99
2599,-1,-4,1,-7,-2,-1,-3,-4,12.995000000000001
2600,0,0,-3,-2,-2,0,0,-1,13.0
2601,-1,3,1,2,1,0,2,0,13.005
2602,-4,0,-1,0,1,0,2,0,13.01
2603,-4,-2,-5,0,-1,-3,2,-4,13.015
2604,1,4,2,0,-1,-2,-2,-2,13.02
2605,-2,-5,-3,0,-2,-1,-2,-2,13.025
2606,-1,-5,0,-1,-4,2,3,3,13.030000000000001
2607,0,0,-1,1,3,-1,-4,-2,13.035
2608,0,-1,0,-1,-2,0,-1,0,13.040000000000001
2609,0,-5,0,-2,1,0,-2,-1,13.045
2610,0,2,1,-3,-2,0,0,0,13.05
2611,-1,-2,-3,0,-1,0,0,-3,13.055
2612,-2,-4,-1,-2,-1,0,-1,-1,13.06
2613,4,10,2,1,0,0,-3,1,13.065
2614,-2,-3,0,-1,0,-4,-4,-1,13.07
2615,1,2,-1,2,0,0,-2,0,13.075000000000001
2616,1,1,0,-3,-1,-4,-2,0,13.08
2617,0,-1,-1,0,-3,-2,0,-6,13.085
2618,1,-1,1,-1,-1,1,1,3,13.09
2619,-2,-4,-7,-1,-2,-2,-1,2,13.095
2620,-1,2,1,0,0,1,2,0,13.1
2621,0,0,0,-2,-1,-2,-2,-2,13.105
2622,-3,-10,-4,-4,-2,0,0,-1,13.11
2623,1,2,1,2,-1,0,-2,-2,13.115
2624,0,2,0,-1,-1,1,1,1,13.120000000000001
2625,-2,-4,-3,-2,0,-1,-3,-1,13.125
2626,2,5,2,1,0,0,-4,-3,13.13
2627,-1,2,2,1,-2,-1,-1,-1,13.135
2628,-1,-3,0,0,-1,-1,-2,0,13.14
2629,-2,-3,-4,-1,-2,-2,-1,-1,13.145
2630,1,-2,3,0,1,-1,4,0,13.15
2631,2,0,-1,-1,-1,-3,4,-1,13.155000000000001
2632,-4,-4,-4,-2,1,-2,-4,-2,13.16
2633,-2,-1,-1,0,1,0,-2,1,13.165000000000001
2634,2,3,-2,-1,-1,-1,-3,1,13.17
2635,-2,2,3,3,-2,-1,0,-2,13.175
2636,0,2,-1,3,0,-3,1,-1,13.18
2637,-6,-8,-2,-3,0,1,6,0,13.185
2638,-1,3,2,1,0,-4,-14,-2,13.19
2639,-6,-14,-7,-1,-1,-3,-3,-3,13.195
2640,-1,-1,3,1,-1,-1,1,0,13.200000000000001
2641,-1,-2,0,1,-2,1,-3,0,13.205
2642,-3,-1,-4,-5,-2,-1,1,-2,13.21
2643,0,-1,1,-1,-1,0,-2,-1,13.215
2644,-2,-2,-4,-4,-1,-1,-1,-7,13.22
2645,-2,-3,-1,-2,-1,-1,1,6,13.225
2646,1,2,0,0,-2,0,0,2,13.23
2647,0,-3,-2,-2,-1,-1,-1,-1,13.235
2648,-3,-3,-2,1,2,1,-1,-1,13.24
2649,3,3,-2,0,-1,-1,0,-2,13.245000000000001
2650,1,4,-1,0,1,-4,-1,0,13.25
2651,-5,-11,-1,0,-2,-2,0,-2,13.255
2652,0,-3,1,-1,-4,-1,1,-6,13.26
2653,-4,-7,-4,0,1,1,1,-2,13.265
2654,0,-1,-2,-1,-3,-1,2,11,13.27
2655,4,11,-1,-2,-2,1,-4,-8,13.275
2656,0,0,3,-1,0,0,0,4,13.280000000000001
2657,-3,-8,1,2,-2,-3,-1,-3,13.285
2658,-1,1,0,-1,-2,-1,0,-3,13.290000000000001
2659,0,0,1,-1,0,-1,0,-1,13.295
2660,-1,-1,-3,-3,-3,-1,-3,-4,13.3
2661,2,5,-3,-2,-2,-1,0,1,13.305
2662,-1,0,1,2,1,1,0,-3,13.31
2663,-3,0,2,1,-2,0,-2,-3,13.315
2664,-1,-1,-1,2,0,-2,1,10,13.32
2665,3,5,1,-1,-1,2,5,0,13.325000000000001
2666,-1,-3,2,0,0,-2,2,2,13.33
2667,-1,0,-2,-2,-1,-1,-1,0,13.335
2668,-2,1,-1,-1,0,-2,-6,-4,13.34
2669,-1,-2,-3,-1,0,1,-5,-1,13.345
2670,-3,-1,-2,-2,0,1,3,-5,13.35
2671,0,1,0,-1,0,1,2,1,13.355
2672,0,-1,-2,-2,-2,-1,-1,-3,13.36
2673,0,-3,0,1,1,-1,-3,3,13.365
2674,-2,2,1,1,1,0,-2,-4,13.370000000000001
2675,-5,-11,-5,-3,-2,-2,0,-4,13.375
2676,-3,-11,-5,-3,-4,1,0,4,13.38
2677,-1,2,1,0,1,-2,1,-2,13.385
2678,-3,-2,0,-1,0,-1,-1,-3,13.39
2679,0,-1,-1,-2,-2,-1,0,6,13.395
2680,1,1,-5,-4,0,0,-1,-3,13.4
2681,0,0,0,-3,1,-1,-2,-4,13.405000000000001
2682,0,2,-1,2,-1,-2,-2,-1,13.41
2683,1,3,1,-1,-1,-1,-1,1,13.415000000000001
2684,-1,2,1,-2,-2,-2,2,15,13.42
2685,4,9,4,2,-1,0,-1,-9,13.425
2686,-3,-9,-9,-3,-2,-1,-5,0,13.43
2687,-1,-2,-6,-2,0,-1,5,3,13.435
2688,-4,-8,-5,-2,-1,3,3,-5,13.44
2689,-2,0,1,-2,-2,-2,-3,1,13.445
2690,1,1,0,-1,0,-3,2,-2,13.450000000000001
2691,2,5,0,1,-1,1,-2,-3,13.455
2692,0,1,1,-1,-1,-2,0,-2,13.46
2693,-2,-7,-3,0,0,1,2,2,13.465
2694,-1,-2,0,1,-1,0,-1,-4,13.47
2695,-1,-2,-2,1,1,-2,-2,1,13.475
2696,3,5,3,2,1,-2,0,-4,13.48
2697,-1,0,-1,-1,-3,-1,-3,3,13.485
2698,-2,-8,-1,-2,0,-1,-1,-3,13.49
2699,-1,0,5,3,2,1,-2,0,13.495000000000001
2700,-5,-9,-6,-5,-5,0,2,-1,13.5
2701,2,6,1,0,-1,-2,-2,-4,13.505
2702,-2,-2,-2,-4,-3,-1,1,3,13.51
2703,1,2,1,-1,-1,0,-1,1,13.515
2704,-1,-3,-1,1,-1,-2,-3,-5,13.52
2705,-2,0,0,0,-1,-1,-1,-8,13.525
2706,0,-1,-1,-1,-1,1,-1,7,13.530000000000001
2707,0,-1,-1,-1,1,-1,-2,0,13.535
2708,4,2,1,-1,0,0,2,1,13.540000000000001
2709,-2,-2,-1,-1,-3,-2,1,-1,13.545
2710,2,3,-1,2,0,-1,-4,-4,13.55
2711,0,-3,-1,-2,-4,0,0,-3,13.555
2712,-1,1,-2,1,0,-1,-2,-4,13.56
2713,2,1,-2,-1,-2,-2,0,4,13.565
2714,-2,-2,2,0,-1,2,-2,-6,13.57
2715,-1,-5,-2,0,0,-4,3,-2,13.575000000000001
2716,1,2,2,5,4,-1,-4,-3,13.58
2717,-1,-4,-2,-2,-2,1,1,2,13.585
2718,-6,-13,-5,-1,-3,-4,1,14,13.59
2719,2,10,-1,-5,-4,1,-2,-17,13.595
2720,0,-3,-2,0,1,-1,2,3,13.6
2721,-2,-6,-1,-1,1,1,-1,1,13.605
2722,3,8,3,1,1,-1,-5,-3,13.61
2723,0,0,0,2,0,-1,-3,-1,13.615
2724,0,4,1,2,1,-1,-3,-5,13.620000000000001
2725,1,-1,-5,-4,-3,-2,-1,10,13.625
2726,4,6,-1,-2,0,1,3,-1,13.63
2727,-4,-3,0,-1,-1,-2,-1,4,13.635
2728,-1,0,-2,-2,-2,1,-7,-6,13.64
2729,-2,-4,-2,0,-1,0,6,-1,13.645
2730,4,3,1,0,-1,-2,-2,-2,13.65
2731,-1,0,-1,1,1,-1,-6,2,13.655000000000001
2732,-1,-4,-3,-2,0,-1,4,-2,13.66
2733,-1,0,0,1,0,1,-2,0,13.665000000000001
2734,-4,-5,-2,-2,0,0,-2,-3,13.67
2735,1,0,-1,0,0,-1,-2,-2,13.675
2736,-2,-4,3,2,0,1,0,4,13.68
2737,0,0,0,0,0,-3,-2,-1,13.685
2738,0,1,-4,-4,-2,0,-6,-1,13.69
2739,0,-6,-2,-3,-1,0,5,-3,13.695
2740,-1,2,-3,-2,-2,1,1,0,13.700000000000001
2741,0,-2,0,0,2,0,-6,-3,13.705
2742,-2,-3,-2,-2,0,-3,1,-6,13.71
2743,-4,1,0,0,0,2,1,-4,13.715
2744,3,5,-1,-2,-2,-2,0,14,13.72
2745,-2,-4,-2,-2,2,-1,2,-3,13.725
2746,-1,2,4,2,0,0,-2,4,13.73
2747,-1,-4,-6,-3,-1,-1,-3,1,13.735
2748,-1,1,1,0,-2,-2,0,-6,13.74
2749,-2,5,2,0,-1,0,0,-2,13.745000000000001
2750,-4,-3,2,0,0,-2,-1,-3,13.75
2751,-1,0,1,0,0,-2,0,-4,13.755
2752,2,-1,0,0,-2,-1,0,0,13.76
2753,1,-1,-1,-1,-1,0,-2,3,13.765
2754,0,-2,-2,1,0,2,2,-4,13.77
2755,-1,-2,-3,-1,0,1,-2,3,13.775
2756,1,2,1,-1,1,-3,-4,-1,13.780000000000001
2757,-3,-5,-2,-1,1,-3,-4,-3,13.785
2758,-3,-5,-2,-3,-2,-1,6,-3,13.790000000000001
2759,-3,-8,-2,0,-1,0,-2,1,13.795
2760,-1,0,-1,0,1,3,0,-3,13.8
2761,-1,-1,1,-2,-3,-3,-3,-12,13.805
2762,0,2,1,1,0,0,-2,4,13.81
2763,1,-2,-2,-1,-1,1,6,9,13.815
2764,-1,3,-1,-2,-1,-6,-7,-1,13.82
2765,-2,-1,1,-2,-2,1,-1,-3,13.825000000000001
2766,2,3,-2,2,0,-2,-4,-3,13.83
2767,-2,0,3,3,1,-2,1,-4,13.835
2768,0,0,-1,-2,-1,2,2,2,13.84
2769,0,2,1,0,-1,0,2,3,13.845
2770,0,0,0,-3,-1,-1,5,2,13.85
2771,-1,1,1,-1,1,-2,-5,-1,13.855
2772,-1,-3,-1,0,-1,0,-1,-6,13.86
2773,2,5,-2,-1,1,-2,-2,1,13.865
2774,-4,-7,-5,-4,0,1,-6,-4,13.870000000000001
2775,-2,-1,-3,-2,-4,-4,-1,1,13.875
2776,-1,-3,2,-1,-1,2,3,-1,13.88
2777,1,2,-1,0,-2,1,0,0,13.885
2778,1,1,-3,-1,-2,0,1,0,13.89
2779,-2,-4,-5,-4,-3,-2,-3,-2,13.895
2780,-2,-1,3,1,0,-3,-3,-3,13.9
2781,-2,-5,-2,-1,-1,-1,0,2,13.905000000000001
2782,-2,0,0,1,2,-1,-3,-2,13.91
2783,-1,-2,0,2,1,-1,-1,-9,13.915000000000001
2784,-3,-5,0,1,-1,0,1,4,13.92
2785,3,1,0,-1,-2,2,3,7,13.925
2786,-2,-4,-1,-2,-4,-3,-4,-1,13.93
2787,0,2,0,0,-2,-2,-4,-4,13.935
2788,0,-1,-4,-2,0,-3,-6,-4,13.94
2789,-4,-4,-5,-4,-2,-1,-3,-4,13.945
2790,1,-2,-1,-2,-1,1,5,1,13.950000000000001
2791,0,3,0,0,2,2,4,4,13.955
2792,-3,-3,-3,-1,-1,-1,-2,-6,13.96
2793,-1,-2,0,1,-1,0,-1,3,13.965
2794,1,1,1,-1,0,-2,-3,-3,13.97
2795,-1,-3,-1,-1,0,-2,-1,2,13.975
2796,-1,0,-2,1,-1,0,3,1,13.98
2797,-1,-2,-1,-1,-2,-3,-1,-5,13.985
2798,-2,-1,0,3,0,1,2,1,13.99
2799,-4,-4,-1,-2,0,-2,-4,-3,13.995000000000001
2800,0,-3,-3,-3,-1,-3,-1,0,14.0
2801,-2,-3,0,1,1,-5,-2,-2,14.005
2802,1,0,-1,-1,-3,-2,0,-4,14.01
2803,4,3,3,-1,-1,1,2,19,14.015
2804,-5,-5,3,1,-2,0,-1,0,14.02
2805,-5,-6,-1,-1,0,-1,-2,-1,14.025
2806,-1,2,2,-1,-1,0,0,-5,14.030000000000001
2807,-1,-7,-8,-3,-2,0,2,-4,14.035
2808,-1,-1,-3,-1,-3,-1,2,13,14.040000000000001
2809,-2,0,0,-1,-1,-3,-3,-22,14.045
2810,2,4,0,4,2,1,2,2,14.05
2811,-4,-2,2,-1,-2,3,1,-7,14.055
2812,0,1,-1,-2,-2,-1,-1,-2,14.06
2813,0,0,-2,-2,-2,0,0,4,14.065
2814,-1,2,0,-2,-3,-1,-2,0,14.07
2815,-3,-3,-4,-3,-3,-2,-4,-1,14.075000000000001
2816,1,2,2,4,1,0,0,-2,14.08
2817,3,3,-3,1,2,0,-2,4,14.085
2818,-1,-2,-3,-3,-1,-2,-4,-3,14.09
2819,-3,-7,2,5,0,-1,2,3,14.095
2820,-1,3,-2,-3,0,0,-5,-9,14.1
2821,-1,-1,10,4,2,-1,0,-8,14.105
2822,0,-5,-15,-7,-2,-3,-2,10,14.11
2823,5,3,-2,-1,-1,-3,5,4,14.115
2824,-1,-2,-1,1,1,2,2,1,14.120000000000001
2825,-3,-1,0,-1,1,1,3,2,14.125
2826,-3,-1,7,3,0,1,-6,-8,14.13
2827,-1,-2,1,0,-1,-3,-1,-1,14.135
2828,3,4,-3,-2,-2,-2,1,-3,14.14
2829,0,4,1,-2,-2,-1,-2,1,14.145
2830,-4,-5,-3,-2,-1,3,6,-2,14.15
2831,1,3,-1,0,0,-2,0,4,14.155000000000001
2832,-2,-1,0,-6,-3,-4,-2,-12,14.16
2833,0,-3,-2,-2,-1,-1,-7,1,14.165000000000001
2834,0,-1,0,0,-1,-1,-3,-2,14.17
2835,0,-3,0,0,1,4,-1,2,14.175
2836,1,1,1,0,1,4,1,2,14.18
2837,-4,-10,-6,-1,-4,-1,1,3,14.185
2838,-1,-2,3,0,0,-1,-1,2,14.19
2839,2,9,-2,0,1,0,-4,-6,14.195
2840,-1,-3,0,-2,-2,-1,-5,-12,14.200000000000001
2841,1,0,-4,-3,2,1,5,11,14.205
2842,4,6,-1,1,1,-4,1,4,14.21
2843,0,0,-1,-1,-2,-3,-2,-3,14.215
2844,-3,-7,-1,2,-2,0,-3,-1,14.22
2845,1,4,-2,-2,-5,0,0,-5,14.225
2846,-4,-2,-2,-4,-3,-1,-3,-5,14.23
2847,-1,2,0,-2,1,-1,1,0,14.235
2848,-4,-10,-4,-2,-2,-1,3,1,14.24
2849,0,1,0,-1,0,0,-2,-1,14.245000000000001
2850,-2,0,0,-1,-1,0,1,-2,14.25
2851,-3,-4,-2,-3,0,0,-2,-4,14.255
2852,3,3,1,0,0,-1,-1,3,14.26
2853,-2,-5,-1,1,-1,1,1,-1,14.265
2854,-1,0,3,2,-1,-3,-2,-1,14.27
2855,0,1,-6,-5,-1,-2,-6,-4,14.275
2856,-2,-2,-1,-1,-1,2,6,3,14.280000000000001
2857,-3,0,-5,-6,0,-1,0,0,14.285
2858,-2,-3,0,0,-2,0,-3,-7,14.290000000000001
2859,0,1,5,0,0,-2,-2,-4,14.295
2860,1,2,-1,2,-1,-2,-3,-3,14.3
2861,-3,-3,-1,-1,-1,-3,-6,-4,14.305
2862,-3,-2,0,-2,1,4,4,3,14.31
2863,1,0,-1,0,-2,-5,-8,3,14.315
2864,-3,-3,0,0,0,-4,0,5,14.32
2865,2,4,2,1,0,-3,1,-3,14.325000000000001
2866,2,6,-1,0,-3,-1,-1,-4,14.33
2867,-2,-4,1,0,0,5,3,1,14.335
2868,0,1,-1,2,-1,-1,-5,-5,14.34
2869,0,3,-2,-1,-1,-1,1,-1,14.345
2870,1,-2,-3,-2,-1,-2,-1,1,14.35
2871,0,-4,-1,0,0,0,2,0,14.355
2872,0,1,4,1,-2,-3,-1,0,14.36
2873,-4,-4,-1,-3,-1,0,-1,-3,14.365
2874,-1,-4,-5,-3,-2,-3,-4,1,14.370000000000001
2875,-2,0,-3,-1,-1,-1,3,-2,14.375
2876,-2,-1,2,-2,2,3,0,-3,14.38
2877,3,0,0,4,-1,0,-3,3,14.385
2878,1,-3,-3,-3,-1,-3,0,0,14.39
2879,-1,0,0,-3,-3,-2,-5,-4,14.395
2880,1,1,-4,-3,-1,-2,-2,1,14.4
2881,-6,-9,-2,-3,-2,2,2,-7,14.405000000000001
2882,-1,-2,0,0,0,-3,1,11,14.41
2883,-3,-4,0,1,-3,-1,1,-2,14.415000000000001
2884,0,-2,0,0,-1,-1,-1,5,14.42
2885,3,5,1,0,-1,0,-1,-2,14.425
2886,-14,-21,-7,-5,-4,-1,-4,-11,14.43
2887,-1,2,5,1,0,-1,1,2,14.435
2888,-1,0,-1,1,-1,-1,0,2,14.44
2889,-1,-1,-3,-4,-1,-3,-8,-12,14.445
2890,1,2,-1,-3,0,1,2,-1,14.450000000000001
2891,2,3,0,1,-1,-1,1,-4,14.455
2892,-2,0,-4,-7,-2,-1,-4,0,14.46
2893,0,0,6,4,0,1,1,6,14.465
2894,2,4,-2,4,-2,1,3,1,14.47
2895,-4,-2,-1,-4,-3,-2,-6,-9,14.475
2896,4,8,6,6,-1,-2,-1,8,14.48
2897,5,1,-7,-5,-1,-3,0,10,14.485
2898,2,4,3,1,1,-1,-1,8,14.49
2899,-5,-6,-3,0,-4,-2,0,-11,14.495000000000001
2900,0,-2,1,-1,-1,-2,-3,-9,14.5
2901,-1,1,-2,-2,-3,0,-4,-1,14.505
2902,7,6,7,4,3,5,12,-12,14.51
2903,0,-2,-2,-1,-1,-3,-6,24,14.515
2904,0,0,-2,-4,0,0,-3,-16,14.52
2905,0,-2,3,6,0,0,-1,3,14.525
2906,-1,-1,-6,-6,-1,-3,-2,0,14.530000000000001
2907,1,2,-2,-2,-2,-1,-1,-2,14.535
2908,-8,-14,-3,0,0,0,1,-1,14.540000000000001
2909,-4,-5,-1,0,1,0,1,6,14.545
2910,-4,0,0,1,0,0,-5,-6,14.55
2911,2,2,2,7,1,1,3,0,14.555
2912,0,-3,-4,-4,0,-3,-1,8,14.56
2913,-1,-1,0,-2,-1,-3,0,-13,14.565
2914,-1,-4,-3,-7,-3,-1,-2,5,14.57
2915,-2,0,-1,0,-1,0,0,-3,14.575000000000001
2916,-6,-7,-1,0,-1,-1,-1,-1,14.58
2917,-3,-5,-3,-3,-1,1,3,2,14.585
2918,-4,-2,0,2,1,-2,-5,-4,14.59
2919,1,-3,-6,-6,-2,-1,1,-1,14.595
2920,2,7,2,0,-2,1,0,-6,14.6
2921,-4,-4,2,2,-2,-3,-3,2,14.605
2922,-1,1,2,4,-2,0,-2,3,14.61
2923,-2,-2,-2,-2,-2,0,1,10,14.615
2924,-1,0,-1,-1,1,1,2,-18,14.620000000000001
2925,5,6,3,0,1,-2,1,0,14.625
2926,-2,1,1,2,-1,-2,-2,-6,14.63
2927,1,-3,0,3,-1,1,0,1,14.635
2928,-1,-1,-5,-5,-4,-2,1,2,14.64
2929,-2,1,-4,-3,-2,0,-1,-1,14.645
2930,-2,0,2,0,-1,-2,-3,-1,14.65
2931,0,2,-2,-4,0,-2,-1,-6,14.655000000000001
2932,-1,-4,-3,-1,-2,-5,1,6,14.66
2933,2,0,-1,0,0,0,-1,2,14.665000000000001
2934,-2,-3,0,-1,-1,-3,-3,0,14.67
2935,1,4,2,1,0,-1,-1,-5,14.675
2936,3,8,2,2,-2,1,-1,-9,14.68
2937,-7,-10,-7,-5,-3,-2,0,7,14.685
2938,-1,1,0,0,1,5,4,0,14.69
2939,-1,-1,3,0,-1,-2,-4,-2,14.695
2940,1,1,-2,0,0,-1,-5,3,14.700000000000001
2941,3,5,7,5,0,0,2,5,14.705
2942,-1,-2,-6,-3,-2,-3,-2,-13,14.71
2943,0,1,0,-2,-2,-1,1,-1,14.715
2944,-6,-5,-2,1,-1,1,1,3,14.72
2945,-5,-5,-10,-5,-2,-1,-3,-6,14.725
2946,3,2,3,1,-1,-2,-2,4,14.73
2947,-4,-2,-1,1,0,3,1,-3,14.735
2948,-4,-4,-2,1,2,-2,-6,-1,14.74
2949,0,0,1,1,-1,-1,-1,-3,14.745000000000001
2950,3,-4,-1,-3,0,0,0,10,14.75
2951,3,6,6,-1,1,-1,1,-1,14.755
2952,1,1,1,-2,-1,0,1,5,14.76
2953,-3,3,-5,-2,-1,1,-1,-16,14.765
2954,-2,0,-5,-1,-1,-2,0,4,14.77
2955,1,-2,12,0,-2,-2,-2,1,14.775
2956,-1,3,5,-2,0,4,10,4,14.780000000000001
2957,0,-4,-6,0,-1,-4,-9,-3,14.785
2958,-2,2,3,3,0,-1,-2,-3,14.790000000000001
2959,-2,-4,-1,1,1,2,0,-3,14.795
2960,-2,-2,-6,-3,-2,-3,-5,-3,14.8
2961,2,3,-8,-3,0,2,5,14,14.805
2962,0,1,-3,-1,-3,1,-1,-18,14.81
2963,1,3,3,3,-2,-2,-1,1,14.815
2964,-4,-4,-3,-2,-2,-3,-1,-6,14.82
2965,-1,3,7,1,1,-1,-4,0,14.825000000000001
2966,-4,-2,-6,-1,-1,-1,-2,-3,14.83
2967,-1,-4,-4,-4,-2,-2,2,7,14.835
2968,5,2,0,2,0,1,-1,-1,14.84
2969,-3,-4,1,-3,-2,0,2,1,14.845
2970,1,2,4,0,0,-1,-1,6,14.85
2971,-5,-3,-10,-3,-4,-1,-3,-7,14.855
2972,1,-1,-1,1,-1,-2,-3,5,14.86
2973,-2,-5,0,-5,-2,-1,1,-6,14.865
2974,-3,-2,-1,0,0,2,0,-4,14.870000000000001
2975,0,-2,-6,-7,-1,-1,-2,1,14.875
2976,0,0,2,2,-2,-2,-3,-1,14.88
2977,1,2,6,1,0,-1,6,-4,14.885
2978,-4,-3,-4,-4,-5,-3,-1,2,14.89
2979,-3,-1,-4,1,2,1,-2,-4,14.895
2980,0,0,1,-1,0,0,3,-1,14.9
2981,-2,-6,-8,-2,-3,-2,-5,-2,14.905000000000001
2982,2,0,8,1,0,-2,2,4,14.91
2983,-5,-5,1,3,-1,-1,2,10,14.915000000000001
2984,-2,-1,-3,-2,-1,0,-5,-18,14.92
2985,2,1,4,3,0,-2,-1,4,14.925
2986,1,0,-6,-2,-1,-1,1,-3,14.93
2987,0,2,-2,0,-2,0,-1,-5,14.935
2988,-3,-2,0,-2,1,-1,0,2,14.94
2989,-2,-2,-6,-3,-1,0,0,7,14.945
2990,1,-1,1,0,1,-1,-2,4,14.950000000000001
2991,3,1,-2,-2,-2,-1,0,2,14.955
2992,0,-4,-3,-1,-3,-2,2,4,14.96
2993,-1,6,3,0,-2,0,-1,-9,14.965
2994,-4,-1,0,-2,-1,-2,0,-1,14.97
2995,-2,-3,-7,-4,-2,-2,0,-5,14.975
2996,2,8,5,2,1,0,1,3,14.98
2997,-3,0,0,-1,-1,0,-2,-2,14.985
2998,0,2,0,1,-1,1,0,-1,14.99
2999,-2,0,0,1,-1,-1,-2,-4,14.995000000000001
3000,4,1,-4,-4,-1,1,-1,1,15.0
3001,1,5,1,1,-1,0,1,-1,15.005
3002,-3,0,-2,-2,0,0,-1,-3,15.01
3003,-3,-4,1,-1,0,-2,-2,-6,15.015
3004,-3,-7,-5,-1,-1,-2,1,4,15.02
3005,6,0,2,0,0,1,0,1,15.025
3006,13,2,1,2,1,0,-1,0,15.030000000000001
3007,-28,-4,-6,-1,0,0,-3,-6,15.035
3008,5,0,0,-2,-3,-1,-1,0,15.040000000000001
3009,-3,-3,-2,0,-3,-2,-1,-2,15.045
3010,1,1,2,-3,-2,-1,-2,0,15.05
3011,4,-5,1,1,-2,0,0,1,15.055
3012,-1,-1,-2,1,-2,0,0,0,15.06
3013,1,2,1,0,1,-2,1,1,15.065
3014,-6,0,1,-3,-2,-1,-2,-14,15.07
3015,7,0,0,0,0,1,0,7,15.075000000000001
3016,-7,-7,-3,-4,-1,-2,-4,-1,15.08
3017,2,-1,1,0,0,0,-1,-1,15.085
3018,-1,2,-3,0,-1,-1,2,-1,15.09
3019,2,3,-1,0,-1,-1,-1,-5,15.095
3020,-1,-1,1,2,-1,-1,-1,-3,15.1
3021,-2,2,3,2,0,1,-1,3,15.105
3022,-4,-5,-4,-2,-1,-1,-2,0,15.11
3023,-2,-6,-2,-1,-1,-1,0,-3,15.115
3024,-1,1,-2,-2,-2,-1,0,1,15.120000000000001
3025,1,0,-1,0,0,-2,-1,-5,15.125
3026,-2,-1,-1,0,-1,-1,-1,1,15.13
3027,1,-3,-3,-1,0,-3,1,0,15.135
3028,0,-1,0,1,-1,-2,-2,1,15.14
3029,1,7,-1,-2,-2,-2,-1,-1,15.145
3030,-5,-8,-2,0,-1,-1,-4,-1,15.15
3031,2,1,-3,0,1,-1,-1,-3,15.155000000000001
3032,-3,0,0,-1,-1,-1,-2,-3,15.16
3033,-3,-2,1,-2,-1,2,4,-5,15.165000000000001
3034,-2,-3,-2,0,-1,-2,-3,5,15.17
3035,2,-5,-5,-2,0,0,-2,1,15.175
3036,-4,-5,-1,-3,-2,-2,1,-1,15.18
3037,1,-2,-2,-1,0,0,-3,1,15.185
3038,3,6,3,1,0,-1,0,-3,15.19
3039,-5,-5,0,-1,-1,-2,-2,-5,15.195
3040,1,2,1,1,1,-1,2,2,15.200000000000001
3041,-2,-5,-2,-1,-1,-2,-1,-3,15.205
3042,-1,0,-1,1,1,-1,0,-3,15.21
3043,8,14,4,0,-2,-1,-2,6,15.215
3044,-2,-4,-2,0,-1,-1,-1,-3,15.22
3045,-1,-3,-3,-1,0,-1,1,0,15.225
3046,-3,-2,-2,-1,-1,1,-8,0,15.23
3047,3,5,2,0,-2,-1,8,0,15.235
3048,-4,-8,-3,-3,0,0,0,-2,15.24
3049,-1,-2,-1,-1,-2,-1,-2,-3,15.245000000000001
3050,2,4,2,-1,0,-1,3,1,15.25
3051,-2,0,0,-1,0,1,-2,-9,15.255
3052,-2,-1,-3,-3,-1,1,-1,6,15.26
3053,2,-1,-3,0,0,-1,-2,7,15.265
3054,-2,-2,-3,-2,-1,-2,-3,0,15.27
3055,0,0,3,2,0,-1,2,2,15.275
3056,3,4,1,-3,0,-3,-2,-4,15.280000000000001
3057,-2,-2,0,0,1,0,-1,0,15.285
3058,-4,-3,-3,-1,-2,-1,-2,0,15.290000000000001
3059,-1,1,-2,-3,-1,0,-2,-4,15.295
3060,-2,-3,-2,0,-3,-1,-2,-2,15.3
3061,-2,-4,0,-1,-1,0,-2,-3,15.305
3062,1,0,-1,0,-1,0,1,0,15.31
3063,-2,-6,-3,-1,0,-3,-2,-1,15.315
3064,-1,1,-1,-2,1,-1,-3,1,15.32
3065,2,6,0,-2,-2,-2,0,0,15.325000000000001
3066,1,2,1,0,0,-1,-1,-7,15.33
3067,0,-3,-1,-1,-1,0,2,6,15.335
3068,2,0,0,1,0,-3,0,4,15.34
3069,1,5,1,-1,0,-1,-5,-6,15.345
3070,0,-4,-2,-1,-2,1,2,5,15.35
3071,-2,0,-3,1,1,0,3,2,15.355
3072,-2,4,5,0,-2,0,0,-1,15.36
3073,-3,-4,-4,-1,-1,-1,0,-3,15.365
3074,-2,-4,2,-2,-1,-3,-2,-5,15.370000000000001
3075,2,4,0,0,-1,0,-2,0,15.375
3076,5,1,-6,1,-1,-3,-2,2,15.38
3077,-9,-2,-2,-1,0,-2,-4,-5,15.385
3078,-1,-1,-2,-3,-4,-1,0,-3,15.39
3079,-4,-5,2,0,1,2,-1,-2,15.395
3080,1,4,2,1,-1,0,-2,-2,15.4
3081,-3,-8,-5,-3,-2,0,4,1,15.405000000000001
3082,-1,-2,-3,-2,-1,-1,-1,1,15.41
3083,-3,2,-1,-3,-2,-1,-1,-1,15.415000000000001
3084,-4,1,-4,1,0,1,-2,-6,15.42
3085,-1,-2,10,1,-2,-1,-3,-4,15.425
3086,-3,-6,-10,-3,-1,-1,1,4,15.43
3087,5,-1,5,-3,-1,-2,0,6,15.435
3088,0,-3,1,2,-2,1,0,2,15.44
3089,-1,-2,-2,0,1,-1,0,3,15.445
3090,0,0,1,-1,-1,-2,-1,-4,15.450000000000001
3091,-1,2,1,0,0,-2,-9,-6,15.455
3092,-3,-5,-6,-4,-1,-2,0,-2,15.46
3093,3,5,2,3,0,-1,3,1,15.465
3094,0,2,1,3,-1,0,-4,1,15.47
3095,2,-6,-4,0,1,-1,3,0,15.475
3096,3,2,2,-3,-1,1,0,1,15.48
3097,-2,-4,-2,0,0,-1,-3,-3,15.485000000000001
3098,-10,-4,-4,-3,1,1,3,0,15.49
3099,-5,1,-2,0,-1,-1,-4,-3,15.495000000000001
3100,10,4,2,1,-1,-3,-4,-2,15.5
3101,-9,-3,-3,-2,-1,-2,2,-2,15.505
3102,1,-6,-6,-5,-5,-7,-4,-1,15.51
3103,2,-4,3,-3,-5,0,-1,-9,15.515
3104,-11,-1,-7,-1,0,-1,-1,5,15.52
3105,8,1,8,3,0,0,-5,5,15.525
3106,3,2,3,2,2,2,14,2,15.530000000000001
3107,-2,3,-4,-3,-2,0,-4,-2,15.535
3108,7,3,-3,-2,0,0,2,-4,15.540000000000001
3109,-2,0,-8,-4,-2,-2,-3,-1,15.545
3110,0,6,4,3,3,1,-2,1,15.55
3111,-1,-5,-5,-2,0,-3,-1,-3,15.555
3112,1,6,1,-3,-3,0,-1,-1,15.56
3113,-2,-3,-4,-1,0,0,-1,-1,15.565
3114,1,-2,1,-1,-1,0,0,-2,15.57
3115,0,0,1,3,1,0,-1,6,15.575000000000001
3116,-6,-7,0,-1,-1,0,0,-4,15.58
3117,-1,-8,6,-1,0,-1,1,-4,15.585
3118,-4,-1,-9,1,-3,-1,-4,-12,15.59
3119,2,1,3,0,-3,-3,-4,12,15.595
3120,-2,-1,2,0,0,1,5,3,15.6
3121,8,2,-4,-3,-4,-2,0,2,15.605
3122,8,0,3,0,3,2,1,1,15.610000000000001
3123,-17,8,-3,0,0,-1,-7,-12,15.615
3124,-11,-15,-6,0,-1,-2,-11,-6,15.620000000000001
3125,-6,-5,0,-3,0,-3,-5,-2,15.625
3126,7,-4,6,0,-2,-1,0,1,15.63
3127,0,-3,-6,-2,1,1,9,1,15.635
3128,10,6,4,-1,-3,1,1,2,15.64
3129,1,8,0,0,0,0,-1,-2,15.645
3130,3,-6,-8,-3,1,-3,-6,3,15.65
3131,-3,-1,12,3,3,2,1,-1,15.655000000000001
3132,-7,-1,0,4,2,3,3,-1,15.66
3133,-1,-4,-8,-2,0,2,2,-1,15.665000000000001
3134,-1,5,-1,0,-1,0,0,1,15.67
3135,22,1,-4,-3,-2,-3,-2,-2,15.675
3136,-24,-2,0,-6,-5,-1,1,-4,15.68
3137,-1,-7,-5,-1,0,-3,-4,-1,15.685
3138,-21,-3,1,0,1,-3,-4,-2,15.69
3139,3,-2,-3,-4,-2,3,12,7,15.695
3140,-7,-14,-7,-9,-6,1,8,-7,15.700000000000001
3141,26,8,13,7,-19,-6,-2,5,15.705
3142,4,-5,-6,2,23,-1,-37,-18,15.71
3143,-23,-7,-5,1,-12,-8,3,10,15.715
3144,-15,0,-2,0,31,12,3,-7,15.72
3145,-11,-8,-7,-23,-16,-2,12,12,15.725
3146,17,8,11,4,-9,-5,-15,-12,15.73
3147,6,-1,-17,-7,9,-5,-19,-11,15.735000000000001
3148,24,0,3,-1,-8,-4,5,12,15.74
3149,-15,0,0,13,11,7,15,1,15.745000000000001
3150,-18,-1,-1,-8,-14,1,24,13,15.75
3151,-3,-5,5,-1,-1,0,-23,-19,15.755
3152,-5,-2,-2,2,-6,-2,-8,-11,15.76
3153,23,3,-4,-4,-1,4,4,11,15.765
3154,-5,-6,1,5,-3,0,13,-6,15.77
3155,-23,3,0,-11,-1,-3,-8,8,15.775
3156,35,1,-2,-13,-10,-7,-6,-6,15.780000000000001
3157,-46,1,2,11,5,-2,-19,-23,15.785
3158,10,-8,-5,5,-2,-3,-1,20,15.790000000000001
3159,21,3,3,-9,3,1,14,12,15.795
3160,-29,4,-1,5,1,0,-8,-12,15.8
3161,8,-2,-5,0,1,-2,-4,0,15.805
3162,-7,-1,-2,-6,-6,2,8,0,15.81
3163,2,-5,-4,-1,-3,1,6,0,15.815
3164,-3,-7,0,-7,-12,-7,-2,6,15.82
3165,-1,1,9,24,-3,2,3,-6,15.825000000000001
3166,10,9,-5,5,28,6,-1,6,15.83
3167,10,5,0,0,-6,-2,-4,-7,15.835
3168,-12,8,2,1,6,6,22,3,15.84
3169,-2,-14,-13,-18,-12,-5,-14,-10,15.845
3170,15,1,2,7,-9,-7,-28,-2,15.85
3171,1,-1,2,1,4,0,3,2,15.855
3172,1,-2,-3,-1,-4,-1,16,23,15.860000000000001
3173,-15,4,2,-15,-4,1,7,-13,15.865
3174,-2,5,7,6,-11,-1,16,24,15.870000000000001
3175,-23,-8,-1,8,3,-6,-17,-32,15.875
3176,-3,-11,1,34,23,3,-18,-10,15.88
3177,23,16,2,-11,9,6,12,12,15.885
3178,-10,-1,-9,-10,1,-2,7,-15,15.89
3179,36,-3,6,2,-27,-9,4,20,15.895
3180,-53,-4,-3,20,32,6,-13,-9,15.9
3181,-2,2,-4,0,4,-3,-5,-1,15.905000000000001
3182,2,-5,-5,-8,-1,6,11,-3,15.91
3183,-17,7,3,4,-10,4,18,3,15.915000000000001
3184,42,4,1,-26,-23,-12,-7,16,15.92
3185,-2,-2,-3,15,15,3,-8,-4,15.925
3186,-2,-3,-3,-8,-3,-3,-6,-13,15.93
3187,-2,7,-1,1,4,2,2,-4,15.935
3188,-9,7,5,6,-4,3,6,-2,15.94
3189,13,5,2,-1,-3,-2,0,11,15.945
3190,-15,-9,-3,-14,-9,-9,-7,-8,15.950000000000001
3191,-13,3,-5,-4,1,0,-4,8,15.955
3192,16,8,0,-3,4,2,1,1,15.96
3193,-6,-16,2,-1,-7,-5,0,-6,15.965
3194,0,-3,7,10,-1,4,-2,3,15.97
3195,8,-4,-5,-15,-5,-2,8,2,15.975
3196,-3,-1,-6,-6,-5,-3,-14,-11,15.98
3197,-7,-4,-5,-7,-3,1,-5,-6,15.985000000000001
3198,-8,2,4,19,1,-2,-2,-1,15.99
3199,16,-2,2,-11,-1,9,8,1,15.995000000000001
3200,31,-3,-4,-14,-9,-7,12,3,16.0
3201,-55,-18,-8,0,3,-9,-32,-17,16.005
3202,5,-2,-1,4,-2,-1,-7,-6,16.01
3203,2,-4,-4,3,-3,1,3,6,16.015
3204,6,4,4,4,3,4,8,-5,16.02
3205,37,12,5,-9,-16,-7,2,11,16.025
3206,-24,1,0,0,16,3,2,3,16.03
3207,3,-8,-7,0,-9,-4,-5,-5,16.035
3208,7,-2,12,8,4,3,-4,-10,16.04
3209,12,13,-9,-12,-3,1,3,1,16.045
3210,-3,-9,-1,0,-8,-8,-7,-2,16.05
3211,-34,-13,-1,-4,2,-3,3,0,16.055
3212,-1,0,-8,-10,-12,-7,-7,-1,16.06
3213,4,1,2,-2,-2,2,9,5,16.065
3214,11,2,0,3,-1,5,7,-3,16.07
3215,5,10,2,1,4,1,-9,-3,16.075
3216,-9,-4,-1,-4,-4,-4,-1,6,16.080000000000002
3217,29,6,5,15,10,1,0,4,16.085
3218,-10,6,-2,-6,-8,-4,1,2,16.09
3219,-13,-2,-4,-1,3,-1,-10,-11,16.095
3220,-32,0,1,-9,-27,-5,13,7,16.1
3221,27,0,8,34,32,5,-15,-15,16.105
3222,5,2,-10,-18,6,3,5,13,16.11
3223,-18,0,3,11,8,3,-2,-7,16.115000000000002
3224,3,-15,-7,-12,-10,-3,-10,-9,16.12
3225,-14,-8,-2,-9,-7,-1,8,0,16.125
3226,8,5,1,0,-3,-2,-1,-2,16.13
3227,39,0,-2,0,3,-3,-2,12,16.135
3228,-57,-2,-1,14,11,2,0,-5,16.14
3229,-1,3,0,-11,-13,-4,5,2,16.145
3230,-9,-9,3,1,-8,0,1,-2,16.15
3231,11,7,0,1,16,2,-6,-9,16.155
3232,35,9,12,34,6,-1,10,15,16.16
3233,-14,-13,-15,-7,-1,1,1,4,16.165
3234,-14,-11,-8,-6,-3,-6,-13,-7,16.17
3235,-4,-2,2,6,-3,-1,3,-4,16.175
3236,19,8,1,-13,-3,-2,-7,-4,16.18
3237,-17,1,3,0,3,0,3,2,16.185
3238,47,6,4,-4,-5,4,17,9,16.19
3239,-49,-3,6,9,-1,-1,5,7,16.195
3240,-5,9,7,-9,-17,-4,-7,-6,16.2
3241,13,1,4,32,42,9,-3,-10,16.205000000000002
3242,-14,-1,-8,-2,2,-4,-13,-7,16.21
3243,8,3,0,3,6,2,4,3,16.215
3244,-5,-16,-11,-14,-11,-1,12,8,16.22
3245,-26,2,3,-11,-26,-6,0,8,16.225
3246,12,-2,2,10,14,2,-6,-14,16.23
3247,7,-3,3,10,1,-3,-8,-5,16.235
3248,-3,0,0,3,2,0,-5,0,16.240000000000002
3249,25,3,2,-11,-9,1,6,9,16.245
3250,-24,1,-4,-27,-10,-2,12,7,16.25
3251,4,4,4,14,-8,2,4,-17,16.255
3252,9,-10,-7,-6,8,-4,-23,-11,16.26
3253,-2,-11,-4,14,7,-1,-7,4,16.265
3254,4,-1,5,-9,-6,2,10,15,16.27
3255,-13,-2,-5,-24,-18,-4,4,-13,16.275
3256,3,7,-2,3,6,-1,-10,-6,16.28
3257,0,-17,-14,-15,1,-2,-2,3,16.285
3258,-4,-6,5,13,-13,0,3,-4,16.29
3259,15,3,-1,-33,-15,0,17,20,16.295
3260,-2,-19,-18,-4,8,-5,-13,-13,16.3
3261,-8,8,13,43,3,-4,-17,-18,16.305
3262,-2,-10,-14,-26,6,4,3,0,16.31
3263,4,-7,-6,-6,-9,-3,-8,-11,16.315
3264,-9,-2,2,-3,-8,0,-1,5,16.32
3265,7,4,-3,-26,-3,0,12,8,16.325
3266,9,9,11,16,-9,1,6,0,16.330000000000002
3267,0,7,-4,3,14,-2,-12,-6,16.335
3268,8,1,1,-3,-1,2,9,9,16.34
3269,-21,-3,0,4,-1,-1,-4,-3,16.345
3270,1,14,4,-12,-7,2,16,5,16.35
3271,-5,-14,0,7,-6,-5,-11,2,16.355
3272,28,9,1,32,32,8,6,0,16.36
3273,-26,4,0,-11,-13,-5,11,12,16.365000000000002
3274,-26,-6,-19,-26,-3,-8,-31,-29,16.37
3275,6,-1,-3,19,15,1,-8,-7,16.375
3276,15,1,7,-4,-7,1,11,3,16.38
3277,5,13,-1,-8,-6,1,2,0,16.385
3278,2,-12,-3,4,0,-6,-10,-4,16.39
3279,-25,2,3,-2,-8,-4,1,4,16.395
3280,10,-8,-2,-5,-3,-2,1,0,16.4
3281,11,-16,-4,11,7,10,22,6,16.405
3282,-12,23,18,28,-15,-8,-22,-11,16.41
3283,6,3,-6,-3,43,9,11,15,16.415
3284,27,-8,-13,3,-3,-3,7,16,16.42
3285,-34,1,-2,-5,3,0,-17,-27,16.425
3286,7,-13,-2,1,3,0,-7,-8,16.43
3287,4,4,4,3,-14,-5,2,5,16.435
3288,-19,6,6,-13,-9,0,1,-2,16.44
3289,5,-6,-6,-13,-6,-4,-3,-2,16.445
3290,4,0,0,14,4,-1,7,2,16.45
3291,-6,3,9,-3,-1,-5,-11,-6,16.455000000000002
3292,-12,5,12,-4,0,5,5,-9,16.46
3293,25,-11,-44,-12,-14,-6,-11,26,16.465
3294,12,6,-5,2,9,0,4,12,16.47
3295,4,-8,-4,2,-3,-9,-1,1,16.475
3296,-14,3,8,0,-1,-4,-2,0,16.48
3297,-3,16,22,7,2,12,-12,-17,16.485
3298,-11,-15,-16,-9,1,1,10,-4,16.490000000000002
3299,1,-3,-1,0,-3,5,5,0,16.495
3300,1,10,1,7,-2,-6,-9,6,16.5
3301,4,12,9,-10,-2,-3,3,-8,16.505
3302,7,3,7,8,-10,3,13,16,16.51
3303,18,-3,-3,3,15,0,-11,-9,16.515
3304,-11,-5,-9,-7,2,-5,-14,-8,16.52
3305,1,1,1,-5,-5,-3,4,1,16.525
3306,-6,0,5,1,4,3,0,-6,16.53
3307,2,3,3,3,-11,-1,6,1,16.535
3308,-1,-3,-5,-3,-4,-2,-2,9,16.54
3309,-4,-4,0,-1,3,-3,-2,-13,16.545
3310,9,10,7,3,2,1,1,2,16.55
3311,-3,-4,-3,-1,-2,6,6,2,16.555
3312,-8,-6,-1,-1,3,-4,-6,-5,16.56
3313,-2,-7,5,-1,-4,-5,0,-8,16.565
3314,-1,0,-2,-5,0,-2,-1,0,16.57
3315,0,8,-2,-6,-11,-3,-5,-2,16.575
3316,-7,-4,-3,6,12,5,2,5,16.580000000000002
3317,2,-3,4,2,-3,-2,7,5,16.585
3318,-8,8,7,3,5,5,-2,-1,16.59
3319,-8,-12,-12,-7,-7,-11,-14,-18,16.595
3320,13,-4,-4,-4,-9,-3,0,2,16.6
3321,-2,-10,-4,-5,0,0,-6,11,16.605
3322,-4,-14,-19,0,3,-3,2,-1,16.61
3323,-13,-5,0,-1,-1,23,8,-10,16.615000000000002
3324,5,35,14,4,-4,-14,-6,4,16.62
3325,14,4,-6,-3,2,15,7,12,16.625
3326,-9,-12,-12,-7,-2,-11,-8,-11,16.63
3327,-2,-8,10,5,1,-3,8,14,16.635
3328,-7,-21,3,5,-2,-15,-3,-6,16.64
3329,-8,42,2,-7,-6,0,-13,-11,16.645
3330,-6,-55,-17,-3,3,7,4,7,16.65
3331,4,7,25,5,2,-5,-1,-6,16.655
3332,7,15,17,3,0,6,5,4,16.66
3333,-7,-10,-13,0,-3,-9,0,-11,16.665
3334,-4,27,0,1,0,-2,0,7,16.67
3335,10,-16,-32,-5,-2,0,-3,31,16.675
3336,-13,-47,-34,-13,-10,-8,-9,-32,16.68
3337,11,5,65,11,4,8,5,17,16.685
3338,27,55,-7,10,8,14,2,-9,16.69
3339,-28,-25,20,-2,-1,-5,-5,-11,16.695
3340,-1,5,-4,-1,-4,5,4,11,16.7
3341,-19,-18,-99,-6,4,3,8,-31,16.705000000000002
3342,0,-20,-12,-1,-2,-3,-8,26,16.71
3343,8,33,104,27,-5,-18,-1,7,16.715
3344,4,-6,-13,-6,-5,16,-14,-14,16.72
3345,19,-11,-28,-25,-2,-8,3,-3,16.725
3346,-4,21,-15,-2,2,-5,-3,-21,16.73
3347,-2,12,-58,-8,2,5,1,-11,16.735
3348,-8,-7,4,9,0,-7,-5,15,16.740000000000002
3349,-4,13,65,26,-1,-1,7,-1,16.745
3350,-5,-6,18,-7,-5,-2,1,0,16.75
3351,-5,-3,-18,-5,0,-8,-8,-9,16.755
3352,-16,-33,-18,-7,-3,7,9,-6,16.76
3353,23,8,53,-2,-2,2,2,28,16.765
3354,-2,-8,-14,-7,-3,-7,-7,-8,16.77
3355,7,18,2,-10,3,8,2,3,16.775
3356,2,49,94,15,8,4,5,-9,16.78
3357,-11,-26,-96,8,-6,-4,-3,-2,16.785
3358,-2,-23,84,-14,-9,-8,-4,3,16.79
3359,5,-6,-109,-10,-1,1,-3,0,16.795
3360,11,26,-16,8,12,8,10,23,16.8
3361,-5,-25,9,2,1,-12,-11,-23,16.805
3362,0,12,85,-1,-6,11,3,12,16.81
3363,-9,-14,-94,-3,-4,-4,-1,-13,16.815
3364,3,-10,-19,-18,-5,-5,1,-5,16.82
3365,3,21,57,15,5,1,3,4,16.825
3366,-3,7,-66,4,2,-3,-3,0,16.830000000000002
3367,11,-5,3,-8,1,4,2,10,16.835
3368,-2,-3,23,5,-3,2,-2,0,16.84
3369,-9,-11,-39,-9,-1,-5,-6,-5,16.845
3370,4,7,12,-3,0,-2,0,-2,16.85
3371,1,4,27,5,-1,1,1,-2,16.855
3372,2,3,-17,-9,-6,-4,0,-4,16.86
3373,-1,-6,-19,-12,0,0,-2,8,16.865000000000002
3374,-3,-8,12,5,1,0,1,-8,16.87
3375,4,9,33,8,0,-1,-2,1,16.875
3376,-1,-7,-35,-15,-3,-2,-2,-2,16.88
3377,-2,9,0,-1,-2,1,-1,0,16.885
3378,-2,8,-8,12,5,2,-1,-8,16.89
3379,-5,-28,42,-8,-7,-5,-2,1,16.895
3380,-1,-5,-73,-6,-4,0,2,-7,16.9
3381,-10,-3,43,-2,-4,-3,-3,5,16.905
3382,4,-12,-43,-2,1,0,3,2,16.91
3383,1,10,12,0,2,4,1,-4,16.915
3384,0,2,12,4,0,0,-2,-6,16.92
3385,-2,1,-21,-9,0,-2,1,3,16.925
3386,2,6,16,9,1,-4,-4,-11,16.93
3387,0,-9,-4,-2,-3,0,3,2,16.935
3388,-6,1,33,3,-3,-1,-3,-1,16.94
3389,4,-4,5,14,0,-3,-1,-3,16.945
3390,2,-1,6,-15,-1,-1,1,9,16.95
3391,1,2,-10,-5,1,1,-1,-5,16.955000000000002
3392,3,11,-14,-5,2,2,4,-1,16.96
3393,-3,-10,4,-1,1,0,-3,2,16.965
3394,-2,-4,-22,7,0,-2,-1,-5,16.97
3395,-1,-7,-5,-7,-2,0,-2,1,16.975
3396,-3,-3,21,0,-2,1,2,0,16.98
3397,-2,5,18,1,-1,-1,4,5,16.985
3398,-7,-29,-33,-5,-4,-3,-7,0,16.990000000000002
3399,0,11,13,5,3,-4,-9,-12,16.995
3400,-2,-5,2,-2,-2,-1,-3,0,17.0
3401,-1,-1,-13,-11,-2,0,0,-5,17.005
3402,2,5,0,2,-1,-2,3,4,17.01
3403,1,11,13,3,-2,-1,3,1,17.015
3404,-1,-4,2,0,-2,0,1,2,17.02
3405,-1,-6,-24,-7,1,1,2,4,17.025
3406,4,4,6,-1,1,0,2,3,17.03
3407,-3,0,9,10,1,1,0,1,17.035
3408,-1,-4,-4,4,-2,-4,-1,-1,17.04
3409,-2,2,2,1,0,-1,-3,-6,17.045
3410,0,0,12,-3,-1,0,0,0,17.05
3411,-2,-5,-24,-9,-2,0,2,-3,17.055
3412,0,-1,2,8,-1,-2,0,-4,17.06
3413,0,0,4,-2,0,1,-4,-4,17.065
3414,-4,0,-6,-2,-2,-9,-10,0,17.07
3415,-6,-7,3,4,0,-1,0,4,17.075
3416,4,4,1,-2,0,-1,-2,-4,17.080000000000002
3417,2,-1,-7,-9,-3,-1,1,13,17.085
3418,1,3,1,6,1,3,-1,-5,17.09
3419,0,-1,10,-3,-2,-1,-1,5,17.095
3420,-4,-1,0,2,0,-2,-2,-2,17.1
3421,-3,-3,-1,1,-1,-4,-2,-9,17.105
3422,3,7,4,2,2,3,2,0,17.11
3423,-1,-7,-14,-7,0,-1,0,-2,17.115000000000002
3424,-1,1,18,-1,2,2,0,0,17.12
3425,2,5,-3,1,1,-1,-1,-1,17.125
3426,-1,-1,4,1,0,-3,1,-1,17.13
3427,-1,4,30,0,-3,0,-2,-1,17.135
3428,-3,-14,-63,-12,-2,1,-1,-3,17.14
3429,1,0,7,1,0,0,-1,2,17.145
3430,-1,-3,-6,0,-1,-1,0,-1,17.150000000000002
3431,3,11,11,2,0,0,0,0,17.155
3432,-2,1,9,2,1,-3,-1,3,17.16
3433,0,-1,4,2,-1,-1,-2,-7,17.165
3434,0,-3,-13,-10,-1,0,-1,-2,17.17
3435,2,6,0,3,-1,-2,-2,1,17.175
3436,-2,-1,13,3,0,3,2,-1,17.18
3437,-2,0,-3,-3,0,-1,-3,-11,17.185
3438,-2,-6,-5,-5,-2,-6,1,12,17.19
3439,0,-6,-4,0,-2,-1,-2,1,17.195
3440,-1,1,-1,-4,-2,-2,1,3,17.2
3441,2,7,8,3,1,0,2,-3,17.205000000000002
3442,0,3,-4,-1,-2,2,4,-6,17.21
3443,-2,-1,-5,-1,-2,-3,-9,0,17.215
3444,-6,-7,-2,0,-3,-4,-2,-4,17.22
3445,-2,-1,0,-2,0,2,1,0,17.225
3446,0,3,5,-1,0,2,0,-4,17.23
3447,-5,-19,-15,-2,1,2,5,0,17.235
3448,0,1,7,1,-1,-1,-4,-4,17.240000000000002
3449,0,0,-1,-2,-3,-1,-3,2,17.245
3450,-2,0,1,7,0,0,-1,-1,17.25
3451,-2,3,-1,-3,0,0,0,-3,17.255
3452,-2,-4,-7,-7,-1,-2,-3,0,17.26
3453,-3,-4,-1,1,-1,1,0,0,17.265
3454,1,-4,-3,1,0,0,-1,0,17.27
3455,-1,2,4,4,2,0,0,-2,17.275000000000002
3456,2,0,1,0,-2,-1,-1,-1,17.28
3457,2,5,-3,-1,-2,-2,-1,2,17.285
3458,0,-24,-4,-4,0,-1,-2,-5,17.29
3459,1,-5,-2,-2,-2,-4,1,-1,17.295
3460,1,2,1,-1,1,1,-1,1,17.3
3461,-1,7,-2,-1,-2,-1,-2,-12,17.305
3462,0,13,2,0,0,0,-1,8,17.31
3463,0,3,5,4,1,1,3,1,17.315
3464,2,3,-3,2,0,-3,1,0,17.32
3465,-2,-10,-20,-4,-4,-2,-1,3,17.325
