slno,emg1,emg2,emg3,emg4,emg5,emg6,emg7,emg8,Time
0,0,-2,0,-1,1,-1,-1,-1,0.0
1,0,-2,-1,-1,-1,-1,0,-1,0.005
2,0,-1,-1,0,-3,-2,-1,1,0.01
3,1,-1,-2,0,-1,0,-3,0,0.015
4,-2,1,-1,-1,0,0,-1,-1,0.02
5,-1,0,-1,-1,1,-1,-1,-1,0.025
6,-1,-1,-1,-1,0,-1,-2,-2,0.03
7,1,0,0,-2,-3,-2,2,-2,0.035
8,-1,-1,-2,-1,0,-1,-1,0,0.04
9,-2,0,-2,-1,0,-2,-2,-1,0.045
10,-1,0,1,0,-1,0,1,0,0.05
11,-1,0,0,-1,1,-2,-1,-2,0.055
12,-1,-2,-2,-1,-1,-1,0,-2,0.06
13,0,0,0,-1,0,0,-1,-2,0.065
14,0,0,-1,0,2,-3,0,-1,0.07
15,0,-2,0,-2,-2,-2,0,0,0.075
16,1,1,0,0,-1,-2,-1,0,0.08
17,0,-1,-2,0,-3,0,0,0,0.085
18,0,-1,-2,-3,1,0,-1,-2,0.09
19,-1,1,-2,0,0,0,0,-1,0.095
20,-1,0,1,0,0,0,-1,-1,0.1
21,-2,-1,-1,-1,-1,-1,-1,-1,0.105
22,-1,0,-1,-2,-1,0,-1,0,0.11
23,-2,-1,-3,0,0,0,-1,0,0.115
24,0,0,-1,-1,0,1,0,0,0.12
25,0,0,-1,-1,-4,-1,0,-1,0.125
26,-1,-1,-1,0,-2,-1,0,0,0.13
27,-3,-2,-1,0,-1,0,-2,-2,0.135
28,0,-2,-2,-1,0,-2,0,-1,0.14
29,0,-1,-1,1,1,0,-3,-2,0.145
30,-1,-1,-1,0,-3,0,-1,-1,0.15
31,-2,0,-1,-1,0,-1,0,-2,0.155
32,-1,0,-1,-1,-1,-1,-1,0,0.16
33,-2,-1,-1,-2,0,-1,0,-1,0.165
34,0,0,0,-2,0,1,-1,-2,0.17
35,1,0,-1,-1,-1,0,-3,1,0.17500000000000002
36,0,-2,-2,0,-1,0,0,-1,0.18
37,-1,0,-1,0,-1,-1,-2,1,0.185
38,0,-2,-3,-2,0,-1,1,-1,0.19
39,0,-1,-3,-3,-1,-3,0,-1,0.195
40,-2,-1,1,-1,1,-1,-2,0,0.2
41,0,-1,0,-1,-1,-2,-1,-2,0.20500000000000002
42,-1,-1,-1,0,0,-1,0,0,0.21
43,0,-1,-1,-2,-1,-1,-2,-2,0.215
44,0,-1,-1,-1,-3,0,-1,1,0.22
45,-1,0,-1,0,-1,1,-1,0,0.225
46,-1,0,-1,0,0,-1,-1,-1,0.23
47,0,1,-1,0,-1,-2,0,0,0.23500000000000001
48,-1,1,0,-1,-2,1,0,-1,0.24
49,0,-1,0,-3,-1,-2,1,-1,0.245
50,0,0,-2,0,0,0,-2,1,0.25
51,0,0,1,-1,1,1,-1,-1,0.255
52,0,0,-2,1,-1,-2,-3,-2,0.26
53,0,-1,-3,-1,0,-1,-1,0,0.265
54,-1,-2,2,-1,-1,0,0,1,0.27
55,-2,-2,0,-2,0,-2,0,1,0.275
56,0,-1,-1,-1,0,0,0,0,0.28
57,-1,-1,-2,0,-1,2,0,0,0.28500000000000003
58,0,0,-1,0,-1,-2,-1,-2,0.29
59,-2,-1,-1,0,-1,0,-2,-1,0.295
60,-1,-1,1,-2,-1,-1,-1,-1,0.3
61,0,-2,-1,-1,0,-3,-1,-1,0.305
62,1,0,-1,0,-3,1,1,-2,0.31
63,0,0,0,0,-1,-1,1,1,0.315
64,-1,0,-2,0,1,-2,-1,-1,0.32
65,0,0,-1,-1,-1,0,0,-1,0.325
66,-2,-2,-1,-2,-2,-3,-2,-2,0.33
67,-2,-2,-2,0,-2,0,0,-1,0.335
68,-2,-1,0,0,-1,-1,1,-1,0.34
69,-1,0,0,-1,1,0,0,-1,0.34500000000000003
70,0,-1,0,-1,-1,0,-2,0,0.35000000000000003
71,1,0,0,-1,-2,-1,-1,-1,0.355
72,-1,-2,-1,-1,-2,-1,0,-1,0.36
73,-1,-3,-2,-1,-2,-1,-1,-1,0.365
74,-2,-1,0,-1,1,-2,-1,-2,0.37
75,0,-1,-1,-1,0,0,-1,-1,0.375
76,0,-1,1,0,-1,0,1,2,0.38
77,-1,-1,-2,-1,-1,-1,0,-1,0.385
78,-2,-3,-1,-2,0,1,-1,0,0.39
79,1,-1,-1,-1,-1,-1,0,-1,0.395
80,0,-1,-1,-2,1,-1,-2,0,0.4
81,-2,-1,0,0,-1,0,-2,-1,0.405
82,0,1,-1,-1,-1,-2,-1,-1,0.41000000000000003
83,-1,0,0,0,-1,0,0,-1,0.41500000000000004
84,1,-2,0,-1,0,0,0,-2,0.42
85,0,-2,-1,-2,0,0,-2,-1,0.425
86,-1,1,-1,0,0,0,-1,0,0.43
87,-2,0,0,0,0,1,-1,-1,0.435
88,0,0,-3,-1,-3,0,-1,-1,0.44
89,1,-1,0,-1,-3,-1,0,0,0.445
90,0,-3,-1,-1,-1,-2,-1,1,0.45
91,0,0,-2,-2,0,-2,-1,-1,0.455
92,-2,0,-1,0,-2,0,-1,-1,0.46
93,-2,0,-1,0,-2,0,-1,-2,0.465
94,-1,-1,-3,-2,0,1,0,-1,0.47000000000000003
95,-2,-1,-2,0,0,-2,0,-2,0.47500000000000003
96,0,-1,-2,0,0,-1,-1,-3,0.48
97,2,0,0,-1,-3,1,0,-1,0.485
98,0,0,-1,-2,-1,-1,-1,0,0.49
99,-2,-2,-2,-1,-3,2,-1,-1,0.495
100,-2,-3,-1,-2,-1,-2,-1,-2,0.5
101,0,-1,0,-1,0,-1,-1,0,0.505
102,-1,1,-1,0,0,-3,-1,-1,0.51
103,-1,1,0,1,-1,-1,-1,-1,0.515
104,-2,0,-1,-2,-1,0,0,0,0.52
105,-1,0,-1,0,-1,0,0,0,0.525
106,0,-1,0,0,-2,-2,0,-1,0.53
107,1,-1,0,-1,-1,-1,0,-1,0.535
108,0,-2,1,-1,-3,-3,0,-2,0.54
109,0,0,0,-1,0,-3,0,-2,0.545
110,-1,-1,-2,-1,-2,-1,0,1,0.55
111,0,1,0,-1,3,-1,1,0,0.555
112,-2,0,0,1,1,0,-1,1,0.56
113,0,0,-1,0,-1,0,-1,-2,0.5650000000000001
114,0,-1,-1,1,0,1,0,-1,0.5700000000000001
115,2,-2,0,-2,1,-2,-1,-2,0.5750000000000001
116,0,-1,-3,-3,-1,0,-2,0,0.58
117,-1,-1,-2,-1,0,-3,-1,-1,0.585
118,1,0,2,-1,0,-1,-1,-1,0.59
119,-1,0,-1,1,0,0,-1,0,0.595
120,0,0,-1,0,1,-2,-1,-1,0.6
121,-1,-1,-1,-2,0,0,-2,1,0.605
122,-2,0,-3,-1,-3,0,-2,0,0.61
123,-2,0,-2,0,-2,-2,0,0,0.615
124,1,-1,-2,1,-1,0,-1,-1,0.62
125,0,-1,-1,-1,0,0,-1,0,0.625
126,-2,-3,0,-1,1,-1,1,-1,0.63
127,-1,-1,-1,-1,-2,-2,-1,0,0.635
128,-1,1,0,0,-1,-1,0,0,0.64
129,-1,0,-1,-1,0,-2,0,-1,0.645
130,-1,-1,-1,0,1,-1,-1,-2,0.65
131,-1,-1,-2,-3,-1,-1,-2,-1,0.655
132,0,0,-1,1,0,-3,-2,0,0.66
133,-1,0,-2,-1,-1,0,-1,0,0.665
134,0,-1,-1,-2,0,0,0,-1,0.67
135,0,-1,-2,1,-3,-2,-1,-1,0.675
136,-1,0,0,-2,-1,1,0,1,0.68
137,-2,-1,0,0,-1,-2,1,-2,0.685
138,-1,-1,-2,0,-1,0,-1,1,0.6900000000000001
139,0,0,-1,-1,-2,0,0,0,0.6950000000000001
140,-1,-3,-1,-1,0,0,-1,-1,0.7000000000000001
141,0,0,-2,0,0,0,-1,-1,0.705
142,-1,0,0,-1,-2,-1,-1,-2,0.71
143,-1,-1,-1,-2,0,1,0,0,0.715
144,-2,-1,-1,-1,0,-3,-2,-2,0.72
145,1,-2,-1,0,0,0,0,-1,0.725
146,-1,1,-2,0,-1,-1,-3,-1,0.73
147,-1,0,-1,-1,-1,1,0,-1,0.735
148,0,-1,0,-2,-2,-1,-1,-1,0.74
149,0,0,-2,-2,-1,-1,-1,-2,0.745
150,-2,0,1,-1,-1,0,-1,0,0.75
151,0,0,-2,1,1,-1,-1,-1,0.755
152,0,0,-2,-1,-1,-2,-1,0,0.76
153,-1,0,0,2,-2,-2,0,-1,0.765
154,-1,-2,0,-2,-1,-1,-1,1,0.77
155,-2,-1,-2,-4,-3,-3,-1,-1,0.775
156,-1,-1,1,3,5,2,-1,-1,0.78
157,0,0,-2,-1,2,1,-1,1,0.785
158,1,-1,0,1,-1,-1,-2,-2,0.79
159,0,-1,-4,-3,0,-2,0,0,0.795
160,-2,1,3,-2,-5,-3,-1,-3,0.8
161,0,-3,0,3,3,0,-1,0,0.805
162,1,-3,-4,0,2,-1,0,0,0.81
163,-2,-2,-1,-2,-5,-1,-1,0,0.8150000000000001
164,-2,-1,-6,-8,-5,-3,-1,0,0.8200000000000001
165,1,0,0,-5,-7,-2,-1,-1,0.8250000000000001
166,-2,0,6,1,-3,-2,0,-1,0.8300000000000001
167,-1,-2,-6,2,8,5,0,-1,0.835
168,-1,-1,0,-1,-1,1,1,0,0.84
169,-1,-1,11,3,-1,-3,1,-1,0.845
170,-1,-1,-11,-1,-4,-1,-2,-1,0.85
171,-1,0,8,5,1,-1,-3,-1,0.855
172,-2,0,-9,-1,5,1,-2,-1,0.86
173,-1,-2,-7,-15,-4,1,-1,1,0.865
174,-2,0,1,4,-2,-2,-1,-2,0.87
175,0,-1,5,-10,1,1,0,0,0.875
176,-2,1,0,2,-2,-1,-1,0,0.88
177,-3,-3,-1,0,-6,-8,-1,-3,0.885
178,-1,2,-2,0,3,6,-1,0,0.89
179,1,0,0,1,-6,-3,-1,-1,0.895
180,0,1,17,4,-2,-3,1,-3,0.9
181,-1,0,-4,5,2,2,0,0,0.905
182,-1,-3,-2,-9,-1,-4,-2,0,0.91
183,-2,-4,-6,-11,-7,0,-3,-1,0.915
184,1,-2,3,1,-3,-3,-1,0,0.92
185,-1,0,-1,7,7,5,0,0,0.925
186,-2,2,-2,2,2,-2,0,-2,0.93
187,1,0,2,3,-2,-2,0,-1,0.935
188,-3,-2,-4,-4,4,3,-1,-1,0.9400000000000001
189,-1,1,-2,-3,-2,1,0,1,0.9450000000000001
190,1,0,-2,-2,-1,0,2,1,0.9500000000000001
191,-1,-1,-2,-1,-3,-1,0,-1,0.9550000000000001
192,0,-1,-3,4,-6,-4,-1,-1,0.96
193,0,0,-2,-8,-6,-4,-3,-2,0.965
194,-1,-3,-1,13,3,-2,-2,-1,0.97
195,-3,-3,-7,-2,-8,-4,-1,-1,0.975
196,1,3,-2,-10,2,4,3,1,0.98
197,0,-2,12,10,4,-1,-1,0,0.985
198,0,1,-2,-4,17,6,1,0,0.99
199,1,-1,1,7,-5,-6,1,1,0.995
200,-1,-1,0,-9,-4,-3,-2,-2,1.0
201,-1,-1,7,2,-8,-1,-2,-1,1.0050000000000001
202,-3,-4,-12,-15,-12,-5,0,-1,1.01
203,-1,-2,8,1,4,1,-1,-1,1.0150000000000001
204,-2,-3,-4,-3,-6,-1,-2,0,1.02
205,-3,-6,-41,-12,-3,-4,-2,-2,1.025
206,1,9,15,10,-6,-4,1,-1,1.03
207,-2,0,21,-3,2,1,-2,-2,1.035
208,1,0,18,14,5,-1,-1,0,1.04
209,1,4,10,12,7,2,1,0,1.045
210,0,-3,-30,-4,4,3,0,0,1.05
211,-1,1,-8,-6,5,0,2,-1,1.055
212,-1,-4,-27,2,-9,-1,-2,0,1.06
213,-1,-9,6,-9,6,-1,-2,-1,1.065
214,0,10,9,-9,-13,-5,-2,-1,1.07
215,0,-2,-6,0,-2,-1,0,1,1.075
216,-2,-4,0,-8,2,-2,-1,-2,1.08
217,0,2,-3,-2,9,5,1,0,1.085
218,-2,-5,3,12,8,-1,-1,-1,1.09
219,-2,1,5,8,-2,-1,-1,-2,1.095
220,-1,2,-13,10,-3,-2,1,1,1.1
221,-1,2,24,-3,-5,2,1,-1,1.105
222,0,-2,-14,-14,-6,-3,-1,-2,1.11
223,-2,-4,-26,-2,3,2,-1,-1,1.115
224,0,-3,-2,-5,-4,-4,-1,0,1.12
225,-1,-3,10,-6,-5,-4,-4,-1,1.125
226,-1,-1,7,11,7,2,-1,-1,1.1300000000000001
227,0,1,-11,-10,4,6,2,1,1.135
228,2,0,2,-3,-7,-1,-2,-3,1.1400000000000001
229,-2,0,-6,2,-8,-3,0,0,1.145
230,0,-5,6,-1,2,3,-3,-2,1.1500000000000001
231,0,4,-20,0,-12,-9,-2,0,1.155
232,0,-1,34,9,7,-1,1,-1,1.16
233,1,4,-28,-4,6,3,0,-2,1.165
234,-2,-10,8,-3,-6,-2,-1,-2,1.17
235,0,8,9,-4,4,-1,-1,1,1.175
236,-4,-10,-35,-8,-5,-1,-1,0,1.18
237,0,0,5,8,-4,-4,-2,-2,1.185
238,0,-5,-6,-5,2,4,1,2,1.19
239,0,5,11,-2,2,-1,-1,-2,1.195
240,-1,3,1,-1,2,0,0,1,1.2
241,0,0,3,-9,-4,-2,1,-2,1.205
242,-1,-1,12,3,-1,0,-2,-3,1.21
243,0,-3,6,8,-9,-7,0,-1,1.215
244,-2,1,1,-4,9,0,0,-2,1.22
245,1,-1,-3,0,0,0,-1,0,1.225
246,-1,-2,-6,-4,7,1,1,0,1.23
247,-2,-4,28,6,-5,7,-1,-1,1.235
248,-3,-2,-46,-6,-4,-3,-2,-1,1.24
249,-1,-3,-3,-2,-6,-6,0,-1,1.245
250,2,2,-12,-4,-1,-2,0,-1,1.25
251,-1,0,13,7,1,1,-2,-1,1.2550000000000001
252,0,-1,-1,-9,-5,1,-1,1,1.26
253,-2,-1,12,6,4,0,-2,0,1.2650000000000001
254,0,2,-15,0,-9,-4,-1,1,1.27
255,0,-4,-18,-6,14,3,1,0,1.2750000000000001
256,0,-2,17,2,-7,4,1,-3,1.28
257,-2,0,-4,1,-2,-3,0,-1,1.285
258,0,-3,13,-5,-12,-5,-1,-1,1.29
259,1,1,-5,8,-5,-1,-1,0,1.295
260,-2,1,12,-3,12,1,-1,-2,1.3
261,0,-2,-8,-3,-4,0,-2,-2,1.305
262,-1,2,1,-2,-9,-5,-1,-2,1.31
263,-2,-3,13,3,-7,-6,-3,-3,1.315
264,1,0,-19,-3,-2,2,-1,0,1.32
265,-1,-3,-18,-1,1,4,1,1,1.325
266,-2,1,-4,-3,10,3,2,1,1.33
267,-3,-3,1,-2,-5,-1,-1,-1,1.335
268,0,2,11,6,-2,-6,-3,-1,1.34
269,-1,-4,3,-4,-5,-6,-3,-1,1.345
270,0,0,0,9,-1,1,0,1,1.35
271,0,2,-8,-1,7,5,0,0,1.355
272,-1,-1,6,0,-8,-2,-1,-1,1.36
273,0,-1,-22,-8,-1,-2,0,1,1.365
274,-2,1,9,0,-2,-4,-1,-1,1.37
275,-2,-2,-2,2,1,-2,-1,-2,1.375
276,-1,0,11,1,5,2,1,-1,1.3800000000000001
277,-1,0,-2,-1,-1,-1,0,0,1.385
278,-1,-2,3,-5,0,0,-3,-1,1.3900000000000001
279,-1,-2,-8,-5,-2,-2,-1,0,1.395
280,-1,-1,-4,0,-6,-3,-2,-1,1.4000000000000001
281,-2,1,3,1,0,2,1,0,1.405
282,-1,-1,19,12,11,5,1,-1,1.41
283,-1,-2,-15,-8,-2,1,-2,-1,1.415
284,-1,0,10,6,-4,-8,-3,0,1.42
285,1,0,-3,-8,-3,1,-2,-1,1.425
286,1,3,0,6,6,2,1,1,1.43
287,1,-1,5,1,4,2,0,0,1.435
288,-2,-2,-13,-1,4,1,1,0,1.44
289,1,2,7,2,4,4,-1,-1,1.445
290,-1,1,10,-1,-9,-9,-2,-1,1.45
291,-2,-1,5,0,-9,-5,-1,-1,1.455
292,-1,-3,-1,-10,-7,-3,-2,-2,1.46
293,-2,0,0,2,-13,-5,-1,-3,1.465
294,0,-2,-11,-11,10,6,1,0,1.47
295,1,3,8,3,10,6,2,1,1.475
296,2,2,-10,0,1,2,0,1,1.48
297,-3,-7,2,2,-1,-4,-1,-2,1.485
298,-4,-1,16,0,-21,-7,-4,-4,1.49
299,-1,-1,-1,-6,-2,0,-1,0,1.495
300,2,0,-5,6,6,4,3,2,1.5
301,0,1,-2,4,10,0,1,0,1.5050000000000001
302,0,-3,-18,-5,-4,-3,-1,-1,1.51
303,-2,-2,0,1,-1,-2,-4,-2,1.5150000000000001
304,1,0,0,-9,-4,0,-1,-2,1.52
305,0,1,-9,-5,-1,-3,-2,0,1.5250000000000001
306,-1,-2,7,-1,1,-2,1,-2,1.53
307,-1,-2,-7,-1,-12,-5,-2,0,1.5350000000000001
308,-2,0,0,3,0,-2,-1,-1,1.54
309,0,0,19,7,7,2,-1,0,1.545
310,-2,-2,-20,0,3,1,-3,-2,1.55
311,-1,-2,-9,-1,0,1,0,0,1.555
312,-2,0,11,-3,0,0,0,0,1.56
313,-4,-3,5,-6,-5,-4,-2,-3,1.565
314,0,0,-18,-1,-5,-2,-2,0,1.57
315,0,0,15,2,3,1,1,0,1.575
316,-1,-1,-1,5,5,2,0,-1,1.58
317,1,0,-5,-4,-14,-8,-2,-1,1.585
318,0,-1,-8,-2,-2,-2,-1,1,1.59
319,-1,-1,-5,-6,5,-2,0,-1,1.595
320,-1,3,30,10,-3,3,-2,0,1.6
321,-1,-1,-23,-2,2,2,-1,-1,1.605
322,0,-4,-6,2,-5,-2,1,-2,1.61
323,0,0,6,-2,-5,1,-1,1,1.615
324,0,-4,-19,-5,8,0,0,0,1.62
325,1,1,-8,1,-12,-2,-3,-1,1.625
326,0,0,8,-6,7,3,-2,-1,1.6300000000000001
327,-2,-1,-1,3,-3,-2,-2,0,1.635
328,-2,-2,-2,0,9,-1,-2,0,1.6400000000000001
329,-2,-4,-11,-3,1,3,-1,1,1.645
330,0,2,17,1,-1,2,0,-1,1.6500000000000001
331,-1,1,-4,3,-3,-1,-1,-1,1.655
332,-1,-1,0,-6,-6,-3,0,-2,1.6600000000000001
333,0,0,7,0,-2,-5,-1,0,1.665
334,-1,-2,-5,-1,1,0,-1,-2,1.67
335,-1,0,-2,-1,-3,-4,-1,-1,1.675
336,-2,-2,-4,0,-3,-2,-3,-1,1.68
337,-1,-1,2,2,7,0,-1,-2,1.685
338,-3,-2,7,-1,-1,3,0,1,1.69
339,0,-1,-12,-3,0,-2,1,-1,1.695
340,1,-1,-5,6,1,1,-1,1,1.7
341,-3,-2,9,-4,-4,0,-1,0,1.705
342,-1,1,3,4,-5,-5,-2,0,1.71
343,-2,-3,-28,-4,2,-1,1,-1,1.715
344,0,-3,6,-4,-2,-1,0,-2,1.72
345,2,3,38,6,0,1,1,1,1.725
346,0,1,-6,0,1,-2,-3,-2,1.73
347,-1,0,5,-1,2,-1,-1,-1,1.735
348,0,-2,-5,2,0,-2,1,0,1.74
349,-3,-1,-28,-3,3,2,-1,-1,1.745
350,-1,-1,18,-2,-4,-1,-1,1,1.75
351,-2,-2,-4,1,0,0,-2,-2,1.7550000000000001
352,-1,0,-3,-4,-1,1,-2,-2,1.76
353,0,0,-3,0,-11,-10,-1,0,1.7650000000000001
354,-2,-5,-4,3,4,-1,0,0,1.77
355,2,0,6,-3,2,2,-1,-1,1.7750000000000001
356,-2,-3,-4,1,1,2,0,-1,1.78
357,-1,-1,-4,-2,0,3,-1,-1,1.7850000000000001
358,-2,-3,-15,-7,-10,-5,-2,-2,1.79
359,1,0,9,3,2,-1,-1,1,1.795
360,0,0,5,-3,0,-1,-3,-1,1.8
361,-2,-3,-6,1,6,4,3,-1,1.805
362,0,0,-3,-5,-1,-1,-1,0,1.81
363,0,-2,8,2,-4,-2,-2,-5,1.815
364,0,-2,-1,-5,-6,-5,-1,0,1.82
365,0,5,16,10,3,1,-2,-1,1.825
366,2,2,-3,1,9,10,2,1,1.83
367,-5,-10,-18,-14,-10,-10,-3,0,1.835
368,0,2,1,0,-10,-7,0,0,1.84
369,1,-1,15,-3,5,-1,-1,-5,1.845
370,0,4,11,8,3,2,-2,-1,1.85
371,-1,1,3,-2,5,6,-2,-1,1.855
372,1,-1,-8,-3,-6,-1,-2,0,1.86
373,-1,-1,9,0,-3,0,0,0,1.865
374,-3,-3,-19,-1,-2,-4,1,-1,1.87
375,1,0,3,-2,1,-1,-5,-3,1.875
376,-2,-1,5,0,-1,2,1,-2,1.8800000000000001
377,1,2,4,-3,1,0,-2,-2,1.885
378,0,3,8,-2,0,-3,-1,-10,1.8900000000000001
379,-1,-4,-24,6,-6,0,0,7,1.895
380,-2,-4,1,-10,3,1,0,1,1.9000000000000001
381,0,1,-4,1,-4,-2,-3,2,1.905
382,-2,-4,4,-6,-1,1,2,1,1.9100000000000001
383,-1,4,6,9,5,-2,0,-4,1.915
384,-3,-2,22,15,1,0,-1,-3,1.92
385,-4,-5,-22,-17,-2,1,0,-2,1.925
386,1,-1,13,-5,-4,-5,-2,2,1.93
387,2,4,16,1,-1,-1,3,0,1.935
388,-3,-1,-29,1,-3,-2,-5,-2,1.94
389,-2,-4,8,3,1,0,-1,-1,1.945
390,-4,-3,-16,-6,-9,-8,-1,0,1.95
391,2,0,8,-4,2,-3,-2,-1,1.955
392,0,4,0,2,2,5,6,0,1.96
393,-4,-7,-32,-5,-2,1,4,-4,1.965
394,10,5,3,4,7,7,2,4,1.97
395,-2,-7,1,-2,-2,-4,0,-1,1.975
396,6,4,14,-2,-3,-8,-13,7,1.98
397,-13,-8,-10,-8,-4,-2,6,-4,1.985
398,-8,-1,-4,5,0,1,-6,-8,1.99
399,-1,7,13,9,6,5,9,-6,1.995
400,-3,-3,-8,-8,2,6,1,-4,2.0
401,5,1,10,3,-2,-6,-5,6,2.005
402,1,-1,-12,0,-4,-8,-3,2,2.0100000000000002
403,-4,-5,-15,-9,-5,-5,-1,-5,2.015
404,-3,-3,6,-3,-8,-4,-9,-2,2.02
405,6,5,2,3,9,7,1,5,2.025
406,1,-1,4,3,2,1,7,2,2.0300000000000002
407,1,-1,-9,-5,-1,-5,-18,0,2.035
408,-2,0,1,2,-2,6,13,-3,2.04
409,-3,0,1,3,-4,-5,-6,-4,2.045
410,-1,-1,1,0,2,5,1,-4,2.05
411,-1,-2,-6,-5,-3,-3,-2,3,2.055
412,-1,-2,-6,-2,-3,-6,-2,-1,2.06
413,0,1,10,2,-1,0,-1,-4,2.065
414,2,-1,10,2,0,-4,2,1,2.07
415,3,0,-29,-2,-1,0,2,0,2.075
416,-1,-4,13,0,-1,-1,1,0,2.08
417,5,-2,-17,-3,-1,0,1,2,2.085
418,-10,-5,-1,-3,-6,-3,-2,-6,2.09
419,-2,3,17,-2,3,3,1,-6,2.095
420,-11,-2,-12,-2,0,-5,-5,-10,2.1
421,4,2,9,4,-1,-3,-1,10,2.105
422,1,-5,6,2,-1,2,-4,2,2.11
423,-1,0,-2,-3,-2,4,1,12,2.115
424,3,2,2,4,0,0,6,-2,2.12
425,-4,-4,-2,1,-1,5,6,-3,2.125
426,-1,-1,2,-10,-3,1,0,-2,2.13
427,2,-1,-9,5,1,2,4,-1,2.1350000000000002
428,1,-2,-4,-2,4,-8,-6,-3,2.14
429,-2,-1,3,-11,-2,-1,-3,-4,2.145
430,1,3,-4,7,1,1,-2,0,2.15
431,-5,-1,18,-2,-2,1,2,-6,2.1550000000000002
432,2,-3,-33,-5,-1,1,1,7,2.16
433,2,6,-5,1,0,-6,-6,-6,2.165
434,-6,-11,-19,-7,0,2,-1,-4,2.17
435,0,0,14,3,-1,-5,-3,1,2.1750000000000003
436,6,2,11,4,-3,2,2,0,2.18
437,5,-12,-6,-6,-1,-1,-2,3,2.185
438,-8,-4,-7,-1,-2,-2,2,-2,2.19
439,2,-3,-1,1,-1,1,0,-3,2.195
440,-6,-2,3,2,2,1,0,-3,2.2
441,-4,-8,-4,0,1,-2,-3,-2,2.205
442,2,2,4,-1,-1,-3,-2,0,2.21
443,-3,-4,-10,-5,-1,-2,-3,-4,2.215
444,0,6,4,0,-1,-2,1,13,2.22
445,2,3,-4,3,-3,0,2,-2,2.225
446,3,6,7,-1,-3,-5,-1,7,2.23
447,-3,2,1,0,-1,1,-2,-3,2.235
448,-4,-3,-7,3,-3,-1,-2,-6,2.24
449,-3,6,-6,-14,-3,-2,-1,1,2.245
450,-1,-2,-2,3,1,1,-1,-3,2.25
451,-4,-2,0,0,-6,-5,-3,-1,2.255
452,1,-1,15,4,2,-1,-2,-3,2.2600000000000002
453,-4,-9,-13,-3,-2,-1,-2,-2,2.265
454,1,0,-2,-2,-3,-1,-1,-3,2.27
455,-2,-8,-19,-6,-2,0,0,2,2.275
456,1,1,1,0,0,0,-1,2,2.2800000000000002
457,-1,3,8,4,-2,-1,0,-2,2.285
458,2,-2,-6,-5,0,0,0,0,2.29
459,2,11,13,9,3,2,3,2,2.295
460,0,-4,8,-8,-1,0,-1,-4,2.3000000000000003
461,-5,-7,-11,-1,0,-1,-1,-3,2.305
462,1,8,11,3,-2,-3,-3,-1,2.31
463,2,-6,-7,-10,-2,-2,1,2,2.315
464,-3,-2,-2,-2,-2,-2,-4,-3,2.32
465,-1,9,14,6,-1,0,0,0,2.325
466,-3,-6,-6,3,1,4,0,-2,2.33
467,-3,-5,-7,-9,-3,-4,2,0,2.335
468,2,1,-5,-5,-3,-2,1,3,2.34
469,7,2,8,2,0,-3,-4,-2,2.345
470,3,-2,15,4,3,0,0,-1,2.35
471,-4,-2,-11,4,0,-1,-3,-10,2.355
472,-4,-4,-12,-4,-2,6,10,-1,2.36
473,2,4,-2,-3,-1,-1,-17,10,2.365
474,5,2,18,-3,-1,0,3,1,2.37
475,-12,0,8,-1,2,1,1,-5,2.375
476,2,4,-9,-5,-2,-6,-11,-3,2.38
477,2,8,-1,7,1,-4,5,8,2.3850000000000002
478,-11,14,-2,-2,-1,-3,0,-14,2.39
479,2,9,11,1,2,6,-2,6,2.395
480,-2,2,-1,0,0,3,4,-8,2.4
481,5,-2,3,0,1,1,0,2,2.4050000000000002
482,-1,3,-14,-1,-1,-4,-6,5,2.41
483,-1,11,-5,3,-1,-3,1,-3,2.415
484,1,16,3,1,0,0,-1,4,2.42
485,-5,5,-2,-6,-4,-2,-1,-6,2.4250000000000003
486,0,1,6,5,-1,-1,0,-2,2.43
487,4,-1,-41,-2,-2,-1,0,0,2.435
488,2,-12,-1,-16,-5,-4,0,1,2.44
489,-6,-16,4,4,2,-1,-2,-8,2.445
490,-4,-11,-6,-2,-1,-1,-1,0,2.45
491,3,-14,15,3,-1,1,-3,6,2.455
492,-4,-15,-1,9,3,0,-1,-1,2.46
493,-6,-18,1,-5,-4,-1,1,-4,2.465
494,2,-17,-12,-2,-1,1,1,2,2.47
495,2,-6,1,-3,-2,-4,0,1,2.475
496,1,-6,20,3,0,-2,-3,0,2.48
497,-4,-3,-13,-3,-2,2,0,-1,2.485
498,-2,-3,-9,-2,-1,-2,-1,1,2.49
499,-1,-1,1,-2,-1,-3,-2,8,2.495
500,4,2,0,0,-3,-1,-2,-11,2.5
501,12,6,5,3,1,3,1,3,2.505
502,-19,3,0,1,0,-3,-2,-3,2.5100000000000002
503,-7,-1,2,-2,0,-4,-4,-5,2.515
504,-3,-1,-41,-5,-1,0,-5,-4,2.52
505,4,10,10,-11,-3,-1,3,-3,2.525
506,4,-5,-6,0,-1,4,0,0,2.5300000000000002
507,4,10,13,6,0,2,1,0,2.535
508,-10,10,12,5,-1,-3,-3,3,2.54
509,-3,3,-8,2,2,-3,-5,-4,2.545
510,2,-3,2,-3,-3,-1,4,4,2.5500000000000003
511,1,-10,0,-3,-3,-4,-4,-2,2.555
512,7,8,4,4,0,0,0,2,2.56
513,-5,-11,-1,-3,-2,-1,2,-4,2.565
514,-2,-11,1,-1,-2,-2,-1,2,2.57
515,-3,-8,-1,1,0,1,-1,-3,2.575
516,-3,-8,-19,-12,-2,0,0,-2,2.58
517,-5,3,7,2,1,-1,0,4,2.585
518,3,1,-3,1,1,-1,-4,0,2.59
519,-1,-2,0,2,1,0,0,0,2.595
520,0,-7,5,-1,-4,-2,-4,1,2.6
521,3,14,16,8,-1,-2,2,-4,2.605
522,-3,-4,-11,-12,-3,-2,-2,-2,2.61
523,2,3,0,2,-1,1,2,2,2.615
524,-3,0,4,-3,-1,0,1,3,2.62
525,-3,-12,-8,5,0,1,0,-3,2.625
526,2,8,2,3,0,0,-2,-3,2.63
527,-6,-1,3,-13,-6,-2,0,-11,2.6350000000000002
528,1,1,8,6,3,-1,0,3,2.64
529,1,1,-6,0,0,1,0,4,2.645
530,-2,-9,1,2,-2,-3,0,-3,2.65
531,-2,-17,-6,0,-1,-2,-2,-1,2.6550000000000002
532,0,-7,2,5,1,0,0,-1,2.66
533,-5,-2,-2,-2,2,-2,-2,-4,2.665
534,3,5,1,-3,2,0,1,3,2.67
535,-2,3,-5,1,-2,1,1,1,2.6750000000000003
536,-1,0,-2,-3,-3,-3,1,-2,2.68
537,-3,8,5,4,0,-1,-1,-1,2.685
538,2,5,-2,-3,0,1,-1,1,2.69
539,2,0,0,-1,0,-1,-1,0,2.695
540,1,7,1,1,-2,2,-2,-1,2.7
541,-6,0,-12,-4,0,0,-2,-6,2.705
542,-2,4,0,3,2,0,1,-3,2.71
543,6,4,6,1,0,-1,-2,2,2.715
544,1,5,7,0,2,-1,2,5,2.72
545,2,0,6,-3,-4,0,0,5,2.725
546,-2,-1,-6,3,1,0,-6,-2,2.73
547,-2,-3,1,-5,-3,0,3,-2,2.735
548,-1,-3,3,0,-1,-2,-2,-1,2.74
549,-2,-5,9,0,-1,0,1,-4,2.745
550,3,-4,-8,-4,-2,-1,-2,1,2.75
551,2,-1,-11,1,2,1,0,1,2.755
552,1,5,-12,-3,2,-1,1,-1,2.7600000000000002
553,-5,-14,3,-3,-4,-4,-3,-4,2.765
554,0,-3,7,0,-4,-2,-1,3,2.77
555,3,4,11,3,-2,-3,-3,1,2.775
556,-5,-2,-4,-4,-3,1,2,-1,2.7800000000000002
557,-5,0,2,3,2,0,2,8,2.785
558,2,-4,-3,-1,-1,-1,1,1,2.79
559,-5,-1,-2,-1,3,-1,-7,1,2.795
560,-11,-5,0,-2,-2,-2,1,-8,2.8000000000000003
561,9,-8,-8,-3,-2,-5,-1,0,2.805
562,3,-4,3,-1,0,4,-2,12,2.81
563,-9,-3,-7,1,0,0,5,-6,2.815
564,-6,-17,-7,-10,-3,-2,-3,-3,2.82
565,-8,-5,-12,1,-1,-1,1,-12,2.825
566,7,9,9,2,0,2,1,9,2.83
567,-3,-8,-5,0,0,-1,0,-1,2.835
568,1,-6,6,1,1,-2,-2,-1,2.84
569,-2,4,-2,-1,-1,-1,-1,0,2.845
570,-3,-2,-23,-6,-5,-7,0,-6,2.85
571,4,10,12,2,0,0,-4,1,2.855
572,0,-11,-16,0,0,1,1,0,2.86
573,2,-5,1,-1,1,-1,-5,0,2.865
574,-5,-4,11,3,0,2,1,-4,2.87
575,-2,5,-3,-3,-1,-1,0,-1,2.875
576,-1,-6,3,2,0,-1,2,6,2.88
577,-3,-6,-4,-2,-2,0,-6,-6,2.8850000000000002
578,-7,0,-4,-2,-3,-3,-2,-16,2.89
579,5,4,9,2,-1,0,2,9,2.895
580,3,3,4,2,2,2,-3,8,2.9
581,7,10,-1,-1,2,0,2,6,2.9050000000000002
582,7,9,4,1,-1,-3,5,4,2.91
583,7,12,2,-9,-2,2,-5,-10,2.915
584,-8,12,6,3,2,-1,1,-9,2.92
585,-5,-5,-4,-2,-2,0,1,1,2.9250000000000003
586,-3,3,-1,-2,0,0,0,0,2.93
587,-5,3,-1,1,-3,-4,-1,-7,2.935
588,10,2,-4,-1,1,0,-2,4,2.94
589,-1,-1,-6,-4,-3,-2,-1,1,2.945
590,0,4,28,4,-1,-2,-2,2,2.95
591,-10,-27,-61,-10,-5,-2,1,-1,2.955
592,-3,-2,-6,-6,-5,-3,0,-4,2.96
593,-2,2,2,2,1,-1,-4,0,2.965
594,0,1,0,-1,-1,0,-2,-1,2.97
595,0,5,16,-2,0,0,2,1,2.975
596,-3,4,2,-2,-3,-3,-2,-13,2.98
597,2,-1,1,2,1,2,0,11,2.985
598,-2,-10,-2,-1,-3,-1,-1,0,2.99
599,-4,-1,9,6,-2,0,-4,-2,2.995
600,3,-4,-3,-1,-3,1,0,8,3.0
601,1,2,1,-3,0,1,0,-5,3.005
602,-4,1,-6,-4,-1,-1,3,-2,3.0100000000000002
603,0,1,3,1,0,-3,-1,-3,3.015
604,-1,-5,1,1,2,0,3,-1,3.02
605,-1,-2,4,0,-1,-4,-5,-2,3.025
606,3,1,-1,0,-1,2,-2,9,3.0300000000000002
607,2,-3,12,1,0,4,6,3,3.035
608,2,8,-14,-4,-3,-5,-8,0,3.04
609,-8,-4,-4,1,1,2,2,-7,3.045
610,-5,-11,-12,-6,-2,-6,-4,-7,3.0500000000000003
611,3,-2,3,5,0,-1,0,8,3.055
612,4,8,20,3,0,-1,0,-3,3.06
613,3,6,-6,-2,-2,-1,0,-5,3.065
614,-7,-4,-3,-6,-2,2,0,-12,3.0700000000000003
615,-5,-5,2,0,-1,-2,-6,7,3.075
616,-2,1,0,4,0,0,6,4,3.08
617,10,18,12,1,-2,-1,-5,2,3.085
618,-6,-14,-20,-2,-1,-4,-2,-9,3.09
619,-4,-9,-10,-5,-1,-1,-2,-6,3.095
620,-1,-2,-3,2,1,0,3,6,3.1
621,-3,0,-1,-6,-4,5,1,2,3.105
622,4,10,7,0,1,-3,2,-2,3.11
623,-2,1,-5,0,0,-5,-6,-4,3.115
624,-4,2,11,0,0,1,-2,-4,3.12
625,-2,0,-7,3,1,-2,2,4,3.125
626,-1,3,-4,-1,-1,0,-5,0,3.13
627,3,5,2,-5,-2,0,2,-1,3.1350000000000002
628,-3,-10,-5,-6,-1,0,-2,-2,3.14
629,3,6,8,1,1,1,1,-2,3.145
630,-4,-9,-6,-5,-4,-1,-2,3,3.15
631,0,6,3,0,-1,-3,-4,-17,3.1550000000000002
632,1,-1,4,1,2,2,-1,4,3.16
633,-6,-8,-1,-3,-2,-3,1,-9,3.165
634,-2,-4,2,3,2,1,-4,9,3.17
635,14,1,-5,-1,-1,0,1,7,3.1750000000000003
636,-7,-3,6,1,-2,0,0,-8,3.18
637,3,9,-4,-2,-2,-3,-2,-1,3.185
638,-2,-8,-9,-2,-1,2,3,-2,3.19
639,-2,2,9,3,1,-1,0,-2,3.1950000000000003
640,2,-2,5,0,-1,-2,-3,-1,3.2
641,-1,-6,-6,1,0,0,1,1,3.205
642,4,14,-2,-7,-3,-3,1,2,3.21
643,-5,-3,0,2,0,1,1,-3,3.215
644,7,2,-2,0,0,-1,-3,-9,3.22
645,-7,-14,3,-4,-2,-1,-1,5,3.225
646,2,-2,3,3,-1,0,-2,2,3.23
647,2,4,-2,1,-2,-3,-1,6,3.235
648,-3,1,-2,1,-1,-1,-2,-1,3.24
649,4,8,-1,-1,-2,-2,0,-3,3.245
650,-4,-1,-5,2,-1,1,1,-3,3.25
651,2,-4,2,-4,-4,-2,-4,-2,3.255
652,-1,0,-6,-5,-5,-2,-3,-3,3.2600000000000002
653,-6,-16,-5,-1,-1,1,0,-1,3.265
654,-6,-8,-1,-4,-2,-5,-2,-9,3.27
655,-5,-5,-7,-2,-2,0,0,7,3.275
656,2,0,-5,0,0,-2,-2,0,3.2800000000000002
657,-1,-2,-2,0,0,-1,1,2,3.285
658,-4,-4,1,-3,-2,-1,0,-8,3.29
659,-5,-2,1,-3,-2,-1,-1,2,3.295
660,1,-3,-17,-4,-1,0,-1,2,3.3000000000000003
661,0,5,21,6,-2,-2,-3,1,3.305
662,2,2,-8,-3,1,-1,0,-1,3.31
663,-4,-5,-2,-3,1,-1,-1,-3,3.315
664,-2,2,1,-2,-2,-2,1,1,3.3200000000000003
665,-1,-2,-8,-6,-5,-1,-1,-4,3.325
666,1,0,9,4,0,0,-7,-2,3.33
667,-3,9,1,-2,-2,-1,4,-11,3.335
668,-1,0,0,-2,-1,1,3,5,3.34
669,0,-2,-5,1,2,3,3,1,3.345
670,1,13,5,1,0,-2,-7,4,3.35
671,0,-2,13,4,-1,-1,-6,-1,3.355
672,-1,1,-8,1,1,1,-2,-4,3.36
673,3,5,-17,-3,-3,-2,0,0,3.365
674,4,-2,-1,-3,0,1,3,1,3.37
675,-5,-8,-4,-1,1,1,-2,-4,3.375
676,-6,-5,8,3,-2,0,0,-11,3.38
677,-2,4,18,3,-2,-4,-4,8,3.3850000000000002
678,1,-1,-8,3,-2,1,4,4,3.39
679,5,7,-1,-1,1,1,1,2,3.395
680,0,0,-3,0,-1,-3,-1,-2,3.4
681,-1,-5,0,-3,0,-2,-1,-3,3.4050000000000002
682,0,1,-1,0,-1,1,-1,-3,3.41
683,-2,-4,-3,-5,-3,-2,1,0,3.415
684,1,-5,1,0,1,2,-1,3,3.42
685,-3,-8,3,-1,2,-1,-1,-7,3.4250000000000003
686,-1,2,10,3,0,0,0,1,3.43
687,1,-5,-14,5,1,1,-5,3,3.435
688,1,-2,0,-11,-1,-2,1,2,3.44
689,-2,6,-8,-1,-2,0,-2,-4,3.4450000000000003
690,1,0,-3,-1,-2,-1,-1,1,3.45
691,-4,-4,3,1,-2,-1,2,-2,3.455
692,0,-3,-1,3,0,0,-2,-2,3.46
693,3,9,0,2,0,-1,0,12,3.465
694,3,7,5,-3,1,-1,1,0,3.47
695,-1,-7,0,3,2,2,0,2,3.475
696,-2,-3,10,2,0,1,0,-1,3.48
697,-3,-2,2,-8,1,0,1,-3,3.485
698,2,2,-10,-4,-1,0,1,-2,3.49
699,1,2,4,-3,-1,-5,-6,6,3.495
700,-1,-8,-14,-1,-1,2,-1,-1,3.5
701,-4,-6,7,2,-1,-1,1,-9,3.505
702,-2,3,24,6,-2,-5,-2,1,3.5100000000000002
703,2,0,-17,-1,-2,-1,3,0,3.515
704,-6,-3,-4,-5,-3,-1,-1,-4,3.52
705,0,-5,3,4,1,0,-3,-2,3.525
706,0,2,-9,1,-2,-1,1,-2,3.5300000000000002
707,-1,5,3,-1,0,0,0,-2,3.535
708,-1,2,0,2,-1,0,-3,3,3.54
709,-1,-4,-6,1,2,1,3,-3,3.545
710,-3,-4,5,1,0,0,-2,-2,3.5500000000000003
711,-1,-5,0,2,0,-2,-2,-1,3.555
712,4,10,-2,-2,1,-1,0,0,3.56
713,-1,1,4,-3,-1,-1,-1,-3,3.565
714,-4,-7,-2,-1,0,0,1,1,3.5700000000000003
715,-2,-6,-10,-5,-2,0,2,-2,3.575
716,-3,-8,0,2,-1,-3,-4,-2,3.58
717,3,5,-4,-4,-1,0,-1,1,3.585
718,-2,-3,4,0,1,1,-3,0,3.59
719,-2,-1,-1,-3,0,2,3,-16,3.595
720,1,3,-1,-1,1,-1,1,9,3.6
721,1,0,3,2,1,-2,1,5,3.605
722,0,-5,-6,-1,-1,-2,-4,-7,3.61
723,0,0,-6,-4,-2,-2,0,0,3.615
724,-2,-2,5,-3,-1,-2,-5,-10,3.62
725,-5,-8,-14,-2,-2,0,2,-6,3.625
726,-2,-3,1,0,-1,1,-2,1,3.63
727,-1,-4,4,1,-1,-2,2,9,3.6350000000000002
728,5,6,15,4,1,-2,-1,4,3.64
729,2,-12,-7,-3,2,-1,-2,1,3.645
730,-4,-7,-6,-3,-1,-1,-1,-8,3.65
731,0,4,12,0,-1,-2,0,0,3.6550000000000002
732,3,3,-5,-7,-3,4,3,2,3.66
733,0,-5,-11,-2,-4,-3,-1,1,3.665
734,-1,1,2,2,0,-2,-2,0,3.67
735,-3,-6,-2,-1,-1,-1,-1,-1,3.6750000000000003
736,-5,2,4,3,0,1,3,-4,3.68
737,-3,-5,-2,1,-1,0,1,5,3.685
738,3,2,-2,0,0,0,-3,3,3.69
739,-2,4,3,1,-2,-2,1,2,3.6950000000000003
740,-6,-13,-15,-4,-1,-3,1,-6,3.7
741,-3,-4,-2,-3,-1,0,-3,-5,3.705
742,0,1,-1,0,-1,-1,0,2,3.71
743,-1,-3,8,2,-2,1,-5,-3,3.715
744,2,7,-7,-3,-2,-4,-4,-2,3.72
745,-1,2,2,1,-1,1,-2,-2,3.725
746,-2,-8,-15,-4,0,1,4,1,3.73
747,-1,1,-7,-7,0,0,-1,-3,3.735
748,2,11,5,0,-1,-1,1,7,3.74
749,0,1,2,2,0,1,-3,-3,3.745
750,2,3,4,2,-1,-2,1,1,3.75
751,0,-3,-2,2,1,-1,-1,-3,3.755
752,-5,-16,-2,1,0,0,3,0,3.7600000000000002
753,-2,4,8,-2,2,-2,-6,-7,3.765
754,2,-1,-10,-2,-1,3,3,2,3.77
755,-3,-4,0,-4,-2,-4,-7,-4,3.775
756,6,4,3,2,0,1,-4,1,3.7800000000000002
757,0,4,0,3,0,1,3,-1,3.785
758,-5,-6,3,-4,-2,1,4,-8,3.79
759,-1,7,-3,-3,-4,-2,-2,10,3.795
760,1,13,10,-1,-2,-3,0,-3,3.8000000000000003
761,3,-2,-22,-7,-5,-3,-1,1,3.805
762,3,6,7,2,1,-2,-4,-3,3.81
763,1,6,3,-1,0,0,3,-2,3.815
764,-2,10,13,3,0,-2,-3,-2,3.8200000000000003
765,-3,-1,-6,-5,-3,-1,-2,1,3.825
766,0,2,-6,-2,-1,-1,1,1,3.83
767,3,9,4,1,-1,1,-1,-2,3.835
768,-4,-9,-4,1,1,0,-1,0,3.84
769,3,12,22,6,2,1,1,-2,3.845
770,-4,-7,-8,-1,-1,0,-7,-1,3.85
771,-3,-2,-2,0,-1,-1,4,-1,3.855
772,4,12,-1,-1,-1,1,0,-2,3.86
773,3,-3,-5,0,-2,-2,-1,4,3.865
774,-5,0,7,1,-2,0,-4,-7,3.87
775,-6,-14,-10,0,-2,0,-3,1,3.875
776,2,-1,-3,0,-2,0,1,0,3.88
777,-3,-2,-4,-1,-1,-2,3,2,3.8850000000000002
778,1,1,2,0,0,-2,-3,3,3.89
779,1,1,-12,-3,0,2,-1,-5,3.895
780,-6,-13,-7,-1,-1,0,-2,-2,3.9
781,-6,-8,1,0,0,0,-1,-1,3.9050000000000002
782,1,2,5,2,0,-1,3,1,3.91
783,-4,-16,-5,-2,-2,-2,-3,0,3.915
784,-2,-2,-4,-4,-2,-2,-5,-9,3.92
785,-4,-3,2,3,0,2,3,3,3.9250000000000003
786,-4,-2,1,-1,-3,-3,0,9,3.93
787,7,7,6,2,0,0,2,2,3.935
788,-1,-5,-12,0,-2,-3,-1,2,3.94
789,1,7,15,5,2,-1,-5,-6,3.9450000000000003
790,-3,-8,-31,-4,-1,3,5,-3,3.95
791,-1,-2,9,-1,-2,-3,-3,-1,3.955
792,-2,-6,-3,0,0,0,-3,-1,3.96
793,-2,-5,5,4,0,-2,0,-3,3.9650000000000003
794,2,1,-4,-3,-1,-1,2,0,3.97
795,-1,-1,-6,-2,-1,-1,-1,-4,3.975
796,-1,-4,-2,2,-1,0,0,0,3.98
797,2,-1,-3,-4,-4,-1,-2,-3,3.985
798,2,5,12,0,0,0,-2,1,3.99
799,-1,0,-2,2,1,2,1,-5,3.995
800,0,-2,0,0,-1,-1,-1,10,4.0
801,0,4,10,-1,-1,1,5,1,4.005
802,1,-3,-20,-3,-1,-2,-1,0,4.01
803,-3,-6,5,3,-1,0,-2,-3,4.015
804,0,3,-2,-6,-1,-3,-4,-2,4.0200000000000005
805,-2,2,-5,-1,-3,1,-2,-4,4.025
806,-2,-8,7,-2,0,-3,3,-2,4.03
807,6,8,6,2,0,0,3,3,4.035
808,-1,-5,-9,-2,-2,-2,1,1,4.04
809,1,2,-1,-2,0,0,-3,1,4.045
810,-4,-1,16,1,-1,-1,-5,-17,4.05
811,-4,-6,-17,-5,0,-1,-1,10,4.055
812,0,7,5,-4,-4,0,-1,1,4.0600000000000005
813,10,17,-1,-2,-1,-4,-8,0,4.065
814,0,6,3,3,-1,1,1,-5,4.07
815,1,4,16,-1,-2,1,1,-2,4.075
816,-2,-10,-8,-2,0,1,4,-3,4.08
817,-5,3,13,2,-1,-2,-3,-10,4.085
818,-3,-4,-8,-1,-1,-3,-4,10,4.09
819,2,1,-13,-4,0,1,2,-2,4.095
820,0,1,-1,0,-1,-1,1,1,4.1
821,-3,-7,-6,-2,-1,0,-3,0,4.105
822,-1,-1,7,-1,-2,-1,2,-1,4.11
823,-6,-8,-3,-1,0,-1,-3,-8,4.115
824,-2,-8,-5,-5,-3,-1,-4,-1,4.12
825,-3,-5,3,-2,0,-1,4,-9,4.125
826,0,-7,-22,-7,-3,2,-5,3,4.13
827,1,2,-4,3,0,-2,2,4,4.135
828,-1,4,7,1,0,0,-1,-5,4.14
829,0,-8,-7,-1,-2,0,1,4,4.1450000000000005
830,1,7,6,-1,0,-2,0,2,4.15
831,0,6,3,-3,-1,0,-3,-5,4.155
832,-4,-3,3,3,0,-1,-1,-2,4.16
833,1,-2,-11,-5,-2,-2,2,5,4.165
834,2,-3,1,1,0,-2,-1,-2,4.17
835,0,-2,3,0,-3,0,-4,-2,4.175
836,-2,1,-2,-1,-1,1,5,-1,4.18
837,-4,3,-5,-1,-2,-2,-6,-12,4.1850000000000005
838,1,-6,-2,-2,0,0,2,9,4.19
839,1,-5,-1,-2,-2,-1,0,-1,4.195
840,1,3,-3,2,2,-3,2,0,4.2
841,0,-6,-2,-1,-2,2,2,2,4.205
842,0,11,9,3,1,-1,-1,0,4.21
843,-1,9,5,3,0,2,-2,-6,4.215
844,-2,-6,-1,-3,-4,-3,-3,0,4.22
845,2,2,-3,1,0,1,-1,3,4.225
846,-2,-1,7,-1,-3,-1,-1,-3,4.23
847,-4,-7,-10,0,-1,-2,-2,3,4.235
848,3,11,6,1,0,-1,-1,-2,4.24
849,-5,-14,-12,-5,-2,-2,-1,7,4.245
850,-2,-6,1,0,-1,-2,-4,-4,4.25
851,2,8,2,1,-1,3,7,1,4.255
852,2,0,-1,1,-1,0,-1,-2,4.26
853,0,0,1,1,0,-1,-2,0,4.265
854,-3,-6,-9,-3,1,0,4,-2,4.2700000000000005
855,0,5,5,-1,0,-4,-5,-1,4.275
856,1,-4,-3,-3,-1,0,0,3,4.28
857,-3,-2,-1,-2,0,0,0,2,4.285
858,1,6,7,2,-1,1,1,-11,4.29
859,-5,-9,-2,-1,-3,-3,-5,6,4.295
860,2,7,2,-1,-1,1,2,2,4.3
861,3,4,1,3,1,0,0,4,4.305
862,-2,-2,-1,-1,-1,0,-3,-2,4.3100000000000005
863,0,-2,-1,-3,0,0,1,-3,4.315
864,-3,-6,8,2,0,-2,-5,-3,4.32
865,-3,-8,-36,-6,-2,-3,-3,1,4.325
866,0,2,-1,0,-1,-3,-2,-7,4.33
867,0,-2,-1,1,-1,0,2,-1,4.335
868,-3,-2,1,0,-2,1,-3,-1,4.34
869,4,12,13,1,1,-1,-2,-2,4.345
870,2,7,-3,2,-1,-1,1,4,4.3500000000000005
871,-2,-9,-4,-3,-4,-1,0,-2,4.355
872,-2,-2,-10,-2,-1,0,-1,-1,4.36
873,-4,-6,2,2,1,1,-1,-3,4.365
874,0,-4,-2,0,-1,-2,-1,2,4.37
875,1,8,7,1,1,0,3,-1,4.375
876,-4,-6,-5,-3,-1,-1,-7,-3,4.38
877,-1,3,12,-1,-3,-2,-5,-1,4.385
878,0,-5,12,3,0,2,1,4,4.39
879,0,-5,-40,-8,-1,-1,-2,-16,4.3950000000000005
880,-4,-5,-1,-4,-3,-2,-1,-3,4.4
881,-1,-3,-3,-2,-1,-1,1,6,4.405
882,0,4,7,-4,-3,-3,-2,3,4.41
883,3,5,13,1,0,0,1,6,4.415
884,2,3,-1,2,0,0,0,-9,4.42
885,3,3,2,2,2,0,2,-5,4.425
886,-1,2,-2,0,-2,0,1,1,4.43
887,-6,-16,-3,-5,-1,-3,-4,-2,4.4350000000000005
888,-1,0,0,1,1,-1,-2,1,4.44
889,-3,1,21,-1,-1,0,-1,-1,4.445
890,-2,-8,-37,-6,-1,0,-2,-1,4.45
891,1,-1,2,-4,-3,-3,-4,1,4.455
892,-2,-4,8,1,-1,1,5,2,4.46
893,0,0,4,2,-1,-1,1,-2,4.465
894,-5,-9,19,2,2,-2,-6,-5,4.47
895,0,0,-36,-4,-1,-1,2,0,4.4750000000000005
896,-3,-6,-4,-6,-1,-3,-2,3,4.48
897,-4,-2,-2,-1,-1,1,4,-2,4.485
898,2,6,6,-2,-2,-1,1,0,4.49
899,-2,-2,3,0,-1,-1,-4,1,4.495
900,-2,-5,-6,-3,1,1,0,-8,4.5
901,-4,-10,-12,-2,-2,-2,-3,-1,4.505
902,8,18,8,6,3,1,-1,3,4.51
903,-1,5,16,5,1,2,-1,0,4.515
904,2,-5,-6,2,-1,0,0,-6,4.5200000000000005
905,-1,-5,-5,-3,-5,-2,-3,2,4.525
906,0,-2,-2,-1,0,1,0,4,4.53
907,-3,3,4,1,0,-2,0,2,4.535
908,-5,-5,2,0,-2,-1,0,0,4.54
909,4,6,8,-1,1,-3,-5,-3,4.545
910,-3,-5,-4,2,-1,3,5,0,4.55
911,-2,-4,-1,-1,-1,1,2,-2,4.555
912,-1,0,6,-1,-2,-2,-3,2,4.5600000000000005
913,-1,-1,5,0,0,-3,-2,0,4.565
914,-1,5,-6,0,0,-1,-1,-1,4.57
915,-2,-6,3,-3,-2,-1,-4,-1,4.575
916,-3,-6,-11,-6,-2,-1,-2,-5,4.58
917,1,4,4,-1,-2,0,0,0,4.585
918,0,-1,-6,-3,-2,-3,-3,-5,4.59
919,0,8,15,5,0,1,0,1,4.595
920,2,-1,-16,-2,-2,0,1,6,4.6000000000000005
921,-1,-11,-11,-1,1,1,1,2,4.605
922,-1,-1,9,-1,-2,-4,-2,1,4.61
923,2,10,12,3,2,1,-1,1,4.615
924,1,2,-7,2,1,3,4,1,4.62
925,-1,-2,5,-2,-3,1,-1,-5,4.625
926,-4,-3,-6,-1,-2,-2,-3,-6,4.63
927,-1,-5,2,-2,-2,-2,-1,6,4.635
928,-5,3,5,-1,-1,0,-2,-9,4.64
929,2,5,-7,1,-1,0,0,0,4.6450000000000005
930,1,-3,-3,-3,-2,0,0,-5,4.65
931,2,5,-2,-2,-2,-1,1,-3,4.655
932,5,2,18,2,-1,-1,-4,9,4.66
933,-4,-3,-26,-5,-2,-1,4,-3,4.665
934,-3,-1,3,-3,-3,-3,-5,-2,4.67
935,0,-1,3,2,0,-2,-3,-3,4.675
936,-2,-4,4,3,1,-2,3,3,4.68
937,-3,0,2,-1,1,-2,-6,-2,4.6850000000000005
938,1,-4,-3,-1,0,0,1,2,4.69
939,-3,-5,0,-2,0,-2,-4,-4,4.695
940,0,2,-1,-1,-2,-1,3,0,4.7
941,-2,-3,-5,-2,0,-2,-1,-1,4.705
942,-1,-1,-3,0,1,0,-1,-1,4.71
943,-1,-6,-4,-2,-1,-3,-2,-2,4.715
944,-2,-5,3,3,1,-1,0,-7,4.72
945,2,3,-10,0,-1,0,3,8,4.7250000000000005
946,-5,-8,-4,-3,0,0,3,-2,4.73
947,0,-2,-2,-3,-4,-3,-2,0,4.735
948,-1,1,3,-1,0,-1,-4,-3,4.74
949,0,1,3,0,-3,1,1,-4,4.745
950,1,-2,-16,-3,1,0,0,3,4.75
951,-4,-2,2,-1,1,0,2,0,4.755
952,-2,-7,-5,-4,-3,-4,-5,0,4.76
953,-1,3,7,4,1,1,2,-2,4.765
954,1,3,2,-1,0,0,-4,0,4.7700000000000005
955,-1,-3,0,1,0,2,4,2,4.775
956,0,6,3,0,-2,-1,-3,-3,4.78
957,-1,-3,0,-1,0,-1,-1,-3,4.785
958,1,7,3,-1,-4,-3,0,-3,4.79
959,-1,1,-4,-3,-2,0,0,0,4.795
960,2,1,-1,1,0,2,1,2,4.8
961,-3,-3,3,0,-1,-4,-2,-4,4.805
962,-2,-9,1,0,-1,-2,2,0,4.8100000000000005
963,-3,-1,-18,-3,-2,-2,0,-1,4.815
964,-1,-1,-5,0,0,0,-1,-1,4.82
965,-2,-8,-1,-2,0,-1,-4,5,4.825
966,2,1,1,-2,-4,-1,0,-1,4.83
967,3,5,3,0,-1,-1,-2,1,4.835
968,0,1,-4,1,1,0,-1,0,4.84
969,-1,-1,3,-2,-1,0,1,-5,4.845
970,2,4,8,3,0,0,-3,2,4.8500000000000005
971,0,1,-5,-3,-1,-1,-1,-5,4.855
972,-7,-12,-5,-2,-4,-2,1,-1,4.86
973,-2,-1,2,0,0,-2,-3,2,4.865
974,-7,-5,-6,-4,-1,-2,-2,-2,4.87
975,4,-2,5,-1,1,2,3,-9,4.875
976,4,10,3,0,1,-2,-1,9,4.88
977,-2,-10,-4,0,-1,-1,-3,-2,4.885
978,-2,-10,1,-2,-3,-1,1,0,4.89
979,0,0,-15,-2,-1,-2,-4,3,4.8950000000000005
980,0,5,0,-2,0,0,3,5,4.9
981,-4,-3,-2,-1,-1,0,-4,-4,4.905
982,-1,2,1,-1,-3,-3,1,-5,4.91
983,-3,-3,10,2,-1,-3,0,-2,4.915
984,-2,-4,-3,-2,-1,-2,-4,4,4.92
985,3,7,-6,-4,-1,0,2,0,4.925
986,-1,-1,3,2,2,1,-2,-1,4.93
987,0,-1,-3,-2,-1,0,1,1,4.9350000000000005
988,1,10,17,3,0,0,1,-4,4.94
989,1,-7,-11,-2,-2,-1,0,-1,4.945
990,-3,-5,-20,-5,-4,-3,0,0,4.95
991,0,-1,7,0,0,-2,-2,0,4.955
992,-5,-9,-3,1,-1,-2,-3,-3,4.96
993,0,3,7,1,2,2,0,-2,4.965
994,2,7,9,3,1,-1,-2,-2,4.97
995,-8,-20,-17,-2,0,0,3,-1,4.9750000000000005
996,1,0,-4,-5,-5,1,3,1,4.98
997,-5,-1,2,-1,-2,-2,-7,-12,4.985
998,2,-2,1,1,0,-2,-4,8,4.99
999,11,15,14,5,2,0,0,9,4.995
1000,0,-5,-8,-1,-1,-1,-2,-6,5.0
1001,1,2,-1,-3,-2,0,2,1,5.005
1002,-7,-7,-1,-2,-1,0,-4,-11,5.01
1003,-5,-7,-19,-5,-3,-5,-1,-1,5.015
1004,1,-5,6,1,1,0,-1,2,5.0200000000000005
1005,-2,-5,-6,-2,-3,-2,-3,2,5.025
1006,1,-1,2,0,0,-1,4,-3,5.03
1007,0,5,8,1,-2,1,-3,-3,5.035
1008,-1,1,-5,-3,-2,-1,-4,-4,5.04
1009,-2,-2,2,2,0,1,3,-1,5.045
1010,1,0,0,1,3,0,0,7,5.05
1011,-1,4,2,0,-1,0,-4,-1,5.055
1012,-2,-1,-6,-5,-2,-3,0,-3,5.0600000000000005
1013,4,9,7,0,0,0,0,0,5.065
1014,-4,-10,-5,1,-1,-1,-1,-3,5.07
1015,-6,-9,0,0,1,-1,-2,1,5.075
1016,-2,-5,-3,-1,-1,-1,-2,-1,5.08
1017,1,-2,-3,1,0,-2,3,3,5.085
1018,-2,7,6,-1,-1,2,-2,-3,5.09
1019,-3,-6,3,-2,0,-1,-2,-6,5.095
1020,-7,-8,-14,-5,-5,-2,-1,-4,5.1000000000000005
1021,6,-1,-13,0,0,0,1,1,5.105
1022,4,-1,-4,-1,-3,-2,-2,-1,5.11
1023,4,5,2,0,0,3,0,0,5.115
1024,4,11,11,1,-1,-4,1,0,5.12
1025,-5,-4,0,-1,0,-1,-3,2,5.125
1026,-3,-8,2,-1,-1,1,-1,-1,5.13
1027,-3,-8,-24,-3,-3,-3,-2,-2,5.135
1028,-1,-5,1,-1,-1,-1,-1,-11,5.14
1029,-4,-6,-4,-6,-2,-4,-5,5,5.1450000000000005
1030,3,4,6,0,1,0,3,3,5.15
1031,-1,2,5,-1,0,-1,1,2,5.155
1032,2,2,-3,-1,1,1,-2,-1,5.16
1033,2,12,0,1,0,-1,1,-8,5.165
1034,0,4,1,-2,-3,-2,-4,2,5.17
1035,2,0,2,0,-2,0,7,2,5.175
1036,2,5,-3,-1,2,2,0,2,5.18
1037,0,3,8,-1,0,0,0,-6,5.1850000000000005
1038,-3,0,-4,0,-1,1,5,0,5.19
1039,3,1,-5,2,0,-2,-6,-3,5.195
1040,0,-5,-6,-3,-2,-1,-2,2,5.2
1041,-3,-4,14,2,0,0,0,-1,5.205
1042,0,-1,-23,-2,1,4,2,0,5.21
1043,-1,0,2,-4,-1,-2,-3,0,5.215
1044,5,2,2,2,0,0,1,1,5.22
1045,0,2,3,-2,-4,-2,-3,1,5.2250000000000005
1046,-5,-8,3,0,-1,0,-4,-2,5.23
1047,0,-1,3,0,-1,-2,3,0,5.235
1048,-7,-3,1,1,0,-2,-3,-6,5.24
1049,2,-3,-2,-2,-1,1,2,8,5.245
1050,3,6,-2,-4,-2,-2,-2,1,5.25
1051,-2,-1,3,1,1,2,-2,2,5.255
1052,-2,-6,-1,-1,-1,-4,0,-3,5.26
1053,-2,-5,-2,-1,-1,-3,-3,-3,5.265
1054,-4,-6,-1,-1,0,-1,-2,-5,5.2700000000000005
1055,-1,-4,1,0,-1,0,-1,-1,5.275
1056,1,3,1,-1,0,-1,-2,3,5.28
1057,-1,-1,-3,0,1,0,2,-3,5.285
1058,-1,1,3,-1,-2,-4,-3,10,5.29
1059,1,8,4,1,0,-1,-2,-8,5.295
1060,1,-5,-1,-1,-3,-2,0,4,5.3
1061,-1,-1,-8,0,1,3,4,0,5.305
1062,0,-2,10,1,3,2,0,-7,5.3100000000000005
1063,0,-1,-2,0,0,0,-1,0,5.315
1064,-2,1,-1,-1,-4,-3,-1,0,5.32
1065,-1,4,1,1,0,-3,-7,-4,5.325
1066,-1,1,6,-1,0,0,4,-2,5.33
1067,0,-2,-11,-1,0,0,-1,1,5.335
1068,-3,-2,-3,-2,-1,2,1,1,5.34
1069,-2,-4,0,-1,0,-2,-3,2,5.345
1070,-1,0,1,0,-1,-2,-4,-2,5.3500000000000005
1071,0,1,-1,-2,-2,0,0,-2,5.355
1072,1,2,-5,-1,1,1,1,-2,5.36
1073,0,6,2,-2,-3,1,-1,-4,5.365
1074,-1,3,0,0,-1,-1,-1,1,5.37
1075,-2,-14,-15,-3,-1,-1,-2,-3,5.375
1076,4,2,0,-1,1,0,5,3,5.38
1077,-3,-1,4,-2,-1,-1,1,-2,5.385
1078,-3,-4,-13,-3,-1,-3,-2,1,5.39
1079,0,1,9,-3,-4,0,0,-8,5.3950000000000005
1080,0,-2,5,3,2,2,1,10,5.4
1081,-4,-4,-9,1,1,1,-4,-3,5.405
1082,0,7,5,1,2,-4,1,0,5.41
1083,-2,4,1,-3,-1,-2,-1,2,5.415
1084,-3,-7,-4,-4,-1,-3,-2,-5,5.42
1085,3,1,18,2,-3,0,1,1,5.425
1086,-1,-3,-32,0,2,0,-1,-2,5.43
1087,-4,-6,3,-6,-1,-1,-1,0,5.4350000000000005
1088,2,4,-3,-1,-1,1,-2,-3,5.44
1089,-4,-7,-11,-3,-3,-3,-1,-1,5.445
1090,-4,-1,11,-1,-4,1,1,-2,5.45
1091,-1,8,5,0,0,-3,-1,0,5.455
1092,1,-2,2,0,0,-1,-1,4,5.46
1093,-4,-6,1,-3,-3,-2,-2,1,5.465
1094,-3,-8,-5,-2,-1,0,-3,0,5.47
1095,1,1,1,1,-1,1,2,-2,5.4750000000000005
1096,-5,-2,0,-2,-1,-1,-2,-7,5.48
1097,0,3,-6,1,2,0,-3,-1,5.485
1098,4,1,4,0,-1,-2,1,3,5.49
1099,-4,-1,4,1,0,-1,-2,0,5.495
1100,0,3,4,1,0,1,0,-11,5.5
1101,-2,-8,-25,-2,0,0,1,3,5.505
1102,3,11,15,1,-2,0,2,2,5.51
1103,1,0,0,2,0,0,-2,2,5.515
1104,0,3,-5,-1,0,1,1,-1,5.5200000000000005
1105,2,-1,5,-1,-1,-1,-1,-3,5.525
1106,5,15,7,1,-2,-1,4,-2,5.53
1107,1,-7,-5,-3,-2,0,-2,3,5.535
1108,-5,-5,1,0,-1,-1,-4,0,5.54
1109,0,-2,-3,0,-1,0,2,-1,5.545
1110,-7,-15,-7,-2,-2,-1,-5,-3,5.55
1111,0,3,7,-1,-2,-1,-2,-3,5.555
1112,-1,-4,-2,0,0,1,0,8,5.5600000000000005
1113,4,4,8,0,-1,0,-1,-1,5.565
1114,-1,0,-1,-4,-2,-3,-2,-6,5.57
1115,-9,-7,-19,-4,-1,-3,-2,-7,5.575
1116,-3,-3,0,1,-1,-1,-3,-2,5.58
1117,0,5,4,-3,1,-2,0,3,5.585
1118,-2,-4,2,-3,0,-3,0,-4,5.59
1119,-1,0,-3,-1,-2,-2,-3,-7,5.595
1120,1,8,11,0,-2,-1,0,10,5.6000000000000005
1121,-2,-4,-7,-1,-3,1,-2,-14,5.605
1122,1,3,-4,-2,1,3,1,13,5.61
1123,-3,-8,-6,0,-1,0,0,2,5.615
1124,-1,-3,-3,0,-2,-3,-1,0,5.62
1125,-5,-9,8,-1,-4,-1,-1,-3,5.625
1126,0,-2,-23,-1,-1,-4,-5,-8,5.63
1127,-1,-3,9,1,0,1,0,0,5.635
1128,3,8,-5,0,1,0,0,0,5.64
1129,1,5,5,4,0,0,1,2,5.6450000000000005
1130,1,1,6,2,0,0,-4,-3,5.65
1131,1,7,2,-2,-3,-2,0,0,5.655
1132,-7,-15,-6,-2,0,-1,1,-4,5.66
1133,0,-1,-18,-3,1,0,1,1,5.665
1134,1,-3,4,0,-1,0,1,-2,5.67
1135,3,3,0,3,-1,2,0,5,5.675
1136,0,4,7,-1,-1,-2,-2,-7,5.68
1137,-1,-10,-2,-1,0,-3,-4,-2,5.6850000000000005
1138,-1,-1,1,0,2,3,8,0,5.69
1139,-4,-10,-5,-1,-1,-3,-5,1,5.695
1140,-3,1,1,-2,-1,0,3,-4,5.7
1141,0,2,1,1,1,0,-1,-3,5.705
1142,2,-3,-1,-3,-2,-1,-3,-1,5.71
1143,0,4,0,-1,-1,-2,2,-14,5.715
1144,0,-3,-3,0,-3,-1,-2,17,5.72
1145,-1,-5,0,0,-1,-1,0,2,5.7250000000000005
1146,-5,-7,1,0,-3,0,-1,0,5.73
1147,-2,0,-4,0,-2,0,0,0,5.735
1148,-3,-5,0,0,-1,-2,-4,-9,5.74
1149,0,1,11,-2,-2,-1,-2,-3,5.745
1150,-5,-10,-22,-9,-3,-4,-1,-2,5.75
1151,2,0,-1,-3,0,1,3,7,5.755
1152,-2,-7,2,0,-1,-2,-1,-3,5.76
1153,-1,2,17,1,-2,-1,-1,5,5.765
1154,-4,-8,-7,-1,-1,-1,0,-5,5.7700000000000005
1155,0,8,2,0,1,-1,-2,0,5.775
1156,-4,-9,-3,-4,-1,-2,1,2,5.78
1157,-2,12,11,5,0,2,-4,-4,5.785
1158,-4,-9,-2,0,1,-2,3,-2,5.79
1159,4,-3,-4,-3,0,-1,-3,1,5.795
1160,3,5,1,-2,-3,-1,-1,-1,5.8
1161,0,-4,-9,-1,-1,-3,0,1,5.805
1162,-1,4,-1,1,-1,-1,-2,-1,5.8100000000000005
1163,-1,-2,0,3,-1,0,-1,2,5.815
1164,0,1,-2,0,0,1,-1,-17,5.82
1165,0,-1,-7,-1,-2,0,2,10,5.825
1166,3,6,2,0,1,-2,-5,-1,5.83
1167,-1,-3,3,1,0,-2,0,1,5.835
1168,1,4,-7,-4,-1,0,-7,0,5.84
1169,-2,-2,-6,-2,-1,-2,3,-6,5.845
1170,0,1,7,2,-1,-1,-3,-4,5.8500000000000005
1171,-1,9,9,2,-1,-1,1,2,5.855
1172,-1,-8,-12,-2,-1,-1,-2,-2,5.86
1173,0,-5,-9,-2,1,2,3,2,5.865
1174,-3,-4,2,-4,-3,-3,-4,-7,5.87
1175,-3,-3,3,0,-1,-1,1,4,5.875
1176,-4,-2,-8,-1,0,-1,-4,2,5.88
1177,-5,-10,-6,-1,0,-3,-3,-1,5.885
1178,-3,-3,-7,-2,0,-2,-3,-7,5.89
1179,3,-6,-5,-2,-3,1,0,0,5.8950000000000005
1180,4,10,4,0,-1,-4,2,2,5.9
1181,1,8,6,3,1,0,-2,-1,5.905
1182,-3,1,0,-5,-3,0,-2,-1,5.91
1183,3,9,7,1,2,-1,0,0,5.915
1184,1,-2,3,-3,-1,1,-1,3,5.92
1185,-1,-6,-22,-4,-2,0,-5,-5,5.925
1186,-1,3,17,3,0,-1,7,5,5.93
1187,-1,3,-19,-4,0,0,-3,-2,5.9350000000000005
1188,-3,-6,3,2,0,0,3,-2,5.94
1189,0,7,3,-1,-2,-1,-2,0,5.945
1190,4,1,1,-1,-1,1,-3,0,5.95
1191,-2,-4,6,-1,-1,-2,0,0,5.955
1192,-3,5,5,-3,-3,-2,-1,-5,5.96
1193,-4,-9,-12,-5,-1,0,-1,6,5.965
1194,0,-3,4,0,-1,0,0,10,5.97
1195,-4,-7,1,0,0,-2,-1,-7,5.9750000000000005
1196,1,1,-2,0,0,-1,-5,3,5.98
1197,-2,-5,8,0,-3,-3,2,-6,5.985
1198,-2,0,0,0,-1,1,-2,-2,5.99
1199,-6,-14,-8,-4,-1,0,4,3,5.995
1200,-1,-1,-2,-1,-1,0,0,-2,6.0
1201,1,-1,-2,-3,0,-4,-4,-2,6.005
1202,-4,-7,-5,-1,0,-2,-3,-2,6.01
1203,-6,-3,-1,2,-3,-2,-5,-14,6.015000000000001
1204,2,-4,-4,-1,-1,-2,-1,9,6.0200000000000005
1205,5,3,4,-2,-1,2,0,-1,6.025
1206,2,5,-4,0,-2,-2,-1,3,6.03
1207,1,2,0,1,-1,0,-3,-7,6.035
1208,-4,-4,-1,0,-2,-1,1,1,6.04
1209,-2,2,-3,-2,-2,0,-1,-4,6.045
1210,3,3,5,2,2,2,-4,8,6.05
1211,-2,-3,-5,-5,0,-2,-1,-2,6.055
1212,-2,0,-3,0,0,1,0,-3,6.0600000000000005
1213,0,7,5,3,-2,-1,3,2,6.065
1214,-3,-4,1,-1,0,0,1,-8,6.07
1215,2,2,-6,-2,-3,-2,-3,1,6.075
1216,-1,-3,4,1,0,0,3,-4,6.08
1217,-1,-5,-7,0,1,-2,0,1,6.085
1218,-3,4,-13,-5,-2,-3,0,0,6.09
1219,-3,-7,2,-1,-1,-2,-5,1,6.095
1220,0,1,-4,-5,-3,0,5,-1,6.1000000000000005
1221,0,7,10,2,0,0,-1,-5,6.105
1222,4,5,1,1,-2,1,3,3,6.11
1223,0,6,4,-1,-4,-4,-1,-1,6.115
1224,3,4,1,3,0,0,-4,-4,6.12
1225,-1,-5,-3,0,0,-1,-3,-2,6.125
1226,-1,-3,-2,1,1,-1,-4,-2,6.13
1227,-5,1,1,-1,0,1,4,-1,6.135
1228,2,8,4,2,3,-2,-5,-4,6.140000000000001
1229,-2,-14,-5,1,-3,2,7,7,6.1450000000000005
1230,-4,-7,-4,-4,-3,-1,-4,-3,6.15
1231,-3,0,3,1,0,0,-1,-9,6.155
1232,0,0,-7,1,-1,0,-3,4,6.16
1233,3,2,-1,-2,-2,-2,-1,-2,6.165
1234,1,2,0,-2,-1,-1,1,-2,6.17
1235,0,-8,-2,-1,0,-1,-5,-2,6.175
1236,-1,-3,-1,-2,-2,-2,3,-3,6.18
1237,-2,8,0,-2,-1,1,-2,-2,6.1850000000000005
1238,0,-1,0,1,-1,2,0,-2,6.19
1239,2,5,-1,-1,-3,0,-2,4,6.195
1240,-3,-7,-3,-1,-2,-1,-4,-6,6.2
1241,5,8,3,-1,0,-2,-4,1,6.205
1242,-1,-4,4,-1,-1,-1,5,-2,6.21
1243,2,5,3,3,0,0,-2,9,6.215
1244,0,-7,-23,-4,-4,2,1,0,6.22
1245,-1,-2,1,1,-1,2,0,0,6.2250000000000005
1246,-1,-1,-4,0,1,-2,-4,-4,6.23
1247,0,-2,8,-2,0,-1,2,5,6.235
1248,-5,-8,3,-1,-1,-4,-3,-6,6.24
1249,-5,-12,-9,-4,-4,-2,-2,-1,6.245
1250,1,2,1,0,1,-1,-2,1,6.25
1251,0,0,-1,1,-1,-3,0,-3,6.255
1252,4,7,7,3,2,-1,-4,2,6.26
1253,0,-3,-3,-3,-1,-1,1,-1,6.265000000000001
1254,-1,-5,-1,-2,-1,-1,-1,7,6.2700000000000005
1255,-4,-5,-4,-4,0,1,5,-1,6.275
1256,1,3,2,-1,0,-2,-4,0,6.28
1257,6,7,3,0,0,-1,2,1,6.285
1258,-3,-3,-7,-1,-4,-2,-6,-5,6.29
1259,-2,2,-6,1,-1,1,-3,-4,6.295
1260,-3,-4,2,0,-2,2,2,0,6.3
1261,-3,0,-1,-3,0,-3,-5,-1,6.305
1262,1,0,-2,2,0,-1,0,-2,6.3100000000000005
1263,-2,-2,1,1,3,-1,-2,-1,6.315
1264,-5,-2,0,0,1,0,4,3,6.32
1265,1,2,3,-2,-1,-1,2,-1,6.325
1266,-3,-2,-4,-3,-1,-4,-3,-2,6.33
1267,2,-1,-4,0,-1,-1,-1,-1,6.335
1268,0,4,5,0,-1,-2,-3,-5,6.34
1269,-5,-10,-7,-3,-1,0,-4,-2,6.345
1270,4,8,7,0,-1,2,8,0,6.3500000000000005
1271,0,0,3,1,-2,-2,-1,-1,6.355
1272,-5,-11,-20,-6,0,-1,-1,0,6.36
1273,-3,-5,1,1,0,-1,-2,3,6.365
1274,3,12,3,0,0,1,-3,-7,6.37
1275,0,-1,-1,-1,-3,-2,-2,-1,6.375
1276,3,7,12,1,0,-1,-2,0,6.38
1277,-5,-6,-7,0,0,-2,-1,-4,6.385
1278,-3,-2,-2,-2,0,-1,-2,1,6.390000000000001
1279,2,7,3,-2,2,0,-1,1,6.3950000000000005
1280,-2,0,1,-1,-2,1,2,-2,6.4
1281,0,4,4,-1,-4,0,-1,-2,6.405
1282,-2,-4,0,0,-2,-1,-2,-4,6.41
1283,-3,-12,-11,-2,-2,-1,0,2,6.415
1284,0,-5,-2,1,-2,-2,-2,4,6.42
1285,1,4,2,0,0,1,2,3,6.425
1286,-2,-4,6,0,0,3,1,0,6.43
1287,3,1,4,-1,-2,-2,-3,0,6.4350000000000005
1288,-1,1,-17,-6,-3,-3,-2,-3,6.44
1289,-4,-6,1,0,3,-1,-2,-5,6.445
1290,2,-2,-4,-1,0,0,0,-1,6.45
1291,-3,-2,0,-3,1,0,0,1,6.455
1292,0,6,11,-2,-3,-2,2,-1,6.46
1293,0,-9,-10,-3,-1,-2,-2,-8,6.465
1294,2,2,-3,2,0,-1,1,0,6.47
1295,1,-2,-2,0,0,0,-2,-2,6.4750000000000005
1296,1,3,3,1,0,0,2,2,6.48
1297,-4,-2,1,-3,-1,-1,-1,-3,6.485
1298,-6,-12,-2,0,-2,0,0,2,6.49
1299,-4,-3,-5,0,-1,-1,2,-14,6.495
1300,-1,-3,-2,-2,-1,-1,-5,1,6.5
1301,3,1,2,1,0,0,1,4,6.505
1302,-2,-6,-8,-3,0,-1,-2,0,6.51
1303,-1,1,0,-1,-2,0,-1,1,6.515000000000001
1304,2,3,0,-1,-1,0,-1,-4,6.5200000000000005
1305,1,1,1,-3,-1,-1,0,-2,6.525
1306,-1,0,-2,-3,-2,-2,-3,1,6.53
1307,-2,-1,-3,-1,-2,-2,-1,-4,6.535
1308,1,-5,-2,0,0,-1,-3,3,6.54
1309,-2,-5,0,1,-3,-2,0,6,6.545
1310,-2,-1,3,0,0,-1,1,-2,6.55
1311,-1,-2,-7,-3,-2,-1,-1,2,6.555
1312,-4,-1,9,3,0,-3,0,-3,6.5600000000000005
1313,-2,-7,3,-2,-1,-2,-7,-7,6.565
1314,1,-2,-20,-2,-1,0,1,-1,6.57
1315,2,1,5,2,3,0,6,7,6.575
1316,-3,-10,-1,-2,1,0,0,0,6.58
1317,-3,1,4,1,-1,0,0,-2,6.585
1318,-3,-6,1,-1,-1,-3,-3,-2,6.59
1319,1,4,5,0,0,0,-1,1,6.595
1320,0,-1,-9,1,1,0,1,-1,6.6000000000000005
1321,-1,5,3,-1,-2,0,1,3,6.605
1322,0,-5,-3,-2,-3,-3,-5,-5,6.61
1323,-1,-1,-4,-3,-2,0,-1,-1,6.615
1324,0,0,5,3,1,0,0,2,6.62
1325,1,5,-2,1,1,1,1,-4,6.625
1326,-2,1,-3,-2,0,-4,-2,1,6.63
1327,-3,-5,3,2,1,2,-2,1,6.635
1328,2,12,1,-2,0,1,1,-4,6.640000000000001
1329,-2,-2,-2,1,0,0,1,1,6.6450000000000005
1330,-2,-1,9,0,-2,-1,0,0,6.65
1331,2,-2,-11,-1,0,0,-3,2,6.655
1332,-2,-7,-9,-4,-2,-3,-1,-3,6.66
1333,1,0,-7,-2,-1,-3,-1,-2,6.665
1334,0,0,6,-1,0,1,1,3,6.67
1335,-5,-2,8,0,-3,-2,-1,-2,6.675
1336,0,3,-1,-2,-2,0,1,-6,6.68
1337,-1,5,0,-2,-1,-1,-3,-2,6.6850000000000005
1338,2,3,2,0,-2,-1,0,7,6.69
1339,-3,-4,-5,-2,-2,0,-5,-1,6.695
1340,-1,-3,-2,-1,-1,1,3,3,6.7
1341,0,-1,-5,0,-1,0,2,-4,6.705
1342,-2,2,-7,-4,-2,-1,-4,-4,6.71
1343,2,4,1,-1,2,0,1,1,6.715
1344,-1,-2,-2,0,-1,-1,-4,-3,6.72
1345,-1,1,1,0,-1,1,-2,-2,6.7250000000000005
1346,-3,-5,-4,-1,-3,0,3,-1,6.73
1347,3,8,3,2,0,-2,1,1,6.735
1348,-2,-1,0,0,-3,0,0,2,6.74
1349,2,5,-1,1,-1,-2,-3,2,6.745
1350,1,-3,0,0,2,1,-2,-1,6.75
1351,-4,-2,2,0,-1,-1,0,-4,6.755
1352,-4,-7,-12,-3,-5,-1,-3,-2,6.76
1353,0,2,1,-3,0,0,-1,4,6.765000000000001
1354,0,-1,6,-1,-2,-1,-1,0,6.7700000000000005
1355,2,5,-11,-3,0,1,2,-3,6.775
1356,1,6,8,1,1,1,2,2,6.78
1357,-4,-17,-16,-4,-3,-1,-1,-5,6.785
1358,2,5,3,0,-3,-1,-2,-1,6.79
1359,-2,-4,4,-3,-3,-1,2,0,6.795
1360,-2,-2,2,-2,-3,-2,-4,-14,6.8
1361,3,2,-4,0,0,-1,-3,13,6.805
1362,-3,6,9,5,2,1,1,-3,6.8100000000000005
1363,-2,-12,-15,-3,-3,-2,-3,2,6.815
1364,-1,-3,-1,1,0,0,1,1,6.82
1365,-2,2,7,-1,0,0,0,-4,6.825
1366,-6,-12,-8,-2,1,0,0,1,6.83
1367,-6,-1,0,-3,-2,-1,-4,-5,6.835
1368,2,1,0,-1,0,0,-3,2,6.84
1369,3,2,2,2,1,2,6,-3,6.845
1370,6,12,2,1,-1,-4,-8,0,6.8500000000000005
1371,-1,-5,-6,-5,-2,-4,-2,-4,6.855
1372,1,5,6,1,1,-1,2,5,6.86
1373,-3,3,6,2,1,1,0,-2,6.865
1374,-6,-12,-8,-3,0,-1,1,0,6.87
1375,-1,0,11,1,-1,-2,-4,-8,6.875
1376,1,1,-4,-2,-1,1,-1,19,6.88
1377,1,-1,-3,-3,-2,-2,1,-2,6.885
1378,1,5,2,0,0,0,1,-2,6.890000000000001
1379,1,-5,-4,1,0,0,-3,1,6.8950000000000005
1380,-2,-6,1,-2,-1,-2,0,-6,6.9
1381,-5,-2,0,0,0,0,-3,-6,6.905
1382,4,8,5,-3,-2,-1,-1,0,6.91
1383,1,5,-4,-2,-1,-3,0,3,6.915
1384,0,1,-4,-2,-1,-1,-3,-5,6.92
1385,3,3,1,0,-3,-2,1,2,6.925
1386,-3,-4,-2,1,-2,2,1,-5,6.93
1387,0,-3,-1,-1,-1,0,1,4,6.9350000000000005
1388,2,2,1,0,-1,-4,-2,-1,6.94
1389,-2,-1,-2,-2,0,-1,-1,-1,6.945
1390,-3,-4,-4,-4,0,-2,0,-2,6.95
1391,0,-1,-2,-2,-2,0,-1,2,6.955
1392,-4,-7,-7,-2,-2,-2,-3,-4,6.96
1393,1,6,4,-1,-2,-2,-4,-2,6.965
1394,3,3,6,2,-1,1,1,2,6.97
1395,0,-6,-18,-2,1,1,-1,-2,6.9750000000000005
1396,-1,0,7,2,1,1,0,0,6.98
1397,-1,-2,-3,-3,-1,-2,-1,4,6.985
1398,-3,-9,-7,-2,-1,-1,1,5,6.99
1399,-1,-2,6,1,0,1,0,1,6.995
1400,-2,-7,-5,-2,0,-4,-2,-4,7.0
1401,0,4,5,2,0,0,-2,-4,7.005
1402,2,3,-4,-2,-1,-1,-2,-2,7.01
1403,-9,-3,6,-1,-1,0,0,-13,7.015000000000001
1404,2,-2,-6,-2,-2,0,-2,15,7.0200000000000005
1405,3,1,1,-1,0,2,1,-1,7.025
1406,3,0,-6,-2,1,-1,-1,-1,7.03
1407,0,-1,-10,1,2,2,3,-1,7.035
1408,-2,9,4,3,-1,0,-1,-8,7.04
1409,-6,-15,-8,-1,-2,-1,-2,0,7.045
1410,-1,0,2,0,1,0,2,-3,7.05
1411,-3,-6,2,-4,-2,-3,-4,-2,7.055
1412,3,9,4,-1,-1,-1,4,0,7.0600000000000005
1413,2,6,2,4,1,-2,0,0,7.065
1414,-3,-4,-1,0,0,0,-2,-3,7.07
1415,3,6,4,0,-3,-2,-1,4,7.075
1416,0,0,-6,-4,-3,-1,-1,-1,7.08
1417,-2,-6,-6,-3,1,1,1,-4,7.085
1418,-2,2,-2,0,-3,-2,-1,-1,7.09
1419,1,4,5,2,-1,-2,1,3,7.095
1420,-2,-5,-4,-2,0,-1,-3,-7,7.1000000000000005
1421,0,-1,1,0,-2,-2,-1,4,7.105
1422,5,7,2,-1,-1,-1,-4,1,7.11
1423,-2,0,-1,0,0,0,3,0,7.115
1424,-2,2,2,-1,0,0,-5,-4,7.12
1425,-4,0,1,-1,-1,-3,3,-1,7.125
1426,1,-2,-4,-2,-2,-3,-1,-1,7.13
1427,5,8,6,0,-1,2,-1,2,7.135
1428,-2,-5,-1,1,-1,0,-1,-3,7.140000000000001
1429,0,2,1,1,-1,1,-1,-2,7.1450000000000005
1430,-8,-9,1,-2,-2,-2,-7,-4,7.15
1431,3,4,-16,-4,-1,-2,-3,-1,7.155
1432,-1,-4,-1,-2,2,0,1,1,7.16
1433,-2,-8,-3,-2,-1,-1,-4,-1,7.165
1434,-1,2,10,0,-2,2,2,0,7.17
1435,-4,-10,-11,-2,-1,0,0,-1,7.175
1436,4,11,5,2,1,0,-1,1,7.18
1437,-1,-10,-8,-4,-1,-1,0,0,7.1850000000000005
1438,-5,4,7,4,2,1,0,-15,7.19
1439,-3,-3,4,-2,-3,-5,-3,0,7.195
1440,-1,-6,-6,-1,-2,0,3,10,7.2
1441,-3,-7,-8,-5,-2,-2,-4,-2,7.205
1442,-2,-1,-7,-1,0,2,7,3,7.21
1443,0,1,5,0,0,1,0,4,7.215
1444,-4,1,9,2,0,0,1,-6,7.22
1445,2,9,7,0,0,0,-2,-1,7.2250000000000005
1446,-1,-13,-18,-2,-2,1,2,-1,7.23
1447,-6,-8,-5,-2,-3,0,-2,-3,7.235
1448,4,4,4,1,1,-3,-2,1,7.24
1449,-3,-7,-1,2,-1,-1,1,-3,7.245
1450,-1,1,-13,-3,-1,-4,-1,0,7.25
1451,3,4,7,1,-2,-1,-1,-2,7.255
1452,-6,-10,-8,-4,-3,0,-2,-5,7.26
1453,-1,2,-2,-3,-1,-2,-5,-3,7.265000000000001
1454,-2,-2,7,-2,1,-2,3,1,7.2700000000000005
1455,-6,-13,1,-5,-2,-2,-1,2,7.275
1456,-1,-4,-23,-5,-1,0,1,-2,7.28
1457,1,9,8,3,1,0,0,2,7.285
1458,-1,-6,-8,-4,-2,-2,-3,4,7.29
1459,2,5,5,1,1,1,6,-1,7.295
1460,-2,-6,6,-2,-3,-2,-2,-1,7.3
1461,1,6,-3,1,1,-1,1,0,7.305
1462,2,5,4,1,-2,-3,-5,-2,7.3100000000000005
1463,0,2,4,0,-1,-2,-1,0,7.315
1464,-3,-7,-5,-3,0,0,0,2,7.32
1465,-1,1,8,3,0,0,-1,-1,7.325
1466,-3,-6,11,0,-1,-1,-2,-1,7.33
1467,-3,-6,-27,-4,-1,-2,-5,-4,7.335
1468,2,10,3,1,-1,-1,0,-3,7.34
1469,0,-2,0,0,-1,0,3,1,7.345
1470,1,6,9,4,3,2,0,-1,7.3500000000000005
1471,0,-3,5,-1,0,2,0,2,7.355
1472,-3,-3,0,0,0,0,-2,-1,7.36
1473,-1,-7,-6,-2,-2,-1,-1,-3,7.365
1474,0,3,-3,-3,-1,-1,0,-1,7.37
1475,1,5,4,1,1,-1,-5,-11,7.375
1476,-2,-5,0,2,-2,-2,1,6,7.38
1477,-3,-8,-6,-5,-1,-1,0,5,7.385
1478,4,8,2,2,-1,1,-1,5,7.390000000000001
1479,-7,-8,2,-2,-3,-3,-4,-2,7.3950000000000005
1480,2,-2,4,0,-2,-1,-3,-11,7.4
1481,-4,-7,-9,-3,-1,-1,-3,0,7.405
1482,1,-4,-9,-1,-2,-2,-3,-1,7.41
1483,3,5,9,1,0,-1,2,8,7.415
1484,-3,0,2,1,0,-2,3,-3,7.42
1485,-1,2,14,1,0,-1,-3,-2,7.425
1486,-1,-3,-10,-1,0,1,1,-3,7.43
1487,1,-1,-2,-1,-2,2,3,0,7.4350000000000005
1488,-6,0,1,-2,-2,-1,-3,-2,7.44
1489,2,8,-1,3,-2,-2,-4,-3,7.445
1490,-2,-7,-1,-4,-2,-3,2,1,7.45
1491,-1,-2,5,3,0,-1,-2,0,7.455
1492,4,6,-3,-1,2,1,0,1,7.46
1493,-2,-5,-1,-2,-1,0,2,0,7.465
1494,-3,0,2,-1,0,0,-3,-3,7.47
1495,4,5,-2,0,2,1,0,2,7.4750000000000005
1496,-3,-5,-1,-3,-1,-2,1,2,7.48
1497,-1,2,-1,-1,0,1,0,-5,7.485
1498,-1,-1,-5,-1,-1,-2,-2,0,7.49
1499,-1,-3,-3,-2,1,0,-1,-2,7.495
1500,-1,-2,-2,0,0,1,-3,1,7.5
1501,3,6,2,1,-1,-1,1,-1,7.505
1502,-5,-18,-8,-3,0,-1,-1,-1,7.51
1503,-1,0,7,-1,-3,-1,-1,-3,7.515000000000001
1504,-4,-10,-13,-2,-2,-4,-2,-1,7.5200000000000005
1505,0,-1,-4,-2,-1,0,-2,3,7.525
1506,1,4,2,1,0,1,0,-1,7.53
1507,-2,-2,-5,1,0,-1,3,-2,7.535
1508,0,5,9,-2,-1,3,-1,-5,7.54
1509,-3,-1,-7,-1,-1,-2,0,-5,7.545
1510,-1,3,2,2,-3,1,-5,-9,7.55
1511,0,6,6,-2,-4,-5,-3,11,7.555
1512,4,-1,-4,-1,-3,-1,2,1,7.5600000000000005
1513,-2,-5,-5,-4,-3,-1,-2,3,7.565
1514,0,-2,4,0,1,0,1,-4,7.57
1515,0,1,-5,1,1,2,-2,-4,7.575
1516,-1,-1,3,-2,0,0,1,-1,7.58
1517,-1,-5,-2,1,-1,-1,0,-2,7.585
1518,-2,5,-1,-2,-1,-1,0,1,7.59
1519,1,2,-2,-1,-1,1,-2,-2,7.595
1520,0,2,0,-1,0,0,-1,0,7.6000000000000005
1521,1,3,5,0,0,1,2,-1,7.605
1522,0,5,7,2,1,-2,-2,1,7.61
1523,-1,-3,3,2,2,-1,1,-1,7.615
1524,-4,-12,-36,-6,0,0,-4,-2,7.62
1525,5,6,1,-2,-2,-1,-2,1,7.625
1526,17,1,4,2,-2,0,1,6,7.63
1527,14,4,9,5,4,3,3,2,7.635
1528,-54,-2,12,3,0,0,-1,-11,7.640000000000001
1529,29,4,-4,-2,-2,-3,-1,3,7.6450000000000005
1530,2,-1,-4,5,7,3,4,6,7.65
1531,-27,-4,-14,-4,-7,-7,-4,-6,7.655
1532,9,-10,-19,-10,4,-5,-3,-1,7.66
1533,-63,-19,-17,-12,-5,-3,-10,-11,7.665
1534,7,-5,29,-1,-10,-8,-5,-22,7.67
1535,21,-4,9,6,2,6,38,36,7.675
1536,41,14,11,6,0,4,5,19,7.68
1537,65,11,-4,-1,0,0,-31,-27,7.6850000000000005
1538,-60,10,-17,-4,1,-4,-23,-20,7.69
1539,-64,-3,7,4,-4,-7,-31,-18,7.695
1540,-3,1,8,3,-4,0,22,5,7.7
1541,15,-12,-37,-15,-1,5,40,31,7.705
1542,25,1,-4,-5,-1,5,0,5,7.71
1543,27,6,3,2,2,-6,-14,-19,7.715
1544,-26,12,51,15,2,-3,-18,-14,7.72
1545,-11,-8,-21,-9,-2,-7,-5,4,7.7250000000000005
1546,-4,-13,-12,-4,0,3,45,28,7.73
1547,14,0,-4,-8,-6,10,29,18,7.735
1548,73,14,11,0,-11,-4,-39,-25,7.74
1549,-26,23,37,35,38,10,-14,-12,7.745
1550,-32,-22,-13,0,1,0,35,24,7.75
1551,110,28,4,11,0,18,50,43,7.755
1552,-13,29,20,1,-27,-4,-15,-21,7.76
1553,-86,-29,-9,-22,20,-23,-85,-40,7.765000000000001
1554,-32,13,28,10,10,-20,-82,-60,7.7700000000000005
1555,17,-26,-36,10,28,24,67,42,7.775
1556,88,64,40,2,-11,37,102,64,7.78
1557,94,92,23,2,-51,-28,-18,-11,7.785
1558,-90,-87,-65,-46,2,-48,-38,-30,7.79
1559,54,-69,-88,-35,-22,-26,-60,-39,7.795
1560,91,58,-4,-30,11,8,2,34,7.8
1561,-42,18,94,48,-14,24,16,-40,7.805000000000001
1562,17,57,82,44,27,9,-8,3,7.8100000000000005
1563,-103,-31,-36,-6,-39,1,54,43,7.815
1564,-102,-35,-99,-79,16,-8,8,-6,7.82
1565,74,21,-1,-14,-36,-33,-2,1,7.825
1566,127,36,44,58,22,2,-87,-33,7.83
1567,-97,-26,17,-61,-19,-6,-27,-29,7.835
1568,1,-40,7,94,6,4,43,-13,7.84
1569,-70,-39,-11,0,14,14,9,44,7.845
1570,72,87,12,-24,-14,7,25,-6,7.8500000000000005
1571,39,50,16,97,32,-6,-75,-46,7.855
1572,-17,-19,-10,-1,16,10,-35,17,7.86
1573,-69,-41,-40,-3,11,14,42,-34,7.865
1574,127,55,12,-40,-8,31,84,77,7.87
1575,-66,-70,11,-31,-19,-19,-35,-60,7.875
1576,11,38,60,114,-15,-23,19,21,7.88
1577,64,-40,-42,-55,12,2,-13,48,7.885
1578,-2,-4,-12,-6,-36,-4,-5,11,7.890000000000001
1579,-72,-52,-45,-83,-24,-13,6,-71,7.8950000000000005
1580,32,-23,10,39,29,-15,-93,-68,7.9
1581,56,19,18,15,23,23,49,33,7.905
1582,-92,7,-28,25,-22,-9,31,27,7.91
1583,88,69,56,-47,-41,-12,-28,14,7.915
1584,-57,-26,-18,50,13,-14,-10,1,7.92
1585,118,25,-5,-34,24,21,57,78,7.925
1586,-124,-48,-27,3,-1,7,-21,-44,7.930000000000001
1587,21,53,29,52,27,4,-10,6,7.9350000000000005
1588,-10,-32,-4,-80,-35,-4,4,-13,7.94
1589,-23,20,23,10,-14,-18,-46,-29,7.945
1590,51,-10,-32,-10,16,11,25,20,7.95
1591,-24,4,5,-3,-5,-3,-1,-6,7.955
1592,-42,17,-5,-32,-3,4,8,26,7.96
1593,18,-16,-9,12,2,-4,8,9,7.965
1594,-15,3,-8,-56,-51,-15,-16,-22,7.97
1595,-46,7,28,64,41,32,84,65,7.9750000000000005
1596,12,-9,3,7,10,-14,-81,-82,7.98
1597,37,2,-10,18,19,20,11,0,7.985
1598,-26,-37,-45,-52,-4,-14,-20,-20,7.99
1599,37,35,1,-42,-26,-7,-21,2,7.995
1600,9,42,19,-21,-27,-16,8,-10,8.0
1601,34,12,-19,20,-16,4,33,46,8.005
1602,32,-2,0,-14,-1,11,17,22,8.01
1603,-24,-33,-11,-9,4,-11,-18,-27,8.015
1604,82,10,11,-19,-63,-5,50,49,8.02
1605,-128,-24,21,-36,-22,-2,-52,-118,8.025
1606,66,-3,-29,65,84,6,-35,12,8.03
1607,74,41,3,23,1,-18,-42,8,8.035
1608,-37,-61,-16,-31,7,0,-33,-11,8.040000000000001
1609,126,52,6,-17,-54,1,71,47,8.045
1610,-102,-97,14,45,16,12,22,-9,8.05
1611,30,-27,11,7,4,1,-13,6,8.055
1612,-13,11,-26,-31,39,19,26,1,8.06
1613,-83,-52,-17,27,22,-14,-40,-34,8.065
1614,29,108,36,18,-51,-10,12,9,8.07
1615,11,-36,1,-31,35,12,-16,-7,8.075
1616,-25,-42,-22,18,-17,1,21,24,8.08
1617,-4,-18,9,1,12,-1,-15,-50,8.085
1618,25,-14,10,-14,6,-2,-21,18,8.09
1619,-64,27,14,38,-13,-1,36,12,8.095
1620,34,10,-2,-22,-6,-10,-36,-18,8.1
1621,-101,-25,7,9,9,-1,-6,10,8.105
1622,58,23,-9,-41,-57,-9,20,31,8.11
1623,127,27,15,49,40,33,11,-14,8.115
1624,-123,-27,-28,-16,38,9,-17,0,8.120000000000001
1625,-5,-9,-7,-1,-17,-24,-34,-19,8.125
1626,-4,31,65,30,13,-16,13,-31,8.13
1627,26,-3,-21,-23,-31,0,22,46,8.135
1628,63,-5,-43,-22,-3,30,21,31,8.14
1629,-3,0,-52,-35,-15,-2,11,26,8.145
1630,-13,-36,0,37,10,5,-14,-48,8.15
1631,-53,14,31,9,20,1,-2,-21,8.155
1632,17,21,30,28,13,-8,-4,-6,8.16
1633,-20,-13,26,-6,-6,-2,-16,-2,8.165000000000001
1634,18,0,-24,-8,0,5,32,33,8.17
1635,-23,2,-8,-24,-18,-15,-3,-14,8.175
1636,-9,45,76,36,12,-49,-45,-28,8.18
1637,21,52,102,32,-2,-59,-93,-64,8.185
1638,-40,-44,-66,-48,-9,49,76,19,8.19
1639,-5,-77,-92,-9,1,45,38,57,8.195
1640,75,0,17,-35,-23,-52,-13,24,8.2
1641,64,92,113,100,34,41,37,-43,8.205
1642,59,42,116,33,15,24,24,-49,8.21
1643,13,-75,-69,-67,-18,-32,44,65,8.215
1644,-95,-31,28,-42,-11,127,-25,-38,8.22
1645,108,51,-63,-8,15,-31,26,123,8.225
1646,-80,1,-18,4,13,-38,-57,-82,8.23
1647,-62,-56,-64,-8,-5,-24,-12,-81,8.235
1648,-70,-94,-56,3,-27,-72,9,-84,8.24
1649,-37,19,94,14,-1,43,0,25,8.245000000000001
1650,-2,72,82,9,2,-18,-36,79,8.25
1651,28,127,27,23,11,-7,-9,10,8.255
1652,12,-69,-124,-40,-7,-14,9,101,8.26
1653,-44,23,71,-27,-20,10,2,-14,8.265
1654,3,-30,59,8,-7,-16,-9,-40,8.27
1655,2,105,127,73,23,-17,-50,-69,8.275
1656,40,127,53,56,39,33,27,24,8.28
1657,-18,-55,-33,-55,-18,47,67,49,8.285
1658,0,-128,-116,-74,-17,-12,-19,-12,8.290000000000001
1659,-3,-32,93,17,-3,8,-7,-42,8.295
1660,6,64,127,41,-5,5,-10,-10,8.3
1661,15,-15,-66,4,7,-17,-1,20,8.305
1662,-20,18,-12,7,-1,3,4,-15,8.31
1663,-29,-45,-100,-40,-8,7,-16,11,8.315
1664,-7,-45,-109,-9,-3,-10,23,-1,8.32
1665,-13,-15,30,7,4,-9,-17,-66,8.325
1666,22,35,-70,6,9,20,0,54,8.33
1667,19,17,74,5,-10,-7,7,23,8.335
1668,5,13,50,-4,1,-7,9,-3,8.34
1669,-14,-2,-35,4,2,3,-3,0,8.345
1670,1,-6,39,14,5,-2,-7,-3,8.35
1671,2,18,30,8,0,-5,-5,0,8.355
1672,1,2,-81,-18,-7,9,12,-21,8.36
1673,6,-28,50,7,3,-10,-12,5,8.365
1674,-4,-14,18,1,-22,-9,3,15,8.370000000000001
1675,5,14,7,2,7,3,-5,-4,8.375
1676,10,-5,16,7,19,14,5,-1,8.38
1677,-8,25,-84,-7,-3,-9,3,-7,8.385
1678,-5,-40,3,-9,0,-3,-1,5,8.39
1679,8,1,-5,-9,-17,-2,-11,5,8.395
1680,-19,-59,-23,-20,-15,-10,-4,-20,8.4
1681,-9,-3,-29,-22,-1,-5,2,-6,8.405
1682,5,34,23,16,4,4,-2,0,8.41
1683,7,25,2,8,2,6,-5,7,8.415000000000001
1684,23,17,38,10,4,-1,7,-2,8.42
1685,-16,-11,-40,0,1,-3,-1,-5,8.425
1686,0,-24,-17,-18,-4,1,0,5,8.43
1687,-3,-28,-66,-10,2,4,-9,-28,8.435
1688,8,8,35,4,-3,-3,-3,-8,8.44
1689,1,-16,13,6,-5,10,21,-5,8.445
1690,5,17,-12,2,5,-3,4,15,8.45
1691,-11,3,2,-2,-1,-3,2,6,8.455
1692,1,4,-5,-1,-4,-6,-9,-10,8.46
1693,-4,-10,5,3,0,-12,-8,-2,8.465
1694,-2,10,17,0,2,9,9,8,8.47
1695,1,3,15,4,-1,0,-3,2,8.475
1696,0,10,11,5,3,-2,-3,-4,8.48
1697,-8,-33,-30,-12,-6,-5,-2,8,8.485
1698,-3,1,16,3,2,-3,-5,-7,8.49
1699,1,11,-43,-4,-3,0,-2,6,8.495000000000001
1700,2,-5,9,-4,-4,-2,0,5,8.5
1701,4,-19,-36,-10,1,-2,0,-1,8.505
1702,3,10,10,5,1,-5,-11,-14,8.51
1703,-5,-29,-9,-5,-3,0,-2,5,8.515
1704,11,8,13,-2,-2,1,6,9,8.52
1705,-7,-11,1,1,-4,-4,-7,-14,8.525
1706,0,20,2,2,3,1,-3,5,8.53
1707,2,-2,-24,-4,4,10,22,44,8.535
1708,8,-7,2,0,0,-6,-11,4,8.540000000000001
1709,-3,2,12,0,-2,3,-1,-13,8.545
1710,-7,-10,0,-5,-1,-3,-5,-18,8.55
1711,-7,-2,-3,3,-1,-2,4,-7,8.555
1712,0,-7,-17,-5,-3,-4,-9,20,8.56
1713,2,1,4,0,-2,-4,3,-4,8.565
1714,-6,3,11,-2,-1,-1,-2,6,8.57
1715,4,14,11,7,2,1,-2,-9,8.575000000000001
1716,-1,-6,-4,-19,-6,-1,4,-5,8.58
1717,3,8,2,3,0,-4,-19,-8,8.585
1718,-4,-9,-11,-2,0,0,4,-1,8.59
1719,4,-2,18,-1,2,0,2,0,8.595
1720,-4,6,1,11,3,1,7,-4,8.6
1721,-1,13,17,0,-1,0,1,-1,8.605
1722,-6,-14,-24,-5,-1,0,-3,2,8.61
1723,4,14,21,3,-3,-6,-9,-18,8.615
1724,-4,-1,-1,4,0,0,4,9,8.620000000000001
1725,-7,-33,-20,-15,-3,-2,-1,10,8.625
1726,8,12,15,2,-1,0,-2,-2,8.63
1727,-5,4,16,3,2,-3,-2,9,8.635
1728,-9,3,3,-3,-6,-3,-4,-19,8.64
1729,-4,-9,5,1,-2,-1,-7,-5,8.645
1730,4,-8,-35,-4,0,-1,6,-6,8.65
1731,-6,-12,0,-11,0,-1,-1,8,8.655
1732,-1,0,10,1,-1,-2,1,3,8.66
1733,5,14,1,7,-1,4,6,3,8.665000000000001
1734,-3,-6,6,1,1,-8,-15,-2,8.67
1735,2,-3,1,-3,1,8,8,-10,8.675
1736,2,0,2,1,-1,4,3,7,8.68
1737,-2,-10,-11,-9,-3,-2,0,-5,8.685
1738,-5,1,-11,0,-3,-3,4,-2,8.69
1739,3,14,26,6,-4,-5,-9,3,8.695
1740,-3,-14,-15,-4,-7,-1,2,4,8.700000000000001
1741,-2,-2,13,6,8,3,-2,3,8.705
1742,-1,5,-3,-5,-3,0,4,-5,8.71
1743,4,5,-4,2,0,-5,-7,-7,8.715
1744,-3,17,22,7,1,1,3,-2,8.72
1745,-13,-29,-32,-12,-9,-5,-3,-3,8.725
1746,-1,9,18,4,-1,2,-2,11,8.73
1747,8,4,5,3,0,-2,-6,-22,8.735
1748,3,-9,-8,0,-1,-1,4,8,8.74
1749,-4,-7,18,-1,-2,0,-1,0,8.745000000000001
1750,0,-8,-26,-5,0,1,2,-9,8.75
1751,-8,-19,0,-7,-4,-6,-6,9,8.755
1752,3,18,3,1,1,1,1,1,8.76
1753,-1,6,-8,-2,-1,-4,-3,-7,8.765
1754,-4,2,7,-2,0,2,0,9,8.77
1755,-1,10,2,0,-1,0,1,1,8.775
1756,11,-6,-3,7,4,4,4,-4,8.78
1757,-4,-5,-6,3,0,-1,0,-3,8.785
1758,-10,2,-12,-14,-4,-2,0,-5,8.790000000000001
1759,-2,-7,-12,-5,0,-2,-2,-6,8.795
1760,4,5,4,1,3,-3,-3,5,8.8
1761,9,8,7,7,-1,1,2,5,8.805
1762,8,2,5,1,-3,-1,0,-1,8.81
1763,-5,0,-5,-2,4,0,-2,-6,8.815
1764,-4,-9,4,-2,-2,0,-2,1,8.82
1765,3,0,2,1,0,0,8,11,8.825000000000001
1766,2,-1,14,3,2,-1,-2,-4,8.83
1767,5,15,-14,-2,0,1,-1,10,8.835
1768,-4,-5,-12,-2,-1,-7,-8,-9,8.84
1769,-1,4,-10,-4,-1,-3,-6,-19,8.845
1770,-1,-5,6,3,1,7,7,14,8.85
1771,-8,-19,-37,-4,-5,-1,-1,-1,8.855
1772,-3,7,30,4,3,0,0,2,8.86
1773,3,1,-34,-9,-4,-4,-3,-2,8.865
1774,8,5,5,3,-1,0,-1,4,8.870000000000001
1775,-4,-2,22,5,-2,-1,-2,-3,8.875
1776,-2,-2,-10,-8,-4,-1,2,2,8.88
1777,1,1,4,-4,-1,-2,2,6,8.885
1778,-2,3,-6,-3,3,0,-6,-5,8.89
1779,0,3,2,3,1,0,-1,3,8.895
1780,-3,1,0,-2,-2,-2,-1,-8,8.9
1781,2,11,23,6,1,2,-1,-2,8.905
1782,-2,-13,-23,-3,-4,-1,-2,0,8.91
1783,-4,-16,-13,-2,-3,1,3,-7,8.915000000000001
1784,-3,-15,-2,-1,3,0,-3,1,8.92
1785,2,-5,-5,0,1,-1,-2,1,8.925
1786,-14,4,17,5,0,-2,1,-5,8.93
1787,3,15,8,0,1,1,-2,3,8.935
1788,-2,-5,7,-4,-1,-1,1,-1,8.94
1789,-2,2,-5,0,0,1,-4,-4,8.945
1790,0,-2,-7,1,2,-4,-6,-2,8.950000000000001
1791,0,5,5,-3,-4,-1,4,0,8.955
1792,2,7,-4,1,-3,0,-1,-2,8.96
1793,-6,-7,6,2,2,-3,-3,3,8.965
1794,4,-2,-1,-2,-2,2,-2,-8,8.97
1795,3,11,7,0,1,-1,1,-2,8.975
1796,0,3,-20,-3,-1,-1,1,-1,8.98
1797,-5,-12,9,0,-3,1,0,0,8.985
1798,-3,-13,-7,2,1,-2,-2,1,8.99
1799,2,-4,8,0,-1,-2,-2,8,8.995000000000001
1800,3,11,-8,-8,-1,-3,-5,-10,9.0
1801,-1,11,13,4,0,1,-1,5,9.005
1802,8,13,-3,3,0,-1,-1,2,9.01
1803,-6,-20,-17,-2,-2,-2,-1,-3,9.015
1804,0,-12,-4,1,-1,2,6,4,9.02
1805,-5,-3,1,-6,-2,-2,-1,-10,9.025
1806,1,-1,6,2,-1,-1,1,2,9.03
1807,3,11,18,3,0,-1,-2,4,9.035
1808,2,1,-22,-1,-3,-2,-3,-2,9.040000000000001
1809,6,8,7,5,2,3,1,15,9.045
1810,-8,-2,3,-1,-2,-1,0,-31,9.05
1811,3,-10,-11,0,-1,-3,-2,9,9.055
1812,1,-7,-10,-1,0,-2,1,1,9.06
1813,2,0,-3,1,-1,0,2,3,9.065
1814,2,3,3,1,-3,-4,-3,4,9.07
1815,1,10,10,4,2,0,0,-13,9.075000000000001
1816,-15,-15,1,-5,-3,-3,-8,2,9.08
1817,3,-5,-20,-9,-6,1,6,7,9.085
1818,0,-5,-8,-3,2,1,-3,6,9.09
1819,-2,-8,3,-4,-2,-2,-2,0,9.095
1820,6,10,15,8,4,2,0,5,9.1
1821,-1,5,-1,-2,-2,-4,-3,-13,9.105
1822,-3,-8,-4,0,1,4,2,-4,9.11
1823,-2,-1,-4,5,-1,0,-1,12,9.115
1824,3,5,17,-4,-2,0,0,-4,9.120000000000001
1825,-6,-2,-7,-6,-1,-1,1,-9,9.125
1826,5,7,-1,-2,-1,-1,2,2,9.13
1827,0,-2,4,-1,-2,-1,-2,-5,9.135
1828,0,4,-1,4,1,-1,1,-1,9.14
1829,0,-9,-9,-3,1,-1,-1,0,9.145
1830,-1,12,-15,-1,1,-4,-12,0,9.15
1831,-3,-5,-1,-4,-1,-1,6,1,9.155
1832,-4,-11,-1,-2,-2,-1,0,-2,9.16
1833,-2,2,14,4,0,0,1,0,9.165000000000001
1834,-1,0,4,-1,-2,-1,0,3,9.17
1835,1,7,4,-1,-2,-1,-3,-2,9.175
1836,2,12,-2,4,3,1,-2,-12,9.18
1837,-4,2,4,3,1,0,-3,4,9.185
1838,0,-15,-4,-5,-4,-1,1,9,9.19
1839,4,-6,-6,-6,-1,0,0,1,9.195
1840,-3,-1,4,-2,-1,-1,0,-1,9.200000000000001
1841,0,1,-7,1,1,-2,-2,-7,9.205
1842,1,5,11,4,2,-1,0,2,9.21
1843,-4,-2,9,0,-3,-1,0,-6,9.215
1844,-1,2,-18,2,0,0,-3,-4,9.22
1845,-1,-9,-14,-6,0,0,2,18,9.225
1846,-8,-4,17,-3,-4,-5,-1,-14,9.23
1847,0,1,-7,-1,0,1,0,-2,9.235
1848,0,-3,8,2,0,1,2,-3,9.24
1849,0,2,-3,0,-4,-3,-8,-2,9.245000000000001
1850,1,0,-7,-3,1,-2,1,2,9.25
1851,-2,5,2,1,2,-3,-5,-5,9.255
1852,-5,-9,1,-5,-2,0,0,-2,9.26
1853,-1,0,-2,-4,-5,-3,1,-5,9.265
1854,9,5,-2,3,1,2,2,10,9.27
1855,0,-4,-6,-5,0,-4,-4,-6,9.275
1856,-1,-16,2,-1,-2,-3,1,8,9.28
1857,-3,7,2,1,3,-1,-1,-12,9.285
1858,-3,1,7,4,0,-1,-1,-5,9.290000000000001
1859,-3,-5,-6,1,-1,0,-1,1,9.295
1860,-4,-11,1,1,-2,-1,1,-5,9.3
1861,0,-3,11,0,-2,1,0,-1,9.305
1862,3,-1,-18,-4,-5,0,1,-1,9.31
1863,-3,-10,-10,-4,-2,-1,-4,2,9.315
1864,-2,0,-1,-2,-2,-1,0,9,9.32
1865,1,-6,4,3,0,-1,-1,-2,9.325000000000001
1866,0,8,8,4,2,1,-1,2,9.33
1867,-3,15,-3,-4,0,0,1,6,9.335
1868,0,0,-4,-3,-3,-2,-6,-15,9.34
1869,1,-2,-1,-3,0,-2,-4,0,9.345
1870,-1,-3,4,0,-2,1,1,5,9.35
1871,4,1,0,5,3,1,2,9,9.355
1872,-2,6,5,1,1,-1,1,5,9.36
1873,2,4,-8,1,1,2,2,1,9.365
1874,-7,-15,-4,-4,-2,-1,-3,-10,9.370000000000001
1875,-2,-1,1,-1,-2,-2,4,-7,9.375
1876,0,3,-5,-7,-3,-1,-2,3,9.38
1877,0,1,3,4,2,0,-3,-9,9.385
1878,0,2,16,0,-3,-1,0,2,9.39
1879,-3,-1,-33,-2,1,-1,-2,-5,9.395
1880,4,5,6,1,1,1,-2,6,9.4
1881,-5,-5,4,-5,-4,-2,-1,-1,9.405
1882,2,0,-5,-5,-2,-1,-1,-8,9.41
1883,1,2,12,2,-3,-2,0,4,9.415000000000001
1884,0,-9,-8,1,-1,-2,-2,-1,9.42
1885,-3,-5,-2,-3,-3,-2,-1,0,9.425
1886,-1,0,4,3,-2,0,4,-6,9.43
1887,-1,-3,-17,-11,-3,-2,-9,6,9.435
1888,1,5,-8,-3,-2,-2,5,1,9.44
1889,-1,-2,6,0,1,1,-1,4,9.445
1890,-3,3,5,4,4,0,2,-5,9.450000000000001
1891,-3,-4,-15,0,-1,1,2,10,9.455
1892,-1,-2,4,0,-3,-2,-6,-13,9.46
1893,5,4,4,2,0,-1,2,3,9.465
1894,-2,-7,-15,-7,-1,-2,-2,2,9.47
1895,-1,0,10,-1,-1,-1,-3,-8,9.475
1896,-1,8,12,5,1,1,4,7,9.48
1897,-2,2,-10,-1,-1,-4,-3,-7,9.485
1898,-1,-7,0,-5,-3,0,2,8,9.49
1899,1,0,-5,-1,1,1,-1,-4,9.495000000000001
1900,-2,-9,-6,-1,0,2,0,-6,9.5
1901,-1,8,20,2,-1,-1,-1,-2,9.505
1902,0,2,-13,-4,-1,0,-1,6,9.51
1903,1,-4,10,1,0,-1,0,-3,9.515
1904,-3,-12,-3,-2,-1,-2,-2,0,9.52
1905,-2,0,-7,-1,0,1,-4,2,9.525
1906,-2,4,5,0,-1,-1,2,-15,9.53
1907,-4,-18,8,-2,-4,-2,-6,6,9.535
1908,3,6,-6,-1,0,-3,0,7,9.540000000000001
1909,-3,-1,-5,-3,-1,-3,0,1,9.545
1910,-2,-4,-10,-2,2,-1,-3,3,9.55
1911,2,14,17,9,2,-1,2,-12,9.555
1912,-4,-4,-4,-2,0,1,1,0,9.56
1913,3,-2,0,-3,-3,-2,1,0,9.565
1914,1,0,0,0,1,-3,-4,-5,9.57
1915,-1,-1,-2,0,0,0,3,0,9.575000000000001
1916,-2,3,14,2,-1,2,1,2,9.58
1917,0,1,-15,-1,1,0,1,-4,9.585
1918,-1,-6,-10,-4,-3,-1,-2,4,9.59
1919,2,0,7,0,0,-2,-3,-8,9.595
1920,-4,2,1,0,0,-1,-2,-2,9.6
1921,0,-4,-4,-1,0,0,2,4,9.605
1922,-1,-1,-1,-2,-1,-1,-1,4,9.61
1923,-2,4,3,-1,-3,-2,-1,-6,9.615
1924,4,7,2,0,-1,0,-1,-1,9.620000000000001
1925,-3,-6,-5,-2,-4,-1,-1,-4,9.625
1926,-4,-7,-4,2,-1,-2,-2,0,9.63
1927,2,3,8,0,0,2,4,-1,9.635
1928,-2,0,-3,0,0,-1,-1,-4,9.64
1929,0,2,7,3,0,-1,-2,-15,9.645
1930,-1,-6,-3,-3,0,-1,0,16,9.65
1931,4,-1,-6,-1,-2,-1,-3,4,9.655
1932,2,4,18,4,-3,0,4,4,9.66
1933,-2,-5,-30,-5,-1,1,3,-5,9.665000000000001
1934,0,2,15,3,0,-1,-3,-6,9.67
1935,-3,2,-1,2,0,-1,-1,-3,9.675
1936,-2,-16,-8,-2,0,-3,-4,1,9.68
1937,-1,1,13,0,1,0,-2,2,9.685
1938,4,3,-5,-2,-2,-1,5,0,9.69
1939,-8,-7,-1,-1,-1,1,-2,-5,9.695
1940,0,10,14,0,-1,-2,-5,-6,9.700000000000001
1941,-2,-12,-16,-5,-2,0,0,7,9.705
1942,1,7,3,3,-1,-2,-2,0,9.71
1943,0,0,-2,-2,-2,-1,1,1,9.715
1944,-2,-2,-5,-1,2,-1,0,-3,9.72
1945,0,-4,2,-1,-1,0,-2,0,9.725
1946,-1,-1,-3,-3,-1,-2,-1,-2,9.73
1947,-1,-2,-5,-2,-1,-2,1,-2,9.735
1948,-2,1,-11,-3,-4,0,-2,-2,9.74
1949,1,1,7,-1,-3,-1,1,1,9.745000000000001
1950,-3,-5,1,0,0,1,0,0,9.75
1951,-1,-3,-14,-3,-2,0,2,-6,9.755
1952,-1,-6,-6,-3,0,-1,-2,-1,9.76
1953,-1,1,3,1,-1,-3,-7,-1,9.765
1954,-3,-4,6,-1,-2,1,2,-3,9.77
1955,0,3,-18,-4,-4,0,1,-13,9.775
1956,-3,-10,-6,-3,-3,-1,-3,8,9.78
1957,-2,5,4,2,1,2,2,2,9.785
1958,-3,-1,-2,0,0,-2,-4,-3,9.790000000000001
1959,-3,-10,7,1,0,-2,-2,-1,9.795
1960,1,0,-7,-4,-2,-2,1,-1,9.8
1961,-1,1,7,-1,0,-3,-3,-7,9.805
1962,3,2,-5,-2,1,0,0,-9,9.81
1963,1,1,4,0,-2,-1,-2,10,9.815
1964,1,-2,4,3,0,1,0,6,9.82
1965,-2,-6,-2,-3,-1,2,4,3,9.825000000000001
1966,-4,3,-5,0,-4,-2,-6,-2,9.83
1967,5,6,3,0,0,-3,-3,-4,9.835
1968,-3,0,11,1,-2,1,-1,-7,9.84
1969,1,2,-4,-1,0,-1,6,6,9.845
1970,0,-1,-5,-2,0,-1,2,-4,9.85
1971,3,6,-6,-2,-1,0,-1,3,9.855
1972,-1,-2,-15,-1,1,0,-4,-1,9.86
1973,-3,3,15,3,0,1,4,-4,9.865
1974,2,3,-15,-4,-4,-1,-2,0,9.870000000000001
1975,-2,0,16,2,1,-3,-2,2,9.875
1976,2,2,-2,-2,0,3,5,1,9.88
1977,0,-1,2,0,2,-1,-4,-1,9.885
1978,-4,0,0,-1,-1,1,0,1,9.89
1979,-1,5,5,1,1,1,1,1,9.895
1980,0,10,7,1,1,-1,-1,-4,9.9
1981,-7,-18,-26,-7,-3,-4,-3,-4,9.905
1982,1,-2,2,-3,-1,1,-1,6,9.91
1983,-2,-4,2,0,-1,0,0,-2,9.915000000000001
1984,1,7,0,0,0,-1,-2,-6,9.92
1985,2,-4,0,-1,-1,-2,-1,6,9.925
1986,0,-6,-1,1,1,-1,-2,10,9.93
1987,-7,-10,-1,-3,-2,-1,1,-3,9.935
1988,-1,-4,-5,-3,-1,-1,0,-3,9.94
1989,-3,5,2,-1,-4,-2,0,-6,9.945
1990,0,0,8,3,-1,-1,-1,1,9.950000000000001
1991,-2,-8,-3,-1,1,1,1,-1,9.955
1992,-2,-4,4,-1,-3,-3,-3,-1,9.96
1993,1,2,-16,0,0,1,-3,-2,9.965
1994,0,3,18,3,-1,2,1,-2,9.97
1995,-2,-6,-10,-2,0,-2,-4,-1,9.975
1996,-3,-2,-1,-2,-2,-3,0,-2,9.98
1997,2,2,0,-2,-2,-1,-1,3,9.985
1998,1,8,-7,-1,-2,1,1,0,9.99
1999,-2,-10,-6,-2,-4,-1,-3,-4,9.995000000000001
2000,-1,-2,9,1,-1,0,0,3,10.0
2001,-3,-1,2,0,1,-1,-6,-4,10.005
2002,1,-1,-5,-1,2,-1,2,5,10.01
2003,1,9,4,1,0,0,5,6,10.015
2004,0,0,-9,-2,-3,-1,-1,-1,10.02
2005,-1,0,5,0,0,1,-1,0,10.025
2006,-1,0,-2,0,-1,-1,-4,-8,10.03
2007,-1,-4,3,-2,-1,-2,0,-1,10.035
2008,0,3,-7,-5,-3,-2,2,0,10.040000000000001
2009,-2,-14,-2,1,-2,-2,-3,6,10.045
2010,-3,-8,-2,-1,-2,-2,-1,-4,10.05
2011,0,-4,-2,0,0,-2,-2,2,10.055
2012,-1,0,-4,-4,-3,0,-2,-2,10.06
2013,4,5,2,-3,-3,-1,1,0,10.065
2014,-1,6,12,1,0,-1,-2,-10,10.07
2015,0,1,-11,-2,-2,0,-7,7,10.075000000000001
2016,-5,-7,-9,3,2,1,4,0,10.08
2017,1,2,-2,0,0,-4,-4,-8,10.085
2018,1,-2,2,-4,-3,-1,-1,2,10.09
2019,2,9,5,2,0,-1,1,-7,10.095
2020,2,3,7,2,0,-1,-1,0,10.1
2021,-3,-5,-2,1,1,1,0,2,10.105
2022,-5,-5,-8,-2,-2,-2,-2,-4,10.11
2023,0,5,8,-1,0,1,5,-1,10.115
2024,2,-4,-3,1,1,-1,-4,-8,10.120000000000001
2025,0,-3,3,-3,-3,-1,-2,3,10.125
2026,-4,-3,-3,-1,0,-1,-1,2,10.13
2027,-4,3,-5,0,3,1,2,2,10.135
2028,-3,-1,-2,-3,-4,-4,-1,0,10.14
2029,-3,0,1,0,1,2,-1,-8,10.145
2030,6,0,3,0,-1,-1,1,9,10.15
2031,0,-4,-9,0,-2,-3,-3,-3,10.155
2032,2,1,-9,-4,-2,-1,-2,2,10.16
2033,1,2,4,2,0,0,1,0,10.165000000000001
2034,-1,-1,12,0,-2,-1,0,-3,10.17
2035,-3,-6,-24,-4,0,-1,0,-3,10.175
2036,-5,-5,3,0,-1,-1,-4,-2,10.18
2037,4,3,-2,0,-2,1,1,4,10.185
2038,2,9,4,1,-2,-1,-2,-5,10.19
2039,1,14,18,0,-3,0,1,1,10.195
2040,4,11,-2,0,-1,-2,1,2,10.200000000000001
2041,-1,-18,-11,-1,2,-3,0,1,10.205
2042,-2,-7,2,1,-1,-2,-1,-15,10.21
2043,-1,-2,-7,-7,-3,-3,-4,4,10.215
2044,4,5,2,1,1,0,-2,1,10.22
2045,-4,14,9,-3,-2,-2,1,0,10.225
2046,-4,-14,-14,-1,-2,-1,1,10,10.23
2047,-1,-4,-8,0,-2,-2,-8,-14,10.235
2048,3,-6,-1,1,-1,0,0,-1,10.24
2049,0,1,-1,0,-3,-3,-3,-2,10.245000000000001
2050,-6,-1,-3,0,1,0,-1,1,10.25
2051,-5,-5,2,-1,-2,1,1,-3,10.255
2052,-2,3,4,0,-2,-2,-4,5,10.26
2053,0,-3,1,-1,-1,1,1,-1,10.265
2054,2,10,-3,-3,-1,0,0,-2,10.27
2055,-1,2,6,0,1,-1,0,1,10.275
2056,1,-1,-4,-5,2,-2,0,-5,10.28
2057,-2,-3,2,-1,-2,-1,-2,-3,10.285
2058,-1,-2,-3,-1,-1,-2,-3,-2,10.290000000000001
2059,4,-5,-10,-1,-3,0,-1,-2,10.295
2060,-5,-10,0,3,1,-1,2,0,10.3
2061,-2,2,0,0,-1,0,0,1,10.305
2062,2,0,-1,1,0,0,-1,0,10.31
2063,0,1,12,2,0,-1,0,4,10.315
2064,-11,-8,-10,-3,-1,-2,-10,-29,10.32
2065,1,-2,-3,-1,-1,-2,7,17,10.325000000000001
2066,0,-6,-9,-3,-3,0,5,4,10.33
2067,1,6,3,-1,-1,1,0,4,10.335
2068,3,1,3,-1,-2,-1,3,2,10.34
2069,0,11,2,1,2,0,-6,-14,10.345
2070,-1,-11,-7,-1,-4,-1,-3,-6,10.35
2071,0,-7,3,2,1,3,2,0,10.355
2072,-1,0,-4,-2,-3,0,0,7,10.36
2073,-3,5,5,2,1,-1,-2,-4,10.365
2074,2,3,-2,-1,2,-1,2,5,10.370000000000001
2075,-2,2,-16,-1,0,-2,-2,-9,10.375
2076,4,0,9,-2,0,-1,2,8,10.38
2077,-1,-9,-12,-4,0,0,-1,2,10.385
2078,-1,2,8,1,-1,0,-2,-3,10.39
2079,-2,-6,5,-1,-2,-2,-1,-2,10.395
2080,1,5,3,1,1,-2,-1,1,10.4
2081,0,0,2,0,-2,-1,-8,-4,10.405
2082,-7,-9,-2,-1,0,1,5,-13,10.41
2083,1,-4,-6,-4,-1,-3,-3,12,10.415000000000001
2084,1,-3,-4,0,0,1,2,7,10.42
2085,-1,-2,1,0,-2,-3,-1,-2,10.425
2086,2,11,7,2,1,-2,-10,-4,10.43
2087,-1,4,-7,1,-2,0,7,-2,10.435
2088,-8,-15,7,-1,-2,-2,0,-10,10.44
2089,0,-1,-4,1,2,1,0,9,10.445
2090,3,-5,-6,-5,-1,-2,-2,6,10.450000000000001
2091,-3,-2,8,-2,-1,-2,-1,-4,10.455
2092,3,9,-1,4,0,2,2,0,10.46
2093,-1,0,6,0,-1,-2,-3,-8,10.465
2094,-5,0,-3,-1,-2,-1,0,0,10.47
2095,1,3,12,1,1,0,-2,3,10.475
2096,-6,-6,-8,-1,-1,0,-2,-7,10.48
2097,-2,-8,-3,-1,-2,-1,4,-2,10.485
2098,2,2,-3,-1,0,-1,-2,2,10.49
2099,0,0,1,-1,-2,0,-3,0,10.495000000000001
2100,3,5,6,2,1,-1,-2,-5,10.5
2101,-5,-14,-24,-6,-3,1,3,0,10.505
2102,-1,-2,1,-1,-3,1,-1,-2,10.51
2103,0,2,-1,1,-3,-2,-1,6,10.515
2104,0,2,2,0,-1,0,1,3,10.52
2105,1,7,4,1,0,-3,0,-3,10.525
2106,-3,-2,-3,-5,0,-2,-1,4,10.53
2107,-2,-7,1,0,2,2,-2,-5,10.535
2108,-3,-6,-7,-2,-1,-1,-2,2,10.540000000000001
2109,3,7,-1,-1,-1,-1,-2,-1,10.545
2110,-3,-1,-1,0,-2,0,0,-5,10.55
2111,3,11,4,-1,-2,-1,-3,-4,10.555
2112,-2,-3,-7,-3,-1,-2,0,2,10.56
2113,1,5,14,1,-1,0,-3,-9,10.565
2114,-2,-3,-7,-1,-1,-1,0,19,10.57
2115,0,-3,3,-2,-2,1,1,-15,10.575000000000001
2116,0,-9,-33,-5,-3,-2,4,2,10.58
2117,0,6,3,-1,-2,-2,-2,-4,10.585
2118,3,5,1,1,0,0,-3,-1,10.59
2119,0,3,8,2,2,0,4,3,10.595
2120,-6,-1,5,0,-1,-3,-8,-7,10.6
2121,-1,2,3,-1,0,-1,1,2,10.605
2122,1,-4,1,-1,1,0,1,-3,10.61
2123,-1,-5,-9,-3,-4,0,-2,1,10.615
2124,-1,-1,2,0,1,0,-1,-6,10.620000000000001
2125,-3,-6,-5,0,1,-1,-2,1,10.625
2126,3,8,10,4,0,0,0,15,10.63
2127,-4,-10,-3,-2,0,-1,-2,-3,10.635
2128,1,-1,-18,-3,-2,0,-1,7,10.64
2129,-1,0,6,-2,-2,1,3,-7,10.645
2130,1,4,-5,-1,0,1,2,-8,10.65
2131,-2,2,1,3,-2,0,-3,-1,10.655
2132,-1,2,8,3,2,0,-2,-1,10.66
2133,-1,3,1,0,1,0,-3,1,10.665000000000001
2134,-2,-7,0,-5,-4,-1,1,-6,10.67
2135,-4,-14,-6,-3,-2,-2,-2,4,10.675
2136,-3,-7,4,-3,0,-1,0,-2,10.68
2137,1,3,14,4,1,-2,-7,1,10.685
2138,-5,1,-1,0,0,0,3,-3,10.69
2139,-7,-9,-15,1,0,-1,0,3,10.695
2140,-1,-5,1,-2,-4,-1,0,-3,10.700000000000001
2141,-5,-11,0,-2,-3,2,1,11,10.705
2142,0,0,-11,0,3,-2,-3,2,10.71
2143,6,11,9,2,3,-1,-1,-4,10.715
2144,0,3,-1,1,-1,-1,0,1,10.72
2145,4,6,4,0,-1,0,0,-3,10.725
2146,-3,2,-1,0,-2,0,-4,-10,10.73
2147,-1,-1,-6,-3,-1,0,0,4,10.735
2148,0,1,7,2,-1,-1,-2,3,10.74
2149,-1,4,-5,-1,-2,-1,1,-1,10.745000000000001
2150,-5,-12,-6,1,-3,-1,0,-7,10.75
2151,0,1,-9,-2,-3,-2,2,1,10.755
2152,-2,1,18,3,1,0,-3,-8,10.76
2153,4,-4,-11,-4,1,-1,-1,-3,10.765
2154,-3,1,1,-2,1,-2,-4,7,10.77
2155,1,3,4,0,0,-1,-4,-15,10.775
2156,0,-3,-1,-3,0,0,4,7,10.78
2157,-2,2,-2,1,0,0,5,-6,10.785
2158,3,-2,-4,-3,0,0,0,3,10.790000000000001
2159,-2,-2,-3,-5,-4,0,-4,0,10.795
2160,1,5,0,-1,-1,-2,-3,-8,10.8
2161,0,-2,-5,0,0,-1,-2,5,10.805
2162,1,7,5,-1,-2,-2,-1,-2,10.81
2163,-3,-1,0,1,0,0,-1,0,10.815
2164,-2,-8,-4,-2,-3,-2,-4,-4,10.82
2165,-2,-6,-3,-1,-1,2,2,-3,10.825000000000001
2166,3,-1,0,-1,0,-2,-2,-5,10.83
2167,-4,4,0,-2,-1,-1,1,0,10.835
2168,-4,7,5,3,0,1,0,1,10.84
2169,-7,-17,-8,-2,0,-2,-2,-1,10.845
2170,-2,-7,7,-2,-2,0,-3,-2,10.85
2171,4,-2,-12,-1,-1,-2,4,6,10.855
2172,0,2,-3,-3,-2,-3,-5,3,10.86
2173,-1,1,-2,-2,-2,-3,0,1,10.865
2174,-3,-5,0,2,-1,0,1,-8,10.870000000000001
2175,0,1,2,0,1,0,0,-1,10.875
2176,5,9,0,1,0,-1,1,-3,10.88
2177,6,2,4,-3,-1,-3,-2,0,10.885
2178,3,4,-19,-2,1,-1,-1,4,10.89
2179,-4,-18,8,1,-1,-1,0,1,10.895
2180,0,-2,-8,-2,-1,0,1,2,10.9
2181,-3,-9,1,-2,-2,-1,-2,-5,10.905
2182,-2,3,-7,-2,1,0,-3,-3,10.91
2183,-1,-1,-1,-2,-1,-2,-8,0,10.915000000000001
2184,0,2,8,1,-1,1,6,-3,10.92
2185,1,8,1,2,1,0,1,2,10.925
2186,-3,-5,1,-2,-5,-1,-1,0,10.93
2187,-3,-15,-9,-5,-2,-3,-1,-5,10.935
2188,-6,-11,-9,-8,-3,-1,-2,0,10.94
2189,3,2,1,1,-1,-2,-2,3,10.945
2190,1,-1,6,2,-1,1,1,-2,10.950000000000001
2191,-1,-2,-2,-1,-3,0,1,-4,10.955
2192,2,2,0,0,0,1,2,3,10.96
2193,-2,5,2,5,1,-1,1,2,10.965
2194,-3,2,11,9,-1,-1,-1,-2,10.97
2195,0,-1,-15,-17,-3,0,-1,-3,10.975
2196,-1,-6,-5,-1,-1,0,-4,1,10.98
2197,-1,8,-5,-1,-1,-1,0,-2,10.985
2198,1,-2,3,-1,-1,-3,-2,-2,10.99
2199,4,20,8,9,-1,-1,1,1,10.995000000000001
2200,-4,-8,-2,-1,1,-3,-2,0,11.0
2201,-1,3,-3,-4,-3,1,-8,-7,11.005
2202,-1,0,3,-1,0,0,7,7,11.01
2203,-1,-18,-2,0,0,0,1,7,11.015
2204,2,-4,-2,0,0,-1,-2,1,11.02
2205,1,6,5,2,-3,-1,-2,0,11.025
2206,-3,3,-4,-3,1,-1,1,-9,11.03
2207,1,9,5,1,0,1,-5,-2,11.035
2208,-1,-6,-8,0,1,2,4,-9,11.040000000000001
2209,-2,-9,-5,-5,-2,-2,-2,7,11.045
2210,4,5,-3,-5,-1,-1,-2,2,11.05
2211,-2,-1,0,1,-1,-1,1,-3,11.055
2212,-3,0,-4,-2,-2,-3,-7,4,11.06
2213,-1,-7,-4,-4,-2,-3,3,-6,11.065
2214,-2,5,3,2,2,0,-1,-1,11.07
2215,2,8,7,4,1,-2,-4,1,11.075000000000001
2216,3,9,0,-5,1,-1,1,-3,11.08
2217,-3,-8,0,-2,1,-1,0,0,11.085
2218,-4,-15,-6,3,-2,1,-1,1,11.09
2219,2,17,7,1,0,-1,0,-4,11.095
2220,-3,-3,2,-1,-1,-2,-1,1,11.1
2221,-4,-5,-4,-2,-1,0,-1,-3,11.105
2222,1,-12,-3,0,-3,-1,-3,0,11.11
2223,5,6,3,1,0,0,0,6,11.115
2224,13,-5,-6,0,-1,0,4,2,11.120000000000001
2225,5,-1,1,6,2,-1,0,-4,11.125
2226,-31,0,-1,-2,-2,-1,-5,-4,11.13
2227,-5,-14,-8,-6,-2,-1,-1,3,11.135
2228,14,5,-1,-1,0,3,16,11,11.14
2229,3,-5,-2,1,-3,-2,-13,-5,11.145
2230,47,12,11,-4,0,-5,-4,-4,11.15
2231,-62,8,3,4,2,-1,-4,-16,11.155
2232,-25,-1,-5,0,-2,-2,-10,-8,11.16
2233,0,-21,-27,-9,-4,2,13,-2,11.165000000000001
2234,12,-7,4,2,-1,-2,-6,4,11.17
2235,31,10,0,-3,0,-2,1,17,11.175
2236,11,10,6,8,5,2,1,0,11.18
2237,0,23,9,3,1,1,8,1,11.185
2238,2,-9,-2,-7,-4,-3,8,1,11.19
2239,12,-16,7,5,-1,0,0,5,11.195
2240,-4,2,1,-5,-6,-3,-14,-7,11.200000000000001
2241,17,-15,-13,-2,1,3,-1,-15,11.205
2242,-61,10,2,2,5,-3,-13,-13,11.21
2243,-1,-10,-7,0,-2,-7,-6,-4,11.215
2244,-3,12,-9,-4,1,-1,-7,-2,11.22
2245,14,-13,10,4,-2,-2,-11,10,11.225
2246,-77,-23,-4,3,-2,3,21,1,11.23
2247,12,-23,-11,-6,-4,4,37,8,11.235
2248,40,-16,0,-8,-12,-3,12,21,11.24
2249,-1,36,4,7,8,5,8,5,11.245000000000001
2250,46,6,-23,14,7,-7,-59,-58,11.25
2251,4,21,0,-5,4,-2,-22,11,11.255
2252,-25,-2,37,-6,-14,-6,-5,6,11.26
2253,35,-7,21,-7,-6,-2,32,30,11.265
2254,-37,2,6,3,9,8,15,0,11.27
2255,10,-29,-6,9,11,2,7,-4,11.275
2256,-58,29,-9,14,23,6,-6,-35,11.28
2257,78,-12,-1,-7,-11,-1,-19,4,11.285
2258,-53,-7,-5,-15,-12,-2,-3,-9,11.290000000000001
2259,11,18,0,-25,-9,-2,-16,-19,11.295
2260,-82,-24,-4,4,-14,-6,2,11,11.3
2261,-15,-3,-6,-9,16,2,10,-20,11.305
2262,32,-3,-5,15,-18,-14,1,45,11.31
2263,32,-6,-14,15,51,6,-28,-18,11.315
2264,90,15,11,35,-2,4,21,10,11.32
2265,-33,17,-6,-24,-11,2,1,9,11.325000000000001
2266,35,-35,4,11,-11,-5,11,22,11.33
2267,-67,-38,-7,-9,-13,-3,4,-6,11.335
2268,101,58,1,8,22,-2,-8,-23,11.34
2269,-24,-56,7,16,7,13,20,12,11.345
2270,8,1,12,0,26,5,-45,-27,11.35
2271,48,-12,0,0,-21,3,28,21,11.355
2272,40,-13,-40,1,1,0,25,38,11.36
2273,16,28,4,1,-27,-22,-16,-5,11.365
2274,-72,-2,0,-19,-18,-12,-9,-11,11.370000000000001
2275,-51,-20,3,-11,23,5,-13,-16,11.375
2276,33,-17,12,-7,-4,3,-6,-24,11.38
2277,-76,4,15,7,-1,6,7,4,11.385
2278,70,45,-30,-15,0,3,12,5,11.39
2279,39,7,37,6,-28,-4,16,12,11.395
2280,-53,-8,-21,-1,9,-10,-33,-4,11.4
2281,-6,-11,-27,29,15,-3,-6,4,11.405
2282,15,5,12,-2,-7,4,-2,-21,11.41
2283,-22,47,26,26,-13,-2,10,-8,11.415000000000001
2284,34,-4,13,-45,9,6,-1,4,11.42
2285,-61,-47,15,-12,-40,-21,-21,23,11.425
2286,44,34,-15,24,57,19,3,-41,11.43
2287,-13,-15,-22,-18,-16,-3,7,15,11.435
2288,63,6,30,10,-24,-14,5,22,11.44
2289,-92,11,-17,-10,9,4,-26,-44,11.445
2290,54,8,15,-3,-34,-17,1,48,11.450000000000001
2291,-55,-32,8,-4,31,15,5,-38,11.455
2292,-28,14,-8,-7,4,-5,-32,-20,11.46
2293,85,6,-39,-33,-11,-2,23,29,11.465
2294,-28,-18,7,46,7,6,8,-2,11.47
2295,51,41,-15,-38,-6,5,22,24,11.475
2296,-49,-77,-36,-63,-41,-13,-17,-17,11.48
2297,42,31,18,2,16,2,-8,-13,11.485
2298,-81,-10,13,50,-33,-10,13,17,11.49
2299,70,26,-7,3,53,14,2,11,11.495000000000001
2300,-82,-16,1,-13,-18,-3,-10,-30,11.5
2301,52,28,13,18,7,5,-14,-6,11.505
2302,-9,-42,-10,-32,25,12,55,35,11.51
2303,-43,-9,6,29,-31,-14,-48,-43,11.515
2304,63,23,-4,6,14,1,-8,16,11.52
2305,-2,32,15,-4,2,0,-1,-15,11.525
2306,21,-20,23,-21,-56,-16,-7,23,11.53
2307,53,-10,-27,31,48,12,15,-8,11.535
2308,-63,-31,-31,-28,20,15,8,-11,11.540000000000001
2309,-8,-14,-5,5,2,3,14,29,11.545
2310,5,20,13,-45,-10,-1,-2,-19,11.55
2311,-8,-9,-24,6,-38,-16,-23,-12,11.555
2312,37,19,40,27,0,11,21,7,11.56
2313,-34,-20,-21,-20,-10,-11,-4,-15,11.565
2314,-41,-21,-29,-27,4,-4,-3,-8,11.57
2315,38,25,2,-19,-11,4,23,43,11.575000000000001
2316,-72,22,-4,15,16,-6,-22,-24,11.58
2317,-19,-36,4,-18,-21,-11,-19,-2,11.585
2318,39,10,7,-6,-1,9,-5,-11,11.59
2319,-4,0,-8,-10,-9,-6,-9,-21,11.595
2320,69,12,29,73,-8,24,58,53,11.6
2321,-22,21,-8,9,20,-21,-19,-8,11.605
2322,119,54,8,4,9,-4,-15,2,11.61
2323,-110,-93,-57,-31,10,-3,-9,-5,11.615
2324,53,22,17,-4,-24,-7,7,-13,11.620000000000001
2325,31,-15,-23,20,35,10,-6,-12,11.625
2326,36,48,6,-12,-13,8,17,1,11.63
2327,3,15,15,22,3,2,7,35,11.635
2328,-63,4,27,82,-24,-15,-2,-25,11.64
2329,21,-7,-13,-54,63,20,-6,8,11.645
2330,-30,-24,13,22,15,2,15,31,11.65
2331,75,11,-18,-30,-3,-5,-22,-3,11.655
2332,-71,-60,-28,-28,-6,-4,-15,-8,11.66
2333,-51,25,28,45,-4,9,15,-21,11.665000000000001
2334,57,-32,-18,-20,-5,6,17,15,11.67
2335,-106,-4,26,-2,-20,-20,-16,-25,11.675
2336,9,11,-7,-4,21,-1,16,17,11.68
2337,16,-9,3,-9,-43,-9,-6,0,11.685
2338,-42,4,1,-20,4,4,-12,-14,11.69
2339,46,6,26,60,35,8,15,29,11.695
2340,-7,-1,-4,-59,-14,-8,-21,-16,11.700000000000001
2341,-36,15,-23,38,8,16,36,8,11.705
2342,-31,1,22,20,8,-18,-42,-24,11.71
2343,27,21,-10,-29,-9,3,8,-1,11.715
2344,8,-10,-10,2,-8,1,12,29,11.72
2345,2,-28,-3,-39,-12,-15,-43,-46,11.725
2346,15,20,18,54,6,19,49,35,11.73
2347,-49,11,-11,15,11,-13,-13,-1,11.735
2348,79,20,-8,-13,18,4,-8,-7,11.74
2349,-2,-26,8,-37,-41,-9,4,15,11.745000000000001
2350,-32,-47,-29,15,-4,-21,-40,-43,11.75
2351,-31,-8,5,-5,-30,-1,-9,-17,11.755
2352,-3,-18,-10,7,22,6,3,11,11.76
2353,0,22,28,54,-8,6,15,0,11.765
2354,-18,-24,-17,-56,20,-3,2,22,11.77
2355,5,-22,-29,10,-6,-8,-8,-15,11.775
2356,-31,13,5,-21,-8,1,-3,-23,11.78
2357,16,20,7,25,10,2,11,30,11.785
2358,-3,3,-5,-7,8,4,-8,-14,11.790000000000001
2359,-18,20,43,4,-19,1,-7,-19,11.795
2360,36,-12,-22,-31,-17,-11,-24,8,11.8
2361,-4,-22,2,-7,15,-4,-3,6,11.805
2362,26,-3,-25,-31,-9,0,3,-14,11.81
2363,-9,21,18,59,30,10,15,23,11.815
2364,-28,-28,10,-1,-8,2,1,-14,11.82
2365,-18,-1,-12,-17,-10,-4,-14,-17,11.825000000000001
2366,-7,32,2,33,-4,-4,13,17,11.83
2367,19,-31,-7,-54,0,-2,-13,-16,11.835
2368,12,-20,-23,-6,-2,-4,-9,13,11.84
2369,-18,10,9,-5,-5,0,3,-5,11.845
2370,60,28,6,10,-12,4,24,4,11.85
2371,-33,-11,7,-17,-22,-13,-6,3,11.855
2372,-19,24,11,23,28,1,-6,13,11.86
2373,44,-9,-25,-11,-4,6,33,-1,11.865
2374,-13,-7,2,-21,-14,-13,-41,-29,11.870000000000001
2375,25,24,33,12,-20,4,18,1,11.875
2376,-49,-6,-18,63,73,24,9,14,11.88
2377,35,-22,1,-3,-11,-9,-8,13,11.885
2378,-28,2,-10,-5,8,4,5,-8,11.89
2379,43,9,10,-33,-35,-10,-3,-3,11.895
2380,-48,18,13,-3,-16,-2,10,-15,11.9
2381,13,7,-7,15,9,-2,-19,-1,11.905
2382,-3,-1,-5,-15,11,6,11,6,11.91
2383,1,21,-1,-1,4,2,7,15,11.915000000000001
2384,16,-3,8,-6,-7,3,13,-15,11.92
2385,1,-3,-4,-9,-9,7,29,23,11.925
2386,-46,-20,-1,-24,-29,-12,-13,16,11.93
2387,7,-19,-29,-28,12,2,-19,-37,11.935
2388,17,3,-1,41,16,-7,-18,-9,11.94
2389,26,2,2,0,-5,4,11,-6,11.945
2390,-44,-9,2,0,-13,-6,0,14,11.950000000000001
2391,11,-11,4,-7,-5,4,24,36,11.955
2392,4,5,-11,-27,-31,-4,3,-15,11.96
2393,29,20,8,-8,8,-16,-69,-59,11.965
2394,4,20,-11,0,16,10,13,-11,11.97
2395,-8,-36,-4,9,2,-5,-28,-9,11.975
2396,-14,-22,2,-10,-5,-1,52,43,11.98
2397,-10,2,-18,-27,-17,-4,4,-6,11.985
2398,29,-6,10,21,16,6,-16,-8,11.99
2399,6,29,-6,19,1,-6,11,27,11.995000000000001
2400,11,-16,9,-29,-24,-5,-11,-21,12.0
2401,-21,5,13,25,23,9,24,41,12.005
2402,-1,3,0,-15,0,-5,-12,-31,12.01
2403,5,8,-11,3,-13,-1,5,3,12.015
2404,-3,-1,0,16,11,2,-10,3,12.02
2405,20,18,8,-12,-6,-3,43,51,12.025
2406,4,-1,-11,13,10,4,-40,-46,12.030000000000001
2407,-1,10,25,12,5,-5,-14,-13,12.035
2408,-6,2,-23,-24,-17,-8,-32,-9,12.040000000000001
2409,-10,-1,-7,10,7,3,16,-2,12.045
2410,-11,-3,8,11,-4,-2,12,6,12.05
2411,14,-1,1,-6,-6,-5,1,-3,12.055
2412,15,10,2,-12,4,14,-6,7,12.06
2413,-22,-23,-30,-6,-8,-1,-13,-19,12.065
2414,-2,-12,8,12,-1,-1,9,19,12.07
2415,-11,-2,14,-3,6,-13,-9,-17,12.075000000000001
2416,9,37,32,-2,0,7,-1,-15,12.08
2417,-7,-23,-49,-4,-4,-5,12,8,12.085
2418,-32,-32,-25,-15,-10,-10,3,7,12.09
2419,21,12,13,1,1,40,37,20,12.095
2420,-4,14,26,9,1,-30,-23,-31,12.1
2421,16,47,34,16,3,11,-26,25,12.105
2422,-9,26,25,1,2,1,0,-55,12.11
2423,-3,-42,-95,-9,-5,-29,-15,12,12.115
2424,1,-47,-28,-18,-6,16,-1,37,12.120000000000001
2425,17,-8,11,-5,-6,19,32,4,12.125
2426,-3,-14,16,0,5,9,2,11,12.13
2427,-25,23,40,19,9,-5,6,-22,12.135
2428,-12,14,10,3,-1,-12,-10,-7,12.14
2429,-10,7,-6,0,0,-53,-36,-23,12.145
2430,8,9,-11,5,0,17,12,28,12.15
2431,-8,-6,-21,-9,-1,16,13,-16,12.155000000000001
2432,7,8,12,4,1,-15,0,14,12.16
2433,16,-1,18,4,0,5,-17,-6,12.165000000000001
2434,-9,-4,-5,-8,-1,-12,0,-5,12.17
2435,30,6,36,7,-3,-8,-7,6,12.175
2436,-22,-3,-50,-2,-3,12,-33,-5,12.18
2437,-27,9,41,5,6,-2,37,-20,12.185
2438,13,47,-29,3,5,13,4,37,12.19
2439,-22,-79,-112,-32,-11,5,4,3,12.195
2440,23,1,116,1,-6,-20,14,-9,12.200000000000001
2441,19,71,75,26,8,17,-26,14,12.205
2442,-10,-90,-91,-27,-8,-9,-11,-40,12.21
2443,0,85,127,11,4,5,16,28,12.215
2444,5,9,38,16,-1,-2,12,-10,12.22
2445,-45,-101,-85,-32,-12,-8,-22,15,12.225
2446,27,31,46,9,-1,-8,-4,0,12.23
2447,53,-15,-5,2,3,7,-3,68,12.235
2448,-18,-20,-89,-14,2,13,16,-45,12.24
2449,-16,37,31,12,3,-6,-22,-29,12.245000000000001
2450,17,2,-3,8,0,-1,12,4,12.25
2451,3,14,17,1,-4,-5,-3,-25,12.255
2452,-3,-8,-26,7,0,0,5,23,12.26
2453,-4,-13,-30,-1,-2,4,-5,-18,12.265
2454,-17,-12,-12,-10,-3,-2,11,2,12.27
2455,-19,6,28,11,1,-2,-12,-10,12.275
2456,12,20,14,2,0,4,11,30,12.280000000000001
2457,-3,-1,12,-6,1,2,1,-10,12.285
2458,-2,-35,-27,-9,-2,-3,-5,-4,12.290000000000001
2459,-2,25,46,4,0,-4,-3,0,12.295
2460,4,-17,-57,-22,-1,1,3,9,12.3
2461,-9,-10,-11,4,1,3,4,-22,12.305
2462,9,17,57,12,-2,-3,-4,21,12.31
2463,-26,-14,8,2,0,-1,-6,-28,12.315
2464,-6,-8,0,5,-5,-7,-7,-2,12.32
2465,5,-27,-12,-10,-1,5,5,14,12.325000000000001
2466,15,42,-15,8,5,3,9,27,12.33
2467,-6,-19,-77,-3,-5,1,-3,-10,12.335
2468,15,25,84,-7,-3,-8,-8,-15,12.34
2469,6,-1,-3,3,-3,-4,0,-3,12.345
2470,-10,-14,0,-1,-3,0,-8,-4,12.35
2471,1,16,8,-1,1,0,-3,-14,12.355
2472,6,9,-23,3,1,4,8,10,12.36
2473,0,3,-8,1,0,0,-1,-3,12.365
2474,0,-3,16,0,1,-3,-2,-6,12.370000000000001
2475,-3,-6,-14,-6,-4,-5,0,0,12.375
2476,-2,-7,-16,-3,1,3,4,2,12.38
2477,-2,-6,-5,-5,0,-1,0,0,12.385
2478,3,11,25,8,4,2,0,1,12.39
2479,-6,-7,-21,-7,1,-2,-1,-2,12.395
2480,-5,-11,-11,-5,-5,-2,-1,1,12.4
2481,6,11,3,2,-4,-1,2,-16,12.405000000000001
2482,1,1,12,3,-1,-5,-11,7,12.41
2483,-4,-3,7,0,4,2,-1,-4,12.415000000000001
2484,3,-5,-2,-1,1,2,5,8,12.42
2485,-4,-2,-23,-8,-2,-6,-4,-3,12.425
2486,1,11,7,-1,-3,-4,-2,-4,12.43
2487,-5,-4,0,2,-4,1,-1,-7,12.435
2488,-5,2,17,9,4,2,3,4,12.44
2489,-7,3,6,6,1,-4,-1,3,12.445
2490,-5,-9,-11,-5,-4,1,-1,-1,12.450000000000001
2491,0,-2,-1,-1,0,-1,-3,-4,12.455
2492,-2,-13,-17,-5,-1,4,1,-16,12.46
2493,16,13,18,7,-2,1,0,21,12.465
2494,2,-4,-16,-10,-1,0,0,-1,12.47
2495,3,-2,-6,-4,-1,-2,1,-2,12.475
2496,-5,-7,-6,1,3,-1,-1,-5,12.48
2497,7,2,2,0,-1,-3,-3,1,12.485
2498,0,-2,26,6,0,-1,1,-1,12.49
2499,0,9,1,1,1,2,3,1,12.495000000000001
2500,-1,-5,-34,-3,-1,-4,-6,0,12.5
2501,-3,1,18,-1,-2,0,2,1,12.505
2502,1,-6,-4,5,-2,3,2,1,12.51
2503,0,2,-18,-7,-2,-1,-3,-1,12.515
2504,-2,3,4,2,-1,-5,-3,-1,12.52
2505,-1,-1,-2,-1,3,0,2,11,12.525
2506,4,1,9,0,2,3,1,-7,12.530000000000001
2507,-14,3,-2,-4,-2,-2,-2,-15,12.535
2508,1,2,16,4,-1,-3,-1,8,12.540000000000001
2509,-5,-5,2,-1,-1,0,2,-4,12.545
2510,-4,-6,-7,-3,-5,-7,2,18,12.55
2511,12,-2,-5,2,0,3,-4,-7,12.555
2512,5,-3,-15,-10,-3,0,1,-5,12.56
2513,4,-5,-8,-4,-2,0,-5,-12,12.565
2514,-4,7,7,2,1,1,4,-4,12.57
2515,-4,-6,11,3,2,-1,0,9,12.575000000000001
2516,-1,7,1,0,-1,0,2,-1,12.58
2517,-1,-9,-1,-2,-3,-1,0,1,12.585
2518,-2,0,-12,-2,0,-1,-2,-3,12.59
2519,7,3,3,-4,-3,-6,2,4,12.595
2520,0,7,4,0,1,-1,-6,0,12.6
2521,-6,0,25,11,-1,2,-1,-7,12.605
2522,-3,-5,-17,-11,-3,-1,-2,-14,12.61
2523,-5,-13,-2,-6,-1,-1,1,12,12.615
2524,-1,-4,-2,-2,0,-4,-1,-3,12.620000000000001
2525,3,3,-8,-5,-1,1,2,-2,12.625
2526,0,0,23,7,-2,1,0,-1,12.63
2527,0,11,-5,6,0,-3,-3,-21,12.635
2528,-4,-10,-30,-1,-3,-1,5,16,12.64
2529,-1,-15,4,-3,-3,0,-4,-3,12.645
2530,-3,-3,7,-1,-1,-1,-1,-4,12.65
2531,3,1,-5,-4,-1,-1,-3,4,12.655000000000001
2532,-1,6,15,2,1,-1,-3,-7,12.66
2533,0,3,-11,-3,1,-1,-1,-4,12.665000000000001
2534,-1,4,-8,-4,-1,0,-1,2,12.67
2535,-4,-3,-1,3,3,2,-3,-7,12.675
2536,-4,-24,-17,-14,-5,1,-2,-1,12.68
2537,0,-5,-21,-4,0,-2,2,9,12.685
2538,1,-4,0,-2,-2,-1,-5,-3,12.69
2539,-2,6,5,8,-1,0,-1,5,12.695
2540,2,9,3,2,0,2,0,-1,12.700000000000001
2541,0,2,1,-5,-3,-1,0,-6,12.705
2542,0,1,10,5,1,-2,0,2,12.71
2543,2,-6,-40,-7,-2,-3,2,12,12.715
2544,-1,-9,13,1,-2,-3,-4,-5,12.72
2545,-4,6,6,-1,0,-3,-5,-6,12.725
2546,1,5,-6,-1,0,0,4,-11,12.73
2547,-3,4,10,-1,-1,4,-1,5,12.735
2548,11,9,4,2,2,0,-1,2,12.74
2549,-2,-2,-6,-1,-1,0,0,2,12.745000000000001
2550,-19,-6,2,-1,-1,-1,-6,-8,12.75
2551,-5,-4,4,3,0,1,0,4,12.755
2552,-22,-15,-54,-8,-3,0,3,1,12.76
2553,1,3,11,-1,-1,0,1,-6,12.765
2554,5,-3,-2,-3,-3,1,0,2,12.77
2555,7,9,7,-2,-3,-4,-2,-4,12.775
2556,4,2,19,7,1,0,1,-1,12.780000000000001
2557,2,-5,-3,2,1,0,-2,-1,12.785
2558,3,-2,1,2,-1,-1,-1,5,12.790000000000001
2559,3,-1,-14,-2,0,-2,-4,4,12.795
2560,-1,-10,-2,2,1,1,0,-16,12.8
2561,-2,-4,-8,-3,-4,-5,0,3,12.805
2562,5,-6,-11,-11,0,-2,3,12,12.81
2563,1,-1,11,0,0,1,-1,-3,12.815
2564,2,10,11,3,-1,-1,0,2,12.82
2565,-1,-2,-5,-1,0,3,0,-3,12.825000000000001
2566,-2,-4,1,2,-2,1,2,2,12.83
2567,-3,1,10,0,-2,-1,0,-5,12.835
2568,0,5,-1,-1,1,-2,-8,14,12.84
2569,-5,-6,-11,-3,-2,-4,-6,-14,12.845
2570,4,-4,-1,-4,-1,0,3,4,12.85
2571,0,-1,3,-2,-1,-2,1,-2,12.855
2572,0,7,15,1,-2,-1,2,2,12.86
2573,-1,5,2,1,-2,-2,-1,7,12.865
2574,-2,1,-9,2,-1,-1,-4,-4,12.870000000000001
2575,-4,-8,10,0,1,-1,-4,-2,12.875
2576,-2,-4,-1,-2,0,-2,0,-6,12.88
2577,-1,4,-7,-3,1,1,-3,1,12.885
2578,-4,-11,2,4,1,-1,5,-5,12.89
2579,1,-6,-32,-3,-2,-1,0,3,12.895
2580,3,5,0,-4,-4,-3,1,4,12.9
2581,-4,0,5,-1,0,-2,1,-2,12.905000000000001
2582,4,5,2,0,-2,-1,-5,5,12.91
2583,-10,-6,12,1,-1,2,1,-12,12.915000000000001
2584,-2,-8,-20,-2,0,1,-2,3,12.92
2585,3,6,10,2,1,-2,0,-2,12.925
2586,3,-1,-18,-1,-1,-2,-4,-4,12.93
2587,-5,-7,8,-2,0,-3,0,-6,12.935
2588,4,4,8,-1,-4,1,2,2,12.94
2589,5,6,5,5,2,-1,3,6,12.945
2590,-2,3,-3,-2,0,2,1,-2,12.950000000000001
2591,-1,0,-10,-1,0,-5,-7,-1,12.955
2592,-5,-6,1,-2,-2,0,-2,-4,12.96
2593,2,-6,-10,-4,-1,0,-2,-11,12.965
2594,-4,-5,-2,-2,-1,0,2,6,12.97
2595,2,-2,-5,-1,-1,0,2,4,12.975
2596,-1,8,12,3,1,-2,1,-6,12.98
2597,-2,-5,4,2,-1,0,0,-1,12.985
2598,-5,4,2,-3,-1,-1,-3,-9,12.99
2599,-2,2,7,0,-4,-3,-2,9,12.995000000000001
2600,-3,2,-1,3,1,0,2,0,13.0
2601,-4,-11,-9,-6,-3,2,-2,1,13.005
2602,6,-4,-4,-3,-2,-2,0,-2,13.01
2603,0,3,-2,1,0,-1,-2,-8,13.015
2604,0,4,9,3,-2,-1,-3,-1,13.02
2605,-2,-2,1,-1,-2,-5,-1,0,13.025
2606,-2,4,1,1,0,-1,-2,0,13.030000000000001
2607,7,2,8,0,-2,0,-1,6,13.035
2608,-6,-7,10,-1,1,0,4,-4,13.040000000000001
2609,-5,-3,-15,-3,1,4,2,-2,13.045
2610,3,-3,-13,-6,0,-5,-8,2,13.05
2611,2,-3,-6,-7,-2,-2,0,6,13.055
2612,3,1,2,-3,-2,-2,-1,-4,13.06
2613,1,8,7,4,-1,-3,0,-1,13.065
2614,-4,-5,10,3,0,-2,1,0,13.07
2615,-3,-3,-5,-2,-4,2,0,-10,13.075000000000001
2616,-2,-3,-6,0,1,2,-1,1,13.08
2617,-2,0,6,-3,-1,-4,-4,8,13.085
2618,0,-4,-14,-2,-4,0,4,-3,13.09
2619,0,0,2,-3,2,-1,0,3,13.095
2620,-2,-6,-1,1,-1,1,1,-3,13.1
2621,-2,-1,1,1,1,0,2,-1,13.105
2622,-5,2,5,2,0,0,-3,-2,13.11
2623,-1,1,0,2,0,-2,0,-3,13.115
2624,2,1,4,-1,-1,1,1,-1,13.120000000000001
2625,-1,-10,-25,-3,-1,-2,-1,0,13.125
2626,-3,1,-2,1,-1,-2,-2,-6,13.13
2627,3,2,15,3,0,0,-3,0,13.135
2628,2,1,-20,0,0,0,3,2,13.14
2629,-2,-1,17,2,-2,0,-2,-1,13.145
2630,4,12,3,0,-1,-2,-1,1,13.15
2631,1,7,-1,1,0,-2,0,-3,13.155000000000001
2632,-3,-8,1,1,-1,-3,-5,-2,13.16
2633,-1,1,2,2,-1,0,1,-1,13.165000000000001
2634,-2,4,7,4,4,4,2,-3,13.17
2635,-4,-1,0,-1,0,2,8,2,13.175
2636,-2,-2,-16,-7,-1,-7,-15,-4,13.18
2637,1,-4,0,-4,-2,-2,1,1,13.185
2638,0,0,11,-2,-2,-1,-3,-2,13.19
2639,-1,3,-4,1,-1,0,-2,1,13.195
2640,-1,3,13,-1,-1,0,2,-4,13.200000000000001
2641,2,3,2,3,-2,0,1,1,13.205
2642,-2,-8,-7,-1,-1,1,-1,5,13.21
2643,-4,-5,18,-2,1,-1,-2,-3,13.215
2644,1,-2,-41,-4,-2,2,2,4,13.22
2645,5,3,5,1,0,-1,-2,-13,13.225
2646,3,2,7,2,-2,-2,4,9,13.23
2647,2,-9,-23,1,-1,0,0,1,13.235
2648,-3,0,11,-8,-2,-3,0,-3,13.24
2649,-2,5,0,2,1,0,-2,0,13.245000000000001
2650,-4,-7,8,-5,-2,-1,-3,-4,13.25
2651,-1,-2,-30,-1,-3,-2,0,-3,13.255
2652,-1,3,10,2,-2,-1,-1,1,13.26
2653,2,3,-1,-3,1,3,1,-1,13.265
2654,-1,-4,6,1,-1,-3,1,-5,13.27
2655,-4,-1,3,0,0,-2,-4,0,13.275
2656,-1,2,11,1,0,-1,1,-5,13.280000000000001
2657,-3,-1,-6,-5,-2,1,3,2,13.285
2658,0,-8,-4,-3,-1,-4,-10,4,13.290000000000001
2659,-6,-7,-24,-7,-5,-2,-3,-6,13.295
2660,2,4,11,5,3,0,2,4,13.3
2661,2,2,6,-2,-2,0,-1,-1,13.305
2662,-2,1,-2,1,-1,2,-3,-3,13.31
2663,-1,-1,-4,-5,0,-2,4,1,13.315
2664,5,2,10,0,-2,0,-3,-3,13.32
2665,-2,-7,-7,-4,-1,-2,2,3,13.325000000000001
2666,2,2,-3,0,0,2,1,0,13.33
2667,-6,-7,10,-1,-2,-2,-4,-4,13.335
2668,-3,0,-5,3,1,0,1,-3,13.34
2669,1,2,3,0,3,1,1,4,13.345
2670,-2,-5,-12,-2,-3,1,2,-2,13.35
2671,5,1,23,-2,-2,1,-5,-3,13.355
2672,-5,-7,-14,-2,0,-2,0,-3,13.36
2673,-2,-3,-1,0,-3,-1,-6,0,13.365
2674,0,11,3,4,1,1,0,-1,13.370000000000001
2675,1,3,3,3,1,0,1,2,13.375
2676,-1,-5,2,-2,-2,-1,0,0,13.38
2677,-3,0,11,1,1,-2,-2,-16,13.385
2678,-2,-7,-40,-4,-1,-2,-2,14,13.39
2679,1,-6,11,-2,-2,1,6,9,13.395
2680,-2,-2,0,0,-2,-2,-9,4,13.4
2681,-1,-4,-4,0,0,-1,-1,-4,13.405000000000001
2682,-1,2,-6,-2,-3,-1,-3,-8,13.41
2683,1,5,-4,3,3,0,0,-2,13.415000000000001
2684,0,0,0,0,-1,1,2,-2,13.42
2685,-1,-2,5,-3,-6,-2,2,1,13.425
2686,-2,-1,8,0,1,-3,-2,1,13.43
2687,-1,-2,-33,-3,0,1,-1,-5,13.435
2688,-5,-16,3,-4,-1,-2,4,-4,13.44
2689,4,3,-13,-3,-2,-3,-9,3,13.445
2690,-4,-6,20,2,0,1,2,-2,13.450000000000001
2691,-3,-3,-5,-2,-1,-1,-2,-1,13.455
2692,8,15,5,1,1,2,-1,1,13.46
2693,-5,-4,1,4,2,0,0,3,13.465
2694,-2,-7,-3,-1,-3,-1,1,-1,13.47
2695,-1,5,5,-7,-1,-4,-6,2,13.475
2696,2,-5,-3,-2,-2,-1,4,3,13.48
2697,0,0,-5,-2,0,-1,-3,4,13.485
2698,2,3,4,1,1,-2,1,-6,13.49
2699,-1,3,9,4,2,0,1,-3,13.495000000000001
2700,-6,-5,-12,-7,-1,-3,-4,-6,13.5
2701,-5,-5,-1,-3,-3,-2,1,-2,13.505
2702,-1,5,4,0,1,0,2,4,13.51
2703,0,5,4,4,0,0,-2,0,13.515
2704,-2,-5,-1,-2,-1,-2,1,3,13.52
2705,0,0,-6,1,0,1,5,-6,13.525
2706,3,-10,-14,-6,0,-1,-6,-5,13.530000000000001
2707,0,3,12,3,0,-3,-3,3,13.535
2708,-2,3,9,4,0,2,0,-5,13.540000000000001
2709,-4,-2,6,1,-2,-1,-2,-1,13.545
2710,-2,-5,-14,-7,-3,-3,0,4,13.55
2711,0,-3,-10,-6,-6,-3,4,-2,13.555
2712,-1,-8,-6,-1,2,-3,-4,-1,13.56
2713,-1,-1,-6,-1,0,2,3,-3,13.565
2714,-5,6,13,4,0,-1,-3,-3,13.57
2715,0,-5,-7,-1,-1,-2,-4,1,13.575000000000001
2716,5,3,-2,-8,-5,-2,3,3,13.58
2717,1,2,-3,1,-1,0,3,25,13.585
2718,-1,1,0,-2,0,-2,-4,-26,13.59
2719,2,6,4,2,2,1,1,-1,13.595
2720,-1,-3,4,0,1,1,-1,-3,13.6
2721,4,0,-2,-1,-1,-5,-4,-5,13.605
2722,-2,-3,4,0,-1,0,1,1,13.61
2723,-3,1,-5,2,0,1,1,-1,13.615
2724,-1,-4,-7,1,-2,-1,0,-7,13.620000000000001
2725,-2,-1,8,-5,0,1,-1,8,13.625
2726,-4,-4,9,3,2,0,0,2,13.63
2727,-2,-14,-13,-7,-5,-3,-1,-1,13.635
2728,-2,5,2,2,1,2,-4,3,13.64
2729,-4,-2,-6,-1,-2,-1,-1,-8,13.645
2730,5,7,14,3,0,0,0,4,13.65
2731,1,1,1,-1,0,1,2,0,13.655000000000001
2732,-6,-6,-2,0,-1,-2,0,-7,13.66
2733,-1,-2,2,-2,-1,-1,-4,1,13.665000000000001
2734,-2,-6,-5,-3,1,-2,-3,-1,13.67
2735,2,3,15,0,-1,0,0,-4,13.675
2736,2,4,-3,1,-1,1,1,5,13.68
2737,-2,-1,-16,-4,-2,0,-3,-7,13.685
2738,-3,-5,0,-3,0,1,5,-1,13.69
2739,-1,0,-3,0,-2,-2,0,-2,13.695
2740,1,1,-2,1,1,-4,-3,-1,13.700000000000001
2741,2,2,2,4,1,1,3,-3,13.705
2742,-2,-5,-14,-4,-2,-5,-1,2,13.71
2743,-2,0,2,-2,0,2,-1,-3,13.715
2744,-3,6,13,3,1,3,1,0,13.72
2745,1,-2,-10,2,-2,-1,-2,1,13.725
2746,4,-4,-14,-2,-4,-1,2,2,13.73
2747,-2,-7,5,-4,-2,-4,-8,-6,13.735
2748,3,1,-12,0,-2,-2,3,3,13.74
2749,0,1,10,-1,1,-1,-2,-4,13.745000000000001
2750,-4,0,1,-2,-2,0,-2,-10,13.75
2751,-4,-6,-3,1,-1,3,5,15,13.755
2752,0,4,4,-3,-4,-6,-11,-2,13.76
2753,3,0,-1,0,2,0,0,-1,13.765
2754,-3,-7,-10,0,1,1,-3,10,13.77
2755,0,4,3,1,2,-3,0,-5,13.775
2756,-1,2,2,-2,-2,4,5,0,13.780000000000001
2757,0,0,1,0,-1,-1,1,-3,13.785
2758,1,9,5,5,1,1,1,0,13.790000000000001
2759,-4,-7,-1,-2,-2,-3,-4,-2,13.795
2760,3,-2,-3,-2,0,-1,2,3,13.8
2761,1,3,1,-2,-1,-2,-2,-1,13.805
2762,3,6,9,0,-1,-1,2,-1,13.81
2763,0,7,-2,0,1,-1,-5,1,13.815
2764,0,-1,15,1,0,3,3,-3,13.82
2765,-5,-11,-26,-1,-3,-2,-2,-1,13.825000000000001
2766,-3,-4,3,-3,-1,0,-1,-1,13.83
2767,2,-2,-4,2,1,-1,4,1,13.835
2768,1,-6,-2,-4,-2,-1,-1,-2,13.84
2769,0,4,10,0,-4,0,0,2,13.845
2770,-1,2,-2,0,1,-2,-4,-13,13.85
2771,-2,0,-4,-1,-1,2,-2,3,13.855
2772,0,7,6,4,1,-1,1,5,13.86
2773,-8,-6,2,2,0,-2,-1,-17,13.865
2774,0,-2,-20,-9,-2,1,3,6,13.870000000000001
2775,8,1,6,-6,-5,-3,-11,2,13.875
2776,0,-1,-23,-2,1,-1,-2,-1,13.88
2777,1,1,8,2,0,0,-2,2,13.885
2778,-1,2,5,2,-1,-2,3,-5,13.89
2779,-1,5,1,2,0,4,7,-4,13.895
2780,-5,-9,-2,0,0,-5,-5,0,13.9
2781,2,4,0,0,1,0,-3,-3,13.905000000000001
2782,-4,-12,-2,-2,2,1,-4,1,13.91
2783,-7,-11,-14,-3,-2,0,6,0,13.915000000000001
2784,0,-1,-1,-1,-2,1,2,3,13.92
2785,-1,1,0,-2,-1,-3,-1,-5,13.925
2786,5,1,1,0,-3,-4,-3,3,13.93
2787,2,3,6,-2,-2,-3,-4,-2,13.935
2788,-4,3,-4,-2,-3,0,-3,-7,13.94
2789,-3,-4,3,-2,-1,1,2,5,13.945
2790,3,9,10,2,-1,0,0,5,13.950000000000001
2791,-4,-7,-20,1,-1,2,0,-14,13.955
2792,-1,4,3,-2,0,-2,0,4,13.96
2793,-4,-4,-1,-2,-2,2,2,6,13.965
2794,-4,-11,5,2,-2,-4,-2,5,13.97
2795,2,2,-4,-4,2,-1,2,1,13.975
2796,2,3,-1,-2,-2,3,2,-2,13.98
2797,0,-1,-1,-3,-1,-3,-1,-3,13.985
2798,2,6,8,5,0,0,0,-4,13.99
2799,-1,3,-3,1,0,1,1,-2,13.995000000000001
2800,-5,0,-5,-2,-2,-3,-6,-4,14.0
2801,0,1,2,0,-1,2,-1,7,14.005
2802,1,2,-4,-4,-4,0,4,-6,14.01
2803,5,-3,5,-2,0,-3,1,2,14.015
2804,-1,0,-5,-2,-3,-2,-2,-2,14.02
2805,-1,-2,-1,1,1,-1,-2,5,14.025
2806,-4,-2,2,1,-2,-2,-3,1,14.030000000000001
2807,-3,3,8,4,0,2,-2,0,14.035
2808,1,-5,-5,-3,0,-2,0,-8,14.040000000000001
2809,-1,1,3,1,-1,-1,-1,-5,14.045
2810,0,-1,-9,-4,-1,0,-2,5,14.05
2811,-1,-1,-2,-3,-1,-2,1,-4,14.055
2812,4,9,5,0,-3,-5,-4,2,14.06
2813,-8,-4,-5,0,1,5,11,-7,14.065
2814,2,7,1,-1,0,-5,-9,2,14.07
2815,0,-6,-8,-2,-1,-3,-4,2,14.075000000000001
2816,-2,-4,3,1,-1,0,-5,-1,14.08
2817,0,-3,-17,-8,-2,1,1,-1,14.085
2818,-5,-3,7,-2,1,2,4,-6,14.09
2819,-2,6,23,4,3,0,-1,2,14.095
2820,2,-5,-24,-2,0,0,3,-6,14.1
2821,2,-7,3,1,-1,-4,-4,1,14.105
2822,-2,-7,-12,-6,-2,-1,-1,0,14.11
2823,0,2,4,-2,-4,-4,-4,-1,14.115
2824,-2,1,13,2,4,2,3,1,14.120000000000001
2825,1,0,-2,1,-2,-2,-2,1,14.125
2826,4,7,2,0,-3,0,-2,-1,14.13
2827,-3,-5,-8,-3,-1,-1,-2,-1,14.135
2828,-7,-7,-1,-2,0,1,1,-3,14.14
2829,1,-4,-4,-1,-1,-3,-2,-2,14.145
2830,-1,-5,9,1,-1,1,0,1,14.15
2831,1,2,-21,-1,-1,-1,0,-2,14.155000000000001
2832,-1,-10,4,-2,-1,1,-1,5,14.16
2833,-1,4,3,0,1,1,-2,-6,14.165000000000001
2834,-7,-6,9,0,-2,-3,-6,2,14.17
2835,1,-5,-23,-2,-1,-1,2,1,14.175
2836,2,3,2,2,0,-2,-3,2,14.18
2837,6,8,1,-1,-2,-3,2,2,14.185
2838,1,2,5,3,0,1,2,-2,14.19
2839,-1,-3,5,1,0,-2,-3,5,14.195
2840,-8,-7,1,-2,-1,1,0,-6,14.200000000000001
2841,1,-1,0,0,-1,-1,-2,0,14.205
2842,0,4,-8,0,1,0,4,-6,14.21
2843,-4,-2,12,0,0,-2,-2,-3,14.215
2844,2,-1,-10,-2,-3,0,1,2,14.22
2845,-2,-1,-1,-4,-4,-2,-2,3,14.225
2846,-1,-2,-10,-4,-3,-3,-1,-3,14.23
2847,1,3,6,2,-2,2,-1,-2,14.235
2848,-2,0,7,2,-1,-1,1,-1,14.24
2849,-3,-7,-1,0,1,-1,-4,-1,14.245000000000001
2850,-7,-6,-11,-5,-1,2,2,-1,14.25
2851,1,1,6,0,-1,-1,-1,-2,14.255
2852,2,6,4,1,0,0,-1,-12,14.26
2853,-2,-1,17,2,-2,-3,3,8,14.265
2854,1,-3,-31,-1,0,-1,4,-3,14.27
2855,-1,-4,6,0,-1,1,3,3,14.275
2856,2,2,1,0,0,-6,-4,4,14.280000000000001
2857,1,0,-1,0,0,-1,-3,-3,14.285
2858,-2,1,10,1,1,0,-2,-1,14.290000000000001
2859,-2,5,2,1,-2,0,-1,-1,14.295
2860,-2,1,-5,-3,-2,0,0,-4,14.3
2861,7,7,4,-1,2,1,4,0,14.305
2862,3,3,0,1,-2,-1,-8,0,14.31
2863,-5,-8,-11,-1,-1,-1,-2,-13,14.315
2864,-1,1,3,-2,-1,-4,-1,8,14.32
2865,4,3,-4,0,0,0,1,0,14.325000000000001
2866,-2,-4,2,-3,-2,-1,1,-1,14.33
2867,4,6,1,-3,-2,-2,-2,-2,14.335
2868,0,-4,5,-1,-3,1,1,-3,14.34
2869,-3,-2,-13,-1,-2,-2,0,-2,14.345
2870,-3,-4,14,1,1,2,1,1,14.35
2871,-2,-7,-33,-5,-2,1,0,0,14.355
2872,4,4,-3,-1,0,-2,-1,-4,14.36
2873,-2,0,1,1,0,-1,-5,4,14.365
2874,7,10,11,0,1,-5,-4,-1,14.370000000000001
2875,-4,1,21,2,-1,0,0,0,14.375
2876,1,-4,-9,0,0,-1,-2,0,14.38
2877,3,-2,-4,-6,-1,-1,-2,-2,14.385
2878,-4,-4,-9,-2,-1,0,-4,-2,14.39
2879,0,4,10,0,-1,-4,-1,-2,14.395
2880,2,3,-4,1,2,1,3,8,14.4
2881,-1,-1,8,3,0,2,1,-2,14.405000000000001
2882,1,-2,-10,0,-1,-1,0,5,14.41
2883,-2,-1,-3,-3,1,-2,0,-4,14.415000000000001
2884,-1,-3,6,0,0,1,0,-1,14.42
2885,-2,-1,-1,-3,-4,-2,-1,1,14.425
2886,3,3,0,-2,-1,0,-2,-3,14.43
2887,-4,-11,-6,-1,0,3,6,1,14.435
2888,-4,-8,-29,-4,0,-7,-13,-1,14.44
2889,2,-3,-2,-2,2,-1,-1,-3,14.445
2890,-3,-2,2,1,-3,-1,-2,-3,14.450000000000001
2891,-2,2,9,2,-1,-1,-1,2,14.455
2892,-3,0,9,-1,-2,1,3,-1,14.46
2893,0,1,-2,0,-1,-1,-1,-3,14.465
2894,-2,-6,-13,1,-1,0,0,-1,14.47
2895,1,0,6,-2,-2,0,-3,0,14.475
2896,0,-3,-6,-1,-1,0,2,0,14.48
2897,-3,1,5,1,-1,-2,-2,-1,14.485
2898,0,-2,4,-1,0,0,2,1,14.49
2899,-2,-2,-4,2,0,-3,-3,-10,14.495000000000001
2900,1,-4,0,-3,-5,-1,-2,8,14.5
2901,2,-1,-1,-1,2,1,-1,0,14.505
2902,-4,-1,2,-1,-1,-1,-1,-3,14.51
2903,3,3,4,0,-1,1,-3,-4,14.515
2904,-2,3,-15,-6,-2,-1,-3,-3,14.52
2905,-3,-9,-19,-3,-2,0,3,1,14.525
2906,-3,-8,-6,-3,-3,-3,-2,0,14.530000000000001
2907,3,2,0,-2,0,-1,-1,3,14.535
2908,0,0,14,6,1,0,-2,-4,14.540000000000001
2909,-1,3,6,0,1,1,1,-2,14.545
2910,3,5,-8,0,-1,-1,-1,0,14.55
2911,-2,-5,0,-3,-2,-1,-1,-2,14.555
2912,-3,1,-2,-1,-1,1,3,-2,14.56
2913,-2,-1,8,0,0,-2,-4,3,14.565
2914,-4,-8,-9,-4,-1,-3,-3,-1,14.57
2915,1,4,-1,0,1,0,-4,3,14.575000000000001
2916,0,-5,1,-1,0,-2,2,-1,14.58
2917,-1,0,1,-1,-1,-1,-3,-2,14.585
2918,2,4,-13,-3,-2,5,6,1,14.59
2919,-3,-7,-7,-1,-2,-6,-7,2,14.595
2920,1,0,5,-1,-3,0,2,-2,14.6
2921,-3,-3,7,-3,-5,-1,-1,-4,14.605
2922,-3,-9,1,1,6,0,-2,-1,14.61
2923,2,1,8,-1,-1,1,0,1,14.615
2924,-2,-1,-1,2,2,0,-3,0,14.620000000000001
2925,-3,-6,-10,-6,-4,-1,1,-2,14.625
2926,4,7,6,-3,-4,0,-1,0,14.63
2927,-3,-6,-7,-1,-1,-3,2,2,14.635
2928,-4,-3,9,0,-2,-1,1,-13,14.64
2929,2,2,-8,-3,-2,-3,-2,6,14.645
2930,5,-2,-2,2,-1,-4,-1,7,14.65
2931,-1,0,2,-1,0,0,3,-2,14.655000000000001
2932,1,1,2,-2,-3,-1,-1,1,14.66
2933,4,4,2,1,0,0,0,-6,14.665000000000001
2934,-3,-6,-11,-4,-3,0,1,-6,14.67
2935,4,6,1,0,1,-2,-2,3,14.675
2936,-4,-2,-2,-1,1,-1,-1,7,14.68
2937,-2,-7,-14,-3,-1,0,0,-5,14.685
2938,-2,-1,4,4,0,-2,-2,2,14.69
2939,-1,0,-5,-2,-2,1,1,0,14.695
2940,1,-2,1,-1,-1,0,0,-1,14.700000000000001
2941,-3,0,19,3,-1,-2,-3,-1,14.705
2942,0,-1,-16,-2,-2,2,2,-1,14.71
2943,-3,-5,-6,-2,-3,0,-1,-5,14.715
2944,3,2,-1,0,1,-1,0,0,14.72
2945,-1,-1,0,0,1,1,0,1,14.725
2946,1,3,15,2,3,-4,-2,-4,14.73
2947,1,-1,-13,-2,-3,-2,0,-4,14.735
2948,2,1,4,-2,-2,1,-1,2,14.74
2949,1,0,-5,0,0,1,-1,3,14.745000000000001
2950,-1,-4,4,-1,-2,-1,-1,-2,14.75
2951,-2,2,5,2,2,-1,-1,2,14.755
2952,0,3,-2,1,-2,-3,-4,-3,14.76
2953,-5,0,2,-4,-1,0,4,-13,14.765
2954,0,-3,-13,-7,-3,0,-2,11,14.77
2955,2,4,-14,-1,0,-1,0,3,14.775
2956,0,-5,-2,4,0,1,-1,0,14.780000000000001
2957,4,1,1,3,0,-2,-4,-2,14.785
2958,-6,1,10,1,-1,0,-2,-4,14.790000000000001
2959,-5,-4,11,-1,-1,-2,1,-7,14.795
2960,4,1,-21,-3,-1,0,-5,6,14.8
2961,-6,-7,-6,-1,1,0,2,1,14.805
2962,-1,4,8,2,0,-1,-1,-4,14.81
2963,-1,-4,9,3,-1,1,0,0,14.815
2964,1,2,7,-1,1,-3,1,-2,14.82
2965,-3,-4,-6,1,-1,1,-4,-1,14.825000000000001
2966,1,-1,-4,-2,-1,-1,-2,0,14.83
2967,-1,-1,3,-3,0,1,1,-1,14.835
2968,-3,-4,8,2,-2,0,3,-2,14.84
2969,0,4,1,0,-1,-1,-3,1,14.845
2970,-1,1,0,-3,-3,-2,-1,-7,14.85
2971,2,0,2,-1,2,0,-4,7,14.855
2972,2,-10,-11,-3,-1,1,2,0,14.86
2973,1,0,-2,1,0,-1,-1,1,14.865
2974,0,3,6,2,-1,-1,-1,-3,14.870000000000001
2975,-2,-1,-5,-1,-2,-3,-4,-3,14.875
2976,-6,-6,-4,-5,-1,2,5,0,14.88
2977,-1,-2,1,1,1,-3,-3,-2,14.885
2978,-3,-5,0,0,0,-3,-3,-7,14.89
2979,2,-1,-4,-3,-1,0,4,9,14.895
2980,-5,-2,1,-3,-2,-2,-2,-2,14.9
2981,2,2,-4,0,-2,-1,0,2,14.905000000000001
2982,-3,-4,8,-1,0,2,2,-3,14.91
2983,1,-3,-4,0,-2,-2,-7,-4,14.915000000000001
2984,0,6,3,3,1,-1,1,-4,14.92
2985,0,-2,-1,-4,-1,0,0,0,14.925
2986,4,-6,-4,-3,-1,-2,-1,0,14.93
2987,2,1,-4,-1,-3,-1,0,0,14.935
2988,-1,0,0,1,-2,-1,-1,-1,14.94
2989,-1,-1,0,-1,-2,-1,0,-3,14.945
2990,0,8,10,3,4,-1,-3,0,14.950000000000001
2991,-6,-11,-18,-6,-1,-1,4,-3,14.955
2992,4,3,4,-1,0,0,-2,3,14.96
2993,-1,-2,-3,0,0,-2,-4,1,14.965
2994,1,3,0,-1,1,1,0,1,14.97
2995,1,6,12,2,1,0,1,-3,14.975
2996,-2,-3,0,-2,-1,-3,-6,-5,14.98
2997,2,3,0,1,-1,1,3,1,14.985
2998,-3,-9,-7,-2,0,0,1,1,14.99
2999,-1,3,-1,-1,0,0,-1,-5,14.995000000000001
3000,-2,1,-3,-1,-2,-1,-1,0,15.0
3001,1,4,8,0,-2,0,-3,-6,15.005
3002,-5,-4,-8,-2,-7,-3,-3,4,15.01
3003,-1,-6,-1,-1,-1,0,4,3,15.015
3004,7,3,1,-1,-1,0,-3,4,15.02
3005,-4,-9,-4,1,0,0,7,-2,15.025
3006,-1,0,2,0,-1,-4,-9,-3,15.030000000000001
3007,-1,7,18,3,-1,-1,-2,-4,15.035
3008,-2,1,-16,-1,-1,-2,-1,-3,15.040000000000001
3009,-6,-13,-8,-6,-2,-4,-4,0,15.045
3010,3,-3,-23,-3,-4,1,3,-1,15.05
3011,-3,1,0,1,-1,-1,0,-3,15.055
3012,-3,2,13,3,2,-1,1,0,15.06
3013,1,7,2,1,-3,-1,-4,2,15.065
3014,0,6,2,-3,1,2,1,1,15.07
3015,-5,-13,-5,-3,-3,-1,-3,-2,15.075000000000001
3016,4,3,0,-3,-2,-1,2,2,15.08
3017,-1,1,-2,2,1,-1,-3,-2,15.085
3018,3,-2,4,0,-1,-5,-2,-3,15.09
3019,-3,-1,-1,0,0,2,3,-2,15.095
3020,2,1,-1,0,-2,2,6,0,15.1
3021,2,-4,-3,-2,1,-1,-6,3,15.105
3022,-4,-2,4,1,1,-3,-1,-3,15.11
3023,0,2,-4,-2,1,-3,-2,0,15.115
3024,-4,-3,4,2,-1,0,-3,-1,15.120000000000001
3025,2,4,-1,-4,-1,0,2,-6,15.125
3026,1,5,6,0,0,1,1,4,15.13
3027,1,-4,-11,0,1,1,-2,5,15.135
3028,-5,-3,-1,-2,-1,-2,3,-1,15.14
3029,-1,-1,1,0,-3,0,0,-2,15.145
3030,-1,-3,-2,-1,-1,-1,0,-9,15.15
3031,1,5,5,1,0,0,0,3,15.155000000000001
3032,-4,-1,1,-1,-2,-3,-5,0,15.16
3033,-1,-3,8,3,-2,0,1,-5,15.165000000000001
3034,-7,-7,-21,1,3,2,1,-3,15.17
3035,0,4,-12,-6,-3,0,-4,0,15.175
3036,0,-10,-1,-3,-2,-3,-2,-2,15.18
3037,2,3,2,2,-1,-2,-1,1,15.185
3038,5,9,8,0,-1,0,0,-1,15.19
3039,0,2,-3,0,-1,0,-1,0,15.195
3040,-6,0,3,0,-1,-1,-4,-4,15.200000000000001
3041,-3,-1,-3,-1,-1,-1,0,2,15.205
3042,1,-3,2,0,1,1,1,2,15.21
3043,-1,-5,-4,-3,-2,-1,3,-2,15.215
3044,2,3,1,1,1,-1,-2,0,15.22
3045,-1,-1,1,3,0,0,-1,1,15.225
3046,-5,-4,-1,-2,-2,-3,-2,-4,15.23
3047,1,-3,-3,-1,0,-1,-2,-1,15.235
3048,1,1,-3,-2,1,2,1,1,15.24
3049,-1,-2,-6,-2,-1,-1,3,0,15.245000000000001
3050,3,1,2,0,-3,0,-2,1,15.25
3051,0,3,7,3,-3,-1,1,-3,15.255
3052,0,-3,-7,-3,-2,-1,-3,-2,15.26
3053,-1,-4,-6,-3,-1,-2,0,2,15.265
3054,-1,0,5,-1,-2,-1,-4,-5,15.27
3055,3,0,0,0,0,-1,-1,4,15.275
3056,2,4,1,0,1,3,4,1,15.280000000000001
3057,-5,-1,-1,0,-1,-2,1,-5,15.285
3058,-5,1,3,4,0,-3,1,2,15.290000000000001
3059,-2,-2,-1,-1,-2,-2,-3,3,15.295
3060,1,-1,1,0,-1,-1,-6,4,15.3
3061,-2,0,5,-3,0,2,3,-1,15.305
3062,2,-5,-20,-4,-4,-1,2,1,15.31
3063,-2,0,3,2,1,-2,0,-7,15.315
3064,-2,-2,-4,-2,0,-2,7,-2,15.32
3065,-1,2,11,1,2,-5,-11,-2,15.325000000000001
3066,-5,-6,5,-1,-1,3,-1,-4,15.33
3067,-3,-6,-2,0,-1,-2,-3,2,15.335
3068,7,-3,-3,-2,0,2,-4,0,15.34
3069,1,0,-4,-1,1,-1,0,1,15.345
3070,2,1,5,-3,-2,-5,3,1,15.35
3071,-2,0,1,0,0,0,1,-1,15.355
3072,-6,-6,4,3,-1,-1,-4,-8,15.36
3073,-1,-1,-4,-2,-3,-2,-1,1,15.365
3074,4,7,3,0,1,1,1,3,15.370000000000001
3075,-4,-8,-5,-1,-2,0,0,-1,15.375
3076,-5,-14,-7,-2,-2,-2,-3,-2,15.38
3077,4,2,-1,-1,-1,-1,0,-3,15.385
3078,-9,-6,-2,0,-1,-1,-5,-2,15.39
3079,-4,6,1,-7,-3,-3,-9,-3,15.395
3080,-3,6,4,1,1,2,15,0,15.4
3081,-8,-5,0,-2,0,-1,-1,3,15.405000000000001
3082,8,-6,-15,0,-1,-3,-3,-1,15.41
3083,-1,-6,-1,-1,0,-2,-3,5,15.415000000000001
3084,2,-4,-13,-5,-1,-1,-15,-6,15.42
3085,4,3,-3,-3,-1,1,8,4,15.425
3086,1,8,12,2,1,0,3,-2,15.43
3087,6,-2,2,-2,0,-1,-1,-6,15.435
3088,-5,-6,-7,-1,-1,-2,-5,3,15.44
3089,-3,-2,-2,-1,1,0,0,-10,15.445
3090,3,3,-1,-3,-3,-1,-4,5,15.450000000000001
3091,4,2,2,1,2,2,5,-1,15.455
3092,2,6,9,0,-1,-1,0,3,15.46
3093,-6,-9,-2,2,-2,-2,-3,-3,15.465
3094,-4,-1,-1,2,-2,-1,-2,-3,15.47
3095,-1,6,-3,-7,-2,-1,-3,2,15.475
3096,5,-9,0,-4,-2,-2,0,-6,15.48
3097,4,2,-3,0,0,2,1,0,15.485000000000001
3098,-9,-13,0,2,0,0,8,7,15.49
3099,-9,-2,5,9,0,0,-4,-4,15.495000000000001
3100,-16,-8,-3,-2,-2,-3,-4,-4,15.5
3101,-7,12,-5,-22,-4,-1,2,-3,15.505
3102,6,-9,-23,-4,0,2,0,3,15.51
3103,14,9,8,1,3,4,7,0,15.515
3104,23,17,10,9,1,-3,-12,-2,15.52
3105,57,5,10,6,-3,-8,-20,3,15.525
3106,-89,-15,-19,-8,-2,-4,-4,-9,15.530000000000001
3107,2,-10,-7,-7,-4,-2,-16,-6,15.535
3108,22,-1,2,1,1,6,24,4,15.540000000000001
3109,-2,0,21,6,2,6,15,7,15.545
3110,51,10,8,2,2,0,2,5,15.55
3111,-50,-1,-6,2,2,-4,-10,-14,15.555
3112,-6,-1,-5,-3,-4,-6,-12,-5,15.56
3113,-10,4,-24,-2,0,1,-5,-1,15.565
3114,63,-11,13,0,-2,-1,5,15,15.57
3115,-16,0,4,0,-1,1,15,3,15.575000000000001
3116,-37,-10,10,-1,1,0,4,-8,15.58
3117,-15,6,-24,-6,-1,-1,5,-6,15.585
3118,8,4,4,0,2,0,6,1,15.59
3119,42,8,4,-2,-2,-6,-4,4,15.595
3120,15,9,13,9,3,-2,-5,4,15.6
3121,-89,-11,20,-1,1,-1,-11,-10,15.605
3122,-39,-17,-10,13,4,0,-17,-18,15.610000000000001
3123,24,-3,-23,-27,-15,-7,11,-3,15.615
3124,-19,-16,-28,-2,-23,-4,8,13,15.620000000000001
3125,125,2,23,32,40,17,-9,-2,15.625
3126,-95,24,-11,-19,1,-1,-7,-25,15.63
3127,42,14,14,10,1,-1,-3,15,15.635
3128,-68,-27,-6,8,14,0,-1,-5,15.64
3129,30,6,0,-7,-7,-4,-4,-9,15.645
3130,62,22,10,32,-2,-2,3,23,15.65
3131,-20,-19,-6,-17,0,2,26,24,15.655000000000001
3132,113,21,6,-3,-1,1,-15,-20,15.66
3133,-128,-25,-2,14,-11,-8,1,-4,15.665000000000001
3134,26,-13,11,2,34,9,24,4,15.67
3135,-6,7,-10,-11,-10,2,-23,-14,15.675
3136,-9,-19,-9,-7,-5,-8,-12,8,15.68
3137,29,7,1,-9,-8,3,-10,-13,15.685
3138,35,-3,-6,-5,-17,-2,5,-1,15.69
3139,-42,15,15,9,1,-2,13,18,15.695
3140,44,13,5,-20,4,-1,-11,-5,15.700000000000001
3141,-18,1,-14,-11,-9,-4,0,-9,15.705
3142,42,-3,19,13,-15,-5,6,6,15.71
3143,-91,-31,-20,-10,37,13,-6,-23,15.715
3144,-4,3,-18,-3,-10,7,24,17,15.72
3145,54,11,-12,-16,-9,-12,13,24,15.725
3146,-7,-26,-2,-13,-17,-5,-41,-33,15.73
3147,47,32,23,7,2,5,-7,4,15.735000000000001
3148,-39,10,21,-3,-5,-12,-10,-15,15.74
3149,32,15,-24,-8,-12,-1,6,13,15.745000000000001
3150,-67,-41,2,-4,-12,-10,-1,2,15.75
3151,22,13,13,4,6,-5,2,-6,15.755
3152,-44,-19,-1,29,10,6,-4,-11,15.76
3153,96,53,12,-2,3,7,6,22,15.765
3154,-24,-24,6,20,11,-2,-10,-16,15.77
3155,-9,-16,2,-21,-17,1,20,29,15.775
3156,-39,-5,-21,-13,29,2,3,-12,15.780000000000001
3157,-51,-34,-8,20,-8,-5,-14,-26,15.785
3158,10,57,17,10,17,6,-9,2,15.790000000000001
3159,18,-7,1,16,-12,-3,11,7,15.795
3160,29,-10,-3,-15,-13,-11,-30,-7,15.8
3161,96,-2,-10,-7,1,-2,-2,-3,15.805
3162,-110,16,7,-25,-13,10,27,3,15.81
3163,66,-6,-12,6,-41,-31,-21,20,15.815
3164,16,16,-18,-12,35,15,17,10,15.82
3165,-48,-13,-8,7,4,-5,-14,-21,15.825000000000001
3166,102,16,11,-9,1,-1,-7,-19,15.83
3167,-56,-9,14,50,-11,8,-2,-2,15.835
3168,-34,50,-10,-21,-9,-4,11,30,15.84
3169,-44,-87,-29,-12,19,1,-4,-5,15.845
3170,80,42,-1,26,32,10,-1,0,15.85
3171,57,10,13,4,1,3,11,0,15.855
3172,-91,-23,-22,22,-16,-3,-8,-17,15.860000000000001
3173,-22,-24,15,-22,-9,-3,0,-6,15.865
3174,-5,16,-17,-32,-28,-11,11,22,15.870000000000001
3175,54,29,15,24,-10,-3,-11,-13,15.875
3176,-36,23,36,2,39,17,8,-11,15.88
3177,33,-12,-19,2,-5,-5,9,32,15.885
3178,-53,-59,-6,1,-2,2,-12,-29,15.89
3179,10,31,-16,-16,-1,-4,7,11,15.895
3180,39,4,22,6,-24,-13,-1,2,15.9
3181,-65,-57,11,-12,-12,-2,-6,15,15.905000000000001
3182,-17,11,-9,5,17,-1,-16,-13,15.91
3183,-27,35,0,2,17,8,-8,-26,15.915000000000001
3184,49,-51,-13,-9,-17,-8,0,15,15.92
3185,19,31,5,-11,-14,2,18,-3,15.925
3186,-7,-20,21,21,-16,-5,-7,10,15.93
3187,-39,-4,-20,-27,58,17,-11,-17,15.935
3188,21,2,-29,-3,-15,-8,-3,-9,15.94
3189,-16,34,27,2,10,9,17,9,15.945
3190,95,-26,-14,-13,-19,-3,31,62,15.950000000000001
3191,-36,-30,10,5,-6,-8,-16,-23,15.955
3192,-39,5,-16,-12,-16,-5,-13,-13,15.96
3193,-14,-5,5,-6,-3,1,-11,-29,15.965
3194,-11,31,3,5,-24,-14,-16,1,15.97
3195,5,-41,-11,3,46,10,9,-2,15.975
3196,75,-2,16,5,1,5,2,13,15.98
3197,-50,-4,-11,14,2,2,11,7,15.985000000000001
3198,-25,9,8,-9,3,5,13,-2,15.99
3199,-18,-28,-22,-22,-26,-10,-24,-15,15.995000000000001
3200,4,22,16,-15,-18,1,13,-5,16.0
3201,-11,8,3,12,15,-6,-11,-6,16.005
3202,29,2,-22,29,6,1,2,16,16.01
3203,-58,-13,6,-2,-10,-5,5,1,16.015
3204,25,16,7,-5,11,6,10,0,16.02
3205,1,24,-1,-15,5,6,1,12,16.025
3206,-32,-7,-19,-28,-5,-16,-38,-43,16.03
3207,32,35,11,15,-19,-2,-5,-9,16.035
3208,38,5,16,-8,-2,1,0,4,16.04
3209,-46,-35,10,42,22,-1,6,12,16.045
3210,1,20,-23,10,14,-2,2,-4,16.05
3211,35,-9,-2,-4,-8,-5,-3,11,16.055
3212,1,1,5,3,0,5,0,-6,16.06
3213,-6,12,-8,-22,-24,-7,-17,-30,16.065
3214,3,-11,4,-9,6,2,6,5,16.07
3215,6,10,-2,-9,-4,1,12,3,16.075
3216,-1,-9,-5,6,-15,-7,-2,12,16.080000000000002
3217,-14,0,-6,-20,10,9,13,5,16.085
3218,3,-12,5,16,-13,-15,-22,-24,16.09
3219,-25,-12,-14,-29,12,2,0,8,16.095
3220,-3,-12,-1,20,5,2,0,-13,16.1
3221,51,15,7,16,-3,2,-3,18,16.105
3222,0,21,16,-12,-2,7,16,17,16.11
3223,6,-39,-29,-10,-12,3,7,-10,16.115000000000002
3224,-11,-33,1,1,-12,-14,4,19,16.12
3225,-20,-13,-4,-4,17,-2,-21,-37,16.125
3226,58,44,21,-23,-7,9,13,27,16.13
3227,-78,-48,0,40,0,-4,16,-3,16.135
3228,4,-1,-19,6,23,5,-30,-18,16.14
3229,2,2,4,-15,-25,-10,-8,-6,16.145
3230,-3,37,40,0,5,10,11,-16,16.15
3231,61,-15,-22,-35,2,9,15,41,16.155
3232,-53,3,-10,14,6,-8,-7,-9,16.16
3233,-11,24,5,-12,-14,-7,-11,-6,16.165
3234,17,-11,-3,-6,-1,3,3,0,16.17
3235,-30,18,10,-6,-22,-17,-28,-27,16.175
3236,14,16,7,5,11,5,4,-6,16.18
3237,40,25,4,-24,-27,-6,16,14,16.185
3238,-76,-76,-33,23,17,1,2,-1,16.19
3239,20,-4,5,41,32,5,2,3,16.195
3240,9,1,14,24,-3,-4,-15,-9,16.2
3241,-17,-5,12,-11,10,3,6,14,16.205000000000002
3242,-7,2,-29,-29,-14,2,8,13,16.21
3243,30,33,16,-13,-2,-1,-5,-21,16.215
3244,9,-4,21,14,7,7,4,7,16.22
3245,12,-19,-35,20,1,-5,14,-5,16.225
3246,-16,-19,-4,-1,6,-9,-14,5,16.23
3247,2,14,10,-4,-6,-7,-17,-23,16.235
3248,-2,-4,-6,-16,-16,0,19,23,16.240000000000002
3249,17,-5,4,5,-11,5,2,-3,16.245
3250,-16,43,11,-4,16,9,6,-5,16.25
3251,45,-60,-8,19,5,-10,-9,7,16.255
3252,-3,7,16,22,23,8,-8,-10,16.26
3253,-5,-18,-11,-2,4,-5,-6,-3,16.265
3254,-22,-15,-26,-11,-11,-6,-9,-15,16.27
3255,20,23,24,-17,-19,0,6,17,16.275
3256,2,-16,-63,-22,-5,2,9,2,16.28
3257,-3,4,14,13,5,-2,-12,1,16.285
3258,19,10,26,10,-1,-4,2,-3,16.29
3259,-23,6,2,2,7,13,2,-22,16.295
3260,17,-7,-6,-18,-14,-7,1,25,16.3
3261,12,21,-3,11,5,-2,9,11,16.305
3262,-14,-8,-1,-7,-2,-6,-23,-8,16.31
3263,-8,-7,0,-9,-23,-3,21,-14,16.315
3264,-44,9,5,15,27,6,-7,-8,16.32
3265,42,5,-1,11,5,1,-1,2,16.325
3266,5,-24,0,0,10,3,-1,2,16.330000000000002
3267,-29,27,-6,0,-3,-7,-25,-7,16.335
3268,6,10,12,-20,-29,-6,2,-10,16.34
3269,43,-7,-4,1,11,5,14,20,16.345
3270,-30,-18,-9,4,2,-3,-10,-16,16.35
3271,8,13,6,-4,2,5,4,14,16.355
3272,13,-7,7,-4,0,-2,-2,-13,16.36
3273,-24,24,3,-3,-12,-3,3,10,16.365000000000002
3274,19,-36,0,6,-10,2,11,1,16.37
3275,-16,17,-12,-26,2,-6,-4,-2,16.375
3276,-3,-2,10,-4,9,-1,-15,-1,16.38
3277,-20,1,-1,1,-2,-5,-10,-13,16.385
3278,17,4,-22,-9,-5,-1,-3,6,16.39
3279,2,2,-3,8,-6,-1,11,16,16.395
3280,-15,-13,0,-5,-6,-5,-8,-6,16.4
3281,2,-5,-3,-6,-2,-3,-5,1,16.405
3282,7,7,6,2,-4,0,7,-30,16.41
3283,0,-13,-6,8,7,-7,-4,8,16.415
3284,2,14,24,-3,-1,25,9,11,16.42
3285,3,-6,-24,3,2,-19,-4,8,16.425
3286,6,1,-9,1,1,3,4,20,16.43
3287,-9,-5,0,3,2,2,-1,-10,16.435
3288,4,-3,10,-4,-5,-2,2,-13,16.44
3289,-25,0,11,5,-3,9,8,-5,16.445
3290,-4,-1,-1,-2,3,-6,-8,-4,16.45
3291,12,16,29,7,1,-2,-8,13,16.455000000000002
3292,-1,4,-19,-2,-10,-21,8,-11,16.46
3293,-12,-17,-14,-7,4,22,-6,5,16.465
3294,11,-1,-8,-4,-2,-19,4,10,16.47
3295,-6,-14,-10,-2,-1,13,-10,-7,16.475
3296,4,2,9,2,1,-9,-3,-1,16.48
3297,-1,6,21,5,3,1,17,16,16.485
3298,-8,19,7,-4,-4,-11,-23,-3,16.490000000000002
3299,-6,-25,-53,-13,-5,53,41,-3,16.495
3300,-1,-10,-26,-4,1,-15,-2,9,16.5
3301,2,9,9,-2,0,2,-1,-28,16.505
3302,7,18,30,10,3,2,3,26,16.51
3303,2,16,13,8,1,-29,-26,-30,16.515
3304,-10,13,-3,0,-1,15,8,-11,16.52
3305,2,-33,2,-14,-8,-8,-13,25,16.525
3306,-16,-11,-18,-11,-5,-12,-5,-26,16.53
3307,13,7,-20,1,4,-3,4,27,16.535
3308,5,18,31,20,3,-2,9,4,16.54
3309,-13,22,40,8,-6,-7,-19,-59,16.545
3310,-6,-52,-31,-40,-14,-5,-8,2,16.55
3311,19,11,28,13,3,4,14,43,16.555
3312,7,11,-19,-3,1,-1,-5,-4,16.56
3313,4,-19,2,3,6,12,12,19,16.565
3314,-32,-46,-73,-11,-9,-8,-36,-49,16.57
3315,-9,-1,8,-13,-4,17,28,-10,16.575
3316,9,9,87,-1,-5,-9,3,13,16.580000000000002
3317,10,20,-4,14,6,-4,5,-4,16.585
3318,8,15,11,6,4,12,11,21,16.59
3319,-1,-1,-17,-3,2,-16,-8,14,16.595
3320,-13,-18,-16,-6,-4,4,-8,-5,16.6
3321,-7,-4,-3,-3,0,1,-2,-17,16.605
3322,3,26,-7,17,4,3,4,8,16.61
3323,-2,-5,13,1,-2,-11,-17,-7,16.615000000000002
3324,0,-16,-34,-17,-1,4,6,5,16.62
3325,-7,-12,-37,-2,0,-5,-12,-2,16.625
3326,9,8,35,2,0,4,11,8,16.63
3327,-2,-1,17,4,2,2,-1,-4,16.635
3328,0,-6,-15,9,1,0,1,-14,16.64
3329,-2,-2,-18,3,-3,1,0,14,16.645
3330,4,33,89,10,1,3,3,5,16.65
3331,-20,-13,-60,-14,-4,-12,-7,-27,16.655
3332,6,-12,3,-6,-5,-2,0,6,16.66
3333,10,4,-1,1,-1,2,-2,10,16.665
3334,6,9,20,8,2,6,11,4,16.67
3335,-1,0,-26,8,4,2,-6,0,16.675
3336,-15,-6,10,-10,-4,-9,-13,-7,16.68
3337,2,-11,-7,-3,-1,-7,-2,-1,16.685
3338,2,-4,11,2,0,2,4,-3,16.69
3339,-9,5,37,15,-4,-8,-5,-3,16.695
3340,-3,0,-39,-18,-2,3,4,4,16.7
3341,1,9,16,-14,-5,-3,-2,-11,16.705000000000002
3342,-6,-4,-8,6,4,3,6,13,16.71
3343,11,-4,1,-1,0,-4,-4,6,16.715
3344,8,-3,-9,13,1,4,3,13,16.72
3345,-6,18,27,5,1,-4,-6,-16,16.725
3346,2,-7,-45,-10,0,3,3,-6,16.73
3347,2,9,15,2,0,-3,0,-2,16.735
3348,-7,-10,-11,-5,-4,0,-2,-8,16.740000000000002
3349,-3,-9,-30,2,0,-2,-4,8,16.745
3350,9,-12,-20,-2,-3,-1,2,10,16.75
3351,-8,2,8,-12,-5,-3,-3,-6,16.755
3352,8,22,12,-7,-3,-1,-1,4,16.76
3353,3,-6,5,7,0,0,-2,-10,16.765
3354,-10,-16,2,2,-1,-2,-2,0,16.77
3355,-2,-14,-3,1,0,-4,-4,-5,16.775
3356,4,9,-8,0,2,2,3,4,16.78
3357,-4,9,5,-3,-2,4,1,-1,16.785
3358,-1,4,-4,5,3,0,0,-2,16.79
3359,0,-10,-7,-6,-3,-2,-2,3,16.795
3360,-6,-5,6,2,-4,-3,-6,-7,16.8
3361,-2,-11,-12,-5,1,-1,6,5,16.805
3362,3,3,-4,-7,-2,0,0,-2,16.81
3363,0,0,13,-2,0,-2,1,-4,16.815
3364,1,-1,-23,10,4,-1,-3,14,16.82
3365,-6,9,4,-4,-4,-2,-3,-19,16.825
3366,-1,-10,-18,-6,-3,-2,-1,1,16.830000000000002
3367,5,6,6,5,-2,-1,2,-8,16.835
3368,7,-10,-8,-3,0,-2,-4,12,16.84
3369,-10,2,11,1,2,-2,-2,-5,16.845
3370,-4,18,13,4,2,-3,-2,-23,16.85
3371,-1,-13,-11,-6,-1,4,-1,17,16.855
3372,-1,2,6,3,1,0,3,-2,16.86
3373,2,8,-14,1,1,-2,-3,9,16.865000000000002
3374,1,-1,3,1,-1,0,3,-3,16.87
3375,-8,-7,9,-4,-5,-7,-11,-14,16.875
3376,3,3,6,-4,0,2,3,-3,16.88
3377,4,-5,0,-5,-4,-1,1,4,16.885
3378,0,3,7,3,1,0,-1,4,16.89
3379,6,4,3,3,3,1,4,1,16.895
3380,-10,-3,13,2,-1,-4,-4,-11,16.9
3381,-7,-4,-14,-5,-3,1,-2,-4,16.905
3382,0,-8,5,2,1,-1,-1,1,16.91
3383,3,-2,3,2,2,-3,-3,-10,16.915
3384,-3,0,-2,-12,-2,1,-2,2,16.92
3385,-1,-12,-26,-3,0,2,2,5,16.925
3386,3,10,19,1,-1,-3,-2,4,16.93
3387,3,5,-3,3,-1,1,3,-1,16.935
3388,-2,1,0,4,0,-3,-4,-10,16.94
3389,1,14,9,3,-1,-1,-1,-2,16.945
3390,-6,-11,-9,-10,-2,0,2,4,16.95
3391,2,-2,15,3,-1,-2,1,6,16.955000000000002
3392,0,-7,-9,-3,-2,0,1,2,16.96
3393,7,3,9,4,1,-1,-2,5,16.965
3394,0,10,8,3,0,2,0,-8,16.97
3395,-3,0,-5,-3,-1,-4,-4,-5,16.975
3396,-6,-6,-4,2,-2,0,3,0,16.98
3397,3,0,4,-3,-3,-3,1,-3,16.985
3398,4,6,17,7,0,4,3,0,16.990000000000002
3399,-12,-8,-55,-10,0,-3,-10,7,16.995
3400,-1,0,-2,1,-3,-3,-4,-18,17.0
3401,-1,-2,7,1,0,-2,-1,5,17.005
3402,3,0,-1,-2,0,-2,-5,3,17.01
3403,2,6,-7,-2,-1,-2,-1,8,17.015
3404,-2,-1,6,8,1,5,5,0,17.02
3405,-1,-6,-14,-8,-2,-2,-3,-4,17.025
3406,-1,-3,-6,0,1,1,-1,2,17.03
3407,-1,1,11,0,-1,2,2,-6,17.035
3408,1,8,8,2,-2,-4,0,0,17.04
3409,-2,-8,3,5,0,0,-2,1,17.045
3410,0,-5,-11,-5,0,3,3,-6,17.05
3411,-3,-6,-7,-3,1,1,1,3,17.055
3412,3,-2,6,3,-4,-1,0,1,17.06
3413,8,-1,0,0,-1,-4,-1,19,17.065
3414,-5,-2,-3,-4,-1,-2,-6,-3,17.07
3415,-2,2,-16,-5,0,7,2,-15,17.075
3416,1,-6,28,3,1,6,9,-1,17.080000000000002
3417,0,4,-2,2,-2,-7,-9,-2,17.085
3418,-1,-3,-20,-13,-3,-4,-2,4,17.09
3419,2,7,14,0,-2,-4,1,2,17.095
3420,-3,-3,-4,-5,-2,0,-3,-1,17.1
3421,-3,-4,4,-3,-2,2,3,-6,17.105
3422,0,0,-14,2,0,-3,-2,1,17.11
3423,-3,-12,13,-1,1,2,-3,-4,17.115000000000002
3424,4,4,-8,-3,0,1,4,-1,17.12
3425,-4,-9,3,-6,-2,0,-2,-7,17.125
3426,-3,4,2,0,-2,0,1,-3,17.13
3427,3,1,4,2,1,-1,-1,1,17.135
3428,1,4,-10,1,1,-5,-9,-2,17.14
3429,-1,12,5,1,0,2,9,-4,17.145
3430,0,-5,3,0,0,-1,-4,12,17.150000000000002
3431,-3,-8,13,2,-1,-1,2,-5,17.155
3432,0,-3,-15,-7,-3,1,2,2,17.16
3433,3,-1,-5,-2,-1,0,-5,-3,17.165
3434,2,3,3,0,0,0,3,-19,17.17
3435,-1,2,1,2,-1,-2,-3,10,17.175
3436,-14,-29,-10,-7,-2,-4,-3,2,17.18
3437,1,8,9,6,2,0,2,1,17.185
3438,-2,-2,0,4,-2,1,3,-2,17.19
3439,-5,-17,-18,-6,-3,2,-3,0,17.195
3440,2,6,22,-2,0,-3,-6,-8,17.2
3441,-3,-12,-30,-8,-1,4,2,-1,17.205000000000002
3442,-1,3,7,3,0,1,1,-2,17.21
3443,4,12,0,5,-1,-3,0,1,17.215
3444,-1,7,0,2,-2,-2,-1,2,17.22
3445,-3,-5,9,4,1,-1,-2,-1,17.225
3446,2,4,1,-2,0,-1,-1,3,17.23
3447,-2,1,14,3,-1,-2,-6,-5,17.235
3448,-5,-4,-21,2,1,1,4,-7,17.240000000000002
3449,-9,-3,-3,-3,-1,-1,-3,-6,17.245
3450,3,-11,-7,2,1,2,6,9,17.25
3451,-1,-13,-35,-14,-6,-8,-5,8,17.255
