slno,emg1,emg2,emg3,emg4,emg5,emg6,emg7,emg8,Time
0,-1,0,-1,-2,-4,-2,-1,-1,0.0
1,0,-1,-1,1,5,1,-1,-1,0.005
2,-2,0,-1,1,1,-1,0,0,0.01
3,0,-1,-1,-2,-5,-1,-2,-2,0.015
4,-3,1,-1,0,-3,-1,0,0,0.02
5,-1,0,0,-3,-6,-4,-1,-1,0.025
6,0,0,-1,-1,-7,-6,-2,-2,0.03
7,-1,-1,-1,0,9,5,1,-2,0.035
8,1,-1,-1,0,-2,-1,-1,0,0.04
9,-1,1,-1,-2,1,3,0,-2,0.045
10,0,-2,0,1,-2,-1,1,1,0.05
11,-2,-2,-2,-1,-3,-5,-1,0,0.055
12,-1,-1,-1,-2,1,0,-1,0,0.06
13,-1,-1,-2,1,2,0,0,0,0.065
14,0,-1,-1,-2,0,0,-1,-2,0.07
15,0,0,1,0,-1,-1,-1,0,0.075
16,0,-2,0,0,-1,0,-3,0,0.08
17,-2,0,0,-3,-6,-5,-2,-1,0.085
18,0,-1,-1,-2,9,4,0,0,0.09
19,-2,-1,-1,-1,1,-2,1,1,0.095
20,-1,-2,-3,1,-1,0,1,-1,0.1
21,1,-2,-1,-1,5,2,1,1,0.105
22,-1,-2,-1,0,-2,-4,-1,0,0.11
23,-1,-1,1,-3,2,5,1,0,0.115
24,-2,-2,-2,3,-2,-4,-1,-1,0.12
25,0,0,-3,-5,2,3,-1,-2,0.125
26,-1,0,0,-1,-1,0,0,0,0.13
27,-1,-2,0,-1,0,-2,-2,-1,0.135
28,-1,-1,-1,-1,-2,-2,-2,1,0.14
29,-2,-3,-1,0,-1,-1,0,-2,0.145
30,-1,-1,-2,-1,-2,-3,-1,-1,0.15
31,1,-1,2,0,1,1,-1,-1,0.155
32,0,0,0,0,0,-1,-1,-1,0.16
33,-1,-3,-1,1,0,-2,-1,1,0.165
34,-2,0,-2,-1,-3,0,-2,0,0.17
35,0,-1,-2,-1,-2,-1,-1,-1,0.17500000000000002
36,0,1,-1,0,1,-1,0,-2,0.18
37,-1,-1,-1,-1,-2,-2,-1,0,0.185
38,1,2,1,-2,2,0,-1,-1,0.19
39,0,1,-1,0,2,1,-1,1,0.195
40,0,-3,0,-2,0,2,0,-1,0.2
41,-1,-1,0,-1,-3,-2,0,0,0.20500000000000002
42,-1,-1,-2,1,-1,-2,-2,-1,0.21
43,0,0,-2,3,7,0,1,0,0.215
44,0,1,1,-6,2,5,1,0,0.22
45,-1,-1,0,2,-6,-2,0,0,0.225
46,0,-3,-2,-1,4,1,-1,-1,0.23
47,-3,-2,0,-2,-5,-2,-2,-1,0.23500000000000001
48,-2,1,0,0,-7,-4,-1,0,0.24
49,0,1,-1,-1,9,4,-1,-2,0.245
50,-1,-4,-1,1,-5,-1,-1,-2,0.25
51,-1,-2,-1,-3,-1,2,1,-1,0.255
52,0,0,0,1,-1,-3,-1,-1,0.26
53,0,0,0,-3,-3,-1,0,-1,0.265
54,-1,0,0,-1,-4,-4,-2,-2,0.27
55,-2,-3,-2,-1,-5,-3,-1,-2,0.275
56,-3,-1,-2,-2,6,2,-1,-3,0.28
57,1,0,1,4,2,-1,-2,-1,0.28500000000000003
58,3,3,1,-5,-5,2,2,1,0.29
59,0,-1,0,-1,-5,-6,-1,0,0.295
60,-1,-1,0,0,-1,1,0,1,0.3
61,-2,-2,-1,-1,-4,-7,-4,-3,0.305
62,-1,-2,0,0,2,1,1,0,0.31
63,1,1,-1,-3,-6,-2,-1,-1,0.315
64,-1,-3,-2,1,-3,-3,-3,-2,0.32
65,-2,0,-1,0,-1,2,-1,-1,0.325
66,-1,1,-1,0,-3,-3,-2,0,0.33
67,0,-3,0,-2,0,0,-1,0,0.335
68,0,-2,-2,0,-3,-3,0,-2,0.34
69,-1,-3,-2,-2,-3,-2,-3,-1,0.34500000000000003
70,-1,1,1,-1,-1,-1,-2,-4,0.35000000000000003
71,-3,0,-1,0,1,0,0,-1,0.355
72,1,1,0,0,-5,-6,-1,1,0.36
73,0,0,-1,-2,6,2,1,1,0.365
74,0,-1,-2,-3,-6,-2,1,2,0.37
75,-2,0,-1,2,-7,-5,-4,-4,0.375
76,-1,-3,-1,-1,7,1,0,-3,0.38
77,0,2,0,-2,-2,-1,-1,0,0.385
78,-3,-3,-1,1,2,-2,-2,-4,0.39
79,-1,1,0,0,-3,0,-1,-2,0.395
80,1,0,-1,0,6,3,0,4,0.4
81,1,2,-1,1,-2,-3,-2,-2,0.405
82,1,-1,-2,2,1,1,0,3,0.41000000000000003
83,2,3,-2,-6,4,4,-1,1,0.41500000000000004
84,0,-1,-1,2,-7,-8,0,0,0.42
85,-2,-3,-2,-10,-1,8,2,-2,0.425
86,-2,-1,2,3,3,-2,-2,-2,0.43
87,-4,-3,-3,-1,2,2,-1,-3,0.435
88,1,2,0,0,-7,-2,-3,1,0.44
89,0,0,0,2,1,-3,-1,-1,0.445
90,-2,-1,-2,-4,-2,1,0,-1,0.45
91,1,-4,0,2,-8,-3,0,-1,0.455
92,-1,1,0,-3,6,-1,-1,-3,0.46
93,-2,0,0,8,-7,-16,-6,-3,0.465
94,1,1,-2,-11,16,24,5,-1,0.47000000000000003
95,0,1,-1,2,7,0,3,4,0.47500000000000003
96,-2,-4,-1,-2,-16,2,1,0,0.48
97,-1,-1,-3,-5,-4,-2,0,-1,0.485
98,-2,-2,-1,4,1,-15,-5,-4,0.49
99,1,3,-1,0,11,9,1,0,0.495
100,0,-1,-1,-2,-10,-2,0,-3,0.5
101,-1,0,0,-2,5,-1,-1,0,0.505
102,-4,-5,-1,2,-29,-19,-5,-3,0.51
103,0,1,1,-2,22,13,0,-2,0.515
104,0,3,-1,0,1,0,0,-2,0.52
105,1,-4,0,-2,-4,0,-1,1,0.525
106,0,3,0,5,-2,-2,0,1,0.53
107,-3,0,-1,-4,-10,-3,-2,-2,0.535
108,0,-2,0,-3,5,3,-2,0,0.54
109,1,1,0,0,3,1,0,-1,0.545
110,0,1,1,-2,-3,-3,-1,3,0.55
111,1,-2,-3,5,-10,-18,-6,-2,0.555
112,0,-1,-1,-6,21,21,5,4,0.56
113,-2,0,-1,-1,-7,-1,3,0,0.5650000000000001
114,0,-2,-2,-3,4,7,1,0,0.5700000000000001
115,-3,-3,-3,-3,-9,-6,-4,-4,0.5750000000000001
116,-2,-1,-2,-1,-8,-9,-4,-1,0.58
117,1,2,0,1,-2,-2,-1,-1,0.585
118,-1,1,0,2,2,6,1,-1,0.59
119,-3,-3,0,-3,4,1,-1,0,0.595
120,-1,-1,-2,-3,-1,-5,-2,-1,0.6
121,1,1,0,-1,-2,1,-1,-1,0.605
122,-3,-5,-2,-3,-4,-4,0,1,0.61
123,1,1,2,3,-12,-3,0,-2,0.615
124,0,1,1,3,14,3,0,0,0.62
125,-2,1,0,0,-5,-2,-1,-1,0.625
126,3,-1,0,-1,14,5,1,1,0.63
127,-2,-3,-1,-2,-2,0,1,1,0.635
128,-2,0,-1,-4,-11,-3,0,-3,0.64
129,0,0,1,2,-5,6,1,1,0.645
130,1,-2,-2,-3,14,1,-2,-3,0.65
131,-1,-1,0,-3,-6,-2,1,2,0.655
132,0,0,0,3,-4,-5,-3,-1,0.66
133,-5,-5,-3,-4,-3,-4,0,-2,0.665
134,-2,1,1,2,4,1,0,-1,0.67
135,-2,-1,-2,-2,2,-2,-4,-2,0.675
136,1,0,0,0,-4,-2,0,-2,0.68
137,0,-2,-1,0,1,-3,-1,-2,0.685
138,-2,-3,0,-1,-7,-4,-1,-1,0.6900000000000001
139,0,0,-1,-1,-6,-1,0,0,0.6950000000000001
140,-1,0,0,1,-8,-5,-2,-1,0.7000000000000001
141,0,2,-1,-1,17,4,0,0,0.705
142,-1,-2,1,-3,-8,-1,0,1,0.71
143,-1,-1,-2,-4,-6,-2,-2,-2,0.715
144,-1,-3,-2,0,1,0,-2,-1,0.72
145,0,-1,1,2,4,9,1,0,0.725
146,0,-1,-3,-1,-1,-5,-2,-4,0.73
147,1,0,0,2,0,-1,0,3,0.735
148,-3,-4,-2,-6,-13,-4,-3,-3,0.74
149,-1,1,0,-1,-4,-3,-1,-2,0.745
150,-2,0,1,4,-4,-6,-1,0,0.75
151,2,1,0,-2,11,7,1,0,0.755
152,-1,0,-2,1,5,0,0,0,0.76
153,-1,-2,0,2,2,-3,-2,-3,0.765
154,0,0,0,-5,-7,2,0,-2,0.77
155,-2,-2,-1,2,-27,-9,-3,-2,0.775
156,-1,-2,-2,-3,33,10,1,-1,0.78
157,1,4,-2,2,-9,-2,0,2,0.785
158,-1,1,-1,0,2,1,-1,-1,0.79
159,-3,-6,-2,-1,0,-1,2,1,0.795
160,0,-1,1,0,-7,-3,0,0,0.8
161,-1,-4,-2,-1,-5,-4,-2,-2,0.805
162,0,4,-1,0,-3,-2,-5,-2,0.81
163,-1,1,-1,-2,8,2,0,-1,0.8150000000000001
164,-3,-4,-3,0,-11,-7,-3,-1,0.8200000000000001
165,-1,0,-1,-4,14,11,3,2,0.8250000000000001
166,1,0,-1,2,-8,-6,-2,1,0.8300000000000001
167,1,2,1,-1,4,3,0,-1,0.835
168,0,1,0,2,0,-2,0,-2,0.84
169,-2,-2,-2,-5,-5,-2,-2,-1,0.845
170,-2,-3,-1,0,2,0,1,0,0.85
171,1,-1,-1,-4,4,1,0,-1,0.855
172,-3,0,-1,-3,-9,-3,-1,0,0.86
173,-1,-3,0,1,-3,-5,-2,-1,0.865
174,-2,-2,0,-1,6,4,1,0,0.87
175,-1,1,0,1,1,-2,-1,-2,0.875
176,1,-1,-1,-1,-1,1,2,0,0.88
177,-1,-1,0,-1,-11,-4,-3,0,0.885
178,0,0,-1,-1,7,-1,-1,-2,0.89
179,-2,-1,0,-1,2,3,2,0,0.895
180,0,-4,-2,3,-15,-8,-2,-2,0.9
181,2,1,0,3,20,5,2,0,0.905
182,0,-1,-1,-9,1,7,1,0,0.91
183,-2,1,0,0,-2,-2,0,1,0.915
184,-2,-3,1,-2,4,3,1,2,0.92
185,-1,-3,-2,-2,-7,-5,-2,-1,0.925
186,0,2,-1,2,-1,-2,-2,-1,0.93
187,-1,-1,-1,0,3,0,-1,-2,0.935
188,0,0,0,-3,-4,1,0,0,0.9400000000000001
189,-2,-2,-2,-3,-6,-3,-2,0,0.9450000000000001
190,-2,0,0,0,3,-1,-1,-2,0.9500000000000001
191,-1,-1,-1,-1,-6,-3,-2,-2,0.9550000000000001
192,0,0,-2,1,2,0,0,-1,0.96
193,0,0,-1,-1,-1,-2,0,-2,0.965
194,0,-1,-1,0,-7,-2,-2,0,0.97
195,-1,0,0,2,3,-1,1,-2,0.975
196,-1,-1,0,-3,-5,-2,-1,1,0.98
197,-1,0,0,-2,-6,-4,-1,-1,0.985
198,-1,-1,0,0,3,0,1,0,0.99
199,0,-1,0,2,0,-1,-1,-1,0.995
200,-2,0,-2,-1,0,1,-1,-1,1.0
201,-1,-3,0,5,2,0,-1,1,1.0050000000000001
202,0,0,-1,-3,-19,-2,-1,-2,1.01
203,-1,-3,-1,-4,13,1,0,-1,1.0150000000000001
204,1,2,1,1,-3,-3,0,-1,1.02
205,-1,0,1,-2,1,4,-1,-1,1.025
206,0,-3,-2,2,2,0,0,-1,1.03
207,1,1,-1,-1,-4,-4,-2,-2,1.035
208,-1,0,-1,-2,2,1,-1,-1,1.04
209,1,-1,3,3,-4,-6,1,0,1.045
210,-1,-1,-3,-4,10,4,-2,-1,1.05
211,-2,-1,-3,-4,-9,-2,-3,-2,1.055
212,-1,-1,-1,1,3,0,-1,0,1.06
213,-1,0,-2,-3,-1,-2,-2,-2,1.065
214,-1,0,1,-1,-8,-5,0,-2,1.07
215,0,-3,-2,0,3,2,-1,-1,1.075
216,-1,0,0,0,-1,-3,0,-2,1.08
217,-2,1,1,-5,-5,0,-2,-2,1.085
218,-1,0,1,2,9,1,-1,0,1.09
219,-1,-1,1,1,6,1,-1,-1,1.095
220,-2,-2,-2,-6,-7,-1,-2,-3,1.1
221,0,-1,-1,0,0,1,0,-2,1.105
222,-2,-2,-2,-1,-3,-2,-2,-2,1.11
223,-2,-2,0,0,-7,-2,0,1,1.115
224,-2,-1,0,1,1,0,-1,-1,1.12
225,1,0,-1,-1,1,-2,-1,0,1.125
226,1,-2,-1,1,-2,-1,0,0,1.1300000000000001
227,-1,1,-2,0,0,1,0,-1,1.135
228,-1,0,-1,0,0,1,0,-1,1.1400000000000001
229,-2,-2,-3,-2,0,3,-2,0,1.145
230,0,-2,0,6,-2,-6,-2,-2,1.1500000000000001
231,-4,-1,-1,-8,7,4,2,2,1.155
232,-1,0,0,-1,-3,-2,-1,-2,1.16
233,-1,0,-1,1,10,5,1,0,1.165
234,0,0,0,0,-4,-1,-1,0,1.17
235,0,-1,-1,0,-5,-4,-3,-1,1.175
236,0,-1,1,0,-1,-1,1,0,1.18
237,-2,-2,-2,-2,-6,-3,-2,-3,1.185
238,-2,-2,-1,1,-6,-4,-1,0,1.19
239,0,0,0,-2,8,4,0,-1,1.195
240,-2,-1,0,-1,0,0,1,1,1.2
241,1,0,-2,2,-5,-6,-2,-1,1.205
242,0,2,-2,-3,1,4,2,-2,1.21
243,-1,-1,-1,0,-3,-4,0,-1,1.215
244,-1,-2,-3,1,2,0,-1,-1,1.22
245,-2,0,0,1,-2,-1,0,-1,1.225
246,-1,-1,-1,-2,2,0,-1,1,1.23
247,2,1,1,1,1,3,2,1,1.235
248,-2,-1,0,0,1,0,-1,-2,1.24
249,-1,0,0,-4,-2,0,0,0,1.245
250,0,1,-2,-2,-1,-1,-1,-1,1.25
251,1,0,-1,0,-8,-4,-2,0,1.2550000000000001
252,-1,-1,0,0,-1,-2,-2,1,1.26
253,-1,0,-2,-2,-1,0,-1,-2,1.2650000000000001
254,-2,0,0,0,1,0,0,0,1.27
255,-1,0,-2,0,2,3,-1,-2,1.2750000000000001
256,1,-1,-1,-6,-7,2,1,0,1.28
257,-1,1,-1,-1,0,-2,0,-1,1.285
258,-1,-2,0,0,-9,-2,1,0,1.29
259,-2,-1,-1,1,5,-1,-2,-4,1.295
260,-1,0,0,-2,-3,-5,-2,-1,1.3
261,0,-3,0,-2,7,3,1,0,1.305
262,-2,-1,-2,-4,-6,-2,-2,-1,1.31
263,-1,0,1,1,-4,-4,-2,0,1.315
264,-1,-2,0,0,-2,-1,0,0,1.32
265,-1,-2,-1,0,-2,0,-2,1,1.325
266,0,-1,-1,-2,4,1,0,0,1.33
267,0,0,1,-1,-8,-3,-1,0,1.335
268,-2,-1,-2,0,4,1,-1,-3,1.34
269,-1,-3,0,-3,-3,-1,-1,-2,1.345
270,-1,-1,-2,1,3,-2,-1,-1,1.35
271,-2,-2,-2,-4,-5,-1,0,-1,1.355
272,-1,-1,0,-1,-2,-1,-2,1,1.36
273,-2,-3,-1,2,-2,-3,0,-1,1.365
274,1,-1,0,-3,2,4,0,0,1.37
275,-1,-2,-1,0,-1,-3,-1,-1,1.375
276,-1,-1,-2,3,5,0,1,-2,1.3800000000000001
277,-1,0,-1,-6,-10,-2,-2,-3,1.385
278,-1,-1,-1,2,13,4,-1,-2,1.3900000000000001
279,-1,-2,-3,-2,-3,1,0,-1,1.395
280,0,-1,-1,0,0,-2,-1,0,1.4000000000000001
281,-1,-1,0,1,2,0,-1,-1,1.405
282,1,-1,1,0,-8,-2,-1,0,1.41
283,-1,-2,-2,-1,-3,-2,-4,-2,1.415
284,-1,-3,-2,-1,-5,-2,-2,-1,1.42
285,0,1,0,-2,4,2,-1,-1,1.425
286,-1,-1,-1,-1,-7,-4,0,1,1.43
287,0,-1,0,2,2,4,0,-1,1.435
288,1,2,0,-2,-8,1,-2,0,1.44
289,0,-1,-3,1,7,1,0,0,1.445
290,-3,-4,-2,1,-4,-5,0,-2,1.45
291,-1,0,-1,-1,-1,-3,-2,0,1.455
292,-1,-1,-1,4,6,0,1,-1,1.46
293,0,1,-2,-4,-2,5,0,0,1.465
294,-1,0,-1,-5,-1,-2,-1,-2,1.47
295,-2,-3,-1,0,-2,1,0,-1,1.475
296,0,1,0,-1,-3,-2,0,-1,1.48
297,-1,-2,1,4,-2,-4,1,-1,1.485
298,1,1,-1,-6,-8,2,-1,-2,1.49
299,1,0,-1,-3,-2,-2,0,-2,1.495
300,1,-1,-1,-1,2,0,-1,0,1.5
301,-1,-1,0,1,-1,-1,-2,-1,1.5050000000000001
302,-2,0,-3,-1,0,-2,1,-2,1.51
303,-2,-1,0,1,1,-1,-1,-1,1.5150000000000001
304,0,1,-1,-2,3,2,0,1,1.52
305,0,-1,-1,-2,-3,0,0,1,1.5250000000000001
306,-1,0,0,1,0,-3,-2,-1,1.53
307,-1,2,-2,-1,2,0,0,1,1.5350000000000001
308,0,-3,-2,0,4,0,1,-2,1.54
309,-1,0,0,-1,0,-1,0,0,1.545
310,-2,-1,-1,1,-1,-2,-1,1,1.55
311,-2,-2,0,-1,-8,-4,-1,0,1.555
312,-1,-1,0,-2,-2,-2,0,-1,1.56
313,1,-2,-1,1,8,5,0,-2,1.565
314,0,-3,0,-1,2,1,0,-2,1.57
315,1,-2,-4,-2,-4,-4,-1,-2,1.575
316,0,-1,0,2,0,-1,0,0,1.58
317,-1,-1,-1,-5,-4,0,0,-1,1.585
318,-1,0,-1,-1,-2,-2,-1,2,1.59
319,-2,0,0,2,1,-2,-1,-1,1.595
320,-2,-2,-1,-6,0,2,-1,-2,1.6
321,-1,0,-2,0,-1,-2,0,-1,1.605
322,0,-1,-1,1,1,0,-1,-1,1.61
323,-1,0,1,2,0,0,-1,-2,1.615
324,0,-1,0,-1,-1,0,-3,0,1.62
325,-2,0,-2,1,-4,-3,-1,-1,1.625
326,-1,-2,0,-1,0,-1,-2,-2,1.6300000000000001
327,0,-1,-1,-2,-2,-1,-1,0,1.635
328,-2,-1,-2,0,-1,-1,0,-1,1.6400000000000001
329,0,-2,0,-3,-4,0,-2,-1,1.645
330,-1,1,0,1,1,-1,0,-1,1.6500000000000001
331,-1,-1,-1,0,-2,-1,0,-1,1.655
332,0,-2,1,-1,-1,-1,-1,0,1.6600000000000001
333,0,1,0,-1,-1,-3,-2,1,1.665
334,0,-2,0,-1,-1,-1,-1,-2,1.67
335,0,-1,-1,-2,-2,0,-1,0,1.675
336,-2,-2,-3,-3,-3,-4,-1,-1,1.68
337,-1,-1,-1,0,-3,-5,-1,-1,1.685
338,-1,0,-1,-3,1,0,0,-1,1.69
339,-1,1,-1,-1,1,-1,1,0,1.695
340,-2,-1,-1,-1,-4,-5,-1,-3,1.7
341,0,0,0,-3,2,0,-2,-2,1.705
342,-1,-2,-1,1,-2,-1,-1,-1,1.71
343,0,0,0,-2,-2,-2,-1,0,1.715
344,0,-2,-1,0,2,1,-1,-2,1.72
345,-1,0,0,0,0,-1,0,0,1.725
346,-2,-1,-2,0,0,0,-1,-1,1.73
347,1,-1,0,-2,2,0,1,0,1.735
348,2,0,0,0,1,0,0,-1,1.74
349,0,-2,-2,-2,-2,-1,1,-1,1.745
350,0,-1,-1,-1,-1,-3,-1,0,1.75
351,0,-1,-1,1,0,0,0,-2,1.7550000000000001
352,-1,-1,0,-3,-9,-4,-1,-1,1.76
353,1,-1,-1,1,-1,-1,-3,-1,1.7650000000000001
354,-1,-1,-1,2,4,-1,-1,0,1.77
355,0,0,-2,-4,-4,2,-1,-2,1.7750000000000001
356,1,2,0,1,2,1,0,0,1.78
357,-1,-1,0,-1,-3,-1,-1,-3,1.7850000000000001
358,0,1,-1,-1,-1,0,0,0,1.79
359,-1,-1,1,2,-1,-4,-1,-1,1.795
360,0,-2,-1,0,6,3,0,-1,1.8
361,-2,-1,-2,0,-1,2,-1,0,1.805
362,0,-1,0,-3,2,0,1,0,1.81
363,0,-2,-1,1,0,-1,0,-1,1.815
364,-2,-1,-1,0,-1,-1,-1,-2,1.82
365,0,-2,-1,0,-1,-3,-1,-1,1.825
366,-1,-1,0,-2,-1,0,1,-1,1.83
367,0,0,-2,-1,-2,-1,-2,1,1.835
368,-1,0,-1,-1,-1,-1,-1,-1,1.84
369,-1,-1,-1,0,3,-1,1,-1,1.845
370,1,-1,-2,-1,-4,-1,-4,-2,1.85
371,0,-1,-1,-1,-2,-2,-1,-1,1.855
372,1,0,-2,1,2,-1,-1,0,1.86
373,0,-1,0,0,-1,0,0,-2,1.865
374,-3,-2,1,3,-2,-4,-2,-1,1.87
375,0,0,1,-2,11,8,3,-1,1.875
376,-1,-3,-1,-1,-1,-1,-1,0,1.8800000000000001
377,-1,-2,-1,-1,-6,-4,-2,-1,1.885
378,-1,-2,-2,0,2,-1,0,-2,1.8900000000000001
379,-2,-1,-2,-1,-5,-4,-2,-3,1.895
380,-1,0,-1,-2,-3,-1,0,-2,1.9000000000000001
381,0,1,-1,-1,-2,0,-1,-1,1.905
382,0,-1,-1,-2,-1,1,0,-1,1.9100000000000001
383,-1,0,0,0,-3,-4,-1,-1,1.915
384,-2,1,-1,-4,0,1,0,1,1.92
385,-1,0,0,0,-2,-3,-2,0,1.925
386,-2,-1,0,-1,0,1,-1,-1,1.93
387,0,-2,-1,5,1,-6,-3,-2,1.935
388,-1,-2,-1,-9,1,6,-1,0,1.94
389,-2,-2,-2,-1,0,0,-1,0,1.945
390,0,-2,-1,-2,0,0,-2,0,1.95
391,-1,0,1,-2,0,-2,0,-2,1.955
392,0,-1,-1,1,-4,-4,-1,-1,1.96
393,0,0,1,-3,-2,-3,-2,-2,1.965
394,1,0,0,-2,-3,2,0,-2,1.97
395,-1,-1,-2,0,-4,-3,-3,0,1.975
396,-1,-1,-1,2,-1,0,0,-1,1.98
397,1,-1,-1,-1,0,2,0,0,1.985
398,-1,1,-1,1,-3,-4,-1,0,1.99
399,-1,-2,0,-4,-2,-1,0,0,1.995
400,-1,1,0,0,-3,-2,-2,-3,2.0
401,-1,-1,-1,0,2,-1,-1,-1,2.005
402,-2,-2,-2,-2,-1,-2,-1,-2,2.0100000000000002
403,-1,-2,-3,-1,1,3,-2,-1,2.015
404,0,-2,-1,0,-3,-2,1,0,2.02
405,-1,0,0,0,-3,-2,-1,0,2.025
406,0,-1,-1,2,-2,-2,-3,1,2.0300000000000002
407,1,0,0,-3,1,3,1,0,2.035
408,-1,-2,0,4,-3,-4,-2,-2,2.04
409,0,-1,-1,-1,10,5,1,0,2.045
410,0,1,-1,1,-1,-2,-1,1,2.05
411,0,-1,-1,-1,-2,0,0,2,2.055
412,0,-1,-1,0,-3,-2,-2,-1,2.06
413,-2,-1,1,1,-3,-3,-1,-1,2.065
414,-3,-1,-1,-1,1,3,1,-1,2.07
415,0,-1,-1,0,0,-1,1,-1,2.075
416,-2,-2,0,-1,1,-2,-2,0,2.08
417,-2,-1,-1,-1,-5,-4,-1,0,2.085
418,-1,1,-2,-3,1,-1,-1,-2,2.09
419,-1,1,0,0,-4,-4,-1,-1,2.095
420,0,-1,0,0,1,0,-1,-1,2.1
421,0,-1,-2,4,-1,-2,-1,-1,2.105
422,1,-2,0,-4,-4,4,2,-1,2.11
423,-2,0,0,0,-3,-2,0,0,2.115
424,0,0,-3,-1,9,4,1,1,2.12
425,-1,-1,-1,1,-2,-4,-1,-2,2.125
426,0,-1,-1,0,2,0,-1,0,2.13
427,-1,-2,-2,-3,-1,1,0,0,2.1350000000000002
428,0,-2,-1,1,0,-2,0,0,2.14
429,1,0,-1,-3,-1,0,-1,-1,2.145
430,-1,-2,-3,0,-3,-4,0,-2,2.15
431,-1,-1,-1,-3,2,2,1,-2,2.1550000000000002
432,-1,-1,-1,-1,-4,-2,0,1,2.16
433,-2,-2,-2,-2,0,3,-1,-2,2.165
434,-1,-1,-1,0,-3,-1,-1,-2,2.17
435,0,0,-2,0,-5,-6,-1,0,2.1750000000000003
436,-1,-1,-1,-1,-3,-1,-1,0,2.18
437,-1,0,-1,-3,-3,-2,-2,-1,2.185
438,0,-1,-1,0,1,-1,-2,-2,2.19
439,-1,-1,-1,2,0,-1,0,-1,2.195
440,0,-1,-3,-1,0,0,-1,-1,2.2
441,1,-2,0,-3,-5,-3,-1,1,2.205
442,0,-1,-1,2,0,-3,-3,1,2.21
443,0,1,0,-5,-4,1,2,1,2.215
444,0,-1,0,-2,-3,-2,0,-1,2.22
445,0,-1,-3,-1,1,0,-1,0,2.225
446,0,-1,1,0,-2,0,0,-2,2.23
447,-1,1,-1,1,0,0,-4,-1,2.235
448,0,-1,-1,0,2,1,-1,0,2.24
449,0,-1,-1,-1,-2,-2,0,-1,2.245
450,-2,-1,0,-2,0,-1,0,-1,2.25
451,-1,-1,-1,0,1,1,-1,0,2.255
452,0,1,1,-1,-3,-1,-1,-1,2.2600000000000002
453,0,0,-2,-1,1,0,1,-1,2.265
454,-2,0,-1,-1,1,2,-1,-1,2.27
455,-1,-2,0,0,0,-1,-1,-1,2.275
456,-3,0,-2,-1,-1,0,1,0,2.2800000000000002
457,-2,1,0,0,-1,0,0,-1,2.285
458,-1,0,-1,-1,-2,0,0,0,2.29
459,-2,0,-1,-1,-1,-1,2,-1,2.295
460,-2,-2,-1,1,-3,-3,-1,-3,2.3000000000000003
461,0,-4,-1,0,-2,-3,-2,-2,2.305
462,-1,-2,-4,-3,1,1,0,0,2.31
463,0,0,0,0,3,1,0,-2,2.315
464,0,1,-1,-1,-1,-1,1,1,2.32
465,0,0,0,-1,-2,-4,-2,-1,2.325
466,-1,-2,-1,-3,-1,0,0,0,2.33
467,-1,-1,0,-2,0,0,-1,-1,2.335
468,-2,-2,0,-1,-2,1,0,-1,2.34
469,-1,0,0,2,3,-1,-1,0,2.345
470,-1,0,0,-1,-1,-3,-1,-1,2.35
471,-1,-1,-1,0,0,0,-2,-2,2.355
472,-2,2,1,-1,1,0,-1,-1,2.36
473,-1,-1,-2,-1,-4,0,0,0,2.365
474,0,0,-1,1,-1,0,-2,-2,2.37
475,0,-1,-2,0,-2,-2,-1,-1,2.375
476,0,-1,-1,-1,-1,-2,-1,-2,2.38
477,-2,0,-2,-3,-2,1,-3,0,2.3850000000000002
478,1,-1,-2,3,5,-1,-1,-1,2.39
479,-1,-2,-4,-7,2,3,-2,-2,2.395
480,-1,0,-2,-1,-1,-3,-3,-1,2.4
481,-1,-1,0,-3,1,1,1,-1,2.4050000000000002
482,-1,0,-1,-1,-2,-2,0,-1,2.41
483,-2,-1,1,0,-3,-3,-1,0,2.415
484,0,0,-1,0,1,0,0,0,2.42
485,-1,-2,0,-3,-1,-1,1,-3,2.4250000000000003
486,-1,-1,0,-2,-2,-2,-2,0,2.43
487,-2,1,-2,0,0,-2,0,-1,2.435
488,1,-1,-1,-1,-2,0,0,0,2.44
489,-1,-1,-1,3,2,-1,-1,0,2.445
490,0,0,-3,-2,-2,0,-2,-1,2.45
491,1,1,-1,-1,-2,-1,-1,-1,2.455
492,-2,0,1,0,1,-1,-1,-1,2.46
493,-5,-14,-6,0,2,4,0,0,2.465
494,-2,-2,0,0,0,-2,0,-1,2.47
495,1,-1,-1,0,-2,-1,-1,2,2.475
496,-3,-6,1,1,0,-1,0,-2,2.48
497,2,5,-2,-3,-5,-3,-1,0,2.485
498,-1,-2,-2,-3,0,0,1,0,2.49
499,-3,-5,-1,1,-2,-3,-1,1,2.495
500,0,3,-1,-2,-4,-1,-2,-2,2.5
501,-1,3,-1,0,3,1,0,1,2.505
502,0,-1,1,-1,-2,-2,0,0,2.5100000000000002
503,-1,2,0,0,1,0,0,0,2.515
504,-1,-2,0,-1,-1,-1,1,1,2.52
505,0,2,0,-1,-3,0,-1,-4,2.525
506,-2,-2,0,2,1,0,-1,-2,2.5300000000000002
507,-2,-3,-2,-2,-5,-3,0,-1,2.535
508,0,-1,-2,-1,5,4,-1,0,2.54
509,-2,0,0,0,-1,0,-2,0,2.545
510,-1,2,-2,-3,-2,-1,0,-1,2.5500000000000003
511,-2,-1,0,-1,-1,-1,-2,0,2.555
512,-2,-2,-3,0,0,-3,-2,0,2.56
513,0,-1,-1,-6,-13,-7,-3,-1,2.565
514,-1,0,-2,-1,-1,0,0,0,2.57
515,-1,-2,-1,1,3,0,-2,-1,2.575
516,-1,-2,0,3,6,1,2,-2,2.58
517,0,3,0,-4,-4,2,2,1,2.585
518,0,-2,-2,-2,-1,-1,-2,-2,2.59
519,-1,-2,0,-3,-5,-2,-1,-3,2.595
520,-1,0,-3,-2,-2,-2,-1,0,2.6
521,0,-2,1,0,2,0,-1,-2,2.605
522,-1,0,-1,0,-2,0,0,-2,2.61
523,1,0,-1,2,2,1,1,-1,2.615
524,0,-1,-1,0,-4,-1,0,-1,2.62
525,-2,-3,-1,2,2,-1,-1,0,2.625
526,0,0,-1,-3,-1,1,-2,-1,2.63
527,0,-1,-2,0,-2,-1,-2,-1,2.6350000000000002
528,0,-1,0,-3,-3,0,-1,0,2.64
529,-1,-1,-1,-2,8,3,2,-1,2.645
530,-1,-2,-3,-1,2,0,1,0,2.65
531,-1,0,-1,1,-1,-1,1,0,2.6550000000000002
532,-1,-2,-2,-2,-3,-1,-2,-3,2.66
533,0,1,0,2,0,-2,0,0,2.665
534,0,-2,1,-1,-5,-2,-1,0,2.67
535,0,0,-2,-1,8,3,1,-1,2.6750000000000003
536,-3,-2,0,-1,-4,-1,-1,-1,2.68
537,1,0,1,0,-3,-3,-2,0,2.685
538,-1,-1,1,1,2,0,-1,0,2.69
539,0,-2,-1,-3,-1,3,0,0,2.695
540,3,1,-1,-2,-1,-3,-1,0,2.7
541,-3,-5,-1,2,-1,-1,-2,-2,2.705
542,1,0,0,0,0,-3,0,-2,2.71
543,1,4,-1,-5,-10,-4,-2,0,2.715
544,1,0,-2,0,4,1,1,0,2.72
545,-2,-4,-1,-2,-1,0,-2,0,2.725
546,-2,-1,-3,-1,-2,-2,0,0,2.73
547,-1,-4,0,1,2,-2,0,-2,2.735
548,-1,1,-1,-2,-6,-2,-1,-1,2.74
549,0,1,-2,-3,-1,-1,-1,-1,2.745
550,0,-1,-2,1,0,-2,-2,-1,2.75
551,-1,1,-1,-1,0,-1,-1,-1,2.755
552,-1,-3,0,-1,-3,-2,-1,1,2.7600000000000002
553,-2,2,0,-2,1,-1,-2,-1,2.765
554,1,-3,-1,-2,-1,0,-1,0,2.77
555,-4,2,-3,-1,-2,-2,-1,-1,2.775
556,0,6,0,-3,0,0,-1,-2,2.7800000000000002
557,0,-3,0,-1,-5,-4,0,-1,2.785
558,-1,-4,-2,1,6,4,1,1,2.79
559,-1,1,0,-1,1,-1,-1,-2,2.795
560,-4,-10,-2,-1,0,1,-1,0,2.8000000000000003
561,-1,1,0,-2,0,-1,-2,0,2.805
562,0,2,0,-1,-2,0,-1,-1,2.81
563,-1,1,1,-1,-4,-3,-2,-1,2.815
564,1,3,0,-2,-5,-1,-2,-1,2.82
565,1,-3,-2,1,4,1,1,-1,2.825
566,0,0,-1,0,-4,-5,-1,-2,2.83
567,-1,-3,-2,-6,0,3,-1,0,2.835
568,-3,-1,-1,1,-4,-7,-1,-3,2.84
569,1,-1,-1,0,-2,-1,-1,-2,2.845
570,-1,0,-2,-3,0,0,-1,0,2.85
571,-2,0,0,7,-3,-8,-2,1,2.855
572,2,1,-1,-2,13,12,2,2,2.86
573,-1,-1,-1,-2,0,1,1,-2,2.865
574,-2,0,1,0,-1,1,-1,-2,2.87
575,-1,-3,0,1,-4,-3,0,0,2.875
576,-1,-5,0,0,-1,-3,0,0,2.88
577,0,2,-1,2,1,1,-1,-1,2.8850000000000002
578,-2,-1,1,-1,-1,-2,-2,-1,2.89
579,0,-1,-1,-2,1,1,0,-2,2.895
580,0,2,0,-1,1,-1,-1,-2,2.9
581,-2,0,0,-1,-1,0,-1,0,2.9050000000000002
582,-1,-3,-2,-3,-5,-3,-1,0,2.91
583,-3,-10,-3,0,0,1,-1,-1,2.915
584,-2,-2,-1,-1,-1,-2,-1,-2,2.92
585,0,2,-2,-1,-1,-1,0,-2,2.9250000000000003
586,0,3,-1,-1,0,0,-1,-1,2.93
587,0,-1,-1,2,2,0,0,-1,2.935
588,-1,-1,-2,-1,-5,-1,0,-1,2.94
589,-1,-1,-2,-2,1,0,-2,-1,2.945
590,-1,0,0,0,-6,-2,-2,-2,2.95
591,2,-2,-2,-3,8,2,2,-1,2.955
592,-1,0,0,0,-2,-2,0,0,2.96
593,-1,0,0,-1,0,-2,-1,0,2.965
594,-2,-5,1,0,2,0,0,-1,2.97
595,0,1,-1,-1,-5,-1,-1,0,2.975
596,-1,-1,-1,0,-3,-1,-1,1,2.98
597,1,0,-1,0,5,4,0,0,2.985
598,2,0,0,-1,-1,-2,-1,-1,2.99
599,-1,0,-2,-1,-3,-3,-2,-1,2.995
600,-1,0,-1,-1,-2,-3,-1,0,3.0
601,-2,-1,-1,-1,-5,-3,-2,0,3.005
602,-1,0,-1,-1,-1,-1,1,0,3.0100000000000002
603,-1,1,0,-1,0,1,-2,-2,3.015
604,-2,0,-1,-1,-1,-1,-1,-2,3.02
605,-1,-2,-1,-1,-3,-1,-2,-1,3.025
606,-2,1,-1,0,0,1,-2,-1,3.0300000000000002
607,-1,0,0,1,-1,-1,-2,1,3.035
608,0,-2,-1,-1,-2,-1,0,-1,3.04
609,-1,-1,-1,0,0,-1,0,1,3.045
610,0,2,-1,-1,-2,0,1,1,3.0500000000000003
611,-1,-4,-1,-1,1,-2,0,-2,3.055
612,-1,0,-2,1,1,1,-3,-2,3.06
613,0,-4,-2,-2,-2,0,-1,-2,3.065
614,-1,0,-2,-1,2,0,0,-1,3.0700000000000003
615,0,1,1,-1,-2,1,0,0,3.075
616,1,-2,-1,-1,-1,-1,-1,0,3.08
617,-2,-1,-1,-1,0,-2,-1,-1,3.085
618,0,-2,0,-1,-1,-4,-1,-1,3.09
619,0,2,0,-2,0,3,-1,-1,3.095
620,-2,0,1,1,-4,-4,-1,-1,3.1
621,-1,-2,-1,-1,3,2,1,-1,3.105
622,-1,1,-1,0,-2,0,-2,1,3.11
623,-1,-1,-1,0,-1,1,0,-1,3.115
624,1,1,-1,-1,1,1,1,-1,3.12
625,-1,0,0,-1,-3,-6,-1,-1,3.125
626,0,-4,-3,-1,0,-1,-2,-1,3.13
627,-1,0,-1,-2,-1,-3,-1,-1,3.1350000000000002
628,-1,-2,-2,-2,-2,-2,-2,-1,3.14
629,-1,-1,-2,1,-1,1,-1,-1,3.145
630,-2,-2,-2,-2,-3,-2,2,-1,3.15
631,0,1,-2,1,5,3,0,0,3.1550000000000002
632,0,-1,-1,-1,0,-1,-2,0,3.16
633,-1,-3,-2,0,0,-1,-2,-1,3.165
634,-3,3,0,0,1,0,-2,-1,3.17
635,-2,-3,-1,-1,-4,-2,-1,-1,3.1750000000000003
636,0,-1,-1,0,-1,-1,-1,-1,3.18
637,0,0,0,-1,-1,0,-2,-2,3.185
638,0,-1,1,0,1,-1,0,-1,3.19
639,-2,-2,-2,1,-1,-2,-2,-1,3.1950000000000003
640,0,-2,-3,-1,1,0,-1,0,3.2
641,-2,-2,0,0,-2,-3,-1,0,3.205
642,0,-2,-1,-1,-2,0,-1,1,3.21
643,0,-1,-2,-3,-1,-1,0,0,3.215
644,1,0,-1,-2,0,-1,0,-2,3.22
645,-1,0,0,0,-1,-2,1,0,3.225
646,-1,-2,0,-2,-1,0,-2,-1,3.23
647,-2,-1,1,0,0,-1,0,-1,3.235
648,-2,-2,0,-1,-2,-1,-1,1,3.24
649,0,0,0,-1,-4,-2,-1,-1,3.245
650,0,-1,0,-2,4,2,-2,-2,3.25
651,-2,-1,-3,-1,-3,-2,-2,-2,3.255
652,0,-1,0,0,-1,-1,-2,-2,3.2600000000000002
653,0,0,-2,-2,0,0,0,-1,3.265
654,-1,-3,-1,0,-2,1,-2,-2,3.27
655,-1,1,0,0,-1,0,0,-1,3.275
656,-2,-2,-2,0,0,-1,0,-3,3.2800000000000002
657,-1,0,-1,-1,-1,-3,0,1,3.285
658,-1,0,0,0,-3,-1,-1,-1,3.29
659,0,-1,0,-2,-2,0,-1,0,3.295
660,-2,0,1,0,0,0,-1,-1,3.3000000000000003
661,-1,-1,-1,0,-1,-1,-2,-1,3.305
662,0,2,-1,0,-1,-3,0,0,3.31
663,-1,-4,1,0,0,-1,-3,-1,3.315
664,0,2,-1,-2,0,0,0,-1,3.3200000000000003
665,0,0,-2,0,-2,-2,-2,-1,3.325
666,0,0,-2,-1,-1,0,-1,-1,3.33
667,-1,1,0,-1,-1,0,-1,0,3.335
668,1,-2,-1,-1,-1,-1,0,0,3.34
669,-1,-1,-1,-1,0,1,0,-2,3.345
670,0,0,-2,0,-2,-2,0,0,3.35
671,-1,-1,-2,-1,-1,0,0,-2,3.355
672,-1,-1,-2,0,-4,-1,-2,0,3.36
673,0,1,1,0,3,2,0,0,3.365
674,-1,-2,1,0,0,-1,2,-1,3.37
675,-1,-1,-2,-1,0,-2,-2,-3,3.375
676,-1,-1,1,-1,1,2,0,1,3.38
677,0,-1,-2,-1,-1,-1,0,-1,3.3850000000000002
678,-1,0,-2,0,-1,1,0,0,3.39
679,-1,0,-1,0,0,-2,0,1,3.395
680,-2,-3,-1,-2,2,-1,-1,-1,3.4
681,0,2,-1,-2,-3,-3,0,-1,3.4050000000000002
682,-1,-4,-2,-1,4,3,1,-1,3.41
683,-1,1,-2,-2,-1,-2,-1,-2,3.415
684,-1,-2,-1,1,0,-2,-1,0,3.42
685,-2,-2,-1,-1,0,-2,-1,0,3.4250000000000003
686,-1,1,-1,1,-3,-1,-1,-2,3.43
687,0,-2,0,-2,-1,-1,-1,-1,3.435
688,1,0,0,0,-1,-2,-2,-1,3.44
689,-1,-1,-1,-2,1,0,-1,0,3.4450000000000003
690,-1,-1,-1,-1,-1,-2,-1,-1,3.45
691,0,-2,-2,0,0,0,-1,-1,3.455
692,-1,-1,-2,1,-1,0,0,0,3.46
693,-1,-2,-2,-2,-1,0,0,-1,3.465
694,0,0,-1,-2,0,-2,-1,1,3.47
695,0,-1,0,0,0,0,0,-1,3.475
696,-1,-1,1,-1,0,0,-1,-1,3.48
697,-1,-1,-1,-1,-4,-2,-2,0,3.485
698,-2,0,-1,-1,4,1,0,0,3.49
699,-1,0,-1,-1,0,0,-2,-1,3.495
700,0,2,-2,-1,-1,-1,-1,-2,3.5
701,-1,-5,1,-1,2,1,0,0,3.505
702,-2,0,0,-3,-7,-2,-1,-1,3.5100000000000002
703,-2,-1,-1,0,-1,-2,-1,0,3.515
704,-2,0,-2,-1,1,0,0,0,3.52
705,1,1,1,0,-4,-1,0,-1,3.525
706,0,-2,-2,0,-3,-1,-2,0,3.5300000000000002
707,-1,0,-2,-1,-1,-1,0,-2,3.535
708,-1,-1,0,-1,-1,-1,-1,-2,3.54
709,-1,1,-1,1,1,-1,-2,-1,3.545
710,-1,-3,-2,-1,0,-2,-1,0,3.5500000000000003
711,0,1,-1,1,-1,-1,-2,1,3.555
712,-1,-1,-1,-3,-1,-2,-1,-1,3.56
713,-1,-2,-3,-1,-1,1,-3,-1,3.565
714,-2,-2,1,0,0,-1,0,-1,3.5700000000000003
715,0,-1,-1,-1,-2,-2,-1,-1,3.575
716,0,-1,-1,0,-1,0,1,0,3.58
717,-1,0,-2,-1,0,-1,-1,1,3.585
718,0,-1,0,-1,-2,-1,-1,-1,3.59
719,-1,-1,0,-1,-2,-2,-1,-1,3.595
720,0,0,0,-1,0,-1,0,-2,3.6
721,-1,-1,-2,1,-1,-2,-3,-1,3.605
722,-2,-1,-1,0,-2,-2,0,0,3.61
723,0,0,0,-1,-6,1,0,0,3.615
724,-1,-1,-3,-1,11,3,0,0,3.62
725,-1,0,-1,-2,-1,0,0,-1,3.625
726,-2,-2,-2,0,0,0,0,-2,3.63
727,1,0,-3,-1,-2,0,-1,-1,3.6350000000000002
728,-2,-1,-2,-1,-4,-3,-1,-1,3.64
729,-1,-1,-1,1,1,-1,2,-1,3.645
730,-2,0,-1,0,0,1,-1,-2,3.65
731,-1,-3,0,-2,0,-1,-1,-3,3.6550000000000002
732,0,-2,-1,-1,-3,-2,0,-1,3.66
733,-2,0,1,0,0,-1,-1,-2,3.665
734,-2,-1,-1,0,-1,-1,0,-3,3.67
735,-1,0,0,-1,1,0,0,0,3.6750000000000003
736,-2,1,0,0,-1,-1,-1,0,3.68
737,0,-1,-1,-3,1,-1,-1,0,3.685
738,2,0,1,-2,-1,-1,-3,0,3.69
739,-1,-2,-1,1,-1,-3,-1,-1,3.6950000000000003
740,-1,0,0,-3,3,2,0,0,3.7
741,-1,-4,-1,0,0,1,-1,0,3.705
742,-1,0,-2,-1,-2,-2,-1,0,3.71
743,-1,-1,0,-2,-5,-1,-1,-1,3.715
744,0,-1,0,2,-1,1,-1,-1,3.72
745,0,-1,-1,0,0,-1,-1,-1,3.725
746,0,0,0,-2,-1,-1,-1,-1,3.73
747,-1,-2,-1,-1,-3,-3,0,-1,3.735
748,0,-2,0,0,-3,-2,-2,-1,3.74
749,-1,1,0,-1,-1,0,-1,-2,3.745
750,0,0,0,-1,-1,0,-1,1,3.75
751,-2,0,-2,-1,2,2,0,1,3.755
752,-2,-2,0,0,-2,-1,-1,-1,3.7600000000000002
753,-2,-2,-2,0,-1,-3,0,0,3.765
754,0,-1,-1,1,-3,-1,0,-2,3.77
755,0,1,1,-1,5,4,0,1,3.775
756,-1,-5,-2,-1,0,-1,1,-1,3.7800000000000002
757,-2,0,-2,-1,-4,-1,-1,0,3.785
758,-1,-1,-2,0,1,0,-1,-1,3.79
759,-2,-1,-2,-1,-5,-5,-2,-1,3.795
760,0,3,1,-1,3,2,-1,-1,3.8000000000000003
761,0,-2,0,0,2,1,0,-1,3.805
762,-2,-3,-2,-1,0,-2,-1,0,3.81
763,-2,-2,0,1,-2,-1,2,0,3.815
764,-1,-1,-1,-2,-4,-3,0,-1,3.8200000000000003
765,-3,-2,-2,1,1,-3,-2,-1,3.825
766,1,-1,-1,-6,-4,2,-1,-1,3.83
767,-1,-1,-2,-1,1,-2,0,0,3.835
768,-2,0,-2,-1,-4,-3,-1,0,3.84
769,1,0,-1,-1,2,3,1,0,3.845
770,0,1,0,2,-3,-3,-2,-1,3.85
771,-1,-4,0,-1,1,1,-2,0,3.855
772,-2,-5,-1,-2,1,1,-1,-2,3.86
773,1,1,-1,-1,-4,-3,0,-2,3.865
774,-2,1,0,0,-1,-1,1,0,3.87
775,0,1,1,-1,-3,-3,-1,-1,3.875
776,-1,0,-1,0,-2,0,0,-2,3.88
777,0,-2,0,-1,-2,-2,-2,-1,3.8850000000000002
778,-1,-2,1,0,0,-1,-1,-2,3.89
779,-1,1,0,0,1,0,-1,-2,3.895
780,-2,-1,0,-2,-3,-2,0,-1,3.9
781,-2,0,-2,-1,-1,-1,-1,0,3.9050000000000002
782,0,0,-1,0,-1,0,-2,-1,3.91
783,-1,-1,-1,0,0,-1,-1,-2,3.915
784,0,1,-2,-1,-3,-3,-2,-1,3.92
785,1,-1,-1,0,-2,-1,-2,-2,3.9250000000000003
786,-1,-1,1,0,2,0,-1,-1,3.93
787,0,-2,-2,-3,-1,-1,0,0,3.935
788,-1,0,-1,0,-2,0,-1,0,3.94
789,-1,0,1,-1,0,-1,0,0,3.9450000000000003
790,0,0,-1,2,6,5,0,0,3.95
791,-1,-2,-2,-1,0,-2,-1,-2,3.955
792,-1,0,-1,-1,-2,0,0,0,3.96
793,1,1,1,-1,-2,-1,0,1,3.9650000000000003
794,-3,-4,-2,-1,-4,-3,1,-1,3.97
795,-1,1,-1,-3,0,0,0,0,3.975
796,0,-1,1,1,-2,-1,0,-1,3.98
797,-1,1,-3,-3,-1,-1,-1,-2,3.985
798,-1,-1,-2,-3,0,0,-1,1,3.99
799,0,-1,-2,0,2,0,0,-2,3.995
800,1,-1,-1,-1,-6,-4,-2,-2,4.0
801,-1,-1,-1,0,7,5,0,2,4.005
802,1,-1,0,-1,0,-1,-1,-1,4.01
803,-1,-2,-1,-1,-1,1,-3,0,4.015
804,-2,-1,0,-3,-1,-2,0,1,4.0200000000000005
805,0,0,-1,-2,-1,-3,-1,-1,4.025
806,0,-2,-3,-1,-2,-1,0,-1,4.03
807,-1,-1,-1,0,0,0,-2,0,4.035
808,0,0,0,-1,1,0,0,-2,4.04
809,-2,-5,-2,-1,-3,-1,0,0,4.045
810,-2,-1,-1,-2,-3,-2,1,0,4.05
811,0,0,-2,-1,2,0,0,0,4.055
812,-1,0,0,-1,-1,0,-2,0,4.0600000000000005
813,-2,-4,-1,-1,-2,0,0,-1,4.065
814,-1,-1,-2,1,-2,-1,0,-2,4.07
815,-1,-2,-2,-3,-3,-3,-2,-1,4.075
816,0,-1,-2,-1,2,0,-1,0,4.08
817,0,-1,1,0,-2,0,0,-1,4.085
818,0,-1,-1,-1,-1,-1,0,-2,4.09
819,0,-1,-1,1,0,0,-1,-1,4.095
820,-2,0,-1,-1,0,1,0,0,4.1
821,-1,0,-1,-1,-2,-1,-1,-1,4.105
822,-2,-1,-2,0,0,-1,-1,-1,4.11
823,0,2,-1,-1,-5,-3,-1,-2,4.115
824,0,1,-1,-2,4,2,0,0,4.12
825,-1,-1,-1,-1,-1,-2,1,-1,4.125
826,-4,-1,0,-1,-1,-2,-2,-1,4.13
827,0,1,0,-1,-2,1,0,-1,4.135
828,-1,-3,-1,0,-2,-1,1,0,4.14
829,0,0,-2,-3,-1,-1,0,0,4.1450000000000005
830,0,0,1,-1,1,0,0,-1,4.15
831,-1,-1,0,-1,-1,-1,0,-2,4.155
832,-1,-1,0,1,-2,-1,-1,-1,4.16
833,0,1,-1,0,1,0,-1,0,4.165
834,-2,-3,0,1,-1,-1,0,0,4.17
835,-3,-2,0,-1,-1,-2,1,-1,4.175
836,0,0,-2,-1,4,1,-1,-1,4.18
837,-3,-3,-1,1,-3,-3,-1,-1,4.1850000000000005
838,0,-1,-3,-2,-2,-1,0,-2,4.19
839,-1,-1,-1,-1,0,0,-2,-2,4.195
840,-1,-1,1,1,-5,-3,-3,0,4.2
841,-1,1,-1,-3,3,1,-2,-2,4.205
842,-1,-3,0,0,0,-3,0,0,4.21
843,-1,-1,-3,1,0,1,1,-1,4.215
844,-1,-2,-2,-3,-1,-1,-1,-1,4.22
845,0,2,-1,-1,-4,-1,-2,-1,4.225
846,0,-1,0,-1,4,0,1,1,4.23
847,-1,1,-1,0,-1,-1,1,0,4.235
848,-1,-5,-1,-1,-3,-1,-1,0,4.24
849,-1,0,-1,0,-2,0,1,-1,4.245
850,0,-1,0,-1,-5,0,-2,-2,4.25
851,-1,-1,-1,0,2,-2,-1,0,4.255
852,1,1,0,1,-1,-2,-1,-1,4.26
853,0,-2,0,-1,-2,-2,0,-1,4.265
854,-1,-2,-1,-1,1,0,0,0,4.2700000000000005
855,-2,-2,0,-2,-4,0,-2,0,4.275
856,-1,0,-1,-2,0,-2,0,0,4.28
857,-1,2,-1,-2,0,1,0,1,4.285
858,0,1,-1,0,-1,-3,-1,-1,4.29
859,-1,-1,-1,-2,0,1,0,0,4.295
860,-2,-1,-1,0,-2,-3,0,-2,4.3
861,-1,-2,0,1,-2,-2,0,-1,4.305
862,1,0,1,-2,1,-1,0,-1,4.3100000000000005
863,-1,0,-1,0,-6,-2,-3,-2,4.315
864,-1,-5,-1,2,8,0,-1,2,4.32
865,0,1,0,-5,-3,2,0,0,4.325
866,-1,1,-1,1,-3,-1,-1,-2,4.33
867,-1,-4,-1,-2,0,-1,-1,0,4.335
868,-1,0,0,0,-1,1,-1,0,4.34
869,-2,-3,-1,2,0,-3,-2,0,4.345
870,0,1,0,0,4,1,0,-1,4.3500000000000005
871,-1,0,0,-1,-3,-1,-2,-2,4.355
872,-1,1,-1,0,3,0,1,0,4.36
873,0,0,-2,-2,-3,-2,-1,-2,4.365
874,-2,-3,0,-1,-2,1,-1,-1,4.37
875,-2,-1,0,-1,2,1,-1,0,4.375
876,-1,0,-1,1,-3,-1,-2,-1,4.38
877,-1,-1,-1,0,1,-2,-2,0,4.385
878,-2,-6,-2,-3,-4,-2,-3,-1,4.39
879,0,0,-2,-2,3,-1,1,0,4.3950000000000005
880,0,2,0,-2,-4,-2,-1,-1,4.4
881,-1,-4,-2,-1,-2,-1,-3,-3,4.405
882,-2,-1,-1,0,0,-1,-1,0,4.41
883,-2,-2,-1,1,0,0,0,-1,4.415
884,1,2,-3,1,-1,-3,-1,-1,4.42
885,0,-1,-1,-3,-6,1,0,0,4.425
886,-1,0,-1,-1,5,1,-1,-2,4.43
887,0,-1,-1,-3,-2,0,-2,-3,4.4350000000000005
888,-1,0,-1,-1,0,-1,0,-1,4.44
889,-1,-1,0,1,-1,-1,0,-1,4.445
890,1,0,-1,-1,-1,0,-1,0,4.45
891,-1,-1,-1,0,-1,-1,0,-1,4.455
892,-1,-2,-2,-2,-1,-1,-3,-2,4.46
893,0,-1,0,-2,0,-2,1,0,4.465
894,-2,0,0,-3,-3,0,0,0,4.47
895,-1,-1,-1,1,2,-3,0,-1,4.4750000000000005
896,-2,-1,-2,-1,-2,-1,0,-1,4.48
897,0,2,-2,0,-3,-2,-2,-1,4.485
898,-1,0,-1,2,9,1,2,-1,4.49
899,1,-3,0,-1,-4,-3,0,0,4.495
900,-1,-5,-1,-1,-2,-1,-1,-1,4.5
901,-2,-2,-2,-1,1,1,-1,-2,4.505
902,1,1,-1,-1,-5,-4,-1,-1,4.51
903,0,1,-1,1,-1,2,-1,1,4.515
904,1,1,1,-2,-2,0,0,-1,4.5200000000000005
905,0,-2,-2,0,0,0,0,0,4.525
906,-2,-2,0,-1,-6,-2,-2,-1,4.53
907,-1,-2,-2,-1,4,1,0,-1,4.535
908,-1,-1,0,0,0,-3,0,0,4.54
909,-1,-2,0,1,2,0,-1,-1,4.545
910,0,-2,0,2,-2,-3,-2,-2,4.55
911,0,-1,-1,-2,-1,-1,-1,0,4.555
912,-1,-1,-1,-2,-1,0,-1,1,4.5600000000000005
913,-2,-3,-1,1,2,-1,-1,-2,4.565
914,-2,-3,-1,0,-1,-1,0,-1,4.57
915,-1,2,0,0,0,-1,-1,0,4.575
916,-3,-8,-1,0,-1,-1,0,-2,4.58
917,-1,1,-1,-1,-1,-2,-1,0,4.585
918,0,-1,-1,-2,-2,0,1,1,4.59
919,-1,-1,-1,1,-1,0,-1,0,4.595
920,0,0,-1,0,0,1,-1,0,4.6000000000000005
921,-1,-2,-2,-1,-1,-1,0,0,4.605
922,0,1,0,0,-2,0,-2,0,4.61
923,-1,0,-1,0,0,0,0,-1,4.615
924,-1,1,-1,-2,-4,-1,-1,1,4.62
925,-1,1,0,-1,-1,-1,-1,-1,4.625
926,-1,0,-2,-1,-1,-1,-3,-1,4.63
927,-1,-2,0,-2,-3,-1,-1,-1,4.635
928,-1,2,-1,-1,-1,0,-1,-1,4.64
929,-1,-1,-2,-1,0,0,-1,-2,4.6450000000000005
930,-1,-3,-2,0,-1,-4,-2,0,4.65
931,0,1,-1,1,-1,-1,-2,1,4.655
932,-1,0,-2,1,-1,1,-1,-1,4.66
933,-2,-6,-2,-1,-2,0,0,-1,4.665
934,-2,2,-1,-1,-2,0,0,-2,4.67
935,-1,-4,-1,-2,-2,-1,0,-2,4.675
936,0,1,-1,-2,0,-1,1,-1,4.68
937,-1,-1,1,1,0,-1,0,0,4.6850000000000005
938,1,-1,-1,0,0,0,0,0,4.69
939,-1,-2,-1,0,-2,-1,0,-1,4.695
940,0,1,0,-1,0,1,0,-1,4.7
941,-1,-1,1,-1,0,0,0,-1,4.705
942,-1,-1,1,-3,-1,0,-1,0,4.71
943,-1,0,0,0,-1,-1,0,0,4.715
944,-1,-3,-1,0,0,-2,-2,-1,4.72
945,1,-1,-3,-1,0,0,-2,0,4.7250000000000005
946,2,3,0,-3,-1,1,-1,-3,4.73
947,-1,-2,-1,-1,-1,-3,-1,0,4.735
948,0,-1,-1,-1,1,-3,-1,-1,4.74
949,-1,-6,-2,-2,-2,-2,0,1,4.745
950,2,2,-1,0,-4,-2,1,0,4.75
951,-1,-6,-2,-1,3,1,-1,-3,4.755
952,-2,0,-3,-2,-3,-3,0,0,4.76
953,-2,0,0,-1,-1,0,-2,-4,4.765
954,-2,-2,0,-1,-3,-4,0,0,4.7700000000000005
955,2,4,-1,1,12,8,2,3,4.775
956,-2,-3,0,1,4,-1,-2,-2,4.78
957,0,-1,-2,-5,-8,0,0,1,4.785
958,-1,-2,-1,0,0,-1,-1,-1,4.79
959,-1,2,-1,-1,-15,-8,-3,-3,4.795
960,3,1,0,1,4,-2,-1,-1,4.8
961,0,1,0,-1,10,14,4,1,4.805
962,-3,-3,-2,0,-5,-1,-1,-3,4.8100000000000005
963,-1,-1,0,-5,-2,-3,-2,-1,4.815
964,-1,-1,-1,3,-17,-11,-4,-1,4.82
965,-4,-3,-1,-1,-2,-12,-3,-4,4.825
966,1,0,-1,-3,3,5,1,3,4.83
967,0,2,1,6,-24,-11,-3,-2,4.835
968,0,0,-1,-6,24,11,2,0,4.84
969,2,1,-1,1,3,-1,0,1,4.845
970,-5,-4,-1,3,8,-1,0,-1,4.8500000000000005
971,-1,2,-1,-5,0,2,-1,0,4.855
972,0,-2,0,1,-20,-11,-3,-1,4.86
973,1,-1,-3,-4,0,0,-1,-1,4.865
974,-2,-1,-1,-1,4,-2,0,-1,4.87
975,-1,-2,-1,0,-1,1,-1,0,4.875
976,0,1,1,-1,-1,0,1,0,4.88
977,-1,1,0,-1,1,-1,-2,-2,4.885
978,-2,-2,-1,0,-5,-1,-3,-1,4.89
979,-1,-1,-1,3,7,0,0,-1,4.8950000000000005
980,-1,-2,-2,-4,-5,4,0,-2,4.9
981,-1,0,1,2,-3,-1,0,1,4.905
982,0,-1,-2,-1,-2,-5,1,1,4.91
983,-2,0,-2,-1,2,1,-2,-3,4.915
984,-1,-3,-1,3,5,-6,-1,-2,4.92
985,0,0,-1,-6,-15,-1,0,1,4.925
986,1,-1,0,-3,4,3,-1,1,4.93
987,-3,-5,-2,1,11,-3,-1,-2,4.9350000000000005
988,-1,-1,-1,-6,-5,3,0,-2,4.94
989,0,2,1,2,0,-6,-1,-1,4.945
990,-3,-6,-1,-1,-9,-3,-3,-2,4.95
991,1,-1,-2,0,-1,-5,-2,-1,4.955
992,2,2,-1,-2,-3,9,1,0,4.96
993,0,-1,0,-1,1,0,-1,1,4.965
994,1,2,-1,-4,-2,1,1,-1,4.97
995,-3,-5,-1,-1,-11,-2,-1,-2,4.9750000000000005
996,0,1,0,5,1,-4,0,-1,4.98
997,1,-1,-2,1,8,2,1,0,4.985
998,0,0,1,-1,-8,-5,-1,-2,4.99
999,1,-3,-2,-3,-4,0,0,0,4.995
1000,-3,-3,-2,2,11,2,-1,-2,5.0
1001,-4,-5,-1,0,-5,-2,-1,-2,5.005
1002,0,0,-3,3,-1,-4,-3,0,5.01
1003,-2,-1,-1,-1,0,0,-1,-2,5.015
1004,-1,-1,0,-2,-3,1,-1,-2,5.0200000000000005
1005,-3,0,-1,0,-4,-6,-2,-3,5.025
1006,-2,-3,-2,-3,0,1,0,0,5.03
1007,2,1,-2,-1,-2,-1,0,2,5.035
1008,-3,-6,-3,1,6,-1,-1,1,5.04
1009,-1,0,-2,2,-3,-2,-2,-1,5.045
1010,1,0,-2,-5,-2,0,-1,2,5.05
1011,0,2,-1,-3,4,0,-1,0,5.055
1012,0,-1,-1,1,-7,-2,-2,0,5.0600000000000005
1013,-2,-2,0,-4,-2,0,1,-2,5.065
1014,-5,-3,-1,0,1,-1,0,-2,5.07
1015,-1,-3,0,-1,-1,-1,0,-1,5.075
1016,-2,1,-1,-2,-6,-5,-3,-3,5.08
1017,0,-1,-1,1,7,0,0,4,5.085
1018,1,-1,0,-3,-9,-3,-2,-2,5.09
1019,-1,-2,0,-4,0,0,0,-1,5.095
1020,-3,-1,1,-1,-4,-1,-1,2,5.1000000000000005
1021,-1,0,-1,0,-6,-5,-1,-1,5.105
1022,0,-1,-1,1,11,3,-1,1,5.11
1023,0,3,2,0,-2,-3,0,-1,5.115
1024,-2,-7,-1,-1,-1,0,-1,-1,5.12
1025,0,2,-1,-2,-1,0,-1,-3,5.125
1026,0,1,0,2,1,-4,0,0,5.13
1027,0,1,0,-3,-3,1,0,0,5.135
1028,-2,0,0,-2,1,1,-1,0,5.14
1029,-1,-4,-2,-1,1,2,0,-2,5.1450000000000005
1030,0,1,1,3,-1,-1,1,-1,5.15
1031,-2,-3,-2,-5,-7,-1,-1,-2,5.155
1032,2,1,-3,-5,5,2,-1,1,5.16
1033,1,-1,0,2,-4,-5,0,1,5.165
1034,-2,-2,0,-1,-6,0,-3,-5,5.17
1035,-3,-1,0,3,2,-2,0,-1,5.175
1036,0,0,0,-2,2,0,-2,0,5.18
1037,0,-1,0,-4,-1,0,0,0,5.1850000000000005
1038,-1,-1,-2,1,0,-4,0,0,5.19
1039,0,-2,0,0,-2,1,0,-1,5.195
1040,-1,0,1,1,-12,-3,0,0,5.2
1041,0,0,-2,1,12,0,-2,0,5.205
1042,-1,-2,-1,-6,-3,4,0,0,5.21
1043,-1,-1,-2,-1,3,2,-2,-1,5.215
1044,-3,0,-2,-1,-4,-4,2,0,5.22
1045,-2,-2,0,4,1,1,-1,-2,5.2250000000000005
1046,0,0,0,1,11,10,2,0,5.23
1047,0,-2,-1,-2,0,2,1,0,5.235
1048,-1,-3,-1,0,-3,-2,-1,0,5.24
1049,-3,-1,-1,-1,-6,-4,-2,-3,5.245
1050,-1,-1,-2,-2,-4,-4,-3,0,5.25
1051,-1,1,-1,1,7,1,1,0,5.255
1052,-2,1,-1,1,4,2,1,-1,5.26
1053,1,0,1,0,-5,-1,-1,2,5.265
1054,0,-2,-1,-1,8,4,-2,0,5.2700000000000005
1055,0,-2,0,-1,-4,-2,-1,-1,5.275
1056,-1,0,0,0,-2,-6,-2,-3,5.28
1057,-1,-2,-1,-3,2,4,-1,-2,5.285
1058,0,2,0,0,-7,-4,-1,-1,5.29
1059,-1,-2,-1,3,-4,-1,0,-1,5.295
1060,1,0,-3,-4,9,3,1,-1,5.3
1061,1,-1,0,0,-8,-3,-2,-1,5.305
1062,0,1,-1,8,10,1,0,-1,5.3100000000000005
1063,1,-1,0,-7,5,9,5,2,5.315
1064,-1,-1,0,2,1,-1,0,-1,5.32
1065,0,-1,-2,-4,-6,2,0,0,5.325
1066,-1,0,-2,-3,-6,-5,-1,0,5.33
1067,-1,-1,-2,2,5,-1,-3,-3,5.335
1068,2,-1,-2,-1,-4,1,-1,-1,5.34
1069,-2,1,1,-2,2,0,-1,0,5.345
1070,-2,-3,-1,-1,-7,-6,0,-2,5.3500000000000005
1071,0,-2,0,0,2,0,0,-1,5.355
1072,0,-1,-1,-1,-1,2,-1,-1,5.36
1073,1,0,-2,1,1,-1,-2,-2,5.365
1074,-2,0,0,-3,-4,-1,-1,-2,5.37
1075,-1,-2,0,-2,-6,-3,-3,0,5.375
1076,-1,-2,-1,1,0,-3,0,-1,5.38
1077,-1,0,-1,4,1,-6,-1,-1,5.385
1078,-1,-2,-3,-11,-2,8,0,-1,5.39
1079,-2,1,-2,1,2,0,0,0,5.3950000000000005
1080,-1,-1,0,0,-12,-6,-3,-2,5.4
1081,0,-1,-2,-3,1,1,1,0,5.405
1082,-5,-2,-1,1,-7,-11,-5,-4,5.41
1083,-2,0,-1,1,14,2,0,1,5.415
1084,-2,-1,-2,-1,-6,2,0,0,5.42
1085,-2,-3,-2,-3,-4,-3,-2,-3,5.425
1086,1,0,0,3,0,-1,-2,-1,5.43
1087,-2,-1,-2,-2,-6,-1,-1,-2,5.4350000000000005
1088,-1,1,0,-2,0,-1,-2,-2,5.44
1089,0,1,-2,-2,1,1,-1,0,5.445
1090,1,0,-1,0,3,1,-1,1,5.45
1091,-2,-1,-1,0,-7,-6,-3,-2,5.455
1092,-1,-1,-1,-1,3,0,-2,-2,5.46
1093,-3,-2,-1,0,-1,-2,1,-1,5.465
1094,-1,0,-2,-2,0,5,1,-1,5.47
1095,0,-1,-1,-1,-8,-3,0,1,5.4750000000000005
1096,0,-2,0,0,6,-2,-2,-2,5.48
1097,0,0,1,-1,-5,1,1,0,5.485
1098,0,-3,10,0,-1,-2,1,1,5.49
1099,-1,-1,8,3,8,0,-2,-1,5.495
1100,-2,-1,3,-5,-9,-2,1,-2,5.5
1101,-2,-1,0,-3,7,3,-2,-2,5.505
1102,0,-1,-6,0,0,-1,0,-2,5.51
1103,1,0,-6,-2,-3,-1,0,1,5.515
1104,-2,-1,-6,-2,-9,-5,-2,2,5.5200000000000005
1105,-1,-2,-5,-2,3,-1,-2,-2,5.525
1106,-2,0,-5,2,1,-1,-1,1,5.53
1107,0,0,-5,-3,-7,-2,0,-2,5.535
1108,0,-2,-3,2,-1,-2,-2,0,5.54
1109,-1,-1,-1,0,-6,-1,0,0,5.545
1110,0,-2,-2,-1,5,0,0,-1,5.55
1111,-2,-1,-1,0,-4,-4,0,-2,5.555
1112,-2,-1,0,-3,2,-2,-2,-3,5.5600000000000005
1113,-2,-2,1,-1,-1,0,-2,-1,5.565
1114,0,1,-1,1,1,1,-1,0,5.57
1115,1,0,-1,2,2,-3,-2,-1,5.575
1116,1,-1,-2,0,-3,3,3,1,5.58
1117,-2,-1,-2,-8,-7,-3,-3,-2,5.585
1118,-2,-1,-1,0,2,-1,-2,-1,5.59
1119,-1,-1,0,1,11,9,1,-1,5.595
1120,-1,-1,-1,-4,0,-1,-2,-2,5.6000000000000005
1121,0,-2,1,6,2,-3,1,0,5.605
1122,0,1,-2,-5,-7,-1,1,-1,5.61
1123,0,-1,-2,-3,-3,-3,-1,0,5.615
1124,0,-1,1,3,4,2,-2,0,5.62
1125,-3,0,-2,-2,-5,0,-2,-2,5.625
1126,1,3,-1,-1,-2,-2,-2,-1,5.63
1127,0,-3,-1,-2,-3,-2,-3,-1,5.635
1128,-2,0,-1,-1,4,-1,-1,0,5.64
1129,0,0,-2,-3,-3,-1,-2,2,5.6450000000000005
1130,-1,0,0,-2,-9,-5,-1,0,5.65
1131,-2,-2,-1,0,7,0,-2,-1,5.655
1132,2,-1,-1,-6,1,6,0,0,5.66
1133,1,0,0,2,-3,2,2,0,5.665
1134,-2,-3,0,-1,3,-3,-3,-1,5.67
1135,-1,-1,-1,1,-2,3,1,0,5.675
1136,0,-3,-2,6,6,-5,-2,-2,5.68
1137,2,0,0,-6,-2,6,2,2,5.6850000000000005
1138,0,-1,0,-1,-2,-2,-1,1,5.69
1139,-2,-2,-1,-3,-4,-4,0,-3,5.695
1140,-2,-1,0,-1,6,4,0,0,5.7
1141,-1,-1,1,1,-3,-3,-1,-1,5.705
1142,-1,-2,-1,-2,-1,-2,-1,-2,5.71
1143,-2,-1,-1,1,-5,-5,-2,0,5.715
1144,1,1,-2,-2,2,6,2,2,5.72
1145,-1,-2,-1,0,4,-1,-2,-1,5.7250000000000005
1146,-2,-1,0,1,-7,0,-1,-1,5.73
1147,-2,1,-2,-1,1,3,-1,0,5.735
1148,1,1,0,1,-4,-5,-1,0,5.74
1149,-3,-1,-1,0,6,0,0,-2,5.745
1150,1,-1,-1,0,-2,1,1,-1,5.75
1151,-2,-1,0,-2,-10,-4,-2,-1,5.755
1152,1,0,0,-3,1,-3,-1,-2,5.76
1153,0,0,-1,1,-2,-1,-1,-1,5.765
1154,-2,-3,-2,-2,-9,-1,0,1,5.7700000000000005
1155,-1,-1,-1,-2,13,5,-1,-1,5.775
1156,0,-2,1,1,-8,-3,0,1,5.78
1157,0,0,-1,1,-1,-1,-1,-2,5.785
1158,-2,-3,-1,0,-5,-4,-2,-2,5.79
1159,-2,0,-3,-6,-11,-6,-1,1,5.795
1160,-1,-1,-1,-1,2,2,0,-1,5.8
1161,1,-2,-1,-1,-2,-3,-1,-1,5.805
1162,-1,0,-3,0,8,1,-2,-2,5.8100000000000005
1163,-1,0,-1,-3,-8,-5,-1,-2,5.815
1164,-2,0,-2,0,-2,-2,-2,-2,5.82
1165,-1,-1,-1,-2,-2,-4,-1,-2,5.825
1166,1,0,-1,-1,5,3,2,1,5.83
1167,-1,-1,0,3,-4,-3,-1,1,5.835
1168,-1,-3,-3,-5,1,1,-1,-2,5.84
1169,0,-1,0,3,2,-2,-1,0,5.845
1170,0,0,1,-5,-10,2,0,0,5.8500000000000005
1171,0,-1,1,-1,9,2,0,0,5.855
1172,-1,0,0,-1,-6,-4,0,0,5.86
1173,-1,-1,-1,0,-3,-4,-3,-1,5.865
1174,-1,-3,-3,-7,-5,0,1,0,5.87
1175,-1,2,-2,2,-3,0,-3,-3,5.875
1176,0,-2,-2,0,3,0,-1,-2,5.88
1177,-1,-1,-3,-4,1,1,-1,0,5.885
1178,-2,-1,2,2,2,-2,0,-1,5.89
1179,2,-3,0,1,-3,1,0,0,5.8950000000000005
1180,-1,2,-1,0,-4,-3,-1,0,5.9
1181,-1,-1,-2,-1,1,0,-1,-2,5.905
1182,-3,0,-2,2,14,7,1,0,5.91
1183,-2,0,-2,-3,-7,-5,0,-1,5.915
1184,0,-1,0,5,12,5,0,1,5.92
1185,-1,-2,0,-6,-10,4,2,0,5.925
1186,-1,-2,-1,6,2,-5,-3,-2,5.93
1187,1,-1,0,-7,7,10,0,0,5.9350000000000005
1188,0,0,0,1,-7,-4,0,-2,5.94
1189,0,2,-1,0,4,2,1,1,5.945
1190,-1,-1,-1,1,2,-3,0,-2,5.95
1191,-1,-2,-3,1,-5,-5,-1,-2,5.955
1192,-2,-3,-1,-2,-2,2,0,-1,5.96
1193,0,2,0,-1,-8,-4,-1,0,5.965
1194,-1,-2,0,2,8,6,0,-1,5.97
1195,0,0,0,-1,-8,-6,0,-3,5.9750000000000005
1196,-1,0,-1,-3,6,2,0,1,5.98
1197,-4,-2,-2,0,-2,-6,-2,0,5.985
1198,1,0,-1,-1,-6,-3,0,0,5.99
1199,0,-1,-1,7,8,0,-1,0,5.995
1200,-1,2,-2,-13,-5,3,-1,0,6.0
1201,0,-2,0,-3,-7,-2,-3,0,6.005
1202,-2,-1,-3,-4,-1,-5,-2,-1,6.01
1203,-2,-1,0,0,3,1,-1,-2,6.015000000000001
1204,-1,-1,-1,0,-4,-1,-1,-2,6.0200000000000005
1205,-3,-1,0,0,0,-3,-1,-1,6.025
1206,4,2,-2,-2,-1,2,-1,0,6.03
1207,3,2,0,-2,2,-1,1,3,6.035
1208,-4,-4,-1,2,-2,-2,-2,-2,6.04
1209,-1,-2,-1,-3,-1,0,-2,-2,6.045
1210,2,4,1,1,-5,-3,2,0,6.05
1211,-5,-5,-2,-2,1,1,0,0,6.055
1212,-2,-1,0,-1,-3,-4,-3,-2,6.0600000000000005
1213,1,-3,-1,-1,0,-2,-1,-2,6.065
1214,-2,-4,-1,1,3,-3,0,-1,6.07
1215,1,2,-2,-3,-3,6,2,1,6.075
1216,-1,-1,-2,-4,-10,-2,-1,2,6.08
1217,0,1,-1,1,1,2,1,2,6.085
1218,-1,-2,-2,0,-10,-2,-2,1,6.09
1219,-5,-4,-3,-5,2,-2,-4,-5,6.095
1220,-1,-1,0,3,1,-2,-1,-2,6.1000000000000005
1221,-2,2,0,-1,-4,-5,-2,-4,6.105
1222,3,0,1,1,8,11,4,4,6.11
1223,-1,-2,0,3,-7,-7,0,0,6.115
1224,1,0,-1,-4,8,3,-2,-1,6.12
1225,-1,-2,-2,3,-4,-7,-4,-4,6.125
1226,-2,-1,0,-4,6,7,-2,-5,6.13
1227,0,-3,-1,-1,-2,2,0,0,6.135
1228,4,4,0,-3,-4,-1,1,2,6.140000000000001
1229,-2,-2,-1,0,3,1,1,1,6.1450000000000005
1230,-3,-4,-1,2,-18,-8,-3,-3,6.15
1231,-3,4,0,0,9,5,-1,-1,6.155
1232,-1,-6,-2,3,6,-3,0,-1,6.16
1233,-2,-1,-2,-1,-11,0,-1,0,6.165
1234,-5,-2,-4,-8,7,-1,-1,-2,6.17
1235,-2,-6,-1,1,-10,-5,-1,0,6.175
1236,1,5,1,2,2,-1,-1,-1,6.18
1237,6,5,0,1,1,4,1,-1,6.1850000000000005
1238,0,-3,-1,-2,-7,-5,-3,-1,6.19
1239,-5,-6,-3,-5,-9,-4,-3,-3,6.195
1240,-2,-3,0,0,5,2,1,-1,6.2
1241,-1,0,2,-4,-12,-2,1,0,6.205
1242,0,3,-1,-3,-25,-16,-6,-6,6.21
1243,2,-2,-1,2,42,12,2,0,6.215
1244,3,4,0,-2,-34,-6,-2,0,6.22
1245,1,7,-1,-2,30,1,-1,0,6.2250000000000005
1246,-4,-8,-1,1,1,3,0,1,6.23
1247,-3,-6,-1,0,-5,-4,-1,-2,6.235
1248,-1,1,-2,-3,1,4,2,2,6.24
1249,-3,-2,0,2,-12,-2,0,1,6.245
1250,2,2,-2,1,21,6,0,-1,6.25
1251,0,-2,-1,3,-10,-7,-3,-2,6.255
1252,-1,-1,-1,-9,0,-2,3,2,6.26
1253,-2,-4,-1,3,7,10,0,-2,6.265000000000001
1254,-4,-3,0,0,5,-3,-2,-2,6.2700000000000005
1255,6,8,1,-1,4,9,4,0,6.275
1256,-4,-4,-1,5,-5,-5,-3,-4,6.28
1257,-2,-5,-1,0,0,-3,-1,0,6.285
1258,2,1,-1,-6,1,3,3,4,6.29
1259,0,3,1,0,-30,-16,-6,-2,6.295
1260,-4,-1,-3,-2,14,5,-1,-3,6.3
1261,-5,-4,-2,-2,6,4,2,0,6.305
1262,3,2,-2,2,-18,-5,-2,-2,6.3100000000000005
1263,-1,2,-3,-2,7,-2,0,-1,6.315
1264,4,3,1,1,-2,-3,0,2,6.32
1265,-2,-2,-1,-4,-2,0,-4,-2,6.325
1266,-6,-6,0,3,-7,-8,0,4,6.33
1267,1,3,-2,-5,-9,5,2,1,6.335
1268,-2,-3,-1,2,8,-5,-2,0,6.34
1269,0,2,-1,-2,-8,-6,-1,-3,6.345
1270,0,1,-1,-5,16,8,-2,-5,6.3500000000000005
1271,-4,-7,-4,-3,-1,0,-1,-1,6.355
1272,0,0,0,8,-10,-3,-1,-2,6.36
1273,-1,0,-1,-7,13,9,4,3,6.365
1274,-2,-1,1,-1,-6,-3,0,1,6.37
1275,1,2,0,-3,-1,-3,-3,-4,6.375
1276,-1,-5,-2,-2,-5,-3,-3,-2,6.38
1277,-3,-5,-2,1,-13,-8,-3,-1,6.385
1278,-2,0,-1,0,-6,-1,-1,-2,6.390000000000001
1279,-1,-1,2,2,10,4,1,1,6.3950000000000005
1280,0,1,-1,-3,-10,-2,-1,0,6.4
1281,-2,-6,-2,-7,-10,-5,-2,-2,6.405
1282,2,1,-1,0,12,6,3,1,6.41
1283,-1,3,1,0,-10,-6,-1,3,6.415
1284,0,0,-1,0,9,1,-1,1,6.42
1285,-4,-3,-2,1,-7,0,-1,-4,6.425
1286,-2,-2,-3,-4,-1,-4,-3,-3,6.43
1287,-2,-3,-2,-4,4,1,2,0,6.4350000000000005
1288,-3,-2,0,2,-6,-5,0,-2,6.44
1289,7,4,0,-1,3,2,1,1,6.445
1290,1,-1,0,3,-11,-3,0,1,6.45
1291,-2,-1,-1,4,19,7,0,1,6.455
1292,-3,-3,-1,-1,-11,-9,-4,-4,6.46
1293,0,1,0,-3,34,15,2,-3,6.465
1294,1,-1,1,-1,-3,-2,-1,-2,6.47
1295,-2,-3,-1,-1,-38,-8,-2,0,6.4750000000000005
1296,2,-3,-1,5,29,12,3,3,6.48
1297,0,3,-1,-8,6,-4,-3,-2,6.485
1298,-3,-2,-1,2,5,4,0,0,6.49
1299,-2,0,0,-5,-1,0,-3,-4,6.495
1300,1,1,-2,0,-3,1,-1,0,6.5
1301,0,-2,0,5,-13,-6,-3,0,6.505
1302,0,1,-1,-3,9,3,0,0,6.51
1303,1,1,-1,1,-9,-6,-1,-1,6.515000000000001
1304,-2,-1,-2,-5,-8,-1,0,-2,6.5200000000000005
1305,2,2,-1,2,8,-2,-3,-1,6.525
1306,0,1,-1,1,-4,0,1,-2,6.53
1307,0,-2,0,1,6,0,-1,-3,6.535
1308,0,-1,-1,-3,-8,-5,-2,0,6.54
1309,-1,-1,-1,2,-1,1,2,1,6.545
1310,-3,-1,-1,1,-4,-6,-1,-3,6.55
1311,0,-1,-1,-4,7,3,1,-2,6.555
1312,0,-3,-2,0,-6,-2,-2,0,6.5600000000000005
1313,-1,-3,-2,1,-1,-8,-1,-3,6.565
1314,0,-2,0,-4,-6,0,1,2,6.57
1315,3,4,0,1,2,-3,2,-1,6.575
1316,-3,1,1,-3,7,3,1,-2,6.58
1317,-3,-3,0,0,-15,-3,0,0,6.585
1318,-4,-5,1,1,8,2,1,-2,6.59
1319,-2,-3,-2,-1,-6,-3,-1,-1,6.595
1320,-1,2,0,-7,-9,-4,0,0,6.6000000000000005
1321,0,-4,-1,3,7,-1,1,0,6.605
1322,0,2,-1,-6,1,0,-1,1,6.61
1323,0,1,-2,0,3,7,0,2,6.615
1324,-2,0,-2,0,-5,-5,-2,-1,6.62
1325,-1,-1,0,-1,3,2,1,-1,6.625
1326,-1,0,-1,-1,-5,-2,-2,-1,6.63
1327,-1,-3,-1,2,-8,-10,-4,-4,6.635
1328,-1,-1,-2,-2,13,5,0,-2,6.640000000000001
1329,-1,0,0,0,-17,-6,-1,-3,6.6450000000000005
1330,3,1,-2,-4,10,8,0,0,6.65
1331,2,3,0,-2,-1,-1,0,-1,6.655
1332,-7,-8,-1,-1,-2,-1,-1,-4,6.66
1333,0,3,-1,-2,-7,-6,-3,1,6.665
1334,-4,-9,-3,1,-1,-2,-2,-2,6.67
1335,1,0,0,0,6,3,0,1,6.675
1336,1,-1,1,-5,-5,0,-1,-1,6.68
1337,0,5,-2,3,4,-5,-4,-7,6.6850000000000005
1338,8,4,2,-5,3,5,2,3,6.69
1339,-5,-6,-3,-7,-1,-1,-1,-1,6.695
1340,-9,-14,-5,4,-2,-3,-2,-3,6.7
1341,1,4,0,-7,6,6,0,4,6.705
1342,-2,3,-2,4,-27,-14,-4,2,6.71
1343,-1,-3,-1,-9,26,8,0,-1,6.715
1344,0,2,1,-3,-2,1,-2,-5,6.72
1345,0,1,2,3,-9,-3,-3,-6,6.7250000000000005
1346,2,-2,1,2,14,5,3,0,6.73
1347,-3,-3,-3,2,-18,-8,-1,1,6.735
1348,1,0,0,6,2,-4,1,5,6.74
1349,-2,-5,-4,-8,-36,-3,-4,0,6.745
1350,-1,0,-3,-2,34,5,-2,0,6.75
1351,2,3,1,1,-7,-7,-2,-4,6.755
1352,-3,0,-2,2,5,1,-1,1,6.76
1353,-1,-1,0,-3,3,1,-1,-7,6.765000000000001
1354,-4,-6,0,6,-14,0,-3,-5,6.7700000000000005
1355,3,6,-3,-2,24,4,1,4,6.775
1356,0,-5,-3,-5,-3,-1,0,-2,6.78
1357,-2,-3,-2,2,5,3,4,5,6.785
1358,1,1,0,0,-16,-8,-2,-4,6.79
1359,5,6,6,9,-7,-6,0,2,6.795
1360,-4,-7,-5,-9,-9,-3,-1,4,6.8
1361,-10,-6,-1,1,20,5,-6,-16,6.805
1362,3,1,-2,-3,-56,-10,-5,-5,6.8100000000000005
1363,2,3,2,3,55,21,5,7,6.815
1364,2,0,2,-3,0,-1,0,-1,6.82
1365,5,2,6,10,-30,-15,1,10,6.825
1366,-4,-1,-10,-7,53,13,1,-4,6.83
1367,-6,-7,1,2,-31,-13,-5,-10,6.835
1368,3,5,1,-1,3,6,2,6,6.84
1369,0,-2,-5,-5,-19,-10,-4,2,6.845
1370,-5,6,-1,1,19,1,-1,-7,6.8500000000000005
1371,-3,-3,0,0,10,5,-2,-3,6.855
1372,7,3,-9,3,10,-3,-1,2,6.86
1373,8,17,19,-7,-9,-2,2,-1,6.865
1374,7,-3,-2,-11,-14,-6,-2,10,6.87
1375,-1,-8,-5,-3,-10,-4,-2,-1,6.875
1376,-5,7,5,20,-12,-8,-3,-12,6.88
1377,3,2,-2,-16,-26,-1,5,10,6.885
1378,-7,0,-4,4,46,25,8,2,6.890000000000001
1379,-2,-2,5,-10,0,3,0,10,6.8950000000000005
1380,-1,-3,-1,-1,-18,-6,-3,0,6.9
1381,-11,6,-17,-11,-53,-32,-17,-34,6.905
1382,-5,-5,5,-4,-22,-7,-2,1,6.91
1383,8,2,3,4,-1,4,2,10,6.915
1384,11,5,6,3,71,22,8,24,6.92
1385,8,-5,-19,-4,35,24,11,12,6.925
1386,-8,-2,-5,3,-54,-18,-3,-15,6.93
1387,0,8,8,3,6,2,-5,-23,6.9350000000000005
1388,-7,-7,-3,-5,-11,-9,-4,5,6.94
1389,-17,-14,-7,3,13,-1,-2,-21,6.945
1390,2,-8,0,-3,-28,-10,2,38,6.95
1391,-21,-15,1,5,-22,-21,-11,-48,6.955
1392,3,-3,-8,-4,6,9,-1,-3,6.96
1393,-10,-22,8,3,-2,-2,3,-8,6.965
1394,17,11,-9,-4,-30,-28,-4,26,6.97
1395,3,7,-5,7,68,20,0,-10,6.9750000000000005
1396,-15,-7,-2,-20,-22,0,-3,-47,6.98
1397,-10,-22,11,0,-28,-5,3,8,6.985
1398,-7,-14,-2,5,65,-1,-5,-14,6.99
1399,13,8,-1,3,-52,6,11,26,6.995
1400,3,-1,-7,12,-21,-15,-6,6,7.0
1401,10,3,12,13,-90,-20,-3,20,7.005
1402,6,-3,-19,-39,85,44,10,9,7.01
1403,-8,-4,-10,-23,-43,-28,-11,2,7.015000000000001
1404,-10,-6,13,-1,83,61,9,-19,7.0200000000000005
1405,-9,4,-7,4,-30,-3,-9,-24,7.025
1406,12,22,3,15,23,5,4,18,7.03
1407,4,7,-13,-11,-81,-40,-9,7,7.035
1408,-3,0,15,-15,-34,-22,-4,3,7.04
1409,11,-2,-8,-5,90,24,5,22,7.045
1410,-6,2,17,13,-45,-8,-7,-28,7.05
1411,-9,-17,2,14,17,4,7,20,7.055
1412,12,8,-7,6,-85,-40,-16,5,7.0600000000000005
1413,16,18,-16,-31,-8,21,7,4,7.065
1414,-18,-28,18,17,22,-3,6,3,7.07
1415,19,13,-8,-11,26,-2,-2,26,7.075
1416,-29,5,7,23,38,6,-14,-62,7.08
1417,-36,-37,-18,-28,-26,-32,-22,-58,7.085
1418,5,-2,-5,3,-46,1,5,10,7.09
1419,-12,-5,30,-6,-33,11,14,7,7.095
1420,22,-1,-31,-2,52,20,10,41,7.1000000000000005
1421,29,22,-2,-1,47,-13,2,47,7.105
1422,-11,-4,-3,8,-128,-40,-5,-16,7.11
1423,-3,5,-1,-2,120,33,2,-29,7.115
1424,-5,-3,11,30,-98,-18,4,2,7.12
1425,-3,-5,4,1,93,45,13,9,7.125
1426,4,-2,1,-1,-40,-5,-3,17,7.13
1427,5,0,-17,-24,31,-17,-13,23,7.135
1428,-21,7,7,-5,-65,-17,-14,-87,7.140000000000001
1429,-14,-7,-24,18,-21,-21,-3,2,7.1450000000000005
1430,14,4,11,-4,85,49,15,13,7.15
1431,1,3,6,11,-79,-14,-2,-2,7.155
1432,-4,-11,-13,-35,-15,-16,-4,10,7.16
1433,19,-3,20,20,22,-2,5,45,7.165
1434,25,4,11,9,19,22,14,43,7.17
1435,-27,-8,-22,7,-64,-13,-8,-57,7.175
1436,-35,-9,-20,-28,23,-3,-24,-49,7.18
1437,-14,4,4,10,-24,5,-10,-21,7.1850000000000005
1438,4,7,8,-8,60,0,-5,-3,7.19
1439,29,10,4,14,125,47,16,38,7.195
1440,17,3,10,6,-100,-55,-8,31,7.2
1441,-9,-2,-7,12,93,52,10,-31,7.205
1442,-12,8,20,-5,-98,-57,-23,-28,7.21
1443,13,13,-2,-13,2,36,8,10,7.215
1444,21,3,-6,-1,1,23,24,51,7.22
1445,6,11,21,1,-85,-9,0,3,7.2250000000000005
1446,-33,-20,-29,-11,74,2,-12,-43,7.23
1447,6,-6,27,29,31,-8,8,43,7.235
1448,4,0,-41,-24,28,12,-17,-28,7.24
1449,28,53,13,-5,-76,-42,-7,13,7.245
1450,-24,-21,-28,-9,55,4,3,-37,7.25
1451,14,-7,-5,6,27,35,17,29,7.255
1452,-32,-23,-26,0,-23,-47,-16,-20,7.26
1453,-4,8,6,-9,95,72,4,-18,7.265000000000001
1454,3,19,-7,15,-110,-55,-20,-22,7.2700000000000005
1455,-1,-18,31,8,0,-3,9,28,7.275
1456,20,7,38,11,38,68,32,37,7.28
1457,-7,-7,-85,-33,-107,-64,-12,-11,7.285
1458,-4,-7,-8,13,-9,14,-2,-22,7.29
1459,-7,-12,-15,-11,0,-15,-13,-13,7.295
1460,11,-20,4,6,28,27,23,54,7.3
1461,-1,29,54,-21,-81,-77,-15,-18,7.305
1462,35,8,-17,46,127,81,17,56,7.3100000000000005
1463,-12,17,-14,-50,-128,-78,-31,-46,7.315
1464,6,15,43,39,107,64,27,9,7.32
1465,1,-10,-1,31,10,12,5,4,7.325
1466,-17,-7,17,-12,-68,-6,-10,-44,7.33
1467,-25,-26,0,-1,-95,-67,-17,-22,7.335
1468,-11,-4,-16,-29,-128,-52,-11,-21,7.34
1469,13,-11,-1,66,127,121,40,44,7.345
1470,21,18,10,-30,-106,-50,4,32,7.3500000000000005
1471,15,17,-21,22,51,59,25,39,7.355
1472,8,4,3,-2,-5,-37,-15,-9,7.36
1473,-14,-7,27,-22,42,-14,-18,-32,7.365
1474,-21,0,-4,-5,-30,12,-6,-39,7.37
1475,-1,4,-6,-37,-93,-39,-4,-1,7.375
1476,8,8,4,39,127,38,12,24,7.38
1477,21,13,32,-28,-120,-50,-9,29,7.385
1478,-3,2,4,7,81,13,0,-1,7.390000000000001
1479,11,-2,-4,-4,85,56,5,6,7.3950000000000005
1480,-27,-8,5,-5,-37,-16,-1,-43,7.4
1481,-21,-27,-15,10,-61,-14,-13,-1,7.405
1482,3,-1,4,-30,-5,-9,-23,-34,7.41
1483,-7,14,-9,5,-68,-36,-6,-15,7.415
1484,13,-10,-15,6,20,47,14,57,7.42
1485,-4,2,16,-15,-66,-2,15,-12,7.425
1486,-14,-3,2,20,79,-9,-13,-17,7.43
1487,-4,-5,-5,-11,-87,-43,-15,-19,7.4350000000000005
1488,14,13,0,12,92,27,2,13,7.44
1489,-4,-10,2,7,32,38,14,1,7.445
1490,2,-11,-32,24,-128,-61,-2,23,7.45
1491,-9,-4,16,5,127,51,1,-31,7.455
1492,6,-5,-18,-4,-101,-17,3,25,7.46
1493,-9,-10,6,3,-3,-10,-4,5,7.465
1494,-12,3,15,-10,-57,-8,-9,-42,7.47
1495,13,1,-12,9,-37,-11,2,22,7.4750000000000005
1496,12,5,14,-15,2,-19,5,30,7.48
1497,-6,3,6,12,47,-2,-17,-42,7.485
1498,-13,-17,-21,-26,5,1,5,7,7.49
1499,-24,-8,8,5,-5,3,-2,-32,7.495
1500,14,18,13,-5,6,-2,-1,-4,7.5
1501,3,0,-3,-3,-25,-10,0,6,7.505
1502,3,-3,3,7,38,27,14,31,7.51
1503,-2,-11,-23,-1,-73,-24,-7,-10,7.515000000000001
1504,-9,-7,16,4,50,18,-2,-5,7.5200000000000005
1505,4,0,-11,-14,-50,-7,0,9,7.525
1506,-1,-9,-5,-27,65,23,7,7,7.53
1507,6,10,19,16,-9,0,2,11,7.535
1508,-1,13,-18,-12,-39,-30,-14,-17,7.54
1509,-7,-17,5,18,32,14,3,4,7.545
1510,12,18,24,-3,-13,11,4,9,7.55
1511,-10,-13,3,-2,3,-6,-7,-18,7.555
1512,-12,2,4,-10,-28,-17,-14,-31,7.5600000000000005
1513,2,-3,-25,-2,25,-4,0,9,7.565
1514,7,6,3,3,-36,-3,9,21,7.57
1515,11,-1,-14,4,26,16,12,25,7.575
1516,-1,-10,-19,-13,-17,-13,-13,-11,7.58
1517,-6,2,-8,0,33,7,-1,-13,7.585
1518,-12,-7,-3,1,-15,-8,-9,-14,7.59
1519,-4,-4,6,2,18,12,3,-9,7.595
1520,2,-2,-1,-4,1,2,6,12,7.6000000000000005
1521,4,0,-3,-6,-3,-10,-1,6,7.605
1522,3,4,0,0,-4,1,2,2,7.61
1523,-3,4,5,14,-1,4,0,-5,7.615
1524,6,7,8,-13,-7,2,2,5,7.62
1525,-1,-7,-1,-1,-6,-6,-5,-3,7.625
1526,0,0,1,9,-9,-1,2,3,7.63
1527,-3,-2,7,-5,9,10,1,2,7.635
1528,-3,-5,-2,7,17,3,-4,-10,7.640000000000001
1529,-3,-1,1,-4,-6,0,0,2,7.6450000000000005
1530,3,0,4,-5,-5,-10,-1,6,7.65
1531,-4,-4,0,-5,-39,-8,-2,-5,7.655
1532,-6,-5,10,0,-9,-5,-1,-5,7.66
1533,1,4,3,-1,19,2,-1,1,7.665
1534,5,-3,-22,-8,-21,-3,1,8,7.67
1535,-3,1,1,0,5,2,-5,-8,7.675
1536,-3,-4,-5,1,-1,-2,0,-4,7.68
1537,5,1,39,3,2,-2,0,3,7.6850000000000005
1538,0,-2,27,-2,2,2,-1,-1,7.69
1539,-2,-1,31,0,13,6,0,-2,7.695
1540,1,0,23,-3,-13,-4,-1,2,7.7
1541,1,-2,20,0,3,-2,-2,1,7.705
1542,-2,3,9,1,-2,2,2,0,7.71
1543,-1,-8,-27,-3,14,4,-2,-2,7.715
1544,-1,-1,-38,-2,-15,-6,-2,0,7.72
1545,0,-2,-43,-4,0,-1,-1,2,7.7250000000000005
1546,-2,0,-16,8,-5,-5,-1,1,7.73
1547,-2,1,-25,-9,16,12,1,-2,7.735
1548,-1,1,-12,-1,-8,-5,0,-2,7.74
1549,-2,-2,-27,-2,4,0,1,-2,7.745
1550,0,0,-8,-2,-2,2,1,0,7.75
1551,-1,-1,-5,3,-3,-5,-1,-3,7.755
1552,-1,0,-7,-3,-22,-11,-3,-3,7.76
1553,0,0,-13,-3,28,8,3,2,7.765000000000001
1554,0,-1,4,2,-5,0,-1,1,7.7700000000000005
1555,-3,-2,-20,-3,-3,-5,-2,-2,7.775
1556,0,-2,5,1,8,2,0,2,7.78
1557,-1,-2,-8,-6,-15,-2,-3,2,7.785
1558,-2,-5,-17,-3,3,0,-1,-1,7.79
1559,-1,-1,2,2,6,2,-1,-3,7.795
1560,1,-2,5,0,-7,-3,-2,0,7.8
1561,-3,-2,-6,0,-1,-1,-1,-3,7.805000000000001
1562,0,0,-1,-1,4,2,0,-2,7.8100000000000005
1563,1,2,6,3,0,0,-3,-2,7.815
1564,0,0,-4,2,-8,-6,0,-2,7.82
1565,2,0,5,5,13,1,0,-2,7.825
1566,-1,-1,3,-2,-1,2,0,-2,7.83
1567,-2,0,4,3,-7,-3,-2,1,7.835
1568,-2,1,6,-1,2,-1,0,-2,7.84
1569,0,-2,-4,-4,-10,1,1,1,7.845
1570,2,0,1,1,9,1,0,-1,7.8500000000000005
1571,1,-2,0,0,-4,-5,-2,-1,7.855
1572,-1,-2,-4,-9,0,2,0,-1,7.86
1573,-1,0,1,-3,-9,-6,-2,-1,7.865
1574,0,-1,-1,-3,-3,-1,0,0,7.87
1575,0,-1,1,3,-1,-3,-1,-2,7.875
1576,-2,-1,1,-2,5,5,1,0,7.88
1577,2,-1,-1,-1,-9,-3,-1,0,7.885
1578,-2,0,3,3,15,6,-1,0,7.890000000000001
1579,0,1,7,0,-4,-3,0,-1,7.8950000000000005
1580,-2,1,10,4,-3,-2,-2,-2,7.9
1581,-2,-6,-22,-7,6,3,0,1,7.905
1582,0,1,2,-2,-8,-5,-2,-3,7.91
1583,-1,-1,1,-2,2,4,0,0,7.915
1584,-1,0,3,4,-2,-2,-2,-2,7.92
1585,1,4,6,-4,-8,-3,-2,-1,7.925
1586,-2,-2,1,-2,12,8,2,0,7.930000000000001
1587,-1,-2,-6,-4,-1,-1,0,-2,7.9350000000000005
1588,0,0,4,1,-2,0,-1,0,7.94
1589,-1,2,5,5,1,-1,-1,-1,7.945
1590,0,-1,-1,-3,-9,-2,-2,-2,7.95
1591,-3,-1,7,0,-12,-3,-2,-1,7.955
1592,1,-1,0,1,17,7,2,0,7.96
1593,-2,-1,3,1,-4,-4,0,-2,7.965
1594,-3,-2,0,-2,2,2,0,-1,7.97
1595,0,-1,0,2,1,0,-2,0,7.9750000000000005
1596,1,0,-2,-3,-5,-3,-1,0,7.98
1597,-3,-2,-1,-1,-1,-2,-2,-1,7.985
1598,-1,0,0,4,-2,-4,-2,-2,7.99
1599,-1,-1,2,-4,-3,-2,-2,-2,7.995
1600,-2,-4,-7,-6,-6,5,0,0,8.0
1601,0,1,8,2,4,-1,1,0,8.005
1602,1,1,-1,-2,-5,-3,0,1,8.01
1603,-1,0,-2,0,2,-1,0,-3,8.015
1604,-2,-2,-1,-4,-4,-4,-1,-2,8.02
1605,-3,0,2,3,3,-4,-2,-2,8.025
1606,1,1,0,-4,-1,4,1,-2,8.03
1607,0,-1,-4,-2,3,3,1,0,8.035
1608,0,2,6,3,-10,-2,-1,-2,8.040000000000001
1609,-1,-3,-9,1,1,-1,0,-1,8.045
1610,-1,-1,-1,-5,2,0,0,0,8.05
1611,2,1,1,-1,10,2,-1,-1,8.055
1612,0,1,-2,1,3,0,-1,-1,8.06
1613,0,-2,0,-1,-3,1,0,0,8.065
1614,-1,-3,-3,3,-8,-5,-3,-2,8.07
1615,-1,-2,-1,-1,0,1,0,-1,8.075
1616,-3,-1,-2,-1,-5,-3,-3,0,8.08
1617,0,1,-1,5,-2,-5,-1,-1,8.085
1618,-2,-1,-2,-11,-4,1,0,0,8.09
1619,-4,2,0,0,0,0,1,0,8.095
1620,-1,-6,-7,-2,0,-4,-1,-1,8.1
1621,-2,0,4,-3,-4,1,1,-1,8.105
1622,-2,0,0,1,-4,-4,-2,-2,8.11
1623,1,1,1,4,4,0,-3,-1,8.115
1624,0,1,0,-2,-2,0,0,0,8.120000000000001
1625,0,0,-3,-4,13,7,1,-1,8.125
1626,1,2,1,4,-14,-2,-3,-2,8.13
1627,1,-2,-1,-4,5,-6,-3,0,8.135
1628,2,2,1,2,0,0,1,0,8.14
1629,1,-4,-1,0,0,1,-2,-1,8.145
1630,0,1,1,0,0,-2,0,0,8.15
1631,0,-1,-2,0,-5,-2,-1,-2,8.155
1632,-1,0,2,2,-6,-9,-2,-3,8.16
1633,0,2,1,-2,18,13,2,-2,8.165000000000001
1634,0,-3,-1,-3,-2,1,2,2,8.17
1635,0,-1,-1,1,-2,-2,-1,0,8.175
1636,1,-1,-1,-5,0,2,1,-1,8.18
1637,0,0,0,1,-12,-9,-1,-1,8.185
1638,-2,0,0,2,4,-5,-1,0,8.19
1639,-1,-2,0,2,-1,4,2,1,8.195
1640,-1,-2,-3,-4,-10,1,-1,0,8.2
1641,-2,-4,-3,-4,13,1,-2,0,8.205
1642,-1,1,0,-1,-6,-6,-1,-1,8.21
1643,-1,-2,-2,-1,1,3,0,-1,8.215
1644,-2,-2,-1,-5,13,6,1,-1,8.22
1645,-1,2,2,1,-9,-3,-2,-1,8.225
1646,0,-4,-7,-1,1,-2,-1,-1,8.23
1647,0,-2,-2,-6,-6,-2,0,-1,8.235
1648,-2,-3,-3,2,-3,-4,0,-2,8.24
1649,1,1,2,0,-1,-2,0,0,8.245000000000001
1650,1,0,2,0,1,0,0,-1,8.25
1651,-2,0,0,2,-3,-4,-1,-1,8.255
1652,0,0,-1,-1,0,-2,-1,-1,8.26
1653,-2,0,1,-4,-12,-3,-1,-1,8.265
1654,-1,0,-1,-2,1,5,1,0,8.27
1655,0,-2,-2,-2,-1,-1,-2,-2,8.275
1656,-2,1,1,1,1,-1,-1,0,8.28
1657,-2,-2,-3,1,0,0,-2,0,8.285
1658,-1,-2,0,0,1,0,0,-1,8.290000000000001
1659,-2,0,0,-2,-1,-1,0,1,8.295
1660,-2,-1,-1,0,3,1,0,-1,8.3
1661,0,-1,-1,0,-3,-2,-3,-2,8.305
1662,0,-1,0,4,5,-5,-3,-4,8.31
1663,-1,1,0,-9,4,5,0,-2,8.315
1664,1,0,-1,6,-10,-7,-4,-3,8.32
1665,1,-4,-4,-10,12,2,1,-2,8.325
1666,-1,2,1,0,-2,-1,-1,0,8.33
1667,-1,-1,-1,1,-3,-2,-2,0,8.335
1668,-1,-2,0,-3,-4,0,0,-1,8.34
1669,-2,-2,-6,5,1,-3,-1,-1,8.345
1670,0,-1,-1,-2,-1,-1,0,0,8.35
1671,-3,-2,-1,1,-2,-3,-3,-1,8.355
1672,-1,-1,-2,-2,1,4,1,1,8.36
1673,0,-1,1,3,-8,-6,-1,0,8.365
1674,-1,-1,0,-1,-1,-1,-1,-1,8.370000000000001
1675,-1,0,-1,5,-2,-3,-2,-1,8.375
1676,0,0,-1,1,-3,-3,-3,0,8.38
1677,-1,-3,-1,-4,5,0,-1,-1,8.385
1678,1,1,-1,-2,-1,1,-1,0,8.39
1679,-2,0,1,0,-5,-3,0,-2,8.395
1680,-2,0,0,1,1,-1,-2,-2,8.4
1681,-1,0,0,3,-7,-4,-3,-1,8.405
1682,-1,-1,-4,-6,8,4,1,0,8.41
1683,-1,-2,-1,-4,-2,1,-1,1,8.415000000000001
1684,1,0,1,-1,2,-2,-1,-1,8.42
1685,-1,1,0,-2,-6,-1,0,-1,8.425
1686,-2,-1,0,2,4,1,1,0,8.43
1687,-1,-1,-2,-2,-4,-1,-1,-2,8.435
1688,-1,0,-2,0,0,2,1,-1,8.44
1689,0,0,-1,1,-7,-3,0,-1,8.445
1690,-3,0,0,-2,2,2,0,-1,8.45
1691,2,-1,-2,-2,-4,-2,0,0,8.455
1692,-1,-1,-1,1,3,-1,1,-1,8.46
1693,1,2,1,1,6,4,2,2,8.465
1694,0,0,0,-1,-6,-2,-2,-2,8.47
1695,-1,0,-1,1,2,-1,0,1,8.475
1696,-2,-2,-5,-1,0,-1,-3,-1,8.48
1697,-2,0,0,1,-4,0,0,-1,8.485
1698,2,0,-1,-3,1,0,-1,-2,8.49
1699,0,0,0,-1,-6,-2,0,0,8.495000000000001
1700,0,-1,0,2,-2,-5,-1,-2,8.5
1701,0,-2,-2,-5,9,2,-2,-1,8.505
1702,-1,-1,0,-1,-6,2,2,1,8.51
1703,-1,-2,-4,3,3,-4,0,-3,8.515
1704,0,3,2,-7,7,8,2,1,8.52
1705,-2,-1,0,1,-6,-4,-2,-1,8.525
1706,0,-2,2,5,1,-5,-1,0,8.53
1707,1,-1,-1,-7,-11,1,1,0,8.535
1708,0,-1,-1,0,9,1,-2,0,8.540000000000001
1709,1,-1,2,1,-14,1,-1,-1,8.545
1710,0,-1,-2,-3,9,2,-1,-3,8.55
1711,-1,-2,-1,-3,1,0,0,-2,8.555
1712,0,-1,-1,-2,-7,-5,-3,-1,8.56
1713,-1,-1,-1,-2,-6,-1,-1,-2,8.565
1714,-1,-1,1,0,-4,-1,-1,1,8.57
1715,-1,-4,-5,-1,6,-1,-1,1,8.575000000000001
1716,0,-1,0,1,-2,-1,0,-1,8.58
1717,-3,-2,-2,-7,2,3,1,0,8.585
1718,0,1,1,0,-13,-6,0,-1,8.59
1719,-1,0,0,-2,7,0,0,-2,8.595
1720,-1,-1,-1,1,0,-2,-1,0,8.6
1721,0,-3,-4,-3,-1,-1,-1,-1,8.605
1722,1,1,1,2,-3,-2,-1,-1,8.61
1723,-1,0,2,-3,0,2,-1,1,8.615
1724,-1,-1,-2,-1,-13,-2,-1,0,8.620000000000001
1725,0,1,-1,1,15,3,1,0,8.625
1726,-1,-1,-3,0,4,0,-3,-3,8.63
1727,0,-2,1,-1,-1,-3,0,-2,8.635
1728,-1,-1,2,-2,-3,-2,-2,1,8.64
1729,-2,-1,0,1,-3,-3,-2,-2,8.645
1730,-2,-3,-2,-2,-1,0,1,0,8.65
1731,0,1,0,2,-3,-1,-1,-1,8.655
1732,-3,-2,-3,0,0,-8,-1,-3,8.66
1733,-1,0,1,-4,9,10,2,0,8.665000000000001
1734,-3,-4,-3,-1,-3,1,-1,0,8.67
1735,-2,-1,-1,0,0,2,-1,1,8.675
1736,-1,-1,0,-1,-2,-1,0,-1,8.68
1737,0,-1,0,0,-4,-7,-3,1,8.685
1738,0,-1,0,-2,-1,-1,2,0,8.69
1739,-2,-2,-1,1,-2,-3,-1,-1,8.695
1740,0,-1,-2,-2,1,1,0,0,8.700000000000001
1741,1,0,0,2,-1,1,-1,-2,8.705
1742,0,-1,-2,-1,-2,1,1,-1,8.71
1743,0,-1,-1,-2,-4,-5,-2,0,8.715
1744,0,-2,1,-1,-4,3,0,-2,8.72
1745,-2,-1,-1,-1,11,-1,0,-1,8.725
1746,-3,0,-2,-3,-7,-2,-1,-1,8.73
1747,-2,-1,-1,0,1,-1,-1,-1,8.735
1748,-1,1,-2,-2,-2,0,-2,-1,8.74
1749,-1,-1,-3,-6,-17,-9,-3,-2,8.745000000000001
1750,1,-1,0,2,3,0,-2,-1,8.75
1751,0,0,-2,0,0,0,-1,-1,8.755
1752,1,0,-1,0,4,1,0,-1,8.76
1753,-1,-2,-1,5,-12,-8,-3,-2,8.765
1754,-2,-1,-1,-6,8,3,-1,-1,8.77
1755,-2,0,0,1,8,5,0,-1,8.775
1756,0,-1,-1,-2,-17,-6,-1,-1,8.78
1757,0,1,0,1,9,4,1,1,8.785
1758,-1,-3,-6,-1,-5,-2,-3,-1,8.790000000000001
1759,0,-2,1,1,-2,-1,-2,-2,8.795
1760,-2,-2,-1,-1,7,3,-2,-2,8.8
1761,-1,0,-2,1,-8,-1,-1,-1,8.805
1762,-1,0,0,1,7,-3,-2,0,8.81
1763,1,-1,4,-8,-5,0,-1,0,8.815
1764,0,0,-2,0,-1,-2,-1,0,8.82
1765,-1,-2,-1,1,-1,-1,-1,-2,8.825000000000001
1766,0,-1,2,-3,-7,-1,-1,-1,8.83
1767,-2,-1,-2,0,5,3,-1,-2,8.835
1768,-2,0,1,-4,1,1,-2,0,8.84
1769,-1,-1,-2,0,3,1,1,0,8.845
1770,1,0,0,2,-5,-2,-1,0,8.85
1771,-2,0,-1,5,-7,-5,0,-1,8.855
1772,-1,-1,-2,-10,9,6,1,-2,8.86
1773,-2,0,-1,0,-3,-1,-1,-2,8.865
1774,1,1,0,2,7,0,1,0,8.870000000000001
1775,1,0,-1,1,-5,-3,-1,1,8.875
1776,-1,-3,-1,4,1,-1,-2,-1,8.88
1777,-2,-1,0,-1,-2,-2,-1,-1,8.885
1778,-1,-2,-1,1,0,0,0,-1,8.89
1779,-2,-1,-3,-7,-4,0,-1,-1,8.895
1780,-1,-2,-2,3,-9,-1,-1,-2,8.9
1781,0,-1,-1,-3,13,2,0,0,8.905
1782,1,1,-2,-2,-11,-3,-3,0,8.91
1783,-2,-2,-2,0,-2,-4,-4,-2,8.915000000000001
1784,0,-1,0,1,-2,0,0,-1,8.92
1785,0,0,0,-1,-4,1,-1,-2,8.925
1786,-3,-2,-1,1,-4,-3,0,-1,8.93
1787,1,1,-2,0,0,-2,-3,-1,8.935
1788,-2,-1,-1,0,4,-3,0,0,8.94
1789,-1,-2,-2,-4,-7,0,-1,0,8.945
1790,-1,0,1,-3,0,-2,-1,-1,8.950000000000001
1791,-1,-1,1,-2,0,2,0,-1,8.955
1792,0,-1,0,-1,-8,-2,0,0,8.96
1793,-1,-1,0,-4,-3,-2,-1,-1,8.965
1794,0,-2,-1,-1,4,0,-1,0,8.97
1795,-2,-1,-2,1,5,4,0,1,8.975
1796,0,0,-2,-2,1,-3,2,0,8.98
1797,0,-1,1,3,-5,-4,0,1,8.985
1798,1,-4,0,-8,-6,3,0,0,8.99
1799,-1,-2,-5,1,-1,0,1,-1,8.995000000000001
1800,1,-3,-2,2,-7,-5,-4,-3,9.0
1801,1,0,3,-3,-3,0,1,1,9.005
1802,0,0,-1,1,0,-1,0,0,9.01
1803,-1,-2,1,2,-3,-4,0,0,9.015
1804,0,1,4,0,12,8,0,0,9.02
1805,0,-6,-13,-2,-7,-3,0,-1,9.025
1806,2,3,6,2,3,0,-1,-1,9.03
1807,0,1,2,1,-4,-2,-2,0,9.035
1808,-1,-1,-8,-2,2,-1,1,0,9.040000000000001
1809,0,0,2,2,0,1,2,0,9.045
1810,-2,-1,0,3,1,-3,-2,-1,9.05
1811,0,-4,-6,-8,-4,4,0,-2,9.055
1812,1,4,5,-1,8,-1,-2,0,9.06
1813,-1,-4,-9,-5,-9,1,-1,-1,9.065
1814,-3,-2,-3,5,0,1,0,-1,9.07
1815,0,1,4,3,8,-2,1,0,9.075000000000001
1816,-2,-3,7,-3,7,8,1,0,9.08
1817,1,-2,-14,0,4,0,-1,0,9.085
1818,-2,-3,3,1,-4,-4,0,-1,9.09
1819,-1,0,7,2,1,1,-1,0,9.095
1820,-1,-3,-16,-2,-9,-6,0,-1,9.1
1821,-1,2,11,2,7,2,-1,-4,9.105
1822,-2,-2,-5,-2,-1,-2,-4,-4,9.11
1823,2,-1,-7,-5,-8,-2,0,-2,9.115
1824,1,-1,-6,5,-1,-6,0,3,9.120000000000001
1825,-3,0,6,-4,13,15,3,3,9.125
1826,-6,-5,-9,-5,-12,-9,-6,-10,9.13
1827,1,3,3,-1,2,1,0,-2,9.135
1828,-1,-2,-4,-3,-6,-2,-2,-2,9.14
1829,1,1,-1,1,-9,-5,-2,-1,9.145
1830,0,-2,-1,1,-7,-9,-2,4,9.15
1831,-1,4,26,7,23,12,2,0,9.155
1832,1,-5,-17,-3,-3,2,-2,-2,9.16
1833,-2,-5,-6,3,1,-4,-1,1,9.165000000000001
1834,1,0,-5,1,-1,2,1,2,9.17
1835,-1,-1,-7,-5,-30,-13,-2,0,9.175
1836,3,7,11,8,20,0,1,1,9.18
1837,-5,-7,-9,-11,-8,0,-3,-3,9.185
1838,0,-1,8,-1,-2,0,0,-2,9.19
1839,-1,-5,-17,-6,-14,-17,-3,2,9.195
1840,-1,5,12,6,14,19,7,6,9.200000000000001
1841,1,10,5,2,-16,-9,-4,-6,9.205
1842,2,-4,-7,-3,26,8,1,-4,9.21
1843,-5,1,2,-2,-20,-5,-4,-4,9.215
1844,-7,-21,-9,0,-32,-19,-3,-1,9.22
1845,6,0,-12,-3,32,15,9,14,9.225
1846,-3,-1,-5,-4,-12,-5,-3,-7,9.23
1847,1,9,10,3,7,2,-7,-15,9.235
1848,0,4,2,-2,-10,-8,-4,-2,9.24
1849,5,1,4,5,-3,-6,-1,5,9.245000000000001
1850,-1,3,-5,-2,-5,0,3,3,9.25
1851,-10,-20,-21,1,-11,-6,-4,-10,9.255
1852,1,3,6,-6,21,9,-3,-4,9.26
1853,0,9,10,2,-16,-10,-4,-1,9.265
1854,1,1,3,-3,5,-3,1,3,9.27
1855,2,1,-1,0,9,7,7,9,9.275
1856,1,0,2,0,0,8,1,5,9.28
1857,1,0,6,0,-12,-3,1,-5,9.285
1858,-1,0,-3,-1,1,0,-2,3,9.290000000000001
1859,0,-1,-3,1,-6,-1,-1,-5,9.295
1860,1,8,4,-1,-5,-16,-3,2,9.3
1861,-6,-12,-14,-2,-5,9,3,5,9.305
1862,-1,4,20,2,23,10,-3,-16,9.31
1863,-4,-10,-19,1,24,11,-2,-3,9.315
1864,0,-4,-4,-4,-9,1,0,-2,9.32
1865,2,6,6,3,-19,-12,-2,-1,9.325000000000001
1866,0,-5,5,1,-9,-11,-3,9,9.33
1867,6,4,-13,0,26,28,11,9,9.335
1868,-4,-1,-5,-9,-15,-7,-3,-6,9.34
1869,-2,-2,1,-1,13,3,-3,-2,9.345
1870,3,-4,-8,-3,-41,-14,1,6,9.35
1871,3,6,25,7,44,-1,1,4,9.355
1872,0,-2,-10,-3,-12,3,-1,-5,9.36
1873,-6,-6,7,-2,14,-2,-4,-10,9.365
1874,-1,5,1,0,2,6,-2,-4,9.370000000000001
1875,-4,-8,-5,-6,-26,-15,-4,0,9.375
1876,7,5,5,8,-9,-4,2,11,9.38
1877,-4,2,1,-10,32,13,1,-6,9.385
1878,-4,-10,-9,-3,-4,5,1,-9,9.39
1879,2,5,9,1,-12,-5,2,5,9.395
1880,-2,-4,1,0,13,-1,-4,-6,9.4
1881,3,-4,-3,1,-17,-8,-1,7,9.405
1882,2,2,-1,2,-63,-22,0,8,9.41
1883,-3,3,8,-6,81,29,3,-7,9.415000000000001
1884,-6,-15,-6,3,-2,-2,-4,-11,9.42
1885,-2,-4,-10,-2,11,4,-2,-5,9.425
1886,0,2,4,1,-6,-1,-3,-2,9.43
1887,-1,-9,-21,0,-106,-34,-7,3,9.435
1888,0,10,15,0,62,14,0,2,9.44
1889,7,1,-4,-13,14,10,2,6,9.445
1890,-3,1,-4,2,22,6,0,1,9.450000000000001
1891,-1,1,-4,-3,-10,-2,-3,-2,9.455
1892,-5,-3,3,1,-10,-3,-3,-6,9.46
1893,-2,-1,3,6,-29,-14,-3,-3,9.465
1894,4,3,-2,-2,6,7,2,5,9.47
1895,-4,3,3,2,30,-1,-2,-3,9.475
1896,0,-8,-11,-5,-27,-8,0,4,9.48
1897,-4,1,7,5,8,1,2,-3,9.485
1898,-1,-3,-4,0,4,4,-5,-4,9.49
1899,1,-1,-2,1,-5,-2,0,-1,9.495000000000001
1900,0,2,-2,-1,-2,-1,-1,0,9.5
1901,0,2,3,1,-3,1,1,3,9.505
1902,-3,-4,-3,2,4,-6,1,-1,9.51
1903,1,-2,-4,-5,3,9,2,1,9.515
1904,3,6,-1,-4,4,6,2,4,9.52
1905,-3,-1,9,3,-6,-6,-2,-2,9.525
1906,-2,-2,1,0,-9,-7,-3,-2,9.53
1907,0,-3,2,-7,-29,-14,-4,2,9.535
1908,0,-1,-2,-1,48,16,7,1,9.540000000000001
1909,-1,-1,2,6,-19,-9,-6,-8,9.545
1910,-1,-3,-3,-12,35,12,0,0,9.55
1911,0,-1,-1,0,-12,-7,-1,0,9.555
1912,-4,-3,0,-2,-18,-9,-3,-3,9.56
1913,0,1,3,-1,-2,-3,-2,0,9.565
1914,2,4,3,1,6,1,1,2,9.57
1915,-1,-12,-23,-7,-8,-2,0,-2,9.575000000000001
1916,-3,3,24,8,-20,-5,0,0,9.58
1917,-7,-6,-7,-2,16,-1,-3,-6,9.585
1918,0,2,4,-2,-3,1,-1,-1,9.59
1919,-1,1,9,3,6,-1,-1,-2,9.595
1920,2,-1,-7,-2,-3,1,2,-1,9.6
1921,2,3,-7,-2,-5,-2,1,3,9.605
1922,-1,0,-1,1,1,1,-1,0,9.61
1923,-5,-9,0,0,8,1,-1,-6,9.615
1924,-1,0,-1,-1,-9,-5,-4,-3,9.620000000000001
1925,-2,2,8,1,-2,-1,-1,0,9.625
1926,-2,-2,1,2,-6,-3,1,0,9.63
1927,1,-3,-28,-15,18,10,0,4,9.635
1928,-2,-2,-5,-9,-6,-3,-1,-4,9.64
1929,2,-2,-5,1,-6,2,-1,-2,9.645
1930,2,-1,-4,-1,11,3,3,1,9.65
1931,-1,5,14,6,-8,-4,-2,1,9.655
1932,-2,-2,-1,1,-5,-5,-3,-2,9.66
1933,-3,-2,-4,-7,1,2,1,0,9.665000000000001
1934,0,0,-4,-5,1,-1,-3,-1,9.67
1935,2,6,13,7,-8,-7,-2,2,9.675
1936,-2,-2,-5,-4,2,2,-2,-2,9.68
1937,-1,-5,-9,2,-1,-6,-2,-1,9.685
1938,-1,1,6,2,-4,-1,0,-1,9.69
1939,-3,-4,-10,-2,0,-2,0,-2,9.695
1940,0,1,-1,3,-9,-5,1,5,9.700000000000001
1941,-1,-1,-2,2,13,5,0,-3,9.705
1942,-4,-1,0,2,2,2,1,-5,9.71
1943,0,1,3,-4,5,2,-1,0,9.715
1944,0,0,-1,0,0,0,0,-2,9.72
1945,1,-1,-2,-1,-9,-2,0,4,9.725
1946,-2,1,1,-2,9,5,1,0,9.73
1947,-1,2,8,5,1,-6,-4,-4,9.735
1948,-2,-2,-5,-5,-4,2,1,-2,9.74
1949,0,0,8,-3,1,3,0,-1,9.745000000000001
1950,-1,0,1,1,-5,-3,0,0,9.75
1951,0,3,8,4,-8,2,0,1,9.755
1952,-1,-2,-4,-1,9,-3,-3,-1,9.76
1953,-1,4,10,-2,-13,-3,-1,-2,9.765
1954,-2,-6,-14,-9,4,1,-2,-1,9.77
1955,-1,-1,-3,-4,-8,-5,0,-1,9.775
1956,1,3,3,5,9,9,2,-1,9.78
1957,-1,-3,-6,0,2,-2,-2,1,9.785
1958,0,0,0,0,-5,-2,0,1,9.790000000000001
1959,0,-2,1,1,-4,-4,-2,0,9.795
1960,-1,-2,-5,-7,-9,-5,-3,-2,9.8
1961,-3,0,0,-1,10,1,-2,-1,9.805
1962,-1,-1,-3,-2,2,-1,0,-1,9.81
1963,1,2,0,-1,-8,0,0,-1,9.815
1964,-1,-1,3,0,2,-1,-2,-1,9.82
1965,-1,-2,-4,0,2,2,0,0,9.825000000000001
1966,1,0,0,0,-3,-2,0,0,9.83
1967,0,-1,5,4,-11,-3,0,0,9.835
1968,-3,-2,-4,-8,8,-1,-2,-2,9.84
1969,0,1,-2,-4,-6,-3,0,0,9.845
1970,-3,-2,-2,0,5,1,-1,-1,9.85
1971,0,-1,3,-2,3,1,-1,-1,9.855
1972,1,1,-1,2,-13,-6,-1,-1,9.86
1973,-1,-1,-3,0,1,0,0,-1,9.865
1974,0,0,1,0,-4,-2,-1,-1,9.870000000000001
1975,-3,-2,-5,-8,1,0,-1,-1,9.875
1976,-3,-1,-1,2,-7,-4,-1,0,9.88
1977,1,1,3,-1,0,-4,-2,-2,9.885
1978,0,-1,-4,0,4,5,1,1,9.89
1979,-1,0,-5,0,8,3,-1,-1,9.895
1980,0,1,10,3,-8,-1,0,0,9.9
1981,-3,-6,-23,-2,2,1,-1,-3,9.905
1982,-1,4,3,0,-7,-1,0,0,9.91
1983,0,1,-1,-3,6,2,0,0,9.915000000000001
1984,0,-1,-1,1,-4,-1,-2,-1,9.92
1985,1,0,6,4,0,-1,2,-1,9.925
1986,1,-3,-4,-7,-4,0,-1,-2,9.93
1987,1,-1,2,0,-8,-4,0,-1,9.935
1988,-2,-2,-1,-5,-1,0,-1,0,9.94
1989,0,1,2,0,12,4,-2,1,9.945
1990,-1,-3,-2,4,0,-1,-1,-1,9.950000000000001
1991,-2,1,4,-2,-6,-4,-3,-2,9.955
1992,-1,-3,-16,-5,8,6,1,0,9.96
1993,0,-1,2,-1,-7,-2,-2,-2,9.965
1994,1,1,2,-2,2,1,-1,-1,9.97
1995,-1,-2,0,0,1,-1,-1,0,9.975
1996,1,-2,-5,1,-1,-5,-1,-1,9.98
1997,-1,0,2,0,-10,-3,-2,0,9.985
1998,-1,-3,-2,-1,4,-3,0,0,9.99
1999,-1,-1,-2,2,1,2,0,-1,9.995000000000001
2000,-2,0,0,-2,-8,-2,0,0,10.0
2001,0,-1,0,0,6,2,1,-2,10.005
2002,-2,0,0,-1,-8,-6,-3,-2,10.01
2003,1,-1,-2,0,6,1,3,-1,10.015
2004,2,0,2,1,0,2,1,0,10.02
2005,-2,-2,1,3,-4,-6,-3,-1,10.025
2006,-1,-1,-1,-4,-14,0,-1,1,10.03
2007,-1,5,15,3,15,3,1,1,10.035
2008,-2,1,2,0,2,2,2,0,10.040000000000001
2009,1,0,0,-2,-2,-4,-2,-1,10.045
2010,-2,0,-4,1,3,1,0,2,10.05
2011,-2,-1,1,-6,-5,-1,-2,-1,10.055
2012,-2,-2,-1,-3,-6,-5,-2,-1,10.06
2013,-2,-1,-2,-2,0,-1,1,-1,10.065
2014,-1,-2,4,3,0,-2,-1,-1,10.07
2015,2,-2,-6,-1,1,-2,-2,0,10.075000000000001
2016,1,2,4,6,4,4,1,-1,10.08
2017,1,-3,-3,-2,3,0,0,-1,10.085
2018,-1,0,-2,-1,1,2,-2,-1,10.09
2019,-2,-3,-4,-1,-3,-4,-3,-3,10.095
2020,0,-2,-4,-1,1,-2,-3,-1,10.1
2021,-1,1,2,-2,-5,1,1,0,10.105
2022,1,1,0,-1,2,-2,-1,-1,10.11
2023,-3,0,-1,-2,-2,1,-1,0,10.115
2024,-1,-1,0,1,-7,-5,-2,-1,10.120000000000001
2025,0,-1,0,-1,-5,-1,0,-2,10.125
2026,-1,-3,-3,0,0,-2,-1,0,10.13
2027,0,-2,-4,-1,5,1,-2,-1,10.135
2028,-1,-2,-8,-4,-2,-1,-2,-2,10.14
2029,0,1,0,1,-1,-3,-2,1,10.145
2030,-1,0,1,0,5,3,0,-1,10.15
2031,-2,-1,-7,-1,-4,1,0,-2,10.155
2032,2,0,2,0,1,1,0,0,10.16
2033,-2,-3,-3,-3,2,3,0,-1,10.165000000000001
2034,0,-1,1,0,-2,-4,0,-2,10.17
2035,1,-1,-1,0,1,1,0,2,10.175
2036,-2,-1,0,5,-6,-6,-4,-3,10.18
2037,0,1,0,-3,4,2,1,1,10.185
2038,0,-4,-5,-10,2,5,-1,-1,10.19
2039,0,0,2,2,2,-1,1,-1,10.195
2040,-1,1,5,-2,-6,-1,-2,0,10.200000000000001
2041,0,-2,9,3,4,0,-2,-1,10.205
2042,-2,-4,-21,-2,0,-4,-2,-2,10.21
2043,-2,-2,-3,-4,-7,0,-1,-1,10.215
2044,0,1,1,0,-3,-1,-1,-1,10.22
2045,-1,1,0,1,3,-1,0,0,10.225
2046,-1,-3,1,1,-5,-2,0,0,10.23
2047,0,-1,-2,2,4,0,0,0,10.235
2048,-2,-2,-3,-2,-3,0,-1,-1,10.24
2049,-2,-1,-5,-2,-3,-1,0,-1,10.245000000000001
2050,0,0,3,4,-5,-4,0,-1,10.25
2051,-3,-2,-2,0,3,1,-1,-1,10.255
2052,-1,0,2,0,3,-2,0,-1,10.26
2053,0,0,-5,-6,-4,-1,-1,-1,10.265
2054,-1,0,2,6,-2,-4,-1,-1,10.27
2055,-3,0,0,-12,-5,3,0,0,10.275
2056,-2,-1,-2,-3,0,-4,-1,-2,10.28
2057,0,1,-1,4,5,8,2,1,10.285
2058,-1,0,2,1,-3,-3,-2,-1,10.290000000000001
2059,2,-1,-1,2,13,4,2,-2,10.295
2060,0,-2,-4,-2,-4,0,-1,0,10.3
2061,-1,-2,-3,-1,-10,-4,-2,-3,10.305
2062,-3,1,2,-1,3,0,-2,-3,10.31
2063,0,-1,-2,1,-7,-5,-2,0,10.315
2064,-2,-2,1,-3,-2,0,-3,-1,10.32
2065,-4,-5,-5,0,-1,-5,-1,0,10.325000000000001
2066,-1,2,3,0,1,3,2,0,10.33
2067,-3,-4,-5,6,-14,-11,-3,-2,10.335
2068,-1,-2,-3,-12,25,17,4,1,10.34
2069,-1,0,0,-2,-4,-3,-2,-2,10.345
2070,0,0,3,-1,-2,-2,-2,-2,10.35
2071,-1,0,-2,0,-1,0,-1,0,10.355
2072,0,1,-1,5,-4,-6,-2,-2,10.36
2073,-1,-1,2,-1,-2,-2,-2,-2,10.365
2074,1,2,0,-2,1,1,1,1,10.370000000000001
2075,0,-3,1,0,-1,-1,0,-2,10.375
2076,0,-1,4,1,2,-3,-1,0,10.38
2077,0,-1,-1,-2,-7,3,2,1,10.385
2078,0,1,0,2,6,3,2,2,10.39
2079,0,-1,-3,-1,-3,-1,0,-1,10.395
2080,0,-2,1,-1,0,0,1,-2,10.4
2081,-2,-3,-1,1,-4,-6,-1,-2,10.405
2082,-1,-2,-2,-9,-8,-3,-2,0,10.41
2083,0,1,4,0,-2,-3,1,-1,10.415000000000001
2084,-3,-1,-6,3,-11,-2,-1,-1,10.42
2085,-2,0,0,-1,19,7,0,-1,10.425
2086,-1,-1,-2,-1,-3,-1,1,-1,10.43
2087,-2,0,0,-3,3,0,-2,-2,10.435
2088,-2,-2,-4,7,-5,-8,-3,-2,10.44
2089,2,0,5,-7,-1,5,1,1,10.445
2090,-1,-1,-5,0,10,3,0,-1,10.450000000000001
2091,-1,0,-1,-1,-4,-1,-1,-1,10.455
2092,0,-1,0,0,7,-3,0,-1,10.46
2093,-2,-1,-6,4,-5,-2,0,0,10.465
2094,-1,-2,-1,-9,6,3,0,-1,10.47
2095,0,0,0,0,2,0,-1,-1,10.475
2096,0,0,-2,-1,-3,-2,1,1,10.48
2097,-2,0,-2,0,-1,-2,-3,-2,10.485
2098,0,-1,1,2,-10,-3,-2,-3,10.49
2099,1,-2,-2,-2,3,-2,-2,1,10.495000000000001
2100,-2,-1,-1,-3,-7,1,-1,-1,10.5
2101,1,0,0,-2,2,-3,-2,-2,10.505
2102,-1,-2,-2,3,-2,-4,-2,-2,10.51
2103,0,1,1,-1,-3,-1,0,-1,10.515
2104,0,1,-3,-3,-1,3,0,-2,10.52
2105,-1,-1,-1,1,-8,-5,0,0,10.525
2106,-1,-2,-2,-2,-4,-5,-2,-2,10.53
2107,-2,-1,-1,-2,1,3,-1,0,10.535
2108,-1,-2,0,1,-16,-8,-4,-1,10.540000000000001
2109,-1,1,-1,-4,11,7,2,1,10.545
2110,0,-1,-1,-1,5,0,1,-1,10.55
2111,0,3,-1,0,-8,-4,0,0,10.555
2112,0,-2,17,4,3,1,2,0,10.56
2113,-2,-4,-25,-5,-11,-7,-4,-3,10.565
2114,-1,-1,2,0,-8,-3,-1,0,10.57
2115,0,-3,0,1,12,5,1,-1,10.575000000000001
2116,-1,0,0,2,4,0,-2,-1,10.58
2117,1,1,5,2,-9,-2,-2,-1,10.585
2118,-2,-2,-1,-2,7,1,0,0,10.59
2119,-1,-1,-5,-1,-5,-4,0,-1,10.595
2120,1,2,-1,0,2,-1,-1,-1,10.6
2121,-1,0,3,0,-5,-1,-1,1,10.605
2122,-1,-2,-3,1,4,3,-1,-1,10.61
2123,-2,-1,2,0,-4,0,0,0,10.615
2124,0,0,-6,-4,2,-3,0,0,10.620000000000001
2125,1,-2,-1,-1,-1,1,1,-2,10.625
2126,-1,1,3,2,-4,-1,-3,-1,10.63
2127,0,-1,1,-1,-11,-5,-1,0,10.635
2128,1,-2,-3,1,22,14,2,1,10.64
2129,0,-1,1,0,-5,-5,-1,0,10.645
2130,-2,-1,-2,-1,0,-2,-1,-2,10.65
2131,-1,-2,-3,-1,-5,-2,-1,-3,10.655
2132,-2,-1,-6,-3,-1,-4,0,-2,10.66
2133,1,0,5,0,-10,-5,-2,-2,10.665000000000001
2134,1,2,0,-3,13,6,-1,0,10.67
2135,-4,-4,2,2,-1,-2,0,0,10.675
2136,-1,-4,-5,-5,-6,1,0,-1,10.68
2137,-3,-1,4,0,4,-1,-1,-1,10.685
2138,0,-2,-5,2,-11,-7,-1,-1,10.69
2139,0,2,3,-4,-7,-4,-3,-1,10.695
2140,-1,-1,-1,1,2,1,0,0,10.700000000000001
2141,-3,-3,-2,-4,3,1,-1,-2,10.705
2142,1,1,2,1,-4,0,0,1,10.71
2143,-1,-2,-2,0,5,1,-1,-1,10.715
2144,0,-1,-2,-3,-4,0,-2,-1,10.72
2145,0,0,1,1,-5,-3,0,-2,10.725
2146,-2,-3,1,1,-2,-1,-2,-1,10.73
2147,1,-1,-4,-3,7,5,2,0,10.735
2148,0,0,1,-4,-10,-3,-1,-1,10.74
2149,-2,0,-2,2,10,-3,-3,-2,10.745000000000001
2150,-2,-1,-2,-7,-6,0,0,0,10.75
2151,-2,0,-3,-3,0,3,0,0,10.755
2152,-1,0,1,0,-2,-2,-1,-1,10.76
2153,0,-2,-1,1,2,-1,0,0,10.765
2154,1,0,1,1,2,0,2,1,10.77
2155,0,-1,-2,-6,-11,-5,-3,-3,10.775
2156,-1,-1,-3,-1,1,2,1,1,10.78
2157,0,1,5,2,-4,-1,-2,-2,10.785
2158,-1,1,-1,-1,-1,1,1,-2,10.790000000000001
2159,0,-3,1,3,1,-4,0,0,10.795
2160,-2,-1,-1,0,-9,-6,-4,-1,10.8
2161,-1,-1,-2,-3,5,8,1,0,10.805
2162,-3,-2,-1,2,-2,-4,-2,0,10.81
2163,-2,0,-1,0,6,2,-1,-1,10.815
2164,0,0,0,2,-2,-1,1,1,10.82
2165,-2,-2,-3,-1,-1,1,-1,0,10.825000000000001
2166,0,-1,-1,-1,0,-1,-1,-2,10.83
2167,-1,-2,-2,1,3,2,-1,-1,10.835
2168,-2,-3,-1,-2,1,0,0,-2,10.84
2169,-2,-1,-2,-1,-1,-3,-1,-1,10.845
2170,-2,-2,0,-1,-5,-2,-2,-2,10.85
2171,-2,0,3,0,-6,-2,-2,-3,10.855
2172,-2,-6,-11,-2,6,-2,-1,0,10.86
2173,-1,-1,4,-6,0,2,0,0,10.865
2174,-1,-3,-2,-4,-1,-1,-1,-2,10.870000000000001
2175,0,0,0,-1,8,0,-2,0,10.875
2176,-2,0,0,-5,-8,-4,0,-4,10.88
2177,0,0,-1,4,-3,-3,-1,-1,10.885
2178,-1,-2,-1,0,-3,-3,-3,-1,10.89
2179,-1,-1,-4,-3,-4,-2,0,0,10.895
2180,1,-2,0,1,-2,-3,-1,-1,10.9
2181,0,1,-3,-2,0,-5,-4,-2,10.905
2182,0,-3,0,0,-6,-3,-2,-1,10.91
2183,-3,-1,-2,0,2,6,0,0,10.915000000000001
2184,-2,0,3,3,0,-5,-2,-1,10.92
2185,-1,-1,-1,4,1,2,1,2,10.925
2186,1,3,5,-3,8,6,2,1,10.93
2187,1,-1,-4,-4,0,0,2,0,10.935
2188,-1,-2,0,-1,3,0,-1,-1,10.94
2189,-3,-1,-3,-2,-3,-1,-2,0,10.945
2190,-3,2,1,2,-2,-5,-1,0,10.950000000000001
2191,1,-1,-2,1,-3,-1,-2,0,10.955
2192,-1,0,1,-2,-9,-2,1,-1,10.96
2193,2,-3,-4,0,3,-1,1,-1,10.965
2194,-1,-1,-2,0,0,1,1,-1,10.97
2195,-1,-1,-3,2,0,-5,-3,-1,10.975
2196,1,0,-1,-5,-1,6,1,0,10.98
2197,-1,-1,0,-2,5,6,2,-1,10.985
2198,0,-2,-6,-3,-3,1,0,-1,10.99
2199,0,-2,0,1,3,0,-1,-2,10.995000000000001
2200,0,0,3,4,-11,-10,-4,-2,11.0
2201,-2,-2,-1,2,-9,-7,-1,-3,11.005
2202,-2,-2,-2,-8,9,7,1,0,11.01
2203,-1,0,1,-2,-2,-2,1,0,11.015
2204,0,0,-2,-1,-13,-1,-1,0,11.02
2205,-2,-3,2,-4,10,0,1,-1,11.025
2206,-3,-2,-7,0,-5,-6,-1,-1,11.03
2207,-1,0,0,0,-3,-2,-2,-1,11.035
2208,-1,-1,-1,-2,0,-3,-3,-3,11.040000000000001
2209,1,1,1,-3,4,9,1,1,11.045
2210,-3,-1,0,1,-8,-3,-2,-1,11.05
2211,-2,-1,2,-1,9,-2,0,-4,11.055
2212,-2,-1,-6,5,3,-2,-1,0,11.06
2213,0,-1,-3,-5,-7,-1,-2,-1,11.065
2214,2,0,6,0,0,-2,0,-1,11.07
2215,1,1,-2,-1,-7,2,1,1,11.075000000000001
2216,-1,-1,0,-3,-3,-5,-1,-2,11.08
2217,-1,-2,0,1,4,1,1,0,11.085
2218,0,0,-2,3,-7,-2,-2,-2,11.09
2219,0,-1,1,-2,8,0,-2,-1,11.095
2220,-1,-2,1,-2,-2,4,1,0,11.1
2221,0,2,0,-2,-7,-3,-1,1,11.105
2222,0,-1,-8,-3,-13,-2,-3,-4,11.11
2223,0,-2,-2,-1,9,-2,-4,-2,11.115
2224,-4,-5,-9,-4,5,2,2,1,11.120000000000001
2225,0,0,-1,-1,-4,-5,-3,-2,11.125
2226,-3,-1,0,2,0,-8,0,1,11.13
2227,-2,0,0,-3,0,5,-2,-4,11.135
2228,0,-1,-7,-4,4,4,0,1,11.14
2229,0,2,1,0,-1,-4,-2,-1,11.145
2230,0,-4,0,-3,-5,-2,-3,-2,11.15
2231,0,0,-2,1,-1,-2,1,0,11.155
2232,0,6,20,10,3,-4,-2,1,11.16
2233,-2,-6,-23,-11,10,6,0,-1,11.165000000000001
2234,-1,2,0,-6,2,3,0,1,11.17
2235,0,-3,-2,-1,-1,2,0,1,11.175
2236,-1,-3,-2,0,-4,-1,1,-3,11.18
2237,-2,-1,-1,1,4,-3,-3,-3,11.185
2238,1,0,5,3,-8,1,0,3,11.19
2239,0,-1,0,-5,6,-8,-1,0,11.195
2240,4,2,-6,-1,5,12,2,2,11.200000000000001
2241,-3,-4,1,0,-6,0,1,-1,11.205
2242,-5,1,1,-1,7,1,-3,-9,11.21
2243,-1,-3,-4,1,-13,-5,-1,-1,11.215
2244,0,-4,-7,-3,-3,-4,-2,-1,11.22
2245,3,2,4,6,-2,-5,0,5,11.225
2246,-2,-6,0,-3,14,9,3,5,11.23
2247,-2,0,-1,1,-8,-4,-2,-5,11.235
2248,2,2,4,-1,4,0,0,0,11.24
2249,-2,1,1,-1,3,2,0,-2,11.245000000000001
2250,1,1,6,5,-10,-7,0,1,11.25
2251,-3,-1,-2,1,-10,-5,0,1,11.255
2252,-5,-5,-1,-4,20,16,3,-2,11.26
2253,3,0,0,-1,-10,-4,-1,-1,11.265
2254,3,3,2,2,1,-4,-1,-1,11.27
2255,0,-2,5,-1,-4,2,0,3,11.275
2256,-1,0,-5,-2,-12,-6,-2,-2,11.28
2257,-1,-3,4,2,1,-1,1,1,11.285
2258,-2,-3,-1,4,3,-1,1,-3,11.290000000000001
2259,-1,-1,-2,-7,-13,-4,-2,-1,11.295
2260,-5,-3,-1,-1,21,7,-2,-5,11.3
2261,-2,-2,-7,-5,-9,-6,-3,-6,11.305
2262,7,8,15,3,11,9,5,4,11.31
2263,-4,-12,-31,-6,-18,-3,1,6,11.315
2264,-5,-1,11,3,-2,-12,-6,-3,11.32
2265,0,1,-7,-5,-4,9,1,-2,11.325000000000001
2266,-2,0,1,0,2,4,0,-6,11.33
2267,0,11,6,2,6,0,-2,-5,11.335
2268,0,-11,0,-2,-11,-2,-2,1,11.34
2269,-1,-6,-27,-6,-20,-12,-2,2,11.345
2270,-1,-2,2,3,7,2,0,2,11.35
2271,-2,-3,-11,-4,12,-4,1,4,11.355
2272,-1,0,7,5,7,11,4,-1,11.36
2273,6,1,13,7,2,-6,3,10,11.365
2274,0,-4,-4,-9,-55,-8,-2,3,11.370000000000001
2275,-12,3,7,2,28,9,-7,-30,11.375
2276,-1,11,10,1,8,4,-1,-7,11.38
2277,-6,-6,-2,-2,-30,-12,-7,-11,11.385
2278,8,-1,-6,4,26,16,9,21,11.39
2279,12,1,8,3,17,-10,1,20,11.395
2280,-10,-3,-21,-15,-11,-3,-3,-23,11.4
2281,-9,1,11,-2,-5,0,-3,-7,11.405
2282,9,0,-11,-5,-12,-9,-1,15,11.41
2283,5,-5,-5,-4,8,0,-1,12,11.415000000000001
2284,-15,1,-3,-4,-15,-10,-9,-38,11.42
2285,-3,7,-12,-7,-70,-30,-11,-15,11.425
2286,2,-2,24,8,87,29,9,13,11.43
2287,10,-5,-6,1,-27,-1,4,20,11.435
2288,-5,-5,-10,-9,-12,-5,3,6,11.44
2289,-11,-23,8,13,5,8,-2,-21,11.445
2290,-7,13,14,6,20,-6,-5,-19,11.450000000000001
2291,2,4,19,10,-13,12,5,17,11.455
2292,6,-5,-7,4,28,7,5,10,11.46
2293,3,2,-5,-23,-51,-19,-5,19,11.465
2294,0,5,-8,4,-33,-7,0,-10,11.47
2295,-6,2,5,-1,46,16,-1,-20,11.475
2296,-6,-12,-7,20,-12,-6,-9,-17,11.48
2297,21,5,13,7,20,14,-1,37,11.485
2298,3,-12,-26,-14,-25,-28,-2,6,11.49
2299,-20,3,-13,-3,34,43,14,-17,11.495000000000001
2300,-16,2,6,1,-6,-12,-18,-41,11.5
2301,16,11,-6,31,34,-3,4,14,11.505
2302,-4,-2,-9,-16,-16,11,4,6,11.51
2303,19,10,16,12,-50,-30,6,19,11.515
2304,7,5,-10,-2,-51,-14,5,41,11.52
2305,-17,-4,-2,-4,97,67,-6,-55,11.525
2306,-8,-6,5,-4,-7,-16,-14,-16,11.53
2307,-12,-14,38,5,-9,-4,0,-17,11.535
2308,28,5,-35,12,3,13,22,67,11.540000000000001
2309,-2,-2,12,-7,21,-12,3,-7,11.545
2310,-12,-15,-50,-11,-108,-46,-13,-13,11.55
2311,6,-8,3,-38,59,0,-5,18,11.555
2312,-17,-1,24,4,35,21,-2,-41,11.56
2313,-29,-4,-14,5,-92,-42,-10,-38,11.565
2314,38,2,12,27,115,80,30,66,11.57
2315,-22,-4,-11,4,-115,-69,-33,-62,11.575000000000001
2316,4,-3,-18,-12,51,35,3,6,11.58
2317,10,14,8,-8,-31,-2,23,50,11.585
2318,-6,-9,2,32,38,-35,-27,-32,11.59
2319,20,10,-42,-14,-25,30,19,24,11.595
2320,-7,2,13,-12,39,-13,-19,-18,11.6
2321,-23,-11,-6,15,-9,8,0,-34,11.605
2322,-4,-7,-42,-48,-49,-8,1,28,11.61
2323,23,6,-13,18,52,3,6,29,11.615
2324,-12,-10,-37,-29,-79,-44,-7,-16,11.620000000000001
2325,20,21,22,24,-48,-28,-5,16,11.625
2326,-14,-3,5,-16,73,54,5,-21,11.63
2327,-12,7,15,7,-112,-50,-21,-40,11.635
2328,34,10,18,-17,100,81,21,28,11.64
2329,-29,-16,38,-7,-21,-14,-7,-19,11.645
2330,8,16,28,-6,-107,-22,2,-3,11.65
2331,-4,-1,-2,2,48,-4,-8,-5,11.655
2332,18,2,22,39,-119,-44,12,59,11.66
2333,0,2,38,-22,91,43,7,8,11.665000000000001
2334,-29,-12,-43,3,12,8,-14,-63,11.67
2335,-6,-4,1,4,-61,-31,-4,-2,11.675
2336,16,-12,-5,-29,75,16,-3,29,11.68
2337,13,-1,-18,2,5,-17,-6,9,11.685
2338,-18,-7,37,5,-11,-23,0,-12,11.69
2339,2,15,-34,-4,-77,-5,1,-10,11.695
2340,19,34,26,22,31,-5,2,21,11.700000000000001
2341,0,-3,-25,-28,78,35,10,-8,11.705
2342,-6,-15,1,2,21,9,-7,-13,11.71
2343,-30,-20,2,18,-79,-40,-18,-60,11.715
2344,-13,8,31,1,29,35,6,-12,11.72
2345,10,9,5,-2,-91,-50,-10,20,11.725
2346,51,-5,-7,-25,97,-8,10,106,11.73
2347,1,6,0,-1,24,51,15,-11,11.735
2348,-34,-10,1,0,-128,-67,-21,-66,11.74
2349,1,3,-11,11,-84,-15,-10,12,11.745000000000001
2350,-8,-5,6,5,41,16,7,-17,11.75
2351,11,-4,-2,-5,107,25,5,34,11.755
2352,5,-4,0,-5,5,5,4,11,11.76
2353,11,7,-16,6,-30,-13,-1,7,11.765
2354,-25,-2,25,3,-44,1,-3,-39,11.77
2355,3,-1,-4,-16,-12,-15,-6,15,11.775
2356,4,10,30,-2,-62,-5,3,5,11.78
2357,-13,-31,-63,-1,127,31,5,3,11.785
2358,9,18,-7,-13,-101,-28,-6,-7,11.790000000000001
2359,-6,-3,14,1,-15,3,6,10,11.795
2360,-6,-12,-23,-5,18,-6,-8,-2,11.8
2361,4,-2,15,-13,-79,-15,-6,-6,11.805
2362,-20,-4,-9,13,86,17,-5,-47,11.81
2363,-9,-12,-5,-2,27,31,3,-4,11.815
2364,12,-7,-5,0,-38,-22,0,41,11.82
2365,-2,-2,5,0,4,5,9,-16,11.825000000000001
2366,-10,7,5,17,-29,-5,-7,-18,11.83
2367,3,2,18,3,3,-1,-1,12,11.835
2368,14,-1,-15,-6,14,0,8,28,11.84
2369,-2,3,3,-3,16,18,6,6,11.845
2370,-12,-1,8,7,-30,-17,-15,-33,11.85
2371,4,1,3,-4,13,2,-4,3,11.855
2372,-12,-7,-5,0,20,0,-3,-19,11.86
2373,19,7,39,-1,-25,-8,7,31,11.865
2374,3,-2,-16,-15,-48,-11,2,26,11.870000000000001
2375,-6,-3,-3,2,51,-4,-4,-11,11.875
2376,-4,0,0,-9,-41,1,-2,-14,11.88
2377,-5,-4,-7,2,36,8,-4,-10,11.885
2378,8,5,6,12,-42,-13,1,12,11.89
2379,3,3,11,8,25,18,3,12,11.895
2380,-5,-6,-21,6,21,21,5,-12,11.9
2381,2,-2,-29,-7,47,2,-5,1,11.905
2382,2,5,6,-1,-29,-5,5,8,11.91
2383,-4,-9,-7,-6,-15,-6,-4,-3,11.915000000000001
2384,-4,1,-2,1,-3,-9,-7,-15,11.92
2385,2,-2,-1,-2,-10,2,-2,2,11.925
2386,8,4,1,0,14,1,1,13,11.93
2387,-5,0,-2,-3,-3,2,-3,-13,11.935
2388,-10,-8,-1,3,-3,-9,-4,-15,11.94
2389,-5,3,17,7,-4,5,2,-3,11.945
2390,5,1,-2,1,-2,0,2,9,11.950000000000001
2391,5,-1,-2,-3,-1,1,2,7,11.955
2392,-2,1,17,7,-3,-1,1,-4,11.96
2393,-4,-2,-2,1,-1,1,0,-2,11.965
2394,-2,-4,4,0,4,1,0,0,11.97
2395,0,1,7,-2,-5,2,1,3,11.975
2396,-1,0,10,1,5,-3,-2,-4,11.98
2397,0,-4,0,0,-3,1,-1,-5,11.985
2398,0,2,6,-4,-6,-2,0,0,11.99
2399,0,-4,3,-3,1,4,3,5,11.995000000000001
2400,-2,-1,-5,-2,-10,-9,-3,0,12.0
2401,-2,-2,-1,2,1,5,-1,-5,12.005
2402,-1,-2,-1,1,-4,0,1,-1,12.01
2403,-1,0,27,3,3,0,1,4,12.015
2404,-3,-1,43,-6,-10,-4,-2,-4,12.02
2405,-2,-1,26,2,-8,-4,-3,-5,12.025
2406,1,0,10,-1,8,3,1,2,12.030000000000001
2407,0,-1,21,-5,-10,-3,0,2,12.035
2408,-1,0,28,-4,5,-2,-2,-3,12.040000000000001
2409,-2,-1,15,-2,-4,-1,0,-2,12.045
2410,0,-3,-19,-4,-7,-3,-1,0,12.05
2411,-1,0,-31,3,0,-1,-2,1,12.055
2412,-2,-3,-58,0,-2,0,-2,-3,12.06
2413,-2,4,-20,-3,-5,-3,-2,-2,12.065
2414,-4,-9,-47,0,8,1,0,1,12.07
2415,1,0,-37,-2,-4,0,-1,2,12.075000000000001
2416,0,-1,-43,2,4,-1,-1,-1,12.08
2417,-2,-3,-32,-5,2,2,-2,-1,12.085
2418,0,2,-8,-2,4,0,-2,-1,12.09
2419,1,1,-10,3,-7,-4,-1,1,12.095
2420,-1,0,-10,0,2,7,2,0,12.1
2421,0,0,-13,-2,-1,-4,-1,-2,12.105
2422,1,1,5,-2,-6,-3,-1,1,12.11
2423,-1,-1,-3,-5,-2,3,2,0,12.115
2424,0,2,0,5,2,-5,-2,0,12.120000000000001
2425,-1,-2,-6,-9,-12,-5,-2,-3,12.125
2426,1,5,15,7,24,12,2,1,12.13
2427,-1,-2,-3,0,-3,-4,-2,-1,12.135
2428,-1,-1,0,-3,2,3,1,1,12.14
2429,0,0,4,4,-2,-3,-2,-2,12.145
2430,-1,-3,5,-1,-10,-5,-2,-1,12.15
2431,0,-3,1,-4,5,2,-1,0,12.155000000000001
2432,0,-1,4,6,-2,-5,0,-1,12.16
2433,-1,-1,3,-3,7,8,0,1,12.165000000000001
2434,0,0,6,0,6,0,0,-1,12.17
2435,2,-1,4,-1,-1,1,1,2,12.175
2436,-3,-1,1,-4,-10,-7,-4,-1,12.18
2437,-1,2,2,3,3,1,0,1,12.185
2438,-2,-3,-7,-5,0,0,-1,-1,12.19
2439,-1,-1,0,0,1,1,0,1,12.195
2440,0,0,-4,-4,-2,-1,-1,0,12.200000000000001
2441,-2,-1,7,1,2,-1,-1,-1,12.205
2442,-2,-1,4,1,-9,-3,0,0,12.21
2443,0,0,2,4,3,0,0,-1,12.215
2444,-2,1,-1,-4,-2,3,-2,0,12.22
2445,-2,-3,-1,-1,1,0,0,0,12.225
2446,1,3,3,0,-4,-2,1,0,12.23
2447,1,-2,-1,1,2,-1,-1,0,12.235
2448,-1,1,7,1,-11,-5,0,0,12.24
2449,-2,-2,-4,-4,-4,-2,-3,0,12.245000000000001
2450,-4,0,3,4,0,-5,-1,-1,12.25
2451,-2,-3,-2,-1,7,4,-1,0,12.255
2452,0,-3,-3,-5,9,14,4,1,12.26
2453,0,-1,0,0,-6,-3,0,-1,12.265
2454,-1,-1,2,-1,-9,-3,-2,-1,12.27
2455,-1,1,5,-2,-10,-4,-3,-1,12.275
2456,-1,-3,-1,2,2,-5,-2,-3,12.280000000000001
2457,0,-1,-1,0,-1,-2,-1,-2,12.285
2458,-1,-1,4,-2,-3,0,-1,-3,12.290000000000001
2459,-2,0,-2,-2,4,1,-1,-1,12.295
2460,-2,0,-1,-1,0,-1,0,-1,12.3
2461,-1,0,3,2,1,1,-1,-1,12.305
2462,0,-4,-10,-3,-1,-1,-1,-1,12.31
2463,-2,-1,1,-2,-2,0,0,-1,12.315
2464,-1,-1,-2,-1,0,-2,-1,-1,12.32
2465,0,0,-1,-1,0,0,-2,-2,12.325000000000001
2466,-1,1,2,-1,0,-1,0,-1,12.33
2467,-1,-2,-1,3,-8,-6,0,-1,12.335
2468,-1,-1,6,1,10,6,0,1,12.34
2469,-2,-1,-20,-8,-15,-1,1,1,12.345
2470,-2,-2,4,-4,13,-1,-2,-3,12.35
2471,1,0,0,-1,0,4,3,0,12.355
2472,-2,1,0,-1,-3,-8,-3,-1,12.36
2473,1,0,5,3,7,1,0,0,12.365
2474,-1,1,-4,1,-8,-3,0,2,12.370000000000001
2475,-2,-1,0,-2,-1,-4,-2,-2,12.375
2476,-2,-1,2,0,0,-2,-2,-2,12.38
2477,-1,-3,1,-2,0,-1,0,-2,12.385
2478,0,0,1,-3,-4,-2,-2,0,12.39
2479,-2,-2,2,4,4,-4,-2,-2,12.395
2480,1,0,-8,-6,2,10,1,-1,12.4
2481,-2,-1,1,1,4,-1,0,-2,12.405000000000001
2482,-2,0,0,2,1,0,-1,-2,12.41
2483,0,0,-4,-9,-9,-2,-1,0,12.415000000000001
2484,-2,-2,-1,5,-4,-6,-1,-3,12.42
2485,-1,0,1,-4,1,3,2,-1,12.425
2486,0,-1,1,-2,1,2,0,-1,12.43
2487,-2,0,3,-1,-6,-1,-1,0,12.435
2488,-2,-1,-1,1,0,-4,-1,-1,12.44
2489,-1,-1,2,1,-4,-4,-1,-2,12.445
2490,-2,-2,5,2,0,0,1,-1,12.450000000000001
2491,-1,-2,-2,0,5,3,-2,-3,12.455
2492,-1,-1,-1,-2,-3,0,-1,-1,12.46
2493,-1,0,-2,0,3,0,-1,-1,12.465
2494,0,-1,1,-1,-5,-3,-1,-1,12.47
2495,0,0,0,1,-6,-1,-1,0,12.475
2496,-1,-1,-3,-3,9,3,0,-1,12.48
2497,-1,-2,-1,4,-2,-1,-2,-1,12.485
2498,-1,0,-3,-6,8,5,-1,-1,12.49
2499,2,5,22,6,-1,-6,0,0,12.495000000000001
2500,0,-9,-19,-8,-3,6,1,0,12.5
2501,-1,-3,-2,4,-7,-9,-2,-1,12.505
2502,0,-1,-3,-4,6,12,2,1,12.51
2503,0,-2,-2,-2,0,-1,0,-1,12.515
2504,-1,3,4,0,-5,-3,-1,-1,12.52
2505,0,2,1,0,-2,-2,0,-2,12.525
2506,-2,-2,-1,1,-4,-4,-2,0,12.530000000000001
2507,-3,-2,-7,-2,0,1,-1,0,12.535
2508,-1,0,4,2,-4,-5,-2,0,12.540000000000001
2509,-1,-1,-5,-2,7,5,0,-2,12.545
2510,0,1,2,2,-7,-7,1,-1,12.55
2511,-2,-2,-5,-2,5,3,0,1,12.555
2512,0,2,0,1,-4,-3,-1,-1,12.56
2513,0,0,2,-2,3,2,-1,1,12.565
2514,-1,-1,-3,0,0,0,-2,0,12.57
2515,-1,-2,-6,2,0,-4,-1,-1,12.575000000000001
2516,-1,1,3,-2,2,3,0,-2,12.58
2517,-1,-2,0,1,-3,-1,0,0,12.585
2518,-1,1,-1,0,-2,-4,-4,-2,12.59
2519,-1,-2,-3,1,1,2,-1,-2,12.595
2520,1,3,6,0,-2,-1,0,2,12.6
2521,-2,-2,-6,-2,2,-1,0,1,12.605
2522,0,-1,2,0,-7,-3,-2,1,12.61
2523,0,-1,-2,0,-2,-1,-2,-2,12.615
2524,-2,-2,0,-1,-3,-4,-2,-2,12.620000000000001
2525,-1,-1,0,0,4,2,-1,0,12.625
2526,-2,-2,-3,2,-13,-4,-1,-1,12.63
2527,-1,1,1,-4,8,9,1,0,12.635
2528,-2,-3,0,0,-2,-1,0,-1,12.64
2529,-1,0,1,-2,0,0,-2,1,12.645
2530,-2,-5,-2,-1,1,-3,-1,-2,12.65
2531,0,0,0,-2,-2,-1,-1,-1,12.655000000000001
2532,-1,-1,-2,-1,-3,-2,-2,-1,12.66
2533,-1,-1,1,0,1,-2,-1,0,12.665000000000001
2534,2,1,1,1,5,5,0,0,12.67
2535,-2,-2,-4,-5,-8,-3,-1,-1,12.675
2536,0,-2,2,4,0,-4,-3,-2,12.68
2537,-2,-2,-5,-9,5,4,-1,-2,12.685
2538,-1,0,-14,-3,-2,0,-1,0,12.69
2539,-2,-2,-1,-2,0,2,1,0,12.695
2540,1,-1,1,1,-2,-3,0,-1,12.700000000000001
2541,-1,-4,2,2,-7,-4,1,-1,12.705
2542,-1,-1,2,-1,6,2,0,0,12.71
2543,0,-2,-2,1,-1,-4,0,0,12.715
2544,0,-1,-1,-2,4,2,0,0,12.72
2545,0,1,0,0,-3,-1,0,1,12.725
2546,-1,-1,1,-1,-6,-1,-1,0,12.73
2547,-1,-2,-5,2,5,-4,-1,0,12.735
2548,0,1,1,-4,-2,4,1,0,12.74
2549,-1,-4,-2,-3,-2,-3,-1,0,12.745000000000001
2550,-1,1,3,1,0,4,1,1,12.75
2551,-1,-3,-13,0,-8,-3,-2,0,12.755
2552,0,0,-1,-4,11,6,1,-1,12.76
2553,0,1,0,2,-5,-5,-3,-2,12.765
2554,0,-1,1,0,12,7,1,-1,12.77
2555,-1,-1,3,-2,-5,-1,0,-1,12.775
2556,-1,0,0,0,-1,-3,-1,0,12.780000000000001
2557,0,1,0,-1,-8,-3,-3,-1,12.785
2558,-1,-2,-1,0,-5,-6,-2,0,12.790000000000001
2559,-2,0,1,-3,1,1,-2,0,12.795
2560,-4,-2,-3,2,-5,-3,-1,-1,12.8
2561,1,1,-1,-2,3,1,1,1,12.805
2562,-1,-1,-2,-2,-4,-4,-2,-1,12.81
2563,-1,-2,0,-1,-1,1,-1,0,12.815
2564,0,-3,-5,1,4,1,-1,-1,12.82
2565,-1,2,5,3,3,1,-1,-1,12.825000000000001
2566,0,0,4,-1,-3,-2,0,-1,12.83
2567,0,-3,-3,-3,2,-1,-1,0,12.835
2568,-2,1,0,-1,-3,-3,-1,1,12.84
2569,0,-1,-1,5,5,-2,0,-2,12.845
2570,-2,-2,-1,-7,-4,1,0,-1,12.85
2571,-1,2,0,0,-1,0,-2,-2,12.855
2572,-2,-2,-1,1,-2,-1,1,-1,12.86
2573,-1,-1,-2,-2,-7,-3,-2,-1,12.865
2574,-1,-2,-2,4,4,-12,-4,-1,12.870000000000001
2575,1,1,0,-6,-3,9,1,-1,12.875
2576,-2,0,0,-1,5,-4,-2,0,12.88
2577,0,0,-2,-3,-5,0,-2,0,12.885
2578,-1,-1,-1,3,2,0,0,-1,12.89
2579,-2,-2,-1,3,1,-6,-3,0,12.895
2580,0,-2,0,-7,-1,4,-1,0,12.9
2581,-1,-1,-3,-2,3,0,1,-1,12.905000000000001
2582,-1,-2,-2,-1,-3,-1,0,0,12.91
2583,0,1,2,1,2,-1,-2,0,12.915000000000001
2584,0,-1,-3,0,-5,-2,-1,-1,12.92
2585,-2,-3,-1,1,-4,-2,-2,-2,12.925
2586,-2,-1,-3,-5,0,2,0,-2,12.93
2587,-2,-1,0,-2,-3,-1,-2,-2,12.935
2588,-1,0,0,0,-7,-5,-5,-2,12.94
2589,-2,-1,-1,-3,1,-1,-1,-1,12.945
2590,-1,-1,0,-2,-7,-2,-1,-3,12.950000000000001
2591,-1,-1,-1,1,-9,-7,-2,-1,12.955
2592,-1,-1,-2,-7,3,3,2,0,12.96
2593,0,2,2,0,4,-2,-1,-1,12.965
2594,-2,-1,-1,-1,-4,0,-1,0,12.97
2595,-1,-3,-1,-1,-3,-4,-1,-2,12.975
2596,-1,0,1,2,2,1,-1,-2,12.98
2597,0,-2,-3,-3,-1,1,2,0,12.985
2598,-1,1,2,-1,0,-1,-2,-1,12.99
2599,0,0,-1,0,-1,-1,2,1,12.995000000000001
2600,0,-1,-1,2,-4,-3,-1,1,13.0
2601,-2,-2,0,1,-2,0,-1,-1,13.005
2602,0,1,9,2,-2,-1,-2,0,13.01
2603,0,0,-3,0,4,2,0,1,13.015
2604,0,-3,-6,-3,-7,-2,-1,-1,13.02
2605,0,0,-3,-1,2,0,2,-1,13.025
2606,-1,-1,0,-2,2,-1,-1,0,13.030000000000001
2607,-1,0,4,3,-4,-5,-1,-1,13.035
2608,0,1,0,-2,8,2,-2,0,13.040000000000001
2609,-2,-1,1,0,-1,0,-1,-1,13.045
2610,-2,0,-5,-1,-4,-1,-1,-1,13.05
2611,-1,0,-1,1,1,0,-1,-1,13.055
2612,-2,-2,-1,-2,1,1,1,-1,13.06
2613,-2,-1,0,-2,-2,-1,0,0,13.065
2614,1,1,-2,-1,0,0,1,-2,13.07
2615,1,-1,-4,-3,3,2,0,1,13.075000000000001
2616,-1,-2,2,5,0,-5,0,-1,13.08
2617,-1,0,-1,-5,-11,0,-1,0,13.085
2618,-2,-2,-6,-2,7,1,1,-1,13.09
2619,-1,-3,0,-1,-3,-3,-1,-2,13.095
2620,-1,-1,-1,-3,5,5,0,0,13.1
2621,0,-1,-2,1,4,0,0,-1,13.105
2622,0,-3,-2,1,-4,-1,-1,-1,13.11
2623,0,1,4,-1,-6,0,0,0,13.115
2624,0,-3,-7,-3,1,-2,-3,-2,13.120000000000001
2625,0,2,3,-1,4,0,2,0,13.125
2626,-1,-4,-6,1,-5,-4,-2,-1,13.13
2627,-2,0,-2,-3,2,1,1,0,13.135
2628,1,1,1,4,-9,-6,-2,-1,13.14
2629,-1,1,-2,-4,3,0,-1,0,13.145
2630,-2,-3,-2,2,0,-4,-1,-1,13.15
2631,-1,-1,-1,-6,-7,1,-1,0,13.155000000000001
2632,-1,0,0,4,-2,-6,-3,0,13.16
2633,0,-1,0,1,9,7,1,-1,13.165000000000001
2634,0,-1,1,0,0,0,0,-1,13.17
2635,-1,0,10,-1,-3,-2,-2,-2,13.175
2636,-4,-3,-18,-5,-2,-3,-2,0,13.18
2637,0,0,0,-1,-4,-4,-2,-2,13.185
2638,-2,-2,1,0,-1,-4,-2,-1,13.19
2639,-1,-1,-1,-6,-6,3,-1,-1,13.195
2640,1,0,4,1,4,-1,0,-1,13.200000000000001
2641,-1,0,-2,1,-2,-3,-2,-2,13.205
2642,-2,-1,-2,-1,2,1,-2,-1,13.21
2643,-1,-1,-7,2,-1,-4,-1,-2,13.215
2644,-3,-1,5,-1,-5,-1,1,0,13.22
2645,-3,-5,-5,-1,1,1,0,-2,13.225
2646,4,2,3,3,-7,-6,0,2,13.23
2647,-1,0,-2,-3,12,6,2,0,13.235
2648,-2,-2,1,-3,0,0,0,-1,13.24
2649,-2,0,1,1,-2,0,-2,0,13.245000000000001
2650,-1,-1,-2,-1,-4,-1,1,0,13.25
2651,-2,-1,-3,1,0,-5,-4,-3,13.255
2652,-1,0,1,0,-1,-1,0,-2,13.26
2653,0,-1,0,5,-8,-8,-3,-1,13.265
2654,-2,-1,-2,-14,13,11,2,0,13.27
2655,0,-2,-3,2,-2,-2,-1,0,13.275
2656,-1,-1,4,-1,-5,0,0,0,13.280000000000001
2657,-1,0,-1,-2,0,-4,-2,0,13.285
2658,-1,-1,-2,1,0,1,-1,-2,13.290000000000001
2659,1,0,1,0,0,0,0,1,13.295
2660,0,-1,-1,-1,1,-1,-1,-1,13.3
2661,0,-1,-1,-1,-4,-3,-1,1,13.305
2662,0,0,-2,-2,-12,-4,-3,-2,13.31
2663,-3,-1,-5,-8,-1,0,0,-1,13.315
2664,0,1,6,6,5,1,0,1,13.32
2665,-1,0,-3,-5,-4,-1,-2,-3,13.325000000000001
2666,2,-1,0,-1,-1,-2,-2,-2,13.33
2667,-1,-1,-2,2,2,-2,-1,-1,13.335
2668,0,1,-2,-4,-7,-2,-1,-1,13.34
2669,-1,-3,-2,-4,1,-1,0,-1,13.345
2670,-1,-2,1,0,2,1,0,-2,13.35
2671,-2,-3,-2,0,-11,-6,-2,-1,13.355
2672,-3,0,-1,-4,5,-2,-1,-2,13.36
2673,-1,-1,-2,0,1,4,1,-1,13.365
2674,-1,0,-3,6,2,-5,-3,0,13.370000000000001
2675,0,1,0,-4,3,5,0,-1,13.375
2676,-1,-3,-1,0,-7,-4,-2,-2,13.38
2677,1,0,0,3,4,0,0,-1,13.385
2678,-1,-1,-3,-10,-7,3,3,1,13.39
2679,-1,-1,-1,1,0,-3,-2,-1,13.395
2680,0,-2,-1,0,-8,-5,-2,-1,13.4
2681,-1,-3,-2,-6,-6,-1,0,0,13.405000000000001
2682,-1,-2,-3,1,2,1,-1,0,13.41
2683,1,0,1,2,4,0,-1,-1,13.415000000000001
2684,-3,-1,-2,-2,-8,-1,-1,-1,13.42
2685,-1,-2,-2,1,-4,-4,-2,-2,13.425
2686,0,-2,-1,1,4,-2,1,-2,13.43
2687,0,0,0,3,-4,-3,1,0,13.435
2688,0,-1,-2,-5,4,3,0,-1,13.44
2689,-1,-1,-1,-4,-3,-2,-1,-2,13.445
2690,-1,0,1,0,-4,-5,-3,-1,13.450000000000001
2691,-1,-1,1,3,16,3,2,0,13.455
2692,0,0,-2,1,8,8,1,1,13.46
2693,0,0,2,-3,-16,-2,-1,0,13.465
2694,-1,0,2,0,8,-2,-2,-2,13.47
2695,0,-1,-2,4,3,2,0,-2,13.475
2696,-3,-3,-2,-2,-4,-2,0,-1,13.48
2697,1,-1,1,3,2,-1,0,2,13.485
2698,-2,0,0,-3,4,2,0,0,13.49
2699,-2,-6,-9,-8,-14,-10,-4,0,13.495000000000001
2700,0,2,0,-1,12,8,3,-1,13.5
2701,0,1,-1,4,10,5,2,0,13.505
2702,0,1,0,-1,-14,-9,-3,0,13.51
2703,0,0,-2,-5,12,5,-1,-2,13.515
2704,0,-1,0,-1,-17,-6,-2,-1,13.52
2705,-2,0,-1,-3,-5,-6,-2,-1,13.525
2706,0,0,1,2,6,3,1,-1,13.530000000000001
2707,-1,0,0,0,-14,-3,0,-1,13.535
2708,-1,-2,-1,2,5,-2,-2,-1,13.540000000000001
2709,-1,-1,0,-2,3,2,0,1,13.545
2710,-2,-3,-4,-4,2,2,-1,0,13.55
2711,-2,-2,0,2,-9,-6,0,-2,13.555
2712,-1,-1,0,-2,-4,2,-1,-1,13.56
2713,-1,-2,-1,-1,12,-4,-2,-2,13.565
2714,-1,1,0,-8,-7,4,2,-1,13.57
2715,-1,0,0,1,1,-1,0,0,13.575000000000001
2716,0,0,0,0,1,-1,-1,0,13.58
2717,-2,-1,-1,5,6,2,-1,-1,13.585
2718,0,-3,-2,-5,-13,-3,0,1,13.59
2719,-1,0,1,-6,-16,-5,-2,-1,13.595
2720,-1,0,-2,-2,4,0,-1,0,13.6
2721,0,0,0,0,5,-1,0,0,13.605
2722,-1,-2,1,1,1,-3,-2,-1,13.61
2723,0,0,-2,1,-2,1,0,-1,13.615
2724,0,1,2,2,-5,-4,0,0,13.620000000000001
2725,-1,-2,-1,-5,-8,-1,-1,-2,13.625
2726,-1,0,-2,4,-7,-3,0,0,13.63
2727,0,0,-2,-3,11,0,-1,-2,13.635
2728,0,1,0,2,-3,-3,-1,-1,13.64
2729,-1,0,0,-2,-12,3,1,-1,13.645
2730,0,-2,-2,3,15,-1,-2,-2,13.65
2731,-2,-2,-2,-10,-11,-2,-1,-1,13.655000000000001
2732,0,-1,-1,0,1,-2,-1,0,13.66
2733,-1,-1,-2,-5,2,3,0,-3,13.665000000000001
2734,0,0,1,-2,-10,-4,-3,-1,13.67
2735,1,0,0,4,2,-1,-2,-1,13.675
2736,0,-2,-2,-1,0,-1,0,-1,13.68
2737,-1,-1,0,-2,-9,-3,-3,0,13.685
2738,-2,1,-3,4,9,0,0,0,13.69
2739,-1,-1,1,0,7,2,-1,-1,13.695
2740,-1,-1,-1,-2,-4,-1,-1,-1,13.700000000000001
2741,-1,-2,-1,1,1,-3,0,-1,13.705
2742,-1,-1,0,-2,-7,1,-1,-1,13.71
2743,-1,-1,0,4,3,0,1,1,13.715
2744,-1,-1,-3,2,0,-1,0,-3,13.72
2745,0,0,1,-2,23,9,3,-1,13.725
2746,-2,-1,-1,-4,-9,-5,0,-1,13.73
2747,1,-1,-2,-11,-8,1,-2,-1,13.735
2748,0,0,2,6,13,11,2,3,13.74
2749,0,-2,-2,0,-2,-5,-4,-2,13.745000000000001
2750,-3,0,0,0,-9,-6,0,-2,13.75
2751,1,0,1,10,13,12,3,1,13.755
2752,-3,-1,-2,-6,-2,-5,-2,-2,13.76
2753,0,-3,-2,-4,-7,-5,-3,-2,13.765
2754,0,-2,-1,0,6,0,0,-1,13.77
2755,-2,0,-1,-1,-2,-1,-2,-3,13.775
2756,0,1,0,-2,-4,-2,-1,-1,13.780000000000001
2757,-2,0,0,4,-1,-3,-1,0,13.785
2758,-2,0,-1,0,-5,-2,0,-1,13.790000000000001
2759,-2,-2,-1,2,-3,-6,-3,-1,13.795
2760,2,-1,-3,-2,17,11,3,1,13.8
2761,-1,-2,-2,-1,-7,-5,-2,-2,13.805
2762,0,-2,0,-1,7,4,-2,-1,13.81
2763,-1,0,0,3,-2,-3,-1,0,13.815
2764,-2,-2,-2,-2,2,0,-2,-1,13.82
2765,-1,0,-1,1,-6,-3,-1,0,13.825000000000001
2766,-1,-2,0,5,-1,-5,-2,-1,13.83
2767,-1,-1,-2,-6,9,8,1,0,13.835
2768,-2,-1,-1,-2,-18,-7,-3,1,13.84
2769,-1,0,-2,-3,11,3,1,-1,13.845
2770,-1,-2,-2,-2,11,3,0,-2,13.85
2771,-1,0,-2,-1,-6,-5,0,1,13.855
2772,-1,-2,3,1,-11,-5,-1,0,13.86
2773,1,0,0,7,13,7,2,3,13.865
2774,0,-3,-1,-8,3,7,1,-1,13.870000000000001
2775,-1,-2,0,-1,-4,-6,-3,-2,13.875
2776,-2,-3,-1,0,4,-1,-1,-2,13.88
2777,-1,-1,-1,-4,-13,-6,-3,1,13.885
2778,1,0,-1,3,-2,-3,-2,-2,13.89
2779,-1,-1,0,-3,2,5,0,-1,13.895
2780,0,-1,-1,1,-11,-10,-3,-2,13.9
2781,0,-1,-1,-2,0,3,0,-1,13.905000000000001
2782,0,1,1,0,4,2,2,1,13.91
2783,-2,-2,-3,0,1,-2,-1,-1,13.915000000000001
2784,-1,-1,0,1,-8,-7,-2,-3,13.92
2785,-3,-2,-2,-1,3,5,0,-1,13.925
2786,0,0,-3,0,-5,-1,-1,0,13.93
2787,-1,-1,0,1,2,2,0,0,13.935
2788,0,-1,-1,-1,-4,-5,0,0,13.94
2789,-1,0,-2,-4,-13,-6,-3,-2,13.945
2790,0,1,-1,4,7,2,2,-1,13.950000000000001
2791,-2,0,-2,-3,2,2,-2,1,13.955
2792,-1,0,-3,-3,4,1,0,-1,13.96
2793,-1,-3,0,0,-7,-4,-1,-1,13.965
2794,0,0,-1,5,-10,-10,-4,-2,13.97
2795,-1,-2,-3,-7,5,4,1,-1,13.975
2796,-1,-1,1,0,1,1,-2,-1,13.98
2797,-1,0,0,1,2,-1,-2,0,13.985
2798,0,-2,0,-2,-6,-4,0,-1,13.99
2799,-1,0,-1,3,-4,-7,-2,-3,13.995000000000001
2800,-1,-2,-1,-4,3,4,-1,-2,14.0
2801,0,-1,-2,-1,-4,-2,0,-1,14.005
2802,-1,0,-2,0,-1,-1,-2,-2,14.01
2803,0,-2,-1,-3,9,5,1,0,14.015
2804,-1,-2,-1,-3,-13,-2,-2,-2,14.02
2805,-1,-1,-1,1,14,5,1,-1,14.025
2806,-1,-1,0,-2,-8,-1,-2,-1,14.030000000000001
2807,0,-2,-1,3,7,-1,0,0,14.035
2808,-1,-1,-1,0,3,0,0,-1,14.040000000000001
2809,-2,-2,0,-1,-3,-5,-1,-1,14.045
2810,-2,0,2,-2,-7,0,-1,0,14.05
2811,-1,0,-2,-5,-12,-4,-4,-2,14.055
2812,-1,-3,-2,-2,2,-1,-1,1,14.06
2813,0,2,0,0,-6,0,0,-2,14.065
2814,-3,-2,-2,-3,1,-1,-1,-1,14.07
2815,-2,-2,1,0,-5,2,0,-1,14.075000000000001
2816,-1,1,-2,0,1,1,0,1,14.08
2817,0,0,-1,-3,-4,-1,-1,-2,14.085
2818,-3,1,-1,-2,-1,-2,-1,-1,14.09
2819,0,1,-1,2,-3,-5,-1,-1,14.095
2820,-2,0,-2,-2,-1,-1,0,-2,14.1
2821,0,0,1,0,-2,-1,-3,1,14.105
2822,-1,-1,-2,0,-9,-2,0,-1,14.11
2823,-1,-2,-2,1,24,5,1,-2,14.115
2824,-1,1,0,-2,4,-1,1,1,14.120000000000001
2825,-1,-2,-2,-6,-15,-4,-2,-1,14.125
2826,0,-3,-1,-1,12,5,0,-1,14.13
2827,-1,0,0,0,-16,-5,0,-1,14.135
2828,0,-3,-2,-1,4,1,-1,0,14.14
2829,-2,-2,0,1,1,0,0,-2,14.145
2830,0,-1,0,-1,1,4,1,-1,14.15
2831,-1,-2,-1,0,-10,-6,-2,-2,14.155000000000001
2832,0,0,-1,3,-1,-2,1,-2,14.16
2833,-1,-2,0,-3,-10,-2,-1,-2,14.165000000000001
2834,-1,-1,-2,0,3,0,0,0,14.17
2835,-2,0,2,1,-5,-7,-3,-1,14.175
2836,-1,-1,-1,-8,-4,5,0,-2,14.18
2837,0,-1,-1,3,-5,-6,-1,-1,14.185
2838,-2,0,0,-1,8,5,-1,0,14.19
2839,-1,-2,-1,-7,9,5,1,1,14.195
2840,-1,-1,2,1,-3,-6,-5,-1,14.200000000000001
2841,1,2,0,-1,5,3,1,1,14.205
2842,-1,0,0,-1,-6,-3,-1,0,14.21
2843,0,-2,-2,2,-5,-4,0,-2,14.215
2844,-2,-1,-2,-2,-1,1,0,0,14.22
2845,-1,-1,-2,-2,2,0,-1,0,14.225
2846,0,0,0,0,-3,-2,0,0,14.23
2847,-1,-2,0,-1,-2,-7,-2,0,14.235
2848,1,1,-1,1,15,15,3,1,14.24
2849,-2,-1,-1,2,-1,-1,-4,-2,14.245000000000001
2850,-2,0,-2,-3,-4,-2,-2,-1,14.25
2851,1,0,0,8,-12,1,-1,-1,14.255
2852,0,1,0,-9,5,5,1,0,14.26
2853,0,0,-2,0,-12,-10,-2,1,14.265
2854,-4,0,-1,-1,0,-3,-2,-3,14.27
2855,-1,-1,1,-2,2,4,1,-1,14.275
2856,-2,-1,0,5,-3,-11,-4,-2,14.280000000000001
2857,0,-2,-1,-1,8,7,2,-2,14.285
2858,1,-2,0,1,-7,-7,-4,0,14.290000000000001
2859,-1,-1,0,-3,-11,-1,0,1,14.295
2860,-1,-3,-4,-3,3,-2,-1,-1,14.3
2861,0,0,0,-2,6,4,2,-1,14.305
2862,-2,-2,-1,4,-4,-8,-3,-3,14.31
2863,-1,-1,-2,-11,-1,5,1,1,14.315
2864,-1,-1,0,2,5,-6,-1,-1,14.32
2865,-2,1,2,-2,-4,-3,0,-2,14.325000000000001
2866,3,-1,-1,-2,1,7,2,1,14.33
2867,-2,-1,-1,2,4,1,-1,-1,14.335
2868,-2,-2,0,-1,-11,-9,-3,-2,14.34
2869,0,-1,-1,-1,5,1,-1,-2,14.345
2870,0,1,-2,-3,-5,-3,1,-2,14.35
2871,-2,-1,-1,1,7,-3,-1,-2,14.355
2872,-1,-2,-3,-1,-12,-5,-3,-2,14.36
2873,0,-1,-1,0,3,0,-1,0,14.365
2874,0,-1,-2,-5,-2,0,0,-1,14.370000000000001
2875,-1,0,-2,1,-9,-5,0,-1,14.375
2876,-1,-1,-1,1,9,3,-2,0,14.38
2877,-3,-1,-2,-3,-5,-3,-3,-1,14.385
2878,0,-2,0,0,0,1,-1,1,14.39
2879,0,0,0,-4,-26,-9,-1,0,14.395
2880,0,1,2,2,13,6,2,1,14.4
2881,-2,0,-2,1,-2,-2,0,0,14.405000000000001
2882,0,-1,-1,-1,2,-3,-2,-2,14.41
2883,-1,-1,-1,4,4,-1,-2,0,14.415000000000001
2884,-1,-2,-2,0,-13,-2,-1,-3,14.42
2885,0,-1,-1,-1,-2,-4,-1,0,14.425
2886,1,1,0,0,8,11,2,-1,14.43
2887,0,0,-1,-1,5,-1,-1,-2,14.435
2888,0,-2,0,2,-6,-4,-1,-2,14.44
2889,-2,-3,-1,3,-11,-3,-2,-1,14.445
2890,-2,-1,-3,-3,16,7,2,0,14.450000000000001
2891,-1,-2,1,-2,21,6,0,-1,14.455
2892,-1,0,-3,-3,0,-1,-1,0,14.46
2893,1,1,1,5,-10,-4,-2,-1,14.465
2894,-2,-2,-1,2,8,-1,-2,0,14.47
2895,-1,-2,-2,-5,-11,1,1,0,14.475
2896,-2,0,0,1,7,2,-1,0,14.48
2897,-1,-1,-1,-3,5,-1,0,0,14.485
2898,-3,0,-1,-2,-14,-8,-1,0,14.49
2899,1,0,0,8,9,2,0,0,14.495000000000001
2900,0,-2,-1,-6,-9,0,-2,-1,14.5
2901,0,1,-1,0,1,1,-1,-1,14.505
2902,-1,0,-1,-1,-5,-3,0,-1,14.51
2903,-1,-1,-2,-8,1,4,0,-3,14.515
2904,0,-1,-1,2,-4,-1,0,-1,14.52
2905,-1,0,-2,-2,7,1,0,-2,14.525
2906,-1,-3,-1,1,-2,-2,-1,-1,14.530000000000001
2907,-1,1,-1,2,-5,-4,-3,-2,14.535
2908,-1,-1,-2,-3,-14,-5,-3,-2,14.540000000000001
2909,-2,0,-2,0,14,4,0,-1,14.545
2910,0,-1,2,2,10,4,1,-2,14.55
2911,1,1,-2,0,-17,-9,-1,-1,14.555
2912,-2,-2,0,-3,16,13,2,0,14.56
2913,-2,-3,-1,6,-8,-9,-3,0,14.565
2914,1,4,4,-6,-7,5,2,1,14.57
2915,0,-3,-1,2,2,-1,-3,0,14.575000000000001
2916,-1,1,0,2,-14,-8,-3,-3,14.58
2917,0,-1,-1,-3,-2,4,1,0,14.585
2918,-4,-3,-2,-1,-3,-5,-2,-1,14.59
2919,0,1,-2,-5,-6,-4,-2,-1,14.595
2920,0,1,-2,4,-5,-3,-1,-1,14.6
2921,0,-1,-1,-4,-1,0,-3,0,14.605
2922,-1,-2,-4,-5,-12,-5,-2,-4,14.61
2923,-2,0,-1,-1,6,-4,0,1,14.615
2924,0,-1,-1,6,15,5,1,0,14.620000000000001
2925,1,0,-1,-1,11,2,0,-2,14.625
2926,1,0,-1,-7,-11,3,-1,0,14.63
2927,0,-3,0,2,-6,-8,-3,-1,14.635
2928,-1,-1,-1,-2,0,1,1,0,14.64
2929,-2,-1,-2,-4,-8,-2,-2,-2,14.645
2930,-1,0,1,5,9,-1,-1,-1,14.65
2931,-1,0,-2,-3,3,0,-1,-2,14.655000000000001
2932,-2,0,0,-1,-8,-3,-2,1,14.66
2933,0,-2,0,-1,-7,-3,-2,0,14.665000000000001
2934,2,-1,-2,5,6,6,0,0,14.67
2935,-2,0,-1,-1,9,6,-1,-1,14.675
2936,-1,-1,-2,-1,-6,-8,-2,-2,14.68
2937,-2,2,0,-1,-16,-1,2,2,14.685
2938,-1,-1,-2,-5,19,3,1,0,14.69
2939,-1,-1,-1,2,-1,-2,-3,-2,14.695
2940,2,0,-1,0,-9,0,1,3,14.700000000000001
2941,-2,-1,-3,-1,-1,-2,-1,-2,14.705
2942,-1,-1,0,0,-11,-8,-2,0,14.71
2943,-2,-1,-2,0,-2,3,2,-1,14.715
2944,-2,-1,-1,0,6,0,-1,-3,14.72
2945,0,1,2,-4,0,1,1,1,14.725
2946,-2,-4,-3,-1,-11,-8,-4,-3,14.73
2947,0,1,0,3,14,14,4,0,14.735
2948,-2,-1,-1,-4,-9,-2,-1,-1,14.74
2949,-1,-1,-1,0,6,2,-1,0,14.745000000000001
2950,-1,0,0,1,-8,-2,-1,0,14.75
2951,-1,-2,-1,-1,2,-4,-3,-1,14.755
2952,1,-1,-3,-5,-10,-3,-1,-2,14.76
2953,-1,0,-1,-5,16,4,0,0,14.765
2954,-2,-2,-3,-1,-15,-7,-4,-1,14.77
2955,0,0,-1,-4,11,2,1,0,14.775
2956,-1,-1,0,4,10,4,3,-1,14.780000000000001
2957,0,0,-1,1,-8,-6,-2,-2,14.785
2958,-2,0,-2,-1,1,1,-1,-3,14.790000000000001
2959,-1,-2,-1,-1,-5,-6,-3,-1,14.795
2960,-1,0,1,-3,-5,-4,-3,-1,14.8
2961,-2,-1,-2,1,-2,2,0,-2,14.805
2962,1,1,0,3,8,3,1,2,14.81
2963,0,1,0,2,-2,5,0,1,14.815
2964,-1,-1,-2,5,0,-9,-2,-1,14.82
2965,1,0,-1,-7,-6,5,2,1,14.825000000000001
2966,0,1,1,1,5,2,0,-1,14.83
2967,-2,-1,0,-2,-3,-1,0,-1,14.835
2968,0,1,-1,2,3,2,-1,-1,14.84
2969,-1,2,4,1,-1,-4,-1,0,14.845
2970,1,-1,-1,-2,0,-1,0,-1,14.85
2971,0,0,-1,-1,-2,-4,-1,1,14.855
2972,-1,-2,-3,-2,-9,0,0,-3,14.86
2973,-1,-2,-2,0,9,-1,0,0,14.865
2974,0,0,0,-2,-7,-2,0,0,14.870000000000001
2975,0,0,0,1,6,0,-1,-1,14.875
2976,-2,0,0,-4,-9,-2,-2,0,14.88
2977,0,-1,-2,3,18,9,1,-1,14.885
2978,1,0,0,-2,-7,-2,0,0,14.89
2979,-3,-1,-1,-3,-8,-4,-2,-1,14.895
2980,-1,0,-2,-2,-3,-4,-1,0,14.9
2981,-1,-1,-1,-5,-9,-2,0,-2,14.905000000000001
2982,-3,-1,-1,-1,2,-3,0,-1,14.91
2983,-1,-2,-2,1,-2,1,-1,1,14.915000000000001
2984,-1,-3,0,-3,3,1,0,0,14.92
2985,-2,-2,-3,2,-8,-6,-2,-2,14.925
2986,-1,0,0,0,6,1,0,-1,14.93
2987,0,1,-2,-3,-5,-2,0,-1,14.935
2988,0,0,0,1,2,1,-2,-1,14.94
2989,-1,1,0,0,-1,-1,-1,-1,14.945
2990,1,0,7,1,-2,1,0,-3,14.950000000000001
2991,-1,-3,-14,-2,3,2,0,-2,14.955
2992,0,0,1,-1,6,4,1,2,14.96
2993,-1,-1,0,4,0,-3,-3,-1,14.965
2994,0,0,-2,-7,6,7,1,0,14.97
2995,-1,1,2,3,-15,-7,0,-2,14.975
2996,0,-2,-1,-4,-4,2,1,0,14.98
2997,0,-2,1,4,33,10,0,1,14.985
2998,-2,-2,-4,1,-5,-4,-2,-1,14.99
2999,-1,0,3,-1,2,-1,0,1,14.995000000000001
3000,-2,0,-1,1,-7,-1,-2,0,15.0
3001,1,-1,-1,-1,-7,-2,-1,0,15.005
3002,-1,-2,-3,-1,-1,-2,-1,0,15.01
3003,0,0,0,0,3,5,0,-2,15.015
3004,-1,-1,1,-2,-1,-4,-1,-2,15.02
3005,-3,-1,-2,-4,-7,-3,0,0,15.025
3006,0,-2,-3,-1,-3,0,0,-2,15.030000000000001
3007,0,0,3,0,-2,-3,-3,-1,15.035
3008,-1,-1,-2,-2,5,2,-1,1,15.040000000000001
3009,-1,-1,-2,-1,-6,-3,-1,-2,15.045
3010,-1,-1,-2,3,-7,-6,-2,1,15.05
3011,-1,-3,-2,-12,11,9,1,-2,15.055
3012,1,-1,0,1,1,-2,-1,1,15.06
3013,-1,-2,-3,-8,-2,0,-1,-1,15.065
3014,-1,-1,-2,-3,2,0,-1,0,15.07
3015,1,0,3,4,-9,-6,-2,-2,15.075000000000001
3016,-2,0,-1,2,-1,-1,-3,-1,15.08
3017,0,0,-1,-5,-1,1,1,0,15.085
3018,0,-1,0,-2,-9,-8,-2,0,15.09
3019,-1,-1,-4,2,7,6,1,1,15.095
3020,0,-1,-1,-1,-5,-1,-1,-2,15.1
3021,0,-1,-1,0,-12,-3,0,1,15.105
3022,-2,-1,-2,-2,-4,-4,-2,-1,15.11
3023,-1,0,0,1,-1,-4,-1,-1,15.115
3024,0,0,0,-2,6,3,1,-2,15.120000000000001
3025,-1,-2,1,0,-7,-5,-1,-2,15.125
3026,-1,0,-2,1,9,7,2,0,15.13
3027,0,-1,0,-1,-5,-2,-1,0,15.135
3028,0,-1,-2,0,2,0,0,0,15.14
3029,-3,0,-1,-4,-7,-4,-3,0,15.145
3030,-1,0,0,1,0,1,0,-3,15.15
3031,-1,-1,-1,-1,-1,-3,-2,-2,15.155000000000001
3032,-2,-1,-2,-4,-2,-2,0,-1,15.16
3033,0,-1,-1,4,-1,-1,-3,-1,15.165000000000001
3034,0,-2,0,-1,2,3,0,0,15.17
3035,-2,-3,-1,-1,1,-1,1,0,15.175
3036,-1,1,0,1,-2,-3,-1,-1,15.18
3037,-1,2,-2,0,0,0,-3,-1,15.185
3038,0,-2,-2,0,0,0,-1,-1,15.19
3039,1,4,0,3,-6,-4,-2,0,15.195
3040,-1,-4,1,-5,-6,-1,-2,0,15.200000000000001
3041,-4,-9,-5,3,-7,0,0,-2,15.205
3042,-2,0,-1,-5,8,1,-1,-1,15.21
3043,0,4,-1,-2,-3,-1,0,0,15.215
3044,-3,-4,-1,1,1,1,-1,-3,15.22
3045,1,1,2,0,-2,-1,0,0,15.225
3046,1,-3,-3,-3,-4,-4,-2,-2,15.23
3047,-2,-2,0,2,-4,-6,-3,-3,15.235
3048,-1,0,-4,-8,14,7,2,0,15.24
3049,-1,0,1,-2,-2,-1,-1,0,15.245000000000001
3050,0,2,1,3,0,0,0,-1,15.25
3051,-2,-4,-1,-8,-4,1,-2,-1,15.255
3052,-1,1,-2,5,-3,-5,-1,-2,15.26
3053,0,-2,-2,-8,4,0,0,-2,15.265
3054,0,2,-2,-3,-13,-4,-1,0,15.27
3055,0,1,0,5,10,7,2,1,15.275
3056,0,1,1,3,-3,-1,-2,-1,15.280000000000001
3057,-1,-3,-1,-6,19,8,3,0,15.285
3058,-1,-2,2,2,-5,-4,-1,-1,15.290000000000001
3059,0,-2,-3,-6,-10,-6,-2,1,15.295
3060,0,2,0,4,4,6,0,1,15.3
3061,2,-2,-1,2,-7,-4,-1,-1,15.305
3062,-1,-5,-3,-4,-4,-2,-1,0,15.31
3063,-4,-7,-3,-3,3,2,0,-1,15.315
3064,0,0,0,0,-1,-5,-2,0,15.32
3065,-2,0,1,1,-1,-1,-1,0,15.325000000000001
3066,0,-4,0,1,-6,0,-1,0,15.33
3067,0,-2,-4,0,8,1,0,-1,15.335
3068,1,7,2,-2,-5,-7,-2,-2,15.34
3069,-3,-9,-2,3,-6,-5,-2,-2,15.345
3070,-2,1,0,-1,5,6,0,0,15.35
3071,0,2,2,3,-5,-3,-1,0,15.355
3072,-1,-2,-2,-7,3,3,2,0,15.36
3073,1,5,0,2,0,-8,-3,0,15.365
3074,-1,0,-2,0,7,6,0,-3,15.370000000000001
3075,-2,-6,-1,-1,-3,-2,-2,-2,15.375
3076,-1,-3,-2,-3,-1,-1,-1,0,15.38
3077,0,3,2,7,-13,-12,-4,-1,15.385
3078,-1,-1,-1,-8,14,15,5,2,15.39
3079,1,2,-1,1,6,1,0,-1,15.395
3080,-2,-3,0,2,-4,0,-1,-1,15.4
3081,-1,-4,-1,1,-2,1,0,-1,15.405000000000001
3082,-2,-3,-2,4,-4,-8,-2,-1,15.41
3083,1,1,-1,0,0,2,0,0,15.415000000000001
3084,1,2,0,-2,1,-1,0,-2,15.42
3085,0,4,-1,-3,-3,0,-2,-2,15.425
3086,1,0,0,3,5,1,0,-2,15.43
3087,-2,-4,-4,-3,-5,-1,-2,0,15.435
3088,2,1,2,0,5,1,0,0,15.44
3089,0,3,-1,-2,2,4,1,-1,15.445
3090,-2,-5,-3,-2,-6,-5,-2,0,15.450000000000001
3091,-1,-2,0,5,2,-3,-2,-2,15.455
3092,-2,-4,0,-4,-1,5,-2,-1,15.46
3093,-1,1,-2,-3,1,0,0,-2,15.465
3094,1,2,0,-1,1,-2,-1,0,15.47
3095,-1,-1,1,2,-4,-3,-1,-3,15.475
3096,-2,-5,-2,-4,-3,-5,-2,-2,15.48
3097,0,-2,-1,-2,7,4,-1,-2,15.485000000000001
3098,3,3,2,5,-4,-5,-1,-1,15.49
3099,0,-4,0,-4,4,3,1,1,15.495000000000001
3100,-1,-3,-1,3,-10,-4,-1,-4,15.5
3101,0,-1,0,1,-4,-3,-2,0,15.505
3102,-2,-1,-5,-7,7,2,1,-1,15.51
3103,-1,5,5,2,-5,-1,-1,-1,15.515
3104,-1,0,-1,1,0,-2,-1,1,15.52
3105,1,-1,0,1,4,4,0,-1,15.525
3106,-4,-9,-2,4,-19,-14,-4,-1,15.530000000000001
3107,0,0,1,-1,20,10,2,2,15.535
3108,0,-2,-3,-13,-4,4,0,-1,15.540000000000001
3109,-1,-1,0,0,3,-1,0,1,15.545
3110,2,6,1,0,-8,-7,-4,-2,15.55
3111,0,3,-2,1,-7,2,-1,-2,15.555
3112,-3,-15,-5,0,-2,-5,-2,-1,15.56
3113,-3,1,-1,-1,-2,-1,0,-1,15.565
3114,-2,-6,-6,-4,4,1,0,-1,15.57
3115,1,2,-3,-3,-6,-5,-1,0,15.575000000000001
3116,-3,-1,0,1,4,-2,0,-1,15.58
3117,0,5,0,-3,-4,-1,0,3,15.585
3118,1,-8,1,0,-14,-5,-2,2,15.59
3119,-6,6,-2,-5,17,2,-1,-7,15.595
3120,0,-3,-1,3,-3,0,0,-2,15.6
3121,-1,-10,-2,-1,-1,0,0,-1,15.605
3122,1,4,3,5,4,-1,0,-2,15.610000000000001
3123,1,-2,0,1,-18,-7,-1,1,15.615
3124,1,4,1,-8,12,7,0,0,15.620000000000001
3125,0,-3,-1,0,15,12,4,1,15.625
3126,-1,4,0,0,-7,-2,0,-1,15.63
3127,-1,-5,-1,-1,-6,-3,-1,1,15.635
3128,0,6,1,7,-16,-12,-5,-5,15.64
3129,-1,-3,-4,-1,27,9,1,0,15.645
3130,0,-2,0,-6,7,4,0,-1,15.65
3131,-2,-4,-2,-2,-9,-3,-3,-1,15.655000000000001
3132,-2,-3,-2,-1,-1,-3,-2,-2,15.66
3133,-1,5,2,5,-20,-11,-4,-3,15.665000000000001
3134,1,1,0,-7,10,4,-1,-1,15.67
3135,0,6,-3,-2,9,11,4,7,15.675
3136,-7,-17,2,-1,1,8,2,1,15.68
3137,1,-3,-5,-4,-3,-1,-1,2,15.685
3138,-5,0,1,5,9,2,0,-1,15.69
3139,-3,0,1,1,-14,-5,-2,-10,15.695
3140,4,7,-4,-3,-19,-12,-5,-1,15.700000000000001
3141,1,1,-6,0,9,18,4,3,15.705
3142,-2,-4,-3,-5,10,0,-1,0,15.71
3143,3,-1,-3,2,-16,-10,-4,0,15.715
3144,0,5,-2,-8,18,4,2,0,15.72
3145,0,-4,2,-2,-4,-6,0,2,15.725
3146,2,4,1,6,-28,-6,0,2,15.73
3147,2,-1,0,-7,36,10,4,9,15.735000000000001
3148,-5,-6,-6,2,-22,-17,-6,-8,15.74
3149,-5,4,0,-1,3,-5,-8,-13,15.745000000000001
3150,-5,-5,1,-1,6,7,0,-8,15.75
3151,2,-11,-2,2,-14,-10,-3,2,15.755
3152,0,-2,-2,8,-34,-11,2,7,15.76
3153,-2,1,9,-7,16,31,7,-2,15.765
3154,1,3,2,10,8,-8,-3,-2,15.77
3155,-5,-1,-9,-13,14,3,-2,-6,15.775
3156,1,-1,1,2,-51,-28,-7,-3,15.780000000000001
3157,0,-1,-12,17,35,9,0,-3,15.785
3158,-5,-12,-4,-26,-20,1,0,1,15.790000000000001
3159,2,2,-1,-1,9,-2,3,5,15.795
3160,4,13,2,-2,-2,10,3,5,15.8
3161,2,1,15,-3,-23,-32,-3,2,15.805
3162,-1,0,-15,-4,14,5,0,5,15.81
3163,-11,-3,2,4,-19,-10,-9,-19,15.815
3164,-9,-6,6,-2,21,2,-6,-12,15.82
3165,-3,-2,-5,-5,-22,-10,-3,-3,15.825000000000001
3166,7,3,-2,5,-8,-4,-1,6,15.83
3167,6,3,16,-2,-45,-10,0,5,15.835
3168,0,-7,-4,-3,57,7,3,17,15.84
3169,-8,-2,-4,-2,-74,-8,3,-7,15.845
3170,1,7,5,-1,75,22,1,-6,15.85
3171,-1,1,-8,1,18,13,5,-1,15.855
3172,-3,-6,-9,3,-2,-1,-1,-5,15.860000000000001
3173,1,-6,-5,-9,-73,-30,-7,10,15.865
3174,-2,3,9,4,69,35,10,0,15.870000000000001
3175,6,2,-2,5,-25,-8,-5,-2,15.875
3176,-2,-6,-10,4,8,8,0,0,15.88
3177,-1,1,-7,-6,29,7,-2,-7,15.885
3178,-1,1,13,8,-68,-32,-6,2,15.89
3179,-1,-5,-5,12,23,8,9,18,15.895
3180,-1,6,4,0,39,44,6,-7,15.9
3181,-4,-7,-16,-4,20,-2,-6,-20,15.905000000000001
3182,8,9,10,6,-17,-15,3,13,15.91
3183,-10,-7,-8,1,10,3,0,-12,15.915000000000001
3184,-3,-4,9,-11,-65,-16,-12,-15,15.92
3185,2,-8,-12,9,80,8,1,12,15.925
3186,10,10,6,2,-3,25,9,15,15.93
3187,0,-2,7,-1,-28,-13,4,7,15.935
3188,7,8,-5,0,49,0,1,-10,15.94
3189,-10,0,15,-4,-36,-13,-9,-8,15.945
3190,2,-6,-3,10,-78,-20,-12,-11,15.950000000000001
3191,-5,-9,-11,-23,93,31,8,10,15.955
3192,4,1,-5,-4,-32,-19,-3,3,15.96
3193,5,7,5,2,23,9,8,14,15.965
3194,-14,-7,-6,-4,0,-2,-3,-26,15.97
3195,1,2,-14,-4,-68,-31,-12,2,15.975
3196,-17,-20,-3,-7,-3,1,1,-7,15.98
3197,-11,-1,-5,4,-38,-28,-9,-18,15.985000000000001
3198,0,-10,-6,-15,85,41,8,9,15.99
3199,-5,1,9,-7,-68,-21,-14,-35,15.995000000000001
3200,14,19,5,43,-36,-35,-1,25,16.0
3201,21,-6,-3,-32,85,82,32,46,16.005
3202,8,9,6,-7,-31,-24,3,34,16.01
3203,-4,6,-8,10,30,27,3,-15,16.015
3204,-49,-13,-20,3,-28,-25,-32,-99,16.02
3205,7,9,13,-17,-5,-20,-13,14,16.025
3206,-1,-1,9,24,-46,-26,-2,4,16.03
3207,11,2,1,-32,30,26,10,25,16.035
3208,13,2,-5,-14,83,29,15,25,16.04
3209,21,16,2,20,-101,-41,-8,18,16.045
3210,-1,-26,-31,-35,71,31,11,17,16.05
3211,-15,7,28,18,-17,-28,-13,-41,16.055
3212,-8,-8,-7,-16,-36,-16,-10,-16,16.06
3213,11,0,-6,1,-42,3,5,28,16.065
3214,-5,3,3,39,-2,-16,-2,-10,16.07
3215,5,-7,-20,-11,33,27,4,5,16.075
3216,-12,-13,-10,-14,-3,-2,5,10,16.080000000000002
3217,-7,10,9,15,50,26,0,-31,16.085
3218,16,16,6,9,-69,-24,-1,25,16.09
3219,-12,-23,10,14,0,-10,-6,-12,16.095
3220,5,-3,0,1,43,22,-5,-13,16.1
3221,-17,-28,-4,-17,-51,-47,-9,7,16.105
3222,-19,3,-2,9,59,45,6,-36,16.11
3223,30,21,7,5,-45,-8,2,52,16.115000000000002
3224,-3,-7,-5,4,-92,-32,-6,-26,16.12
3225,-5,7,24,2,70,39,4,-13,16.125
3226,-7,-8,12,-19,16,7,2,-5,16.13
3227,-15,-3,-6,-8,-88,-46,-13,-20,16.135
3228,10,0,14,21,108,58,11,34,16.14
3229,-6,-8,-13,9,-113,-46,-11,-22,16.145
3230,19,-5,-24,-11,71,7,2,29,16.15
3231,14,21,9,6,23,41,9,12,16.155
3232,3,15,6,-12,-25,-19,3,8,16.16
3233,-11,-13,-2,11,-58,-15,-5,-1,16.165
3234,3,3,17,4,24,19,7,7,16.17
3235,-25,-22,-13,-7,8,-32,-22,-58,16.175
3236,-24,-5,-10,-17,3,3,-5,-11,16.18
3237,21,-1,-29,0,33,7,-4,10,16.185
3238,27,19,2,0,-71,-31,2,32,16.19
3239,-27,14,-9,12,-26,-10,-6,-59,16.195
3240,31,2,0,14,63,36,24,42,16.2
3241,-12,-25,1,14,15,18,3,1,16.205000000000002
3242,20,5,4,-33,-66,-14,2,30,16.21
3243,2,2,18,16,108,16,11,33,16.215
3244,-40,18,63,13,-71,-3,-18,-96,16.22
3245,45,24,-90,-9,-50,1,9,67,16.225
3246,15,20,12,23,16,-12,-8,25,16.23
3247,-17,3,-11,0,1,-9,-2,-54,16.235
3248,-15,-55,-35,-28,-48,4,-1,13,16.240000000000002
3249,-7,21,43,39,97,24,-4,-34,16.245
3250,-25,-20,-10,-9,-128,-79,-19,-18,16.25
3251,35,5,-21,0,95,104,33,53,16.255
3252,24,30,18,17,-16,0,8,25,16.26
3253,-3,0,22,-9,-117,-30,3,-4,16.265
3254,-2,0,-81,-24,36,-6,0,11,16.27
3255,-30,-15,53,-7,-76,-46,-24,-56,16.275
3256,17,2,-5,11,-56,-15,-2,28,16.28
3257,-1,1,14,-29,73,34,7,0,16.285
3258,-31,-28,-20,-4,-97,-33,-19,-48,16.29
3259,8,-12,11,-9,39,8,5,37,16.295
3260,34,28,0,6,71,23,18,48,16.3
3261,-16,-5,-7,-7,3,-39,-16,-34,16.305
3262,-9,12,79,11,48,41,1,-28,16.31
3263,11,-3,-16,-17,-87,-32,-7,7,16.315
3264,-7,-2,1,12,-46,-12,-10,-10,16.32
3265,13,1,4,-6,90,20,14,50,16.325
3266,-53,-39,-20,-30,-5,1,-13,-84,16.330000000000002
3267,12,5,-28,-5,-12,10,-3,10,16.335
3268,15,14,0,4,-34,-17,8,30,16.34
3269,-9,-6,6,-6,9,0,-5,-18,16.345
3270,-1,-14,27,-6,74,39,7,-3,16.35
3271,6,3,-41,-2,-56,-25,1,23,16.355
3272,0,-5,5,-2,32,-7,-5,3,16.36
3273,0,19,32,13,-17,13,6,2,16.365000000000002
3274,-5,7,-8,8,-50,-16,-8,-31,16.37
3275,-3,-1,48,19,40,11,4,8,16.375
3276,4,5,-23,-10,30,14,4,6,16.38
3277,-3,-9,29,1,-32,-8,-2,2,16.385
3278,1,-2,4,9,-2,-2,-2,3,16.39
3279,14,4,-17,-4,32,10,5,28,16.395
3280,-14,-7,-44,-22,-33,-16,-14,-17,16.4
3281,-24,-11,-3,-1,4,-5,-10,-52,16.405
3282,-6,-6,-7,4,24,8,-5,-12,16.41
3283,2,-5,-8,-2,-25,-9,2,11,16.415
3284,8,4,18,-5,3,0,1,17,16.42
3285,0,-4,-9,1,4,-2,0,-1,16.425
3286,3,1,-17,4,4,8,0,-5,16.43
3287,-6,-12,5,0,-5,-8,-3,7,16.435
3288,1,0,14,-1,-55,-22,-5,-2,16.44
3289,-9,-9,-18,10,88,27,1,-14,16.445
3290,7,8,6,-3,-10,5,3,15,16.45
3291,4,4,-1,-2,-3,-6,-1,4,16.455000000000002
3292,-7,-7,-2,-1,12,3,0,-13,16.46
3293,-6,-4,-17,-9,-43,-17,-5,-5,16.465
3294,9,8,6,2,-7,-1,0,10,16.47
3295,-4,-2,5,4,10,1,0,-8,16.475
3296,-5,-10,-12,-6,11,4,0,-3,16.48
3297,2,5,11,1,-20,-7,-1,5,16.485
3298,2,3,0,3,10,1,0,3,16.490000000000002
3299,-8,-8,-6,-4,-4,-2,-3,-6,16.495
3300,1,1,10,3,12,3,2,0,16.5
3301,3,0,0,0,-9,-1,0,-3,16.505
3302,1,-1,11,4,0,-2,-1,2,16.51
3303,-5,-2,7,-1,-12,-2,-4,-4,16.515
3304,2,-3,33,-2,12,4,0,3,16.52
3305,-4,-1,20,-3,-7,-1,-2,-8,16.525
3306,-1,-2,6,-3,-9,-2,-2,0,16.53
3307,3,3,13,7,-1,-2,1,5,16.535
3308,-3,-8,2,-3,14,5,1,0,16.54
3309,-1,1,20,-3,-17,-1,0,-1,16.545
3310,-1,0,25,2,5,-1,0,2,16.55
3311,1,-5,18,2,0,-2,0,0,16.555
3312,-1,1,5,1,10,1,0,-4,16.56
3313,-2,-2,-16,-5,-14,-3,0,-2,16.565
3314,1,5,-6,1,-19,-9,-2,-1,16.57
3315,0,-1,-18,-3,27,16,3,1,16.575
3316,0,2,-6,-1,0,1,1,1,16.580000000000002
3317,-4,-4,-24,-5,-2,-3,0,2,16.585
3318,0,3,-6,0,-17,-9,-2,1,16.59
3319,-1,0,2,3,-3,2,-2,-2,16.595
3320,-1,-2,-32,-5,-1,1,-2,0,16.6
3321,-1,3,-20,0,-1,-1,-1,-3,16.605
3322,0,-4,-27,3,1,-3,-4,-2,16.61
3323,-1,-3,-18,-2,-11,-8,-3,0,16.615000000000002
3324,1,4,-12,2,9,2,0,0,16.62
3325,2,-1,-4,3,-6,-2,0,0,16.625
3326,-2,-3,-31,-5,4,4,0,0,16.63
3327,-1,0,-16,-4,-4,-4,-1,1,16.635
3328,1,-3,-9,-1,-5,-2,-2,0,16.64
3329,-2,-1,-5,1,7,1,0,-1,16.645
3330,2,0,-5,0,0,3,-1,-1,16.65
3331,0,0,-3,-1,4,-2,-3,0,16.655
3332,-1,1,0,1,-14,-6,-1,-2,16.66
3333,0,-1,14,3,23,4,-1,-3,16.665
3334,0,1,4,-4,2,4,0,0,16.67
3335,-1,-2,-11,-3,-1,0,-1,0,16.675
3336,-1,-1,-3,3,-15,-12,-5,-2,16.68
3337,-2,-3,7,-6,20,6,1,-1,16.685
3338,0,-1,-3,0,-2,-4,2,-1,16.69
3339,-1,4,12,3,-2,-2,-1,1,16.695
3340,-3,-1,15,2,4,3,0,1,16.7
3341,-3,-4,-24,-8,-16,-8,-4,-3,16.705000000000002
3342,-4,-1,-1,0,2,-1,-3,-3,16.71
3343,-1,-1,1,-1,-4,1,1,-1,16.715
3344,0,0,0,0,2,-3,-1,0,16.72
3345,1,6,16,0,-2,2,-1,0,16.725
3346,-1,-2,0,-1,2,2,1,0,16.73
3347,-1,-1,-4,1,-5,-6,-3,-2,16.735
3348,1,-1,-9,-8,11,10,1,-1,16.740000000000002
3349,-1,1,-4,-5,-12,-2,0,-2,16.745
3350,1,-4,-2,-1,3,0,0,-1,16.75
3351,-4,-3,2,-1,-2,-2,0,1,16.755
3352,-1,1,6,3,-1,-2,-2,-2,16.76
3353,-1,-3,-2,0,-1,0,1,2,16.765
3354,1,2,11,5,3,-1,-2,-1,16.77
3355,-1,-7,-26,-11,-9,-1,0,-2,16.775
3356,-1,2,19,4,7,2,0,-1,16.78
3357,-1,-2,-4,1,-12,-8,-2,-1,16.785
3358,-1,0,5,3,9,4,0,0,16.79
3359,0,2,7,-4,-8,-5,-3,-1,16.795
3360,-1,-1,-3,3,6,2,1,-1,16.8
3361,0,-3,-3,-7,10,9,1,0,16.805
3362,-2,-3,-3,-3,-2,-4,-1,-1,16.81
3363,-2,0,5,3,-2,-1,1,-1,16.815
3364,-1,-3,-11,-4,-9,-6,-1,-2,16.82
3365,0,-1,1,3,-7,-8,-4,-1,16.825
3366,0,3,6,1,7,4,0,1,16.830000000000002
3367,-1,-4,0,-1,3,3,0,-2,16.835
3368,-1,-1,2,0,-2,1,0,-1,16.84
3369,-2,-2,-2,2,-10,-5,-1,-1,16.845
3370,-1,-4,-1,-4,-2,-2,0,-2,16.85
3371,0,2,5,3,3,1,0,1,16.855
3372,0,0,-1,-2,6,4,0,0,16.86
3373,0,0,-3,-2,-1,0,-2,-1,16.865000000000002
3374,-1,-1,0,5,-3,-2,-1,-2,16.87
3375,1,3,8,1,5,-5,-2,0,16.875
3376,-1,-6,-3,-9,10,8,1,0,16.88
3377,-1,-1,-5,0,-3,2,1,1,16.885
3378,-1,0,-1,-2,-6,-1,0,-2,16.89
3379,1,-1,0,3,5,0,-1,-1,16.895
3380,-1,-1,0,1,-3,-5,-1,-2,16.9
3381,1,1,16,4,-1,-4,0,-1,16.905
3382,-1,-3,-12,-3,-3,1,-1,1,16.91
3383,-1,1,7,-2,-1,-2,-2,0,16.915
3384,-1,-3,-7,-3,-4,1,1,0,16.92
3385,-1,1,1,2,-2,0,-2,0,16.925
3386,-2,-5,-3,-1,-6,-5,-2,0,16.93
3387,0,0,-5,-4,-5,0,0,-2,16.935
3388,1,1,2,3,2,0,-1,0,16.94
3389,-1,-1,-1,0,-11,-4,-1,-2,16.945
3390,1,-3,-10,-3,2,-3,-1,-1,16.95
3391,0,-3,-2,-1,-8,-1,-1,0,16.955000000000002
3392,-1,0,7,-3,2,0,-1,0,16.96
3393,0,-3,-9,-2,5,1,1,0,16.965
3394,1,0,0,0,-4,-1,0,1,16.97
3395,-3,-3,-2,1,-1,-1,-1,-1,16.975
3396,0,0,-2,3,0,-3,-3,-1,16.98
3397,-1,-2,-3,-3,-1,-1,-2,0,16.985
3398,-2,0,0,-2,0,1,-1,0,16.990000000000002
3399,0,0,4,4,0,0,0,-1,16.995
3400,-2,-3,-13,-3,1,2,-1,-2,17.0
3401,-1,-2,-5,-1,1,0,-3,-3,17.005
3402,0,0,1,-2,1,2,2,-1,17.01
3403,-1,-1,-3,-3,-5,-1,-1,-1,17.015
3404,0,1,0,0,-6,-2,1,1,17.02
3405,0,-1,1,0,0,0,2,-1,17.025
3406,-3,-1,-1,4,-14,-11,-4,-1,17.03
3407,-3,-3,-9,-9,8,4,1,-1,17.035
3408,2,7,17,-3,-6,-3,-3,-1,17.04
3409,-3,-7,-5,-2,-1,4,0,-1,17.045
3410,1,3,3,-1,-5,-4,-3,-2,17.05
3411,-2,-2,-4,1,6,-2,-2,-2,17.055
3412,-1,0,4,3,-2,-2,-2,-2,17.06
3413,-1,1,-1,-1,-1,-3,0,0,17.065
3414,-1,1,0,-1,-4,0,0,-1,17.07
3415,-2,0,3,1,-8,-4,-1,-2,17.075
3416,-3,-1,0,0,8,2,0,-2,17.080000000000002
3417,0,-4,-14,-3,-5,-1,-1,1,17.085
3418,-1,-1,-1,2,8,0,0,0,17.09
3419,-1,-4,-9,-3,0,3,-1,0,17.095
3420,-2,-3,-4,1,-5,-2,0,-1,17.1
3421,-1,0,2,0,-3,-2,-1,-1,17.105
3422,1,1,4,-1,4,2,0,0,17.11
3423,-2,-1,-1,-1,0,0,2,0,17.115000000000002
3424,1,-4,-4,-2,-7,-2,-3,0,17.12
3425,0,1,5,6,8,-2,-1,-1,17.125
3426,-2,-3,-5,-4,2,3,0,-1,17.13
3427,0,1,5,4,3,0,1,0,17.135
3428,-2,-4,-7,-3,0,-2,-1,0,17.14
3429,0,2,3,-1,-2,0,-1,0,17.145
3430,-1,-1,-1,-2,-3,-1,-1,0,17.150000000000002
3431,0,-1,-2,-6,1,4,-2,0,17.155
3432,-2,-2,3,3,0,0,1,-1,17.16
3433,-1,1,-1,-3,-1,-3,0,-2,17.165
3434,-1,0,1,0,2,0,-1,-2,17.17
3435,1,-1,1,1,-7,-4,-2,0,17.175
3436,2,0,-3,1,5,0,-2,-1,17.18
3437,-1,0,-1,-4,-7,0,-2,-1,17.185
3438,-2,-3,-4,-5,-7,-3,0,-1,17.19
3439,0,0,-3,3,8,5,1,1,17.195
3440,-2,0,-1,-3,1,-3,-1,-1,17.2
3441,-1,-4,-2,2,3,1,0,-1,17.205000000000002
3442,-2,2,2,-1,-9,-3,-2,0,17.21
3443,-1,-2,-2,-1,-4,-3,-4,-1,17.215
3444,-1,-1,-2,0,-2,0,1,0,17.22
3445,-1,0,1,0,-4,-2,-1,-2,17.225
3446,0,1,9,2,2,0,1,0,17.23
3447,0,0,-3,-3,-4,-2,1,-1,17.235
3448,-1,2,0,2,2,-4,-2,-3,17.240000000000002
3449,0,-2,-6,-6,-1,8,3,0,17.245
3450,0,-3,-7,-4,4,3,-1,1,17.25
3451,0,-1,0,6,-2,-10,-3,-4,17.255
3452,-1,1,0,-8,-5,6,2,0,17.26
3453,-1,0,1,-1,-5,-5,-2,0,17.265
3454,-2,-2,-4,2,11,-1,-1,-1,17.27
3455,-2,-1,0,-6,-10,-1,-1,0,17.275000000000002
3456,-2,-4,-4,0,-3,-4,-2,-1,17.28
3457,-2,-2,-3,-2,14,3,0,-1,17.285
3458,0,0,0,-2,-5,2,0,-1,17.29
3459,-1,4,7,1,-7,-10,-2,0,17.295
3460,0,-5,-16,-5,1,6,0,1,17.3
3461,0,2,0,1,-13,-9,-3,0,17.305
3462,-2,-1,-3,2,10,7,1,-2,17.31
3463,-2,-1,0,0,4,1,-1,-2,17.315
3464,-1,0,1,-4,-9,0,-1,-1,17.32
3465,-2,-2,0,1,1,-2,-3,1,17.325
3466,0,0,-5,-4,-2,-2,-1,-2,17.330000000000002
3467,-1,0,6,0,-1,-1,-1,-2,17.335
3468,-1,-5,-10,-2,2,0,-1,-1,17.34
3469,0,-1,0,-1,2,-1,0,-1,17.345
3470,-1,1,5,0,-6,-1,1,0,17.35
3471,0,-2,-4,-2,7,5,0,1,17.355
3472,0,0,3,4,-2,-4,-2,-2,17.36
3473,-1,-2,0,-1,-1,1,0,-1,17.365000000000002
3474,-1,-1,-4,1,-3,-2,0,0,17.37
3475,-1,-1,-3,4,-5,-4,-2,-2,17.375
