slno,emg1,emg2,emg3,emg4,emg5,emg6,emg7,emg8,Time
0,1,1,6,9,-2,-4,-3,3,0.0
1,-2,-6,-19,-6,2,1,1,4,0.005
2,-2,-3,-3,-10,-3,-3,-4,4,0.01
3,-1,-1,-8,-10,0,4,3,4,0.015
4,-2,-2,-2,-2,-1,1,-1,2,0.02
5,1,0,5,0,-4,-2,-3,0,0.025
6,-1,0,3,7,4,0,1,2,0.03
7,-1,-3,-2,-3,0,3,1,0,0.035
8,-3,-1,-3,-8,1,-2,0,0,0.04
9,0,2,-1,14,1,2,-1,1,0.045
10,-3,0,-5,-6,-3,0,-1,1,0.05
11,-1,3,7,9,-1,-3,-3,-3,0.055
12,-1,0,0,-5,3,1,1,-4,0.06
13,-1,-2,-12,-2,-1,-4,-2,-4,0.065
14,2,2,8,1,-4,0,0,-3,0.07
15,-2,-6,-19,-1,-3,0,-1,0,0.075
16,1,4,31,12,1,0,2,1,0.08
17,-1,-2,-5,-5,-2,-1,-1,0,0.085
18,1,2,-4,-2,-7,-5,-3,2,0.09
19,-1,-2,-3,-1,3,-4,1,1,0.095
20,-1,-4,-7,-14,-9,-1,-3,2,0.1
21,-4,-7,-19,-13,1,0,0,1,0.105
22,0,2,15,1,1,1,1,1,0.11
23,0,-1,2,-1,-7,-5,-2,-2,0.115
24,-2,-4,5,2,-2,-2,-1,-1,0.12
25,-2,-4,-14,-5,7,3,0,0,0.125
26,-1,-5,15,7,0,-1,-2,-2,0.13
27,0,-5,-23,-8,-3,-1,0,-3,0.135
28,2,1,9,-3,0,-1,-2,-1,0.14
29,-2,-3,7,10,-4,-4,-3,-3,0.145
30,-2,0,-6,-3,1,0,0,1,0.15
31,-1,3,18,14,1,0,-3,-3,0.155
32,-3,-4,-29,-14,2,1,-2,-2,0.16
33,1,1,-2,-5,-2,-2,0,-1,0.165
34,1,4,0,1,1,0,0,0,0.17
35,0,0,12,5,-1,1,0,1,0.17500000000000002
36,-2,1,-1,11,-7,-3,-2,0,0.18
37,-2,0,0,-10,-3,-1,-1,-2,0.185
38,-5,0,-5,-10,-10,-3,-3,-2,0.19
39,-1,2,2,10,3,-2,-2,-1,0.195
40,-1,2,-7,-22,-4,-2,6,-1,0.2
41,1,2,6,6,-1,1,-2,-1,0.20500000000000002
42,1,-1,-8,-10,-2,-2,0,-1,0.21
43,0,2,-2,-3,1,-1,0,0,0.215
44,0,0,-2,0,3,-2,-3,-1,0.22
45,-2,1,6,5,4,2,1,-2,0.225
46,-1,-1,-5,0,-2,-3,-1,0,0.23
47,0,-2,2,-1,-3,-1,1,0,0.23500000000000001
48,0,0,6,6,-1,-2,0,0,0.24
49,2,-1,-8,-8,-3,0,1,3,0.245
50,-5,-1,5,10,-2,0,-1,-3,0.25
51,1,-4,-11,-2,4,2,0,-2,0.255
52,2,-3,5,-1,-5,0,-1,-2,0.26
53,-4,-4,4,1,-4,-4,-3,-2,0.265
54,1,0,1,2,3,-1,-1,1,0.27
55,-3,-6,-4,-14,-2,-3,-3,0,0.275
56,1,-2,-2,4,4,2,3,0,0.28
57,2,2,1,7,-1,-1,0,-1,0.28500000000000003
58,1,0,-1,-10,0,0,0,-2,0.29
59,-2,-1,0,-7,-6,-4,-3,-2,0.295
60,-2,1,9,15,14,5,1,1,0.3
61,-4,-1,-11,-21,-10,-4,-7,-3,0.305
62,-1,1,3,10,4,-1,1,0,0.31
63,0,2,-2,1,-5,-4,3,1,0.315
64,3,3,1,1,1,2,-2,0,0.32
65,8,5,5,14,4,0,-7,-3,0.325
66,-12,0,-3,-10,-3,1,2,-4,0.33
67,-4,-3,-4,-8,-1,2,6,-1,0.335
68,-8,-2,-4,-4,-7,-5,0,-1,0.34
69,6,3,-1,-3,0,3,-5,-1,0.34500000000000003
70,7,1,-3,-2,0,2,-1,-2,0.35000000000000003
71,0,0,2,5,-1,-6,7,3,0.355
72,2,-2,2,0,-3,-1,2,4,0.36
73,-5,-3,-2,-1,-1,-4,-2,6,0.365
74,3,-1,-2,0,2,-1,-5,2,0.37
75,-3,0,2,11,-2,0,-9,-4,0.375
76,-3,-6,-1,-2,-2,-1,-2,-5,0.38
77,-2,-5,1,5,1,3,4,-4,0.385
78,-2,-6,-3,-14,-2,0,-1,-4,0.39
79,0,-5,-7,-7,0,1,-1,-1,0.395
80,0,2,2,1,-4,-4,-12,-5,0.4
81,0,-2,-1,0,2,-1,6,-1,0.405
82,-4,-2,-1,3,0,-2,3,0,0.41000000000000003
83,1,2,3,2,0,0,-2,0,0.41500000000000004
84,0,0,-3,-4,-3,1,0,1,0.42
85,-6,-5,-6,-11,-2,-3,-1,-1,0.425
86,4,1,0,6,-4,-5,-3,-1,0.43
87,-3,0,2,2,-4,2,-5,-2,0.435
88,-3,-2,-1,2,1,1,-1,-5,0.44
89,1,2,-1,-2,2,1,4,2,0.445
90,2,-2,-1,-3,-2,0,-4,0,0.45
91,1,-3,-4,-2,-2,-4,1,1,0.455
92,-6,-3,-2,-5,-1,-2,8,1,0.46
93,2,1,2,4,-2,-2,0,0,0.465
94,-3,-1,0,1,0,-1,0,2,0.47000000000000003
95,3,2,-1,-2,0,2,-3,-2,0.47500000000000003
96,1,2,-1,-2,-2,-1,-6,-2,0.48
97,-3,-2,-2,-3,-2,-2,1,-3,0.485
98,-2,-2,-1,4,2,1,-2,-2,0.49
99,-2,-3,-2,-4,-1,-1,-3,-2,0.495
100,-2,1,-2,2,2,0,2,2,0.5
101,-2,-4,-1,4,1,-4,-4,-4,0.505
102,3,1,1,1,2,-1,-1,-1,0.51
103,-1,-3,-3,-6,-4,-2,0,-1,0.515
104,5,1,-1,2,4,2,-1,-1,0.52
105,1,1,-1,-2,-4,-2,-6,-2,0.525
106,-13,-10,-1,0,-4,-3,2,-2,0.53
107,-3,1,-2,-1,1,0,3,0,0.535
108,4,3,1,3,3,1,-2,2,0.54
109,-1,-1,-2,-3,-2,-5,-5,1,0.545
110,3,4,2,1,-2,-1,-2,-3,0.55
111,-2,2,-1,-2,4,3,1,0,0.555
112,-4,-4,-4,-8,-2,-3,4,0,0.56
113,-3,1,-1,3,-1,1,5,1,0.5650000000000001
114,2,2,-2,-4,-2,-1,-9,-5,0.5700000000000001
115,1,-1,1,1,-1,-2,-6,-2,0.5750000000000001
116,-1,0,-1,-4,-3,-4,0,4,0.58
117,-2,-3,-1,-4,-1,0,6,3,0.585
118,2,0,-2,-3,1,1,8,1,0.59
119,1,-1,0,3,2,-1,-5,-4,0.595
120,-2,-1,-2,-5,-6,-3,-6,-6,0.6
121,0,0,-1,-1,-2,-2,-2,0,0.605
122,-1,-2,-2,-2,-1,0,-4,-1,0.61
123,2,0,0,-2,-2,1,1,0,0.615
124,1,1,-1,-2,-4,-1,-2,-1,0.62
125,-2,-1,0,-3,0,2,-2,-1,0.625
126,1,1,1,0,-3,-3,4,1,0.63
127,-9,-3,-2,-5,-1,-4,2,-1,0.635
128,1,-1,1,14,4,0,-1,-1,0.64
129,-3,-1,-4,-3,-1,1,0,-2,0.645
130,2,0,0,2,1,2,-1,1,0.65
131,-2,-2,-3,-8,-6,-3,-2,-1,0.655
132,-1,-3,-3,-3,-4,-1,-2,-1,0.66
133,0,-2,0,2,3,0,-1,-3,0.665
134,0,1,-3,-6,-2,-1,-1,0,0.67
135,4,1,2,6,4,1,3,1,0.675
136,-9,-7,-5,-6,-2,-1,0,-1,0.68
137,-1,-4,2,-5,-9,-1,-7,-6,0.685
138,-2,-1,-1,-1,-1,-1,4,1,0.6900000000000001
139,3,0,2,2,1,3,8,5,0.6950000000000001
140,0,0,2,4,4,-2,-1,1,0.7000000000000001
141,-2,1,-2,-4,-1,-5,-3,0,0.705
142,-2,-2,2,7,-1,-2,-4,-2,0.71
143,0,1,-1,4,3,2,0,-2,0.715
144,0,-2,0,-5,-2,0,-5,-1,0.72
145,0,-3,-2,-1,2,2,3,3,0.725
146,0,1,-2,-8,-3,-1,-5,-2,0.73
147,-2,-3,0,6,-4,-3,1,-1,0.735
148,-2,-1,1,5,3,1,2,0,0.74
149,2,1,-4,-4,-1,-2,-1,0,0.745
150,-4,-1,-3,-2,-1,-1,1,1,0.75
151,0,-4,-2,-5,-2,-1,-4,-2,0.755
152,2,-1,0,-1,-4,-1,-3,-2,0.76
153,-1,-2,1,2,-1,-1,2,-1,0.765
154,1,1,-4,-4,-6,-2,-2,0,0.77
155,-1,-1,-1,0,4,-1,-2,-1,0.775
156,-2,-2,-1,-1,-1,1,2,0,0.78
157,8,1,0,-2,2,2,1,-1,0.785
158,-5,-4,-4,2,0,-1,0,-2,0.79
159,-5,-1,3,1,6,2,-12,-4,0.795
160,-1,-2,0,4,-1,0,10,1,0.8
161,-5,-2,-3,-9,-5,-1,7,1,0.805
162,7,2,1,6,-2,-1,2,1,0.81
163,0,2,1,1,-3,-2,-6,0,0.8150000000000001
164,0,2,-4,-8,2,-2,-5,-2,0.8200000000000001
165,-1,3,5,4,-4,-1,-1,-3,0.8250000000000001
166,-7,-7,-5,-9,-1,0,3,-3,0.8300000000000001
167,-1,-1,-2,-1,-1,-1,1,-2,0.835
168,0,0,1,8,0,-4,-2,-1,0.84
169,-1,-1,0,3,0,-2,-3,0,0.845
170,1,0,-1,-3,0,-2,-3,0,0.85
171,1,1,0,0,-2,0,1,-1,0.855
172,2,0,-3,-9,-8,-2,-1,0,0.86
173,-1,1,0,2,8,2,-2,-1,0.865
174,-8,-4,0,8,3,0,-1,0,0.87
175,0,-1,-6,-5,-3,-4,1,-3,0.875
176,0,0,2,2,-2,-1,0,0,0.88
177,0,-1,0,4,0,2,-1,-1,0.885
178,2,0,0,-2,1,-1,-2,-1,0.89
179,-2,-1,-4,-7,-5,0,-4,-1,0.895
180,-1,-2,-1,0,0,1,2,-3,0.9
181,-3,-2,0,1,-1,-2,5,1,0.905
182,1,-1,2,2,4,0,2,-3,0.91
183,1,-1,2,-3,-1,-2,-1,3,0.915
184,2,0,-1,3,1,1,-4,0,0.92
185,-9,-4,3,4,-2,-2,-8,-4,0.925
186,5,2,-4,-6,-3,-1,6,0,0.93
187,1,-1,-1,0,0,2,4,-2,0.935
188,0,-1,-2,-2,1,-2,-6,-1,0.9400000000000001
189,0,1,-3,-7,-5,0,7,1,0.9450000000000001
190,-3,0,-1,5,2,-4,-8,-5,0.9500000000000001
191,-3,-1,-4,-2,-5,-4,-1,-3,0.9550000000000001
192,-2,0,0,4,3,2,-2,-3,0.96
193,-2,-1,-3,-5,-3,-4,1,0,0.965
194,-1,1,1,0,1,0,-2,1,0.97
195,-6,-3,-3,0,-1,-3,-2,0,0.975
196,-1,-1,-3,-11,-4,-2,1,0,0.98
197,1,0,2,1,-4,-2,-4,0,0.985
198,1,2,3,4,3,0,-1,-1,0.99
199,0,0,1,2,0,0,1,-1,0.995
200,-1,3,-1,-7,-7,1,1,-2,1.0
201,-1,0,2,4,2,-1,-13,-4,1.0050000000000001
202,0,-2,-1,-4,-3,3,7,2,1.01
203,0,2,0,-2,-1,2,4,2,1.0150000000000001
204,1,0,1,-2,-3,-4,-1,-2,1.02
205,-4,-3,-3,2,3,1,4,1,1.025
206,3,-3,-2,-3,-4,-1,-5,0,1.03
207,2,-1,-2,-4,-1,-3,-4,2,1.035
208,1,1,-1,-4,0,-1,-3,-1,1.04
209,0,-2,-2,-3,-3,1,0,-1,1.045
210,-1,-1,1,9,1,3,-2,-3,1.05
211,-3,-3,-2,-3,-4,-4,1,-3,1.055
212,-2,-1,-5,2,0,-2,-1,-1,1.06
213,0,-1,3,0,3,2,-2,-2,1.065
214,-5,0,-3,-6,-1,-1,-1,0,1.07
215,3,-2,0,-1,3,1,-5,0,1.075
216,-2,-1,0,2,-1,-2,0,-1,1.08
217,-2,0,-4,-5,-2,-3,-4,-2,1.085
218,0,-2,2,3,3,0,4,0,1.09
219,1,2,1,1,-1,0,-1,1,1.095
220,-3,0,-1,-9,-1,-1,-1,0,1.1
221,3,-1,-1,3,-2,0,4,3,1.105
222,-4,-5,-6,-5,-3,-6,-15,-5,1.11
223,-2,-3,-1,-5,-3,1,5,-1,1.115
224,-2,-4,-2,3,0,1,5,1,1.12
225,2,6,1,-1,-2,-1,0,-2,1.125
226,0,1,-1,0,-3,-4,0,-1,1.1300000000000001
227,-1,-1,-2,3,1,-2,-5,-1,1.135
228,0,-1,0,-1,-2,0,-1,-1,1.1400000000000001
229,-1,-2,0,0,-2,0,3,-1,1.145
230,-2,-3,-4,-13,-5,-1,-1,-3,1.1500000000000001
231,0,3,1,12,3,-1,-1,-1,1.155
232,1,0,1,-3,-2,1,0,-2,1.16
233,-5,-4,-3,2,2,-1,-1,-2,1.165
234,-2,0,0,2,0,-1,-4,-1,1.17
235,-2,-2,-2,-14,-11,1,2,0,1.175
236,-1,-1,-2,2,8,1,4,2,1.18
237,1,2,-1,2,-2,-1,-1,1,1.185
238,5,1,0,-1,-1,2,1,-1,1.19
239,-2,-1,0,-2,-1,2,1,-2,1.195
240,-3,-3,-4,-4,-5,-4,-8,0,1.2
241,0,-2,2,4,0,-1,1,0,1.205
242,-1,0,2,0,-2,1,1,0,1.21
243,-5,-2,-5,-3,0,1,-5,-5,1.215
244,4,1,-1,0,-4,-1,6,2,1.22
245,1,0,-3,-2,-4,-3,4,2,1.225
246,-2,0,-2,-4,-7,-1,0,1,1.23
247,-2,0,1,6,8,2,0,-2,1.235
248,-3,-2,2,0,-1,0,-4,-3,1.24
249,-1,0,-3,-6,-2,-2,-3,0,1.245
250,0,0,0,-1,-1,1,0,-2,1.25
251,1,-1,-1,-3,0,0,-2,1,1.2550000000000001
252,-2,-3,-1,0,2,-3,-2,-3,1.26
253,1,1,-1,-1,0,-1,1,-3,1.2650000000000001
254,1,2,-1,-3,1,-2,-4,-2,1.27
255,0,0,0,4,0,-5,2,0,1.2750000000000001
256,0,-2,-2,-5,-2,1,0,-1,1.28
257,-5,-2,-2,-5,1,-2,-7,-2,1.285
258,-4,-2,-3,1,4,1,0,1,1.29
259,0,-1,2,2,-3,-1,-1,1,1.295
260,-2,2,-1,-1,-6,-1,-1,1,1.3
261,2,0,-2,5,7,2,-2,1,1.305
262,3,3,-1,-9,-4,1,1,2,1.31
263,-4,1,0,6,0,-2,6,-1,1.315
264,-5,-7,-3,-6,-5,-3,-7,-3,1.32
265,-2,-1,-2,6,-2,-4,-4,-2,1.325
266,1,0,3,10,6,0,1,0,1.33
267,2,0,-1,-5,-2,-2,-1,0,1.335
268,-1,0,2,4,1,2,0,0,1.34
269,-1,-3,-3,-13,-7,-1,-2,-1,1.345
270,0,-1,-1,4,7,-2,-8,-1,1.35
271,-2,-2,-2,-8,-4,-3,2,-1,1.355
272,2,0,4,11,5,0,4,2,1.36
273,2,-2,-1,-4,-4,-1,-1,-1,1.365
274,-4,-5,-3,-4,-3,-2,2,-1,1.37
275,0,0,-2,-1,0,-3,-10,-1,1.375
276,-2,2,-1,-4,-3,-1,0,-2,1.3800000000000001
277,0,2,-3,-9,-6,-2,3,0,1.385
278,0,4,2,9,1,0,1,0,1.3900000000000001
279,0,1,-1,0,1,-2,-7,-2,1.395
280,-1,1,-3,-8,-7,-2,0,-3,1.4000000000000001
281,-2,1,1,11,6,0,-1,-1,1.405
282,-1,0,0,1,-2,1,-2,0,1.41
283,0,3,-7,-8,-4,-1,2,0,1.415
284,1,4,5,17,8,2,0,-1,1.42
285,-2,23,-6,-11,-5,-2,-2,-3,1.425
286,-2,69,-1,-4,-7,-2,1,0,1.43
287,2,53,5,13,4,1,1,0,1.435
288,-1,23,-2,-4,1,0,-3,1,1.44
289,-1,-14,0,2,1,1,1,-1,1.445
290,-1,-35,-3,-4,-2,-2,-1,0,1.45
291,-1,-33,-3,-6,-3,0,0,0,1.455
292,0,-28,1,3,5,0,-3,0,1.46
293,-2,-30,1,0,-1,0,-6,-1,1.465
294,-2,-26,-3,-5,-3,-2,3,-2,1.47
295,-1,-22,-2,-11,-5,2,-1,-1,1.475
296,1,-15,1,-3,-4,-2,-1,-1,1.48
297,-1,-6,1,7,3,0,0,0,1.485
298,-1,-6,-1,-6,-6,-3,-4,-2,1.49
299,1,-6,7,16,9,4,0,0,1.495
300,1,-2,-4,1,5,-1,0,-1,1.5
301,-2,-1,0,-18,-10,-2,0,-1,1.5050000000000001
302,-1,-8,4,10,4,0,-2,-2,1.51
303,-4,-5,-4,-9,-3,-2,-13,-6,1.5150000000000001
304,-4,0,-4,-6,-4,1,5,0,1.52
305,6,3,2,8,3,-4,6,3,1.5250000000000001
306,4,1,-3,-8,-1,0,3,3,1.53
307,-1,1,0,-5,-5,0,1,0,1.5350000000000001
308,-2,4,0,-5,-2,1,-7,-4,1.54
309,-6,-2,-4,3,2,1,-4,-2,1.545
310,1,-2,-1,2,-1,-3,-2,1,1.55
311,0,1,2,-1,-4,-2,6,-1,1.555
312,2,-1,-1,1,1,1,0,-1,1.56
313,-6,-1,-1,-2,-1,-1,-3,-3,1.565
314,3,-3,-5,-12,-7,-3,-7,-3,1.57
315,-3,-1,0,19,13,2,2,1,1.575
316,1,0,3,5,5,1,1,1,1.58
317,13,6,2,-1,-1,2,6,3,1.585
318,-13,-6,-1,2,1,0,-1,-2,1.59
319,0,-7,-8,-10,-4,-4,-1,0,1.595
320,-2,-1,-1,-4,-7,-4,-1,-2,1.6
321,-2,-2,-3,-2,-1,-2,2,-1,1.605
322,2,3,3,-4,4,0,-2,0,1.61
323,0,0,-2,-2,-2,-1,-9,-7,1.615
324,-7,-1,2,12,5,0,-2,-2,1.62
325,6,5,1,-1,-6,-2,11,7,1.625
326,1,-4,-3,-3,-6,-1,5,2,1.6300000000000001
327,-1,2,2,2,3,1,4,3,1.635
328,0,2,-7,-23,-7,-4,-8,-3,1.6400000000000001
329,-6,-2,1,18,8,2,-9,-8,1.645
330,-1,0,-4,-4,-5,0,2,-3,1.6500000000000001
331,-3,-2,4,9,-2,0,-4,-3,1.655
332,2,-1,-4,-5,-7,-6,2,1,1.6600000000000001
333,-1,-1,-2,-6,0,1,1,0,1.665
334,-1,1,-1,4,1,-2,-1,1,1.67
335,1,2,-1,-5,-3,-1,0,-1,1.675
336,-1,-1,-1,-6,-2,1,4,2,1.68
337,-3,-2,1,4,-2,-2,-5,-3,1.685
338,1,0,0,-1,-1,-2,-4,-2,1.69
339,-1,2,-3,-7,0,-2,1,-1,1.695
340,1,0,1,5,1,0,-2,-1,1.7
341,-3,-1,-6,-10,-1,0,-3,-1,1.705
342,-2,-3,1,2,0,0,1,-1,1.71
343,-1,1,-3,-4,-3,-3,-1,0,1.715
344,-3,-3,-2,4,-1,1,-14,-6,1.72
345,1,0,5,-3,0,0,12,3,1.725
346,1,0,-1,-2,-2,-3,5,3,1.73
347,2,-1,-1,4,-2,0,1,0,1.735
348,-1,-1,-4,-4,-4,-6,-6,-5,1.74
349,-6,0,-1,2,7,4,-11,-7,1.745
350,2,1,1,5,1,2,3,1,1.75
351,1,-1,-3,-6,-3,-2,1,4,1.7550000000000001
352,0,0,-1,-1,-2,1,3,0,1.76
353,-2,-1,-2,-2,-4,-4,-4,-2,1.7650000000000001
354,-1,2,2,0,0,0,0,-1,1.77
355,0,0,-1,-1,-1,-1,-1,-1,1.7750000000000001
356,1,-2,-3,-10,-2,0,2,1,1.78
357,1,0,1,11,2,1,1,0,1.7850000000000001
358,-3,1,-1,-8,-4,0,-2,-1,1.79
359,-2,-2,-2,-4,-4,-3,-4,-2,1.795
360,0,1,-1,2,0,-2,2,-1,1.8
361,-1,-1,-3,-9,-5,-2,-3,0,1.805
362,0,-1,-5,-9,-3,0,-3,-3,1.81
363,-1,-1,2,12,4,1,2,1,1.815
364,-1,1,0,-4,-3,0,2,0,1.82
365,2,-1,-2,-3,-3,-4,-1,-1,1.825
366,-3,0,-2,4,3,-1,-1,-2,1.83
367,-2,-2,-2,-5,-3,0,0,-2,1.835
368,1,1,-1,4,5,1,-1,0,1.84
369,0,-1,-2,-3,-4,-1,7,-1,1.845
370,-3,-3,3,0,-1,0,-11,-3,1.85
371,3,-1,0,-6,1,0,2,-1,1.855
372,0,-2,0,4,2,-3,-9,-4,1.86
373,0,1,1,-2,-1,-1,4,0,1.865
374,1,-1,-2,2,1,1,7,3,1.87
375,0,2,2,6,1,-2,-4,-2,1.875
376,-1,-1,-4,-3,1,1,3,0,1.8800000000000001
377,-1,-2,-1,-3,-3,-2,-7,-2,1.885
378,-2,-2,1,8,6,1,-1,-2,1.8900000000000001
379,-1,-2,-2,-3,-4,-1,-1,1,1.895
380,-1,-2,-1,-4,-3,-1,0,1,1.9000000000000001
381,-3,-1,-3,-5,-5,-4,-6,-1,1.905
382,-1,-1,0,1,0,0,3,1,1.9100000000000001
383,-1,0,4,11,7,1,1,-1,1.915
384,0,0,-1,0,-2,-1,1,1,1.92
385,1,0,0,-3,0,-1,-2,1,1.925
386,-4,-2,-1,0,1,0,1,-3,1.93
387,0,2,-4,-9,-4,1,1,2,1.935
388,2,1,1,2,-2,-5,-3,0,1.94
389,-1,-1,1,-3,-1,2,-8,-1,1.945
390,0,-1,-1,-2,-2,-5,1,-1,1.95
391,1,-2,-2,-3,-2,-3,2,0,1.955
392,-2,-2,0,3,-4,0,5,-2,1.96
393,-1,-1,-1,-3,0,1,-2,-1,1.965
394,-1,-2,0,7,-1,1,1,0,1.97
395,-2,-3,-3,-6,-2,-1,0,-2,1.975
396,2,0,-2,0,3,1,1,0,1.98
397,-1,2,-1,-2,-2,0,0,-2,1.985
398,-1,-1,-1,2,-3,0,-4,-3,1.99
399,1,0,-2,-10,2,-1,-3,0,1.995
400,-3,-2,-1,1,0,1,8,1,2.0
401,-2,0,0,0,-1,0,-7,-2,2.005
402,2,1,0,-1,1,-2,-1,-1,2.0100000000000002
403,-3,-4,-2,-6,-4,-1,-2,-2,2.015
404,-2,-3,-1,-3,-3,-3,-11,-4,2.02
405,0,-2,-2,-6,-1,-1,5,0,2.025
406,-2,1,0,11,0,-3,0,-1,2.0300000000000002
407,0,0,2,7,1,-2,-6,-3,2.035
408,-1,0,-2,-7,-2,0,5,1,2.04
409,1,-1,-1,12,11,4,13,6,2.045
410,0,-2,-3,-6,-3,1,-5,0,2.05
411,-3,-1,-1,-3,-3,-3,0,-1,2.055
412,1,1,1,0,-2,-2,-6,-1,2.06
413,-3,-1,0,-2,-3,-4,-8,-6,2.065
414,2,0,-1,-5,-2,0,4,0,2.07
415,2,2,0,1,1,3,-4,0,2.075
416,-5,-1,-1,-3,-1,-1,-1,-2,2.08
417,-5,-4,-4,-8,-6,-1,-1,1,2.085
418,-1,-2,1,-2,0,-2,1,0,2.09
419,1,5,0,2,-2,-2,-3,1,2.095
420,3,-2,1,2,2,1,-4,-3,2.1
421,-3,-1,-2,-8,-7,-1,2,-2,2.105
422,-2,-1,-2,0,3,-1,0,2,2.11
423,3,0,-1,-1,-1,-3,-1,-1,2.115
424,-1,1,-1,2,-1,-2,-4,-2,2.12
425,-3,-1,-1,-1,-1,-1,1,0,2.125
426,1,-4,-2,-10,-6,-3,-4,-2,2.13
427,-1,-4,-1,5,3,2,4,0,2.1350000000000002
428,-1,-1,-2,-15,-4,-2,0,1,2.14
429,2,0,2,7,-1,-1,-1,-2,2.145
430,-2,1,0,-2,-1,1,-6,0,2.15
431,-1,-4,0,8,5,1,2,-1,2.1550000000000002
432,-2,-1,-1,-8,-3,1,4,-2,2.16
433,1,-1,-2,-3,-2,0,1,2,2.165
434,0,3,0,2,0,-2,-3,-1,2.17
435,-2,-1,-2,-4,-5,-2,-3,-2,2.1750000000000003
436,1,-2,-2,2,1,0,2,0,2.18
437,1,-2,0,2,0,-1,-3,-1,2.185
438,-1,0,0,1,0,0,3,-1,2.19
439,-5,-2,-2,-5,-5,-2,-3,-3,2.195
440,-3,-3,-2,2,0,0,10,4,2.2
441,1,0,0,-4,-5,-1,-2,1,2.205
442,-1,0,1,-1,2,-1,-2,-2,2.21
443,-2,-2,-3,-1,-2,2,-6,1,2.215
444,-1,-3,-3,-1,-1,-6,-1,-1,2.22
445,0,5,-2,-2,-3,-3,-3,-3,2.225
446,-1,-1,0,3,6,1,-5,-3,2.23
447,-1,0,1,-3,-2,0,4,0,2.235
448,-1,0,1,5,2,0,-6,-2,2.24
449,0,-2,-1,-3,-1,0,-1,-2,2.245
450,0,-2,-1,-5,-3,0,3,1,2.25
451,0,1,-1,-4,1,-1,4,2,2.255
452,-2,-1,0,1,-2,-3,-9,-5,2.2600000000000002
453,-2,-1,1,10,1,-1,0,-1,2.265
454,-1,-5,-2,-14,-2,2,7,1,2.27
455,-1,-11,1,9,2,1,0,0,2.275
456,-2,-6,-2,-6,-7,-1,0,-2,2.2800000000000002
457,0,-4,-3,1,6,-1,-4,-1,2.285
458,-2,1,0,7,-3,0,-2,-4,2.29
459,-2,1,-3,-3,-4,-3,4,0,2.295
460,1,6,2,2,3,3,1,2,2.3000000000000003
461,-3,1,-1,-2,-2,2,-1,-2,2.305
462,-1,1,-1,-1,-2,-3,1,1,2.31
463,2,4,-3,-9,-3,-2,-2,-4,2.315
464,1,1,1,8,0,0,-3,2,2.32
465,-1,-2,-2,-1,1,-1,6,0,2.325
466,-2,-1,-3,-3,1,0,-5,-3,2.33
467,-2,2,-1,-2,-1,-2,-3,-1,2.335
468,-3,-1,-3,-1,-1,-2,1,0,2.34
469,-1,0,0,1,-1,-1,-2,-1,2.345
470,1,0,-2,0,-4,-2,-5,-5,2.35
471,-4,-3,-4,-7,-3,0,-8,-5,2.355
472,-1,1,-1,-2,0,1,11,4,2.36
473,0,0,2,3,0,-1,0,2,2.365
474,0,1,-1,-3,-2,-1,-5,0,2.37
475,0,-2,1,1,-3,-1,-3,-1,2.375
476,-2,1,-1,-1,2,0,-3,-2,2.38
477,-1,-2,-1,-2,-2,-1,2,0,2.3850000000000002
478,-2,-3,-3,-7,-2,-1,-1,0,2.39
479,0,-1,1,1,0,-2,-1,1,2.395
480,-3,-2,0,0,0,0,-6,-4,2.4
481,0,-1,-3,1,1,0,5,1,2.4050000000000002
482,-1,-1,1,2,1,2,7,2,2.41
483,-1,0,-1,-2,0,-1,-5,3,2.415
484,1,0,0,-1,-3,-1,2,2,2.42
485,0,0,-1,0,0,2,-5,1,2.4250000000000003
486,-1,-2,-2,0,-2,-1,-9,-3,2.43
487,-2,-3,-2,-14,-5,-2,13,-1,2.435
488,-1,0,1,3,2,2,-4,-1,2.44
489,0,0,-1,-3,-2,-4,-7,-5,2.445
490,0,-1,-3,-6,-6,-2,-4,-4,2.45
491,1,0,3,10,4,2,7,2,2.455
492,2,0,1,4,-1,-2,1,-1,2.46
493,-3,-2,-1,-4,-3,-1,3,-2,2.465
494,-3,-5,-1,0,3,3,0,-1,2.47
495,-2,-5,-2,-2,-1,-3,-5,-1,2.475
496,-2,4,0,-5,-3,0,1,-3,2.48
497,-1,2,0,4,2,0,-3,-2,2.485
498,-4,0,-2,-7,-4,0,-5,-4,2.49
499,-1,-2,-2,2,0,1,2,-1,2.495
500,1,-1,2,4,0,-6,1,1,2.5
501,-2,-1,0,-12,-6,-1,-3,1,2.505
502,-2,-1,-1,0,1,0,2,1,2.5100000000000002
503,-2,1,-2,0,0,-1,-4,-1,2.515
504,-2,-4,-2,0,2,-1,-4,-4,2.52
505,-1,-1,-1,-2,-1,0,-1,-2,2.525
506,-1,0,2,2,0,-3,3,1,2.5300000000000002
507,-2,-1,0,-1,0,0,3,-2,2.535
508,0,-3,-4,-3,-1,-5,-8,-3,2.54
509,-1,0,-2,-11,-5,-1,4,2,2.545
510,3,2,3,14,5,2,0,2,2.5500000000000003
511,-3,-1,-1,-4,-3,0,-1,-1,2.555
512,-2,-2,1,-4,-3,1,-3,-3,2.56
513,-4,-3,-4,-4,-1,-1,-2,-4,2.565
514,1,1,0,-10,-1,0,-3,-1,2.57
515,3,2,2,13,4,0,-3,3,2.575
516,-2,-1,-2,-3,-1,-2,9,2,2.58
517,1,0,-2,7,3,-1,-8,-2,2.585
518,-1,0,-1,-6,-9,-3,2,0,2.59
519,-2,-1,-1,-8,6,-2,-5,-3,2.595
520,-1,-1,1,4,1,5,-4,-2,2.6
521,-2,-6,1,2,1,2,15,2,2.605
522,-2,-25,-1,0,0,-3,0,0,2.61
523,1,-28,-3,-8,-6,-5,-4,-3,2.615
524,0,-22,-2,0,1,0,-1,0,2.62
525,-1,-8,-1,-1,-1,0,-11,-3,2.625
526,1,4,-2,-2,0,1,2,-1,2.63
527,1,13,2,1,-1,0,5,3,2.6350000000000002
528,-1,10,-1,-2,1,1,-1,0,2.64
529,1,11,-2,3,-1,-2,6,0,2.645
530,-2,9,-3,-1,-5,-5,-4,0,2.65
531,-2,9,-2,-4,3,-1,-5,-4,2.6550000000000002
532,2,10,2,5,0,0,0,0,2.66
533,-4,2,-1,1,0,-1,-7,-1,2.665
534,1,7,0,2,0,1,1,-2,2.67
535,0,3,-2,-5,-1,-1,5,1,2.6750000000000003
536,-1,3,-2,-7,-2,-1,-5,-1,2.68
537,-1,1,-1,2,0,-1,-1,-2,2.685
538,-1,0,0,-1,1,-2,5,2,2.69
539,1,0,2,2,-3,0,-3,2,2.695
540,-1,-2,0,3,2,1,1,-2,2.7
541,0,-4,0,-5,-7,-5,-4,-2,2.705
542,-1,2,-5,-3,2,0,-11,-5,2.71
543,-1,-1,-2,8,-5,-1,6,-1,2.715
544,0,0,0,2,5,-1,8,3,2.72
545,-2,-2,0,1,6,3,-1,1,2.725
546,-1,2,1,0,-2,1,-5,-3,2.73
547,0,0,-2,-1,-2,-1,-4,-2,2.735
548,-2,-3,-5,-3,-6,-5,-3,-2,2.74
549,0,-1,1,1,-1,-1,1,1,2.745
550,1,0,0,0,4,0,6,4,2.75
551,-2,0,-1,3,1,0,-2,-2,2.755
552,-3,0,-4,-2,-2,-1,-6,-3,2.7600000000000002
553,0,0,3,-3,-1,-1,2,-3,2.765
554,-1,-1,0,5,3,0,-4,-2,2.77
555,-2,-2,0,-4,-2,-2,-3,-2,2.775
556,2,1,-1,1,-2,0,-4,0,2.7800000000000002
557,-1,-3,-2,-9,-1,-2,10,2,2.785
558,0,-3,2,8,1,-4,-6,-1,2.79
559,-2,-1,-1,1,1,1,-5,-1,2.795
560,-1,-3,-2,-6,-2,-1,-5,-4,2.8000000000000003
561,-4,2,-4,-6,0,-1,-1,-2,2.805
562,-1,0,1,5,0,-2,5,2,2.81
563,-1,-1,2,6,-2,1,2,1,2.815
564,-1,-2,-2,-3,-2,-1,0,-1,2.82
565,2,-2,1,6,2,-1,-9,-1,2.825
566,0,-2,-4,-5,-3,-1,3,-1,2.83
567,-1,-2,0,-8,-5,0,-4,-2,2.835
568,4,3,1,-4,1,-1,6,4,2.84
569,2,0,-1,6,-4,-1,-2,1,2.845
570,-5,-1,-3,-6,-4,-1,-1,-1,2.85
571,-2,0,0,3,1,-2,-1,-2,2.855
572,-3,-3,0,-7,-3,-2,-2,-4,2.86
573,1,0,0,2,2,0,-2,-1,2.865
574,-1,-1,-2,-1,-2,1,4,4,2.87
575,-1,-1,-3,-5,-2,0,-1,-1,2.875
576,-1,2,0,-1,-1,1,-2,-3,2.88
577,-1,-1,0,-1,-1,2,4,1,2.8850000000000002
578,-1,-2,-2,2,-3,-1,-4,-4,2.89
579,-1,-1,-3,-2,0,-1,4,0,2.895
580,0,-1,-1,-1,-4,-4,-3,0,2.9
581,0,-1,-2,-3,-1,-1,-4,-4,2.9050000000000002
582,0,-2,1,5,2,0,3,0,2.91
583,-2,-2,-2,-1,0,-2,-8,-3,2.915
584,-2,-1,-1,-8,-8,-1,0,-2,2.92
585,1,0,3,4,2,-2,1,2,2.9250000000000003
586,1,-1,0,-4,0,-1,2,0,2.93
587,2,0,-1,0,1,-2,1,0,2.935
588,-3,-1,0,5,2,0,-6,-5,2.94
589,-4,-3,-4,-2,-2,-4,-6,-1,2.945
590,1,1,1,-5,-4,0,1,0,2.95
591,0,-2,0,-2,-1,-2,-4,-2,2.955
592,-3,-1,0,1,1,2,10,4,2.96
593,-1,0,-1,0,0,1,-3,0,2.965
594,-2,-3,-2,0,-2,-1,-6,-4,2.97
595,0,-1,-2,-2,-2,0,1,0,2.975
596,0,-1,-1,-1,0,0,0,0,2.98
597,-4,-6,0,9,0,0,-6,-2,2.985
598,0,4,-1,-5,-1,-2,0,-1,2.99
599,0,0,2,2,0,0,3,0,2.995
600,2,-2,-1,5,4,-1,-3,0,3.0
601,1,-1,-3,-4,-2,0,-8,-2,3.005
602,-1,-3,-1,1,1,-2,5,0,3.0100000000000002
603,-1,-1,-2,-5,-3,0,6,-1,3.015
604,0,-2,0,-1,0,-1,-5,-2,3.02
605,1,1,-2,-3,-2,0,1,0,3.025
606,-1,-2,2,7,5,-1,-10,-1,3.0300000000000002
607,0,0,-2,0,-3,-2,2,1,3.035
608,-3,-4,-4,-1,-3,-3,1,0,3.04
609,0,1,1,4,2,0,2,-1,3.045
610,-3,-1,-2,-6,-5,-3,-2,-2,3.0500000000000003
611,-1,-2,1,1,-2,0,-1,0,3.055
612,-2,0,-1,4,7,2,-1,-1,3.06
613,-1,0,1,-2,-2,-3,-7,-5,3.065
614,-1,0,-1,-1,2,1,6,3,3.0700000000000003
615,0,0,-1,-2,-2,0,0,3,3.075
616,0,0,-3,-1,-4,-2,6,1,3.08
617,-1,-1,-2,-6,-4,-1,4,0,3.085
618,-3,-1,1,2,-2,1,-4,-4,3.09
619,-2,-3,-3,1,3,1,-1,-4,3.095
620,1,-2,1,3,0,0,-6,-1,3.1
621,0,0,-1,-4,-1,-1,3,0,3.105
622,2,-2,0,-3,-3,0,-8,-1,3.11
623,-1,-1,0,1,1,-3,-2,-2,3.115
624,-1,0,-3,-7,-3,1,4,0,3.12
625,-1,-3,-2,-2,-4,-3,3,0,3.125
626,-1,2,4,12,4,-1,-1,-1,3.13
627,-1,1,-3,-4,-4,-1,-3,-1,3.1350000000000002
628,0,1,0,-1,-2,3,-10,-4,3.14
629,-3,-1,-2,-3,1,0,11,3,3.145
630,-1,-1,-1,-6,-3,0,3,4,3.15
631,0,1,0,1,2,-1,-6,-2,3.1550000000000002
632,-7,-4,-1,-1,-4,-2,4,-1,3.16
633,-1,-1,-2,2,-1,1,-11,-1,3.165
634,0,-3,-2,-9,-2,-2,-1,-4,3.17
635,-3,-5,-1,2,-1,-1,-5,-2,3.1750000000000003
636,1,5,1,-2,0,1,1,2,3.18
637,1,-1,0,1,0,3,2,2,3.185
638,-1,-1,-3,6,2,-4,-1,0,3.19
639,-1,0,-1,-1,-4,-1,-2,-1,3.1950000000000003
640,-2,-3,-2,-2,-3,-2,-1,-1,3.2
641,-3,0,1,5,1,1,1,-3,3.205
642,0,1,-1,-1,1,3,-5,0,3.21
643,0,0,-1,-4,-2,0,13,3,3.215
644,1,0,1,6,2,-1,2,1,3.22
645,1,-1,-1,-6,-1,-2,-5,-2,3.225
646,-5,-3,-3,-5,-3,-1,-4,-4,3.23
647,-3,-2,0,2,-2,-1,3,-2,3.235
648,1,1,-3,-8,-6,-1,0,1,3.24
649,0,-1,0,5,6,-1,-6,-1,3.245
650,0,1,-2,-4,-2,-2,-1,-3,3.25
651,-3,-1,-1,-2,1,-2,-3,-2,3.255
652,-1,-3,0,-3,-3,-1,4,-1,3.2600000000000002
653,-1,0,-1,1,-4,-1,0,-1,3.265
654,1,-1,0,-5,-2,-1,2,1,3.27
655,-2,1,1,0,-1,1,-1,-1,3.275
656,-1,-7,2,6,2,2,-12,-4,3.2800000000000002
657,0,-1,-2,-1,-2,0,6,-1,3.285
658,2,0,-1,-2,-2,-1,11,7,3.29
659,1,0,-2,-3,-1,-2,-4,0,3.295
660,0,3,-1,3,2,-3,-2,1,3.3000000000000003
661,-1,1,-4,-1,-3,0,-5,-4,3.305
662,-1,-1,-1,0,-3,4,1,0,3.31
663,-2,-1,-1,-7,-6,-2,-3,-2,3.315
664,-1,0,1,3,4,-1,-1,-2,3.3200000000000003
665,-2,0,0,-7,-3,-2,5,-1,3.325
666,1,2,1,0,-2,0,-2,-2,3.33
667,0,-1,1,7,7,0,-3,4,3.335
668,0,1,-1,-3,-3,1,1,-2,3.34
669,-3,-4,-1,0,-2,-4,2,2,3.345
670,-1,-1,-3,-4,-2,-2,-3,-3,3.35
671,0,0,-2,-5,-4,2,2,-2,3.355
672,0,-1,-2,-1,0,0,-8,-1,3.36
673,0,0,0,-3,1,1,9,3,3.365
674,-2,-2,0,-1,-1,-3,1,1,3.37
675,0,0,-1,-1,-2,1,-5,-3,3.375
676,-1,0,0,1,5,0,2,1,3.38
677,0,0,-1,-7,-2,-3,-6,-2,3.3850000000000002
678,-2,-1,-3,0,-3,-1,-3,-3,3.39
679,-2,-1,-2,1,2,-1,-3,-1,3.395
680,-2,-3,-1,-6,-6,-1,-4,-2,3.4
681,-1,-1,0,3,-1,-1,2,1,3.4050000000000002
682,0,-3,0,0,-1,-2,0,0,3.41
683,-3,-1,-3,-7,-2,-1,-10,-2,3.415
684,-2,0,1,7,-1,2,12,3,3.42
685,0,-2,0,0,-1,-1,-3,-1,3.4250000000000003
686,-1,1,-2,-3,-5,-6,-5,-2,3.43
687,0,-1,1,2,2,0,2,1,3.435
688,-1,-1,-3,-2,4,-1,-1,3,3.44
689,-2,1,0,-4,-3,1,-3,-1,3.4450000000000003
690,-2,-3,1,4,2,0,-1,-3,3.45
691,-1,-2,0,-1,-1,-1,-1,-3,3.455
692,-3,-2,-1,-3,-4,-3,-3,-4,3.46
693,-1,-2,-1,0,2,-1,-6,2,3.465
694,1,0,-1,0,0,-1,2,3,3.47
695,-1,-2,-1,0,-2,-1,-5,-1,3.475
696,-3,0,-1,-4,-1,-1,0,1,3.48
697,-1,-2,-1,2,-2,-1,-12,-5,3.485
698,1,0,0,-3,1,1,6,2,3.49
699,-2,0,3,8,1,1,8,4,3.495
700,1,-2,-2,2,-2,-4,-2,-2,3.5
701,-2,0,0,-3,-2,-1,-5,-2,3.505
702,-5,-1,-6,-6,0,0,-3,-3,3.5100000000000002
703,3,2,2,13,2,0,2,2,3.515
704,-1,-1,-2,-1,-1,-2,-1,-3,3.52
705,1,0,-1,0,-1,-1,2,-2,3.525
706,-1,-2,-2,-2,1,0,-4,-1,3.5300000000000002
707,0,-5,-2,-6,0,0,7,2,3.535
708,-1,-1,1,-1,-1,-1,6,0,3.54
709,-2,-1,-4,-7,-5,-2,-2,0,3.545
710,-4,-1,1,11,5,0,-4,-1,3.5500000000000003
711,-2,0,-4,-6,-6,-3,-7,-5,3.555
712,2,0,1,6,6,2,-1,-1,3.56
713,2,-1,-3,-3,0,0,9,2,3.565
714,0,0,-1,-6,-6,-1,-9,-1,3.5700000000000003
715,-1,-2,0,-1,2,-2,6,0,3.575
716,2,0,-3,-1,-2,-1,4,1,3.58
717,-1,2,2,0,-3,-1,-11,-1,3.585
718,-1,-4,1,5,1,1,7,0,3.59
719,-1,-1,-2,-4,-4,-1,-3,-2,3.595
720,-3,-1,-1,-4,-1,-1,-3,-3,3.6
721,-2,-1,-2,2,-1,-1,2,-2,3.605
722,-1,-2,-1,-1,-1,0,-2,-2,3.61
723,-2,-1,-4,-6,-2,0,-5,-3,3.615
724,-2,-1,-2,-7,-1,-2,0,-2,3.62
725,0,-1,0,3,0,0,1,0,3.625
726,0,0,-1,0,-1,-3,0,-1,3.63
727,0,-1,-1,0,2,0,3,0,3.6350000000000002
728,-3,-1,0,-2,-4,-3,-2,-1,3.64
729,-1,-2,0,1,1,-2,-1,-2,3.645
730,2,1,2,-4,-3,1,1,0,3.65
731,-2,-2,-1,2,2,0,6,0,3.6550000000000002
732,-2,-3,-2,-3,-7,0,-8,-2,3.66
733,2,2,2,-3,2,1,0,-1,3.665
734,-3,1,0,2,0,-2,0,-1,3.67
735,1,1,-1,-2,-5,-5,0,1,3.6750000000000003
736,-1,0,0,5,1,-1,-6,-2,3.68
737,-2,-1,-3,-3,0,-3,8,-1,3.685
738,2,1,-2,-5,-3,3,-1,-3,3.69
739,-2,-2,-2,4,3,-1,-3,-2,3.6950000000000003
740,-3,-2,-3,-6,-6,0,3,-2,3.7
741,0,-1,0,1,1,-1,-4,0,3.705
742,3,0,0,1,2,2,6,4,3.71
743,0,-2,-1,-4,-2,-2,-7,0,3.715
744,-2,-1,-1,-3,-3,-1,1,-1,3.72
745,-3,-3,-1,3,1,0,-1,-1,3.725
746,-4,-3,-3,-1,-2,-1,-7,-2,3.73
747,0,0,-1,-2,1,-1,2,-1,3.735
748,2,-3,-2,0,1,-1,-2,0,3.74
749,-2,0,0,1,-2,-1,-11,-2,3.745
750,0,-1,3,3,0,0,7,3,3.75
751,0,-2,-2,2,8,-1,3,1,3.755
752,-2,0,-2,0,0,0,0,0,3.7600000000000002
753,-2,1,-4,4,2,-1,2,-1,3.765
754,-1,-2,1,-5,-3,-1,-5,-4,3.77
755,-2,1,0,-5,-4,2,-7,-3,3.775
756,0,-1,0,0,1,-1,-4,0,3.7800000000000002
757,4,1,-1,-1,1,3,6,3,3.785
758,-5,-3,-4,-4,-4,-6,0,-2,3.79
759,0,0,-1,2,-3,-2,-4,-3,3.795
760,-2,-1,-1,2,1,-2,-2,-1,3.8000000000000003
761,-1,-1,-2,-10,-8,-2,-1,-2,3.805
762,2,1,1,11,11,3,-11,-4,3.81
763,-2,-2,-2,0,-2,2,6,2,3.815
764,-2,-1,-2,-5,0,-2,5,2,3.8200000000000003
765,2,1,1,10,3,1,3,1,3.825
766,-1,-2,-3,-6,-4,-2,0,0,3.83
767,0,0,-1,-3,-4,-3,-8,-2,3.835
768,0,1,1,1,3,4,-1,-2,3.84
769,-5,-4,-1,-3,-1,2,4,-1,3.845
770,-1,-2,-4,-4,-1,-3,-13,-4,3.85
771,-1,2,-1,0,0,-1,3,1,3.855
772,3,-1,-2,-2,-3,-1,4,3,3.86
773,0,-1,-1,0,1,0,-3,0,3.865
774,-1,0,-1,0,-7,-3,5,-1,3.87
775,-1,-2,-1,-4,4,2,0,-1,3.875
776,0,-1,2,9,-2,-1,0,0,3.88
777,-1,-4,0,-1,-1,0,4,-2,3.8850000000000002
778,-1,-2,-2,-4,1,0,-13,-4,3.89
779,-3,-1,-2,-1,-3,-1,8,2,3.895
780,3,3,-2,-4,-1,1,2,2,3.9
781,-2,-1,1,-3,-4,-1,-6,-2,3.9050000000000002
782,-1,1,-2,1,1,2,5,1,3.91
783,2,0,0,-1,-2,0,1,1,3.915
784,-2,-1,-2,0,0,0,-5,-2,3.92
785,-1,-2,-3,-2,-3,-2,0,-2,3.9250000000000003
786,-2,-1,-1,-1,0,-2,-4,-1,3.93
787,-2,-2,0,3,0,-2,-5,-1,3.935
788,-3,-3,-1,-5,-5,-4,1,0,3.94
789,2,0,-1,0,0,-1,1,0,3.9450000000000003
790,-2,-1,0,1,0,-1,6,1,3.95
791,1,-1,1,1,0,2,0,-1,3.955
792,-1,-1,1,-4,1,0,-11,-5,3.96
793,1,-3,-1,4,-1,1,-5,-1,3.9650000000000003
794,2,-3,-1,0,0,-1,16,7,3.97
795,2,1,0,-5,-4,-5,-4,0,3.975
796,-2,-2,1,2,-1,-2,-3,-3,3.98
797,-2,-3,0,0,-2,-1,-6,-2,3.985
798,-1,-3,0,-1,0,1,3,-1,3.99
799,-2,-4,0,-3,-3,0,-4,-2,3.995
800,-2,-2,0,0,1,-2,-1,-4,4.0
801,-2,0,-2,-2,0,-2,-5,0,4.005
802,0,1,1,2,-3,-1,4,2,4.01
803,-2,-1,-2,-5,-5,1,-1,-1,4.015
804,1,2,-3,-6,-4,-1,2,-1,4.0200000000000005
805,0,2,3,1,0,0,5,0,4.025
806,0,0,-1,-3,-3,0,-11,-3,4.03
807,-3,0,1,3,2,0,6,2,4.035
808,-1,-6,-2,-4,-3,-1,10,1,4.04
809,0,0,0,2,0,-2,-2,1,4.045
810,0,1,-2,-2,0,-2,-6,-2,4.05
811,1,1,0,3,1,1,-4,-2,4.055
812,0,-1,-2,-1,-5,0,-2,0,4.0600000000000005
813,-2,2,-2,-1,4,-1,1,0,4.065
814,-1,-1,0,-1,-1,-1,3,-3,4.07
815,-2,1,-2,2,0,-1,-8,-5,4.075
816,1,0,-3,0,4,0,4,3,4.08
817,1,1,1,6,-3,-1,0,-1,4.085
818,-1,0,-1,-3,-1,2,-6,-4,4.09
819,-1,0,-1,-6,-2,-2,9,2,4.095
820,1,1,1,4,1,2,-2,-1,4.1
821,-1,-1,-2,-3,-3,-2,-1,-1,4.105
822,-1,-1,1,1,4,0,-1,1,4.11
823,1,-2,-2,-1,-3,-1,4,-1,4.115
824,-5,1,-1,-2,-2,2,0,0,4.12
825,-2,-3,-2,-5,-3,-2,-7,-2,4.125
826,1,2,0,0,-2,-1,3,4,4.13
827,1,-2,-2,0,0,-1,-3,-2,4.135
828,2,0,-1,2,-3,-4,-4,-1,4.14
829,-3,0,-2,-2,1,0,1,-5,4.1450000000000005
830,-3,0,-1,-11,-4,-2,-5,-5,4.15
831,2,10,1,5,4,1,9,6,4.155
832,2,10,1,-7,-3,-1,-2,0,4.16
833,-3,2,0,1,2,-1,4,0,4.165
834,0,-4,0,1,2,-1,-1,-3,4.17
835,-2,-6,-1,0,1,-2,-6,-3,4.175
836,-1,-4,-1,-2,-3,-1,0,-2,4.18
837,-2,-6,-1,-7,-3,2,11,0,4.1850000000000005
838,-2,-4,0,-2,-3,-1,-14,0,4.19
839,0,-4,0,-1,3,-2,-6,-3,4.195
840,0,-3,1,10,0,-1,1,-1,4.2
841,3,-2,-1,0,-1,1,-1,0,4.205
842,-2,-2,-2,1,-4,-1,5,-1,4.21
843,-5,-4,-3,-2,-5,-1,-13,-3,4.215
844,1,-3,1,1,2,-1,10,3,4.22
845,4,1,0,2,2,2,1,3,4.225
846,3,2,0,1,1,0,3,1,4.23
847,-2,-3,-2,0,-1,-2,-5,-3,4.235
848,-4,-2,-3,3,0,-1,-8,-4,4.24
849,-1,-1,-1,-3,-2,-3,-1,1,4.245
850,0,1,-2,-2,-8,-3,4,2,4.25
851,-1,0,2,5,12,1,1,-1,4.255
852,-4,-3,-1,-1,0,-1,-5,-2,4.26
853,0,0,-1,-7,-5,-1,0,-1,4.265
854,-2,-2,-1,1,1,0,0,0,4.2700000000000005
855,2,2,0,-4,-5,-2,-1,-1,4.275
856,-4,-3,0,5,-1,-1,-3,0,4.28
857,0,-2,-3,-3,0,0,-6,-3,4.285
858,-1,0,-1,0,3,0,1,0,4.29
859,0,0,0,-1,-3,0,1,-1,4.295
860,-1,-1,0,-1,1,-2,-1,1,4.3
861,-3,3,0,-5,-4,-1,-2,-1,4.305
862,0,0,-1,3,2,1,1,-2,4.3100000000000005
863,-2,0,0,-1,-3,0,7,-2,4.315
864,-3,-2,-1,-7,-2,-1,-17,-5,4.32
865,-2,-5,-1,1,-2,-2,11,1,4.325
866,-1,-1,-1,0,0,-2,-1,0,4.33
867,0,0,0,-1,-2,0,0,0,4.335
868,1,1,0,3,4,3,2,-1,4.34
869,-3,0,-1,2,-1,-2,-9,-4,4.345
870,-2,-1,-1,0,-1,-2,-8,-4,4.3500000000000005
871,-1,-2,-3,-4,-1,-2,0,0,4.355
872,5,1,2,5,2,2,8,6,4.36
873,-1,-1,0,-1,0,0,-2,0,4.365
874,-3,-1,-1,5,3,0,-6,-3,4.37
875,-6,-4,0,-1,-1,-2,-3,-3,4.375
876,0,-1,-4,-7,-5,0,12,2,4.38
877,3,3,0,9,2,-3,-8,-1,4.385
878,-1,-2,-1,-2,-1,-2,0,-1,4.39
879,-2,-3,-3,0,-7,-2,-4,-3,4.3950000000000005
880,-3,0,-1,-1,1,1,-1,-3,4.4
881,-2,-2,-3,-2,-2,-2,0,0,4.405
882,-1,2,1,-2,-4,-2,1,-1,4.41
883,1,-1,-2,1,1,0,0,0,4.415
884,-1,-1,-2,-2,-3,-2,-2,-2,4.42
885,1,3,1,-2,0,3,1,-2,4.425
886,-4,-4,-3,-6,-5,1,5,2,4.43
887,2,0,1,-1,-1,-3,-6,1,4.4350000000000005
888,-1,2,-1,1,-1,0,0,0,4.44
889,0,-2,1,-2,0,-1,-8,-4,4.445
890,-2,-1,-2,2,-1,-1,9,1,4.45
891,0,-1,0,-8,-4,0,0,2,4.455
892,2,-2,-1,-1,-3,-2,-1,-2,4.46
893,0,0,0,3,2,1,-6,-3,4.465
894,0,-1,-1,-1,0,-1,3,1,4.47
895,-2,0,-2,-1,-4,-4,-3,-4,4.4750000000000005
896,-3,-1,-1,3,-2,-3,-5,-3,4.48
897,-4,-6,-3,-3,-1,1,2,0,4.485
898,3,-1,1,3,3,2,1,0,4.49
899,0,-2,-1,0,1,0,4,0,4.495
900,0,-2,-2,1,-1,-3,-8,0,4.5
901,-1,-1,-1,-4,-1,0,8,1,4.505
902,1,0,0,0,-5,-2,-2,0,4.51
903,-1,0,-1,3,1,0,-6,-4,4.515
904,-3,1,0,-3,-2,0,6,3,4.5200000000000005
905,0,0,-2,0,0,0,1,3,4.525
906,0,1,2,-4,1,-2,-1,1,4.53
907,2,2,0,0,2,3,3,0,4.535
908,-3,-6,0,-4,-2,1,-12,-5,4.54
909,-1,-2,-2,2,0,-2,-2,-2,4.545
910,-1,-1,0,3,2,-1,-4,-2,4.55
911,-2,-1,0,-2,-3,1,4,0,4.555
912,-1,2,-2,-5,-2,-2,0,1,4.5600000000000005
913,-2,0,0,1,4,-2,0,0,4.565
914,2,1,-2,-4,-2,-2,-3,0,4.57
915,-1,-4,0,-2,1,-1,2,0,4.575
916,-2,1,0,2,-1,-1,10,2,4.58
917,2,2,1,-3,-3,-3,0,1,4.585
918,0,-2,-3,-4,-1,-1,-4,-2,4.59
919,0,-2,1,5,2,-2,0,-2,4.595
920,-1,-1,-2,-4,1,4,2,-2,4.6000000000000005
921,-2,-2,-3,-5,-5,-2,-1,-4,4.605
922,-1,1,0,0,0,-1,-1,-1,4.61
923,-3,-2,-4,-5,-8,-5,-5,-1,4.615
924,4,1,1,6,10,-1,-1,-1,4.62
925,4,1,0,2,0,-1,-1,0,4.625
926,-6,-5,-2,-4,-1,0,2,0,4.63
927,0,0,0,0,1,-1,1,2,4.635
928,-2,0,-1,4,0,-2,-1,1,4.64
929,-1,-2,0,1,0,-1,-9,-3,4.6450000000000005
930,1,0,0,-2,-1,1,3,-3,4.65
931,0,-1,-2,-6,-2,-1,-12,-2,4.655
932,0,0,-3,-6,-4,0,7,0,4.66
933,-1,0,-1,2,1,0,3,1,4.665
934,1,-1,-1,-2,-1,-4,-5,-2,4.67
935,-2,0,-2,-2,-5,-1,-2,0,4.675
936,2,2,0,1,6,-2,-5,-2,4.68
937,-3,-2,1,7,0,1,0,-1,4.6850000000000005
938,-1,-2,-2,-1,-3,-2,-3,-2,4.69
939,2,-1,0,-2,-1,-3,4,0,4.695
940,-1,-2,1,2,1,-1,-6,-1,4.7
941,-1,-1,-2,-6,-2,1,3,0,4.705
942,-1,2,1,4,2,1,1,1,4.71
943,0,-2,-1,3,1,2,6,0,4.715
944,-3,-3,-4,-3,-4,-1,-1,-1,4.72
945,-1,-1,3,-1,-3,0,2,4,4.7250000000000005
946,0,0,-3,-1,-1,0,-3,-2,4.73
947,-2,0,0,-1,-1,-1,2,1,4.735
948,2,0,-1,-5,-6,-1,1,-2,4.74
949,2,-1,-1,-2,4,0,-6,-3,4.745
950,-3,-3,2,4,-2,-3,-2,1,4.75
951,-1,0,1,1,0,-1,-4,-1,4.755
952,-3,-1,0,-2,-2,-2,0,0,4.76
953,0,-3,-1,-5,-3,-2,-1,-2,4.765
954,1,2,0,-3,-1,0,-1,-1,4.7700000000000005
955,-2,0,-1,-2,3,-1,-2,-3,4.775
956,0,-2,-2,-1,-3,1,-1,1,4.78
957,-3,0,-2,0,-3,0,-3,-2,4.785
958,0,0,-1,-1,0,-3,1,1,4.79
959,0,2,1,-3,-3,-1,2,1,4.795
960,0,-4,-4,-3,-3,-3,2,-1,4.8
961,0,3,1,3,3,0,2,0,4.805
962,-2,-1,-3,-2,-1,0,1,0,4.8100000000000005
963,1,0,-1,-1,0,2,-2,-1,4.815
964,-1,1,0,0,-1,-2,-2,0,4.82
965,-3,-4,-3,-4,-7,-1,6,-1,4.825
966,0,-1,0,0,6,-1,-11,-1,4.83
967,0,-1,-1,0,0,-1,0,-1,4.835
968,0,-1,-1,0,3,-1,-5,0,4.84
969,0,0,-4,-1,-3,-3,-1,0,4.845
970,-3,-1,0,-5,-2,0,5,-1,4.8500000000000005
971,-1,-4,0,1,-1,0,-2,-1,4.855
972,3,3,3,-1,-2,1,0,-1,4.86
973,-2,-2,-1,-3,-4,-5,-5,-3,4.865
974,0,0,1,2,6,0,-5,-4,4.87
975,-3,-1,-3,0,-1,-2,-1,-1,4.875
976,-3,-2,-1,-4,-2,-2,3,-1,4.88
977,2,0,1,0,4,2,0,3,4.885
978,1,1,-1,-2,-5,2,3,3,4.89
979,0,-2,-1,-2,-1,-2,-4,-1,4.8950000000000005
980,-1,-1,-3,0,0,-1,-6,-4,4.9
981,-2,-1,-1,-3,-2,0,4,-2,4.905
982,1,-1,-1,0,-2,0,-3,3,4.91
983,1,0,-1,-1,-1,-3,-5,-1,4.915
984,-1,-1,-3,0,-4,-1,-6,-3,4.92
985,-2,-1,-2,2,2,0,0,-1,4.925
986,0,-1,0,0,-3,-1,5,-1,4.93
987,-3,0,0,5,5,1,0,-2,4.9350000000000005
988,-1,0,1,3,3,1,2,2,4.94
989,2,-1,-4,1,1,-2,1,0,4.945
990,0,-2,-2,-4,-2,-2,-13,-5,4.95
991,-3,0,-3,-5,-5,-2,6,0,4.955
992,0,-3,-2,-1,-1,0,0,0,4.96
993,1,0,1,0,0,0,1,1,4.965
994,-5,-3,-2,-2,-3,-4,2,0,4.97
995,1,0,0,0,-1,-2,-3,-3,4.9750000000000005
996,-2,-2,-1,-2,0,0,-5,-1,4.98
997,1,0,0,-2,0,0,-5,-1,4.985
998,0,1,-4,-6,-4,-3,-2,-3,4.99
999,0,-1,1,0,-1,2,5,2,4.995
1000,0,-1,-1,2,2,0,6,2,5.0
1001,-1,0,-1,-4,-3,0,-3,-3,5.005
1002,1,-1,1,6,1,-2,-2,-1,5.01
1003,0,-1,-1,-2,-1,-1,-4,-1,5.015
1004,-2,-2,-1,-3,-4,-5,-10,-4,5.0200000000000005
1005,-4,-1,-5,-3,-1,-2,4,-2,5.025
1006,3,-1,-1,3,2,4,12,0,5.03
1007,1,1,0,4,2,3,1,3,5.035
1008,-5,-1,-1,-6,-4,-1,-6,-1,5.04
1009,0,-3,3,3,1,-2,-8,-1,5.045
1010,-2,0,-1,-1,-1,-1,4,-1,5.05
1011,-1,-2,-3,-8,-6,-3,-3,0,5.055
1012,1,-1,0,3,10,1,3,2,5.0600000000000005
1013,-2,0,0,4,-3,0,-4,-2,5.065
1014,-1,-3,-1,-1,1,0,-5,-2,5.07
1015,-1,-1,0,0,0,-1,-1,1,5.075
1016,-1,-2,-1,-3,-6,-2,1,0,5.08
1017,0,0,1,-5,-4,-1,-3,-1,5.085
1018,-2,0,1,-3,3,-1,-3,-2,5.09
1019,0,2,0,-2,-3,2,-3,-4,5.095
1020,-1,-2,-2,-1,-1,-1,7,-3,5.1000000000000005
1021,1,-3,0,0,1,-1,2,3,5.105
1022,1,3,-1,-2,-5,0,1,1,5.11
1023,0,-2,1,3,-1,0,-4,-1,5.115
1024,0,0,2,-4,-1,1,3,-1,5.12
1025,-1,0,1,5,2,0,1,1,5.125
1026,1,-2,-1,-4,-3,-1,1,1,5.13
1027,0,-1,-2,-3,-1,-2,0,-1,5.135
1028,0,2,-1,-2,-2,1,-8,-4,5.14
1029,-3,-1,0,3,3,-1,-1,-2,5.1450000000000005
1030,0,-1,-2,-2,-5,-3,1,1,5.15
1031,-1,0,0,2,6,0,0,0,5.155
1032,-1,-1,0,-2,-4,0,3,2,5.16
1033,-1,-1,-3,-3,0,-2,-6,-2,5.165
1034,-3,-2,-1,2,-3,-3,-15,-5,5.17
1035,-2,2,-1,-3,3,-4,7,-2,5.175
1036,0,-4,0,6,2,-2,-3,1,5.18
1037,2,0,1,-2,-1,2,7,1,5.1850000000000005
1038,0,0,-1,-2,-1,3,2,3,5.19
1039,-2,-4,-4,-2,-3,1,-1,-3,5.195
1040,-2,2,-3,-2,-3,-2,-1,-5,5.2
1041,3,2,1,-3,-3,1,2,2,5.205
1042,-2,-3,2,3,2,-1,-3,0,5.21
1043,-1,0,-1,-3,-3,-1,3,0,5.215
1044,0,-1,-1,4,1,1,0,0,5.22
1045,-1,-3,-2,-2,0,0,7,-1,5.2250000000000005
1046,0,-1,-3,-12,-6,-5,-11,-3,5.23
1047,0,-2,2,17,9,2,-2,-2,5.235
1048,-3,-2,0,-1,-2,-1,6,2,5.24
1049,0,0,-1,-2,-1,-2,0,1,5.245
1050,0,0,-1,-2,-2,1,8,-1,5.25
1051,1,-4,-2,0,-1,0,-5,-3,5.255
1052,1,4,-1,-1,-2,-3,-6,-3,5.26
1053,-2,-1,0,0,2,-1,0,-1,5.265
1054,-4,-1,-2,-1,0,-1,4,1,5.2700000000000005
1055,-1,0,1,-2,-1,-2,-2,-1,5.275
1056,1,0,0,-2,0,1,1,1,5.28
1057,0,1,-1,-1,-3,-1,-6,-2,5.285
1058,1,-2,-1,0,2,0,-1,-2,5.29
1059,1,0,-3,-5,-6,-1,1,0,5.295
1060,-2,-1,1,4,4,2,1,1,5.3
1061,-3,0,-2,-4,-1,-1,-3,-3,5.305
1062,-1,-1,-1,1,0,2,5,1,5.3100000000000005
1063,-1,-1,-2,-5,-5,1,1,0,5.315
1064,-1,-1,-3,-6,-4,-2,-5,-4,5.32
1065,-1,-2,1,6,3,1,-1,0,5.325
1066,1,1,0,4,1,0,2,0,5.33
1067,-5,-2,-3,-6,-1,-2,-3,0,5.335
1068,2,-1,0,-2,-2,-1,2,0,5.34
1069,-2,-2,-2,-3,-4,-3,-7,-2,5.345
1070,3,-2,-1,1,0,-1,2,1,5.3500000000000005
1071,-4,-2,-1,-3,-2,0,3,0,5.355
1072,-2,-3,-2,-2,-3,0,6,0,5.36
1073,-2,-1,0,5,1,2,-3,0,5.365
1074,2,-2,-2,-3,-1,0,-3,-2,5.37
1075,2,2,0,-3,-3,-4,-5,-2,5.375
1076,-5,-1,-1,-1,2,-1,0,-1,5.38
1077,1,-2,-1,-5,-5,0,-2,-1,5.385
1078,-3,0,-1,-1,-1,0,-3,-1,5.39
1079,0,-1,-2,4,4,1,5,-1,5.3950000000000005
1080,-1,0,-2,-4,-5,-2,-5,-2,5.4
1081,0,1,-1,3,5,-3,2,2,5.405
1082,-1,-1,2,-5,-3,0,3,2,5.41
1083,1,1,-1,0,0,0,-11,-3,5.415
1084,-1,-1,-2,0,-1,0,1,-1,5.42
1085,-2,-2,-2,-12,-10,-1,1,-4,5.425
1086,0,-1,1,9,10,1,-3,-1,5.43
1087,0,-2,1,3,0,0,-1,-1,5.4350000000000005
1088,-1,0,2,1,-1,-2,-7,-5,5.44
1089,1,-1,-4,-7,-4,-1,-1,-1,5.445
1090,-5,-2,-1,4,-1,-2,0,-1,5.45
1091,-4,-3,-2,0,-1,0,2,-2,5.455
1092,2,-1,-2,1,4,0,-2,2,5.46
1093,-2,0,-2,1,-1,-2,-2,-3,5.465
1094,2,-3,-1,-2,0,2,2,-1,5.47
1095,-1,-1,-2,-7,-2,-2,6,3,5.4750000000000005
1096,2,0,2,7,0,-1,0,1,5.48
1097,-2,-2,-1,2,1,-2,-1,0,5.485
1098,0,3,-2,-1,0,-3,-14,-6,5.49
1099,-3,-4,-5,-11,-9,-4,4,0,5.495
1100,0,0,3,8,12,3,3,2,5.5
1101,0,0,-1,1,1,0,-4,-3,5.505
1102,-3,0,0,-2,-3,1,4,-2,5.51
1103,2,1,-1,0,-2,-2,-14,-3,5.515
1104,1,0,-2,-5,-5,-2,-3,3,5.5200000000000005
1105,-3,-2,-2,-1,-2,-1,-2,-1,5.525
1106,-1,-1,-1,-2,-2,-2,3,0,5.53
1107,0,0,2,8,1,0,-1,-2,5.535
1108,-3,-2,-1,-7,-5,0,-2,-3,5.54
1109,-2,-3,2,1,1,2,-4,2,5.545
1110,4,2,-3,-1,-4,-1,7,4,5.55
1111,0,0,0,-5,-3,-3,-1,1,5.555
1112,1,0,-2,-1,-3,-2,-3,-5,5.5600000000000005
1113,-3,-2,2,4,4,1,1,-2,5.565
1114,-3,-1,-2,-1,-1,-1,-4,-3,5.57
1115,-2,0,0,0,2,0,-3,1,5.575
1116,1,-1,-1,-4,-9,-4,3,2,5.58
1117,0,0,-2,-5,-4,-2,3,0,5.585
1118,-1,-1,-1,0,1,0,-1,0,5.59
1119,1,1,0,2,-2,1,4,-2,5.595
1120,-5,-2,-4,-7,-3,-4,-14,-4,5.6000000000000005
1121,1,-1,2,7,3,1,2,4,5.605
1122,0,-1,-1,0,-2,-4,-3,-1,5.61
1123,0,0,1,0,0,0,2,2,5.615
1124,-2,-2,-3,-2,-1,0,-1,-1,5.62
1125,0,0,-3,-5,-6,-3,-6,-6,5.625
1126,-4,-2,2,8,5,2,3,1,5.63
1127,-2,-2,-1,4,1,2,0,-1,5.635
1128,0,-2,0,-2,-2,-3,1,-1,5.64
1129,0,-1,-2,-1,-1,-1,1,1,5.6450000000000005
1130,1,-1,-1,-4,-4,0,2,-1,5.65
1131,0,-3,-2,-5,0,-3,-1,-2,5.655
1132,-2,-3,0,5,-4,-1,4,3,5.66
1133,1,1,-1,1,3,-2,-1,0,5.665
1134,0,-1,1,-4,-1,0,-2,0,5.67
1135,2,1,0,-3,-2,-4,-9,-2,5.675
1136,-1,-1,-3,-1,2,0,-2,-1,5.68
1137,-3,1,0,-7,-5,-1,-5,-4,5.6850000000000005
1138,-4,-4,-2,-3,1,1,5,0,5.69
1139,-2,-1,-2,4,0,0,-7,0,5.695
1140,-1,0,0,2,4,0,0,-3,5.7
1141,0,1,0,1,-1,-2,-1,-1,5.705
1142,1,1,-1,-9,0,-1,-3,0,5.71
1143,-1,-2,-1,-3,-1,1,2,-4,5.715
1144,-2,-3,0,4,2,1,2,-1,5.72
1145,0,-2,0,-4,-4,-1,-4,4,5.7250000000000005
1146,0,0,-1,0,-4,-2,3,0,5.73
1147,-1,-2,-1,3,1,1,7,4,5.735
1148,0,2,-1,-9,-4,-1,-4,-2,5.74
1149,-1,-1,0,4,5,2,1,-2,5.745
1150,-2,-1,-2,-3,-5,-3,-12,-7,5.75
1151,0,-1,0,2,6,2,3,-1,5.755
1152,0,-2,1,1,0,2,3,3,5.76
1153,4,1,0,3,-2,-2,2,0,5.765
1154,-5,-2,-3,-7,0,-1,-1,-2,5.7700000000000005
1155,-3,-2,-1,5,0,-2,-1,-4,5.775
1156,2,-1,-4,-5,-3,1,-11,-1,5.78
1157,0,0,-1,3,-1,-2,0,-2,5.785
1158,-1,-1,1,-2,-1,0,-1,-1,5.79
1159,-1,2,0,-3,-3,-1,-2,-2,5.795
1160,-1,-2,1,0,1,0,-5,-3,5.8
1161,1,-3,-3,-10,-7,-4,1,0,5.805
1162,0,0,2,11,10,2,3,4,5.8100000000000005
1163,1,0,0,-2,-3,-2,-1,0,5.815
1164,-3,-1,-1,2,2,-3,-5,-3,5.82
1165,-4,-3,-2,-6,-2,1,0,-4,5.825
1166,-1,-2,-1,7,-3,-4,1,-2,5.83
1167,-1,0,0,-1,1,0,-2,2,5.835
1168,0,1,0,2,0,-2,2,-1,5.84
1169,0,-1,-4,-1,0,-2,-3,-1,5.845
1170,1,1,1,-6,-7,1,-1,0,5.8500000000000005
1171,0,0,-2,0,0,-1,8,-3,5.855
1172,-3,-2,-2,-7,-6,-2,-10,-2,5.86
1173,-3,-1,1,6,8,0,1,0,5.865
1174,1,0,-2,-1,-2,-4,-2,-2,5.87
1175,0,1,-1,-5,0,1,-8,0,5.875
1176,-1,-2,-2,-1,-2,-2,10,1,5.88
1177,-2,-2,-1,-4,-5,0,5,0,5.885
1178,2,0,-1,1,2,2,-4,1,5.89
1179,-3,-2,-1,-7,-5,-3,-2,-2,5.8950000000000005
1180,-1,-2,-1,5,2,-2,0,0,5.9
1181,-1,2,2,2,-1,1,-8,-1,5.905
1182,-3,-4,-5,-1,-2,-1,6,0,5.91
1183,0,-3,-1,-4,-5,-1,-1,1,5.915
1184,1,3,1,0,0,0,1,0,5.92
1185,0,1,1,-1,0,-1,1,-1,5.925
1186,-3,-1,-6,-7,-6,-2,-4,-1,5.93
1187,-1,0,-1,4,4,0,1,1,5.9350000000000005
1188,1,-4,-3,-3,-5,1,1,-2,5.94
1189,2,4,2,3,1,1,0,0,5.945
1190,-2,-1,0,2,-2,-1,-4,-3,5.95
1191,-2,-2,-3,0,-3,-1,-2,0,5.955
1192,0,-1,0,0,-1,0,4,1,5.96
1193,-1,-4,0,6,1,-1,-3,1,5.965
1194,-2,-1,1,-2,2,2,4,0,5.97
1195,-3,-1,1,1,-2,-3,-8,-4,5.9750000000000005
1196,1,1,-3,0,0,-1,4,2,5.98
1197,-3,-2,-3,-4,-3,0,-1,0,5.985
1198,-2,-1,2,-3,0,-3,2,2,5.99
1199,4,2,2,5,2,0,-1,1,5.995
1200,-1,-1,-2,-3,-2,0,0,-2,6.0
1201,-2,-1,0,2,4,1,3,-3,6.005
1202,-2,-2,-4,-5,-4,-3,-6,-4,6.01
1203,0,-1,1,2,2,1,2,1,6.015000000000001
1204,0,1,0,-1,-1,-2,0,1,6.0200000000000005
1205,0,-3,1,2,-2,-1,-2,1,6.025
1206,-3,-1,2,3,-1,2,-4,-1,6.03
1207,1,-1,-2,3,0,-3,-3,-4,6.035
1208,1,0,0,1,0,-2,11,6,6.04
1209,2,0,0,-10,-4,1,-3,2,6.045
1210,-1,-1,-3,-3,1,-2,2,-2,6.05
1211,-2,0,1,0,0,-1,-4,-1,6.055
1212,-4,-2,-3,1,1,-3,-8,-7,6.0600000000000005
1213,-1,-1,-5,-8,-8,1,6,2,6.065
1214,2,0,0,6,10,4,-2,1,6.07
1215,2,5,-1,-5,-5,1,0,-2,6.075
1216,-4,-4,0,-2,0,1,0,-1,6.08
1217,-2,-1,-1,-4,-2,-3,2,-1,6.085
1218,-1,0,0,6,-5,-1,-1,0,6.09
1219,1,-3,-1,-5,-1,-1,4,0,6.095
1220,-2,2,1,0,4,-1,-3,-2,6.1000000000000005
1221,0,0,-3,-5,-3,-2,-4,-2,6.105
1222,-3,0,1,1,-1,-2,-6,-3,6.11
1223,-2,-3,-3,-4,-1,-3,3,0,6.115
1224,1,1,-1,-2,-5,2,0,-1,6.12
1225,1,-1,-1,4,2,0,-6,1,6.125
1226,3,2,-2,-4,-4,-3,1,1,6.13
1227,-2,-1,0,6,6,5,3,4,6.135
1228,0,-1,-1,-3,-5,-2,-2,-4,6.140000000000001
1229,-3,-2,0,-1,2,-4,1,-3,6.1450000000000005
1230,2,-1,-1,-2,-2,-2,-4,-3,6.15
1231,-3,0,0,0,0,-3,-2,-1,6.155
1232,3,0,3,5,3,2,1,2,6.16
1233,-3,-2,-2,-1,2,-1,1,-1,6.165
1234,3,3,1,-4,-1,-1,-1,0,6.17
1235,-5,-2,-2,-4,-6,-3,-10,-6,6.175
1236,-1,-3,-1,0,3,-1,7,1,6.18
1237,-4,-1,-1,-4,-5,1,6,-1,6.1850000000000005
1238,-1,-5,-1,3,6,1,-1,2,6.19
1239,1,-1,0,1,-1,2,3,1,6.195
1240,0,0,0,-2,-4,1,-15,-3,6.2
1241,-2,-1,-2,0,0,-4,-5,0,6.205
1242,-1,-1,0,-9,-4,-2,8,-1,6.21
1243,3,2,0,1,-2,1,-1,0,6.215
1244,-3,-1,-4,-2,2,0,0,2,6.22
1245,1,0,3,9,4,0,1,-1,6.2250000000000005
1246,1,-3,-1,-2,-3,-2,-3,0,6.23
1247,-1,-1,-2,-1,-2,-3,0,-2,6.235
1248,-1,-1,-1,0,-1,1,0,-2,6.24
1249,1,2,-2,-4,-2,2,-3,0,6.245
1250,2,1,-2,-3,-3,-2,7,5,6.25
1251,-1,-1,-1,0,-1,-4,-3,0,6.255
1252,-2,0,0,1,0,-1,0,-1,6.26
1253,-3,-4,0,-1,-3,-2,-14,-2,6.265000000000001
1254,-1,4,2,3,5,1,1,-2,6.2700000000000005
1255,-1,-1,-3,-9,-4,0,2,-1,6.275
1256,0,-3,-1,1,1,0,-3,0,6.28
1257,1,-3,0,-7,-5,0,4,1,6.285
1258,-2,-2,-1,0,-4,-3,-3,-3,6.29
1259,0,-2,-2,3,2,0,-3,1,6.295
1260,0,0,2,1,-1,0,1,0,6.3
1261,-3,-2,-2,-2,-1,-1,3,-3,6.305
1262,-2,-4,-2,-1,-1,-2,-7,0,6.3100000000000005
1263,-7,-2,0,1,0,-1,-13,-5,6.315
1264,0,-1,-3,-4,-3,-2,8,0,6.32
1265,2,0,-1,3,3,-2,6,2,6.325
1266,-1,-1,-2,-2,-4,2,-5,-3,6.33
1267,-1,0,0,1,1,0,3,1,6.335
1268,1,-1,0,0,1,0,-6,-2,6.34
1269,-2,0,-2,-1,-1,0,-10,-1,6.345
1270,1,0,-1,4,0,-1,4,0,6.3500000000000005
1271,2,1,1,0,1,2,1,2,6.355
1272,-2,-3,-2,-6,-2,-2,-4,-1,6.36
1273,-1,1,-3,2,-2,-2,0,-4,6.365
1274,-4,-6,-2,-5,-3,-2,-3,-4,6.37
1275,0,-1,-1,0,-2,1,2,2,6.375
1276,0,3,-1,-7,-6,-1,0,-2,6.38
1277,1,0,3,7,13,2,4,3,6.385
1278,0,0,0,0,-3,-4,0,-1,6.390000000000001
1279,-2,-3,-3,-4,-1,-5,-1,-4,6.3950000000000005
1280,-3,-3,0,4,1,-2,1,-2,6.4
1281,0,-1,-2,-5,-6,0,-5,-4,6.405
1282,1,-1,1,-3,-1,2,6,4,6.41
1283,1,-1,-1,2,3,1,3,0,6.415
1284,-1,0,1,-1,-2,-4,-6,-2,6.42
1285,1,-2,-3,-6,-3,-1,0,-2,6.425
1286,-2,0,1,8,8,2,2,0,6.43
1287,-1,0,-1,-2,-4,-1,-5,-2,6.4350000000000005
1288,-2,1,-2,-3,0,-2,-7,-1,6.44
1289,-2,0,-1,-2,-3,-2,8,-1,6.445
1290,2,-2,0,1,0,0,3,3,6.45
1291,3,3,-2,-4,-4,-1,-4,-2,6.455
1292,-2,-1,2,9,3,2,-1,-2,6.46
1293,-4,-3,0,1,-1,-3,-3,0,6.465
1294,-4,-2,-2,-5,-3,-1,-7,-4,6.47
1295,-1,-1,-2,3,1,0,3,1,6.4750000000000005
1296,2,1,-1,-4,0,0,1,1,6.48
1297,0,0,1,-2,-1,-1,-3,-1,6.485
1298,0,0,0,-2,-1,2,2,-1,6.49
1299,-3,-5,-2,-2,1,-3,0,0,6.495
1300,1,4,0,-1,-2,0,0,-3,6.5
1301,0,-2,-2,1,0,0,4,1,6.505
1302,0,0,-2,-3,-2,-1,-3,-3,6.51
1303,0,-3,-1,-1,-2,-2,-4,1,6.515000000000001
1304,0,-2,-2,-9,-5,-2,5,0,6.5200000000000005
1305,0,0,0,9,10,1,3,2,6.525
1306,0,2,-1,7,-1,-1,-1,-2,6.53
1307,-2,-1,0,1,-1,0,3,-2,6.535
1308,-2,-3,-2,-5,-3,-1,-2,0,6.54
1309,-2,-3,-5,-5,-6,-3,-3,-2,6.545
1310,-1,-1,2,-6,5,1,2,-1,6.55
1311,-1,0,0,-1,-1,0,0,-1,6.555
1312,2,1,1,0,1,0,4,4,6.5600000000000005
1313,0,1,1,-1,-2,1,1,0,6.565
1314,-3,-1,-2,-4,-4,0,-4,-2,6.57
1315,-1,-1,-2,-2,-6,-1,-3,-1,6.575
1316,0,0,-2,0,1,-1,2,-1,6.58
1317,-2,-4,-2,-6,-7,-2,-1,-1,6.585
1318,0,-1,0,6,9,1,-6,-2,6.59
1319,-2,-2,-1,-9,-3,-3,4,-4,6.595
1320,0,-2,-3,5,0,-2,4,1,6.6000000000000005
1321,1,2,-1,-2,-1,1,-7,1,6.605
1322,0,-1,-4,-1,-4,-2,3,0,6.61
1323,-1,2,1,3,3,1,2,0,6.615
1324,-5,-5,-1,-2,1,0,-8,-5,6.62
1325,-3,3,-1,1,0,0,1,-1,6.625
1326,-3,-1,-1,1,-2,-2,-1,-1,6.63
1327,1,0,-1,-2,-2,0,2,2,6.635
1328,0,0,0,-3,-3,-2,0,2,6.640000000000001
1329,0,-1,1,6,10,1,-3,-1,6.6450000000000005
1330,-2,-1,-2,-1,-3,-2,-3,-2,6.65
1331,-3,0,0,-5,-3,-2,-2,-2,6.655
1332,0,-1,-1,3,1,0,-4,-2,6.66
1333,-2,0,-3,-6,-1,-1,1,-2,6.665
1334,1,0,-1,2,1,-1,0,0,6.67
1335,-2,-1,-3,-1,-1,1,1,0,6.675
1336,-1,0,-1,-2,-2,-1,-11,-4,6.68
1337,-2,-2,-1,-1,-5,-1,10,-1,6.6850000000000005
1338,0,0,-2,-4,-4,-1,-4,1,6.69
1339,1,0,-3,1,-2,-2,5,4,6.695
1340,0,-2,2,-4,2,-2,1,1,6.7
1341,3,2,0,1,0,1,-2,1,6.705
1342,1,-3,-4,-8,-7,-1,-3,-1,6.71
1343,0,-1,2,8,7,2,1,0,6.715
1344,-1,-2,-3,-3,-2,0,-1,-1,6.72
1345,-1,-3,-2,-3,-4,-1,-4,-3,6.7250000000000005
1346,-4,-2,1,1,1,0,3,-2,6.73
1347,0,0,0,-2,-1,-3,-9,-2,6.735
1348,-2,-1,-2,-4,-1,0,0,0,6.74
1349,1,-2,1,3,-1,-2,-4,-2,6.745
1350,-3,0,0,0,-2,-3,-13,-6,6.75
1351,2,-1,-1,-3,-2,0,3,1,6.755
1352,-2,0,-1,0,-1,2,7,2,6.76
1353,2,0,1,2,1,0,1,2,6.765000000000001
1354,-2,0,-2,-1,-1,-2,0,0,6.7700000000000005
1355,-3,-2,-1,-12,-9,-3,2,-4,6.775
1356,-1,-1,1,13,6,-1,-9,-2,6.78
1357,-1,1,-1,1,4,0,-1,-2,6.785
1358,0,-2,-1,0,0,-2,0,-1,6.79
1359,-2,-2,-1,-2,-2,-1,-3,-2,6.795
1360,2,2,-2,-5,-3,0,2,0,6.8
1361,-2,-2,0,-2,-4,-1,-2,-2,6.805
1362,0,0,0,1,0,-1,1,0,6.8100000000000005
1363,-1,-3,-1,1,3,1,4,-2,6.815
1364,-3,-1,-4,-1,-1,0,-10,-5,6.82
1365,0,-1,1,-2,-1,-3,0,1,6.825
1366,-1,0,0,-1,-4,0,6,3,6.83
1367,1,1,-3,-3,-4,-1,6,3,6.835
1368,2,-1,-1,4,8,1,4,-1,6.84
1369,-3,-1,-2,-4,-3,-1,-9,-4,6.845
1370,1,-2,-2,-4,1,1,2,1,6.8500000000000005
1371,1,1,-1,-2,0,0,-7,-1,6.855
1372,1,-2,0,4,-4,0,5,0,6.86
1373,-3,-1,0,-3,-2,1,-6,-1,6.865
1374,-3,-2,-4,-2,-3,-4,-1,-2,6.87
1375,0,0,0,5,3,-1,-10,-1,6.875
1376,-4,-1,0,-9,-4,0,4,-2,6.88
1377,1,-2,2,-1,0,-2,1,0,6.885
1378,-2,0,-2,0,-4,-1,-4,-1,6.890000000000001
1379,-4,-3,-2,0,-1,-2,5,1,6.8950000000000005
1380,3,2,-1,4,3,0,1,4,6.9
1381,-2,-2,-5,-4,-2,1,8,0,6.905
1382,0,-1,3,4,-1,0,-6,-4,6.91
1383,0,0,-2,0,-1,0,-7,-3,6.915
1384,-1,-3,-1,-3,-2,-1,3,2,6.92
1385,1,0,-2,-4,-5,-3,-3,0,6.925
1386,1,-1,-2,-2,0,-1,-1,-1,6.93
1387,-1,1,1,1,1,0,-3,-4,6.9350000000000005
1388,-4,-3,-3,-5,-4,-2,1,-3,6.94
1389,2,-1,2,0,0,-1,-11,0,6.945
1390,-3,1,-1,-1,-2,2,10,2,6.95
1391,0,-1,0,4,1,-5,-9,0,6.955
1392,0,-1,-2,-4,-6,-2,-1,0,6.96
1393,-1,0,-1,-1,7,0,-7,-4,6.965
1394,-4,-4,0,-6,-4,-3,4,-3,6.97
1395,2,0,0,0,1,1,11,6,6.9750000000000005
1396,2,1,-1,-2,-2,-1,-2,1,6.98
1397,-2,-2,-3,1,-1,-3,4,-1,6.985
1398,-1,-1,0,-2,-1,-2,-14,-2,6.99
1399,-2,-1,0,-4,-5,-1,-3,-3,6.995
1400,-3,-3,-1,1,-2,-1,-2,-2,7.0
1401,0,0,-2,-1,0,2,0,0,7.005
1402,1,0,0,2,1,-4,-1,-2,7.01
1403,-1,-2,-1,-2,-4,0,4,0,7.015000000000001
1404,-1,-2,-1,-2,-3,-1,-13,1,7.0200000000000005
1405,0,-1,3,7,3,-1,2,1,7.025
1406,-1,1,0,1,3,2,-4,-2,7.03
1407,-4,-2,-2,-2,-1,-5,-1,-3,7.035
1408,1,-2,-3,-3,-5,-1,7,-1,7.04
1409,2,-1,-1,0,-1,0,2,3,7.045
1410,3,-4,-2,1,2,0,2,1,7.05
1411,-2,-1,0,0,-2,0,-5,-3,7.055
1412,-4,-1,0,-2,1,0,-1,-3,7.0600000000000005
1413,-2,0,-1,-5,-6,-2,4,-2,7.065
1414,-2,-2,-1,0,0,0,-5,1,7.07
1415,0,0,0,1,1,1,3,2,7.075
1416,0,-1,0,-2,-1,1,-1,1,7.08
1417,1,-2,-3,-5,-2,-5,-2,-4,7.085
1418,-1,1,3,4,0,1,6,-1,7.09
1419,0,-1,-1,-1,-2,-1,-3,3,7.095
1420,-2,-2,0,4,4,-2,0,0,7.1000000000000005
1421,-2,0,-1,-2,-4,-1,-8,-4,7.105
1422,-2,-3,-4,-3,-1,0,4,0,7.11
1423,0,-1,0,0,1,1,3,0,7.115
1424,3,2,2,1,0,-1,-1,-2,7.12
1425,-2,1,-4,-2,0,0,1,3,7.125
1426,-1,-1,-4,-2,-2,-3,-3,1,7.13
1427,-1,-2,-1,2,-1,2,1,-2,7.135
1428,-2,0,-2,-3,-1,-2,-1,-1,7.140000000000001
1429,-3,-2,1,5,0,-3,-6,-2,7.1450000000000005
1430,1,-1,-1,-7,-2,-1,0,-1,7.15
1431,0,0,1,8,2,-1,0,2,7.155
1432,-1,-1,0,0,0,2,1,-1,7.16
1433,-3,0,0,1,-2,0,0,-2,7.165
1434,1,1,-1,-2,-4,-3,-4,-4,7.17
1435,-2,-1,-2,-6,2,-2,6,2,7.175
1436,2,0,0,1,-1,0,-3,0,7.18
1437,-1,-1,0,-2,0,3,7,2,7.1850000000000005
1438,0,0,-1,0,-1,2,-4,1,7.19
1439,-2,-1,-3,-2,1,-1,-2,-7,7.195
1440,-4,-3,-3,-2,1,1,-7,-2,7.2
1441,0,-2,1,-1,0,-1,5,2,7.205
1442,2,1,1,2,0,-2,0,1,7.21
1443,1,-2,0,-1,0,-1,-3,-2,7.215
1444,-4,-3,-2,-9,-8,-3,1,-2,7.22
1445,0,-2,1,8,8,1,2,0,7.2250000000000005
1446,-1,-1,-1,0,1,2,-1,-3,7.23
1447,-1,-1,-1,-1,-1,-2,-4,2,7.235
1448,0,-1,-3,-4,-1,-3,-1,0,7.24
1449,0,-1,-1,0,3,-1,-3,-2,7.245
1450,-2,-1,-2,0,1,-2,3,1,7.25
1451,-2,-3,-1,1,-2,1,-11,-7,7.255
1452,0,-2,-1,3,2,-1,8,1,7.26
1453,0,0,-1,-3,-2,0,2,3,7.265000000000001
1454,-3,-2,-1,0,1,0,0,-1,7.2700000000000005
1455,-1,0,-1,-3,-2,-2,-3,-1,7.275
1456,1,1,0,-1,1,-1,-2,2,7.28
1457,-2,-1,1,4,0,-1,5,-1,7.285
1458,-2,-1,-2,-1,-1,0,-8,-4,7.29
1459,-2,0,0,-2,-1,-1,-3,-1,7.295
1460,-2,1,1,1,-1,1,-3,2,7.3
1461,-2,-1,-3,-4,-5,-2,2,0,7.305
1462,1,1,0,1,1,0,-2,1,7.3100000000000005
1463,-2,0,0,-1,-1,-1,0,-2,7.315
1464,-1,-1,-1,1,-1,-3,-2,-4,7.32
1465,-1,-4,-1,-9,-4,-1,-7,-2,7.325
1466,-1,-1,1,-4,-2,0,-4,-3,7.33
1467,0,-1,-1,0,1,4,8,2,7.335
1468,-2,-3,0,-4,-2,-2,4,2,7.34
1469,0,-1,-3,-6,-8,-3,-3,-1,7.345
1470,1,4,2,6,11,3,5,4,7.3500000000000005
1471,-2,-1,-1,-2,-2,-3,-6,-2,7.355
1472,-2,-2,-3,-1,0,0,-4,-4,7.36
1473,-1,-2,-3,-1,-2,-2,1,0,7.365
1474,-3,0,-2,0,-2,0,-4,0,7.37
1475,-2,-3,-1,-5,-6,-1,4,-1,7.375
1476,-1,0,-1,1,0,-1,-1,2,7.38
1477,0,0,-2,2,1,0,-4,1,7.385
1478,0,-1,-2,-5,-5,-3,-3,-2,7.390000000000001
1479,-2,-1,1,6,1,-2,-2,-1,7.3950000000000005
1480,0,0,0,0,0,-1,1,-3,7.4
1481,0,-3,-2,-2,0,1,3,0,7.405
1482,-2,-3,-1,3,0,0,-10,-6,7.41
1483,0,-1,-1,-8,-7,-3,6,1,7.415
1484,2,0,2,5,7,2,6,2,7.42
1485,-2,1,1,3,1,0,-11,-3,7.425
1486,0,-2,-2,-4,-5,-3,6,3,7.43
1487,2,1,0,1,-1,1,-4,1,7.4350000000000005
1488,0,1,-1,1,-1,0,-2,-2,7.44
1489,-3,-2,-1,-4,0,0,3,-1,7.445
1490,-2,-1,-2,3,2,-1,-1,0,7.45
1491,1,1,1,-6,1,0,1,-4,7.455
1492,-2,-1,-2,-1,-2,0,-11,-1,7.46
1493,0,-3,-1,1,0,-2,-4,-1,7.465
1494,5,3,1,9,-2,-2,0,2,7.47
1495,-3,0,-1,0,2,2,2,1,7.4750000000000005
1496,-1,-3,-2,-1,0,1,-1,-3,7.48
1497,-3,-1,-1,-2,-3,-1,-1,-2,7.485
1498,-3,-2,0,-8,-2,-2,0,-2,7.49
1499,1,-1,0,3,1,0,-7,-2,7.495
1500,-1,-1,0,-3,-3,-5,1,-1,7.5
1501,-2,0,1,-4,-2,0,4,1,7.505
1502,-1,-1,-2,-2,-2,-1,4,1,7.51
1503,-1,-2,-2,-2,-1,0,-1,1,7.515000000000001
1504,1,4,0,0,-2,2,-1,-1,7.5200000000000005
1505,-1,1,0,2,1,-3,-3,-2,7.525
1506,-1,0,-3,-4,-1,-1,1,-1,7.53
1507,-1,1,0,1,-2,0,-2,-1,7.535
1508,-3,-3,-1,6,0,-1,-8,-3,7.54
1509,0,-1,-2,0,3,1,8,2,7.545
1510,-3,-2,-1,-3,-2,0,-5,-1,7.55
1511,1,-1,-2,4,7,-1,1,-1,7.555
1512,2,-1,-1,-2,2,-1,-1,2,7.5600000000000005
1513,1,1,-1,3,-3,0,-4,-2,7.565
1514,-3,-4,-1,-5,-3,-1,2,-3,7.57
1515,-2,0,-3,1,-1,-4,5,2,7.575
1516,-1,0,1,-6,-3,-1,-2,-2,7.58
1517,-2,1,-1,-1,0,-2,0,0,7.585
1518,-1,-2,-3,0,-1,-2,0,0,7.59
1519,0,-2,0,4,0,0,-2,-1,7.595
1520,-2,-4,-5,-13,-10,1,6,1,7.6000000000000005
1521,-1,-1,2,9,11,3,-3,0,7.605
1522,1,1,-1,2,2,-2,0,1,7.61
1523,2,0,-3,-10,-4,-2,-4,0,7.615
1524,-2,-5,-1,7,1,0,1,-2,7.62
1525,-5,3,-1,-6,-2,-2,-5,-3,7.625
1526,0,-1,6,5,4,4,1,-3,7.63
1527,-4,-5,-7,-1,1,1,-14,-5,7.635
1528,4,0,-3,-24,-13,-1,15,6,7.640000000000001
1529,4,1,-8,-24,-12,-5,2,-6,7.6450000000000005
1530,-10,-9,3,-1,-2,4,-8,0,7.65
1531,1,1,7,25,10,-7,-2,6,7.655
1532,-1,2,-11,-32,-5,-8,-12,-7,7.66
1533,-1,-2,11,35,11,6,-29,-16,7.665
1534,1,-3,-4,15,8,7,47,6,7.67
1535,2,-3,-9,-52,-40,-10,14,14,7.675
1536,5,6,18,64,54,7,-1,7,7.68
1537,-16,-16,-23,-5,-9,-9,-24,-13,7.6850000000000005
1538,2,-6,13,-14,-26,-4,-14,-15,7.69
1539,0,-7,7,61,37,9,31,15,7.695
1540,2,0,-8,-50,-35,-2,23,11,7.7
1541,4,11,12,53,22,4,-13,5,7.705
1542,-13,15,-15,-50,-24,-7,-16,-21,7.71
1543,-15,23,-6,-54,-13,-2,-12,-19,7.715
1544,2,72,-25,-24,-25,-20,-29,2,7.72
1545,10,95,36,40,42,45,69,9,7.7250000000000005
1546,0,-2,-13,36,-14,-27,-49,2,7.73
1547,17,90,28,19,38,14,19,13,7.735
1548,-2,61,14,74,19,-3,48,18,7.74
1549,6,30,-23,-109,-67,-27,-51,-25,7.745
1550,-10,6,-19,-12,27,2,38,-6,7.75
1551,-17,-20,10,-41,-22,21,8,18,7.755
1552,3,-49,3,-73,18,-22,-47,-6,7.76
1553,0,-45,-7,-53,-11,-33,-29,0,7.765000000000001
1554,1,-50,-11,-39,9,35,75,-2,7.7700000000000005
1555,-2,-72,-15,-13,-30,-20,17,0,7.775
1556,-9,3,2,-40,-24,33,-15,-21,7.78
1557,-8,-54,-36,-72,-27,-65,-49,-4,7.785
1558,-4,-39,7,-14,-25,-4,-56,-21,7.79
1559,2,-51,-3,25,12,-16,-60,-5,7.795
1560,4,-49,25,69,25,12,85,33,7.8
1561,-2,-40,-69,-36,-50,-2,-28,-14,7.805000000000001
1562,4,-24,82,127,88,39,81,0,7.8100000000000005
1563,-11,-28,-47,-19,-40,-45,-49,5,7.815
1564,10,4,6,39,-3,-19,-49,-10,7.82
1565,-10,31,2,-1,12,27,59,17,7.825
1566,-1,30,-64,-84,-38,-30,7,16,7.83
1567,15,51,75,100,5,23,27,-15,7.835
1568,-17,-81,-26,-21,-1,-5,-26,-21,7.84
1569,-13,-104,-14,56,38,15,16,2,7.845
1570,-14,-95,8,-56,-28,24,-109,-44,7.8500000000000005
1571,-6,-111,-2,-66,-34,-31,6,-6,7.855
1572,38,-62,39,99,-8,-23,66,68,7.86
1573,30,-52,77,88,35,10,35,36,7.865
1574,-8,-13,-56,-43,-22,-13,-17,4,7.87
1575,-24,79,-60,-68,-11,4,-38,-33,7.875
1576,-18,58,27,-7,21,21,-32,-35,7.88
1577,1,86,-11,-6,-17,13,42,4,7.885
1578,4,127,19,19,9,-23,-98,-11,7.890000000000001
1579,0,70,-18,-19,20,28,81,6,7.8950000000000005
1580,5,99,-40,-44,3,18,-30,-14,7.9
1581,-4,127,10,56,14,-32,3,11,7.905
1582,31,97,42,38,-11,-33,32,42,7.91
1583,2,11,-2,-49,-9,-28,-29,-5,7.915
1584,13,4,24,12,-6,10,29,7,7.92
1585,-20,-61,-28,13,-6,21,-17,-13,7.925
1586,-8,-67,-29,-58,-22,14,20,-2,7.930000000000001
1587,4,-43,28,30,-5,7,-2,-11,7.9350000000000005
1588,-4,-69,0,33,31,15,-15,-11,7.94
1589,-9,2,29,-21,-3,3,-8,-16,7.945
1590,10,-14,44,33,0,11,10,21,7.95
1591,-22,-72,-75,39,83,64,40,-23,7.955
1592,-2,4,36,-14,-30,-59,-45,11,7.96
1593,29,35,-28,78,38,-6,25,38,7.965
1594,-5,34,-14,0,-27,-30,14,3,7.97
1595,-9,-39,89,90,96,85,-69,-14,7.9750000000000005
1596,-13,2,-44,-85,-55,-51,-6,-19,7.98
1597,27,-26,14,-47,-6,-14,20,21,7.985
1598,2,12,30,-46,42,7,-12,20,7.99
1599,-5,65,-62,-52,-96,-26,-77,-31,7.995
1600,-26,-81,-21,-21,-22,30,92,-11,8.0
1601,-19,-19,17,-92,-70,2,-51,-23,8.005
1602,18,-13,-5,-47,22,-19,92,36,8.01
1603,30,42,-12,-38,-21,-23,32,33,8.015
1604,-7,17,26,99,70,26,-53,-13,8.02
1605,5,-30,-18,-20,-12,-12,-64,-30,8.025
1606,-32,-57,-8,-9,-20,11,30,-27,8.03
1607,12,-29,26,20,-8,-3,8,19,8.035
1608,1,-65,-9,-81,9,17,-102,-32,8.040000000000001
1609,-23,-63,3,-49,-10,5,71,2,8.045
1610,33,67,-33,26,-5,-14,3,36,8.05
1611,14,41,35,50,12,-11,24,27,8.055
1612,6,36,-48,-46,-10,-6,-22,-10,8.06
1613,-22,31,0,-28,-7,33,6,-16,8.065
1614,-13,-7,48,77,71,-34,-32,-3,8.07
1615,4,65,-53,-118,-91,-39,-27,-11,8.075
1616,-25,12,-29,0,-27,14,-12,-22,8.08
1617,27,-11,28,87,36,14,80,26,8.085
1618,8,-11,-86,36,-19,13,-59,-24,8.09
1619,-8,-19,98,127,104,0,68,35,8.095
1620,16,42,30,39,14,-32,7,13,8.1
1621,-20,17,-4,-35,-16,-14,-34,-22,8.105
1622,-12,-19,23,10,41,38,-4,-6,8.11
1623,-8,-28,-54,-52,-32,-23,-28,-11,8.115
1624,0,12,-5,-10,-11,0,22,2,8.120000000000001
1625,-9,-12,10,36,34,-7,-48,-10,8.125
1626,-19,-101,64,41,18,62,17,-26,8.13
1627,4,8,-45,-5,-12,-6,-41,3,8.135
1628,25,25,39,-73,-69,-31,-16,7,8.14
1629,35,60,20,114,62,25,56,50,8.145
1630,-5,-61,-37,-18,-5,23,-36,-27,8.15
1631,-17,37,33,18,-19,-60,114,39,8.155
1632,-8,0,-28,-7,49,22,-10,13,8.16
1633,16,-107,-23,1,-7,-2,-21,-9,8.165000000000001
1634,1,-46,11,-56,-37,-5,-10,-6,8.17
1635,-3,-56,5,0,-15,18,-39,-29,8.175
1636,-17,-28,-64,-43,10,20,19,-11,8.18
1637,-22,30,87,-31,-22,0,5,-8,8.185
1638,11,82,10,113,18,-6,15,16,8.19
1639,-3,-3,-6,20,14,4,-73,-31,8.195
1640,3,26,4,-33,-35,-11,81,34,8.2
1641,1,-26,-31,-25,0,73,12,-22,8.205
1642,5,46,-23,-16,-20,-81,-71,10,8.21
1643,38,51,5,-11,-5,-12,25,31,8.215
1644,-12,-18,4,5,1,23,-11,-19,8.22
1645,-28,9,-21,-6,-18,-43,-6,-7,8.225
1646,0,-3,6,-13,-14,4,20,-1,8.23
1647,7,-21,-25,-11,13,23,42,-3,8.235
1648,-3,-14,-9,-66,-32,-11,-4,-6,8.24
1649,-9,-6,-32,-67,-21,19,13,-8,8.245000000000001
1650,-5,16,45,90,56,6,-30,1,8.25
1651,-12,-18,-59,-107,-57,5,-14,-15,8.255
1652,10,15,73,93,31,13,60,26,8.26
1653,7,43,-47,-64,-36,-56,-54,-6,8.265
1654,9,48,19,-13,-35,-9,-5,8,8.27
1655,6,-22,-37,-27,-25,-5,-11,3,8.275
1656,-19,-4,-46,15,26,12,-35,-22,8.28
1657,-10,-46,56,76,47,56,11,-7,8.285
1658,6,-2,-51,-22,20,-12,74,37,8.290000000000001
1659,15,61,16,15,-50,-10,63,3,8.295
1660,5,60,-3,17,-27,-47,-36,13,8.3
1661,9,4,37,25,20,12,-73,-6,8.305
1662,-15,-11,-43,-57,-32,-28,-33,-23,8.31
1663,-18,-27,64,98,65,28,28,3,8.315
1664,8,-16,-8,35,-2,6,37,17,8.32
1665,9,16,-2,70,29,-9,8,2,8.325
1666,-5,-24,-49,-86,-83,13,-22,-20,8.33
1667,-19,-30,20,-24,6,-9,-69,-30,8.335
1668,-6,-24,15,17,18,5,15,-6,8.34
1669,8,29,13,37,17,-16,13,19,8.345
1670,0,-12,-8,-13,7,5,8,0,8.35
1671,-23,-79,-22,-23,6,59,-53,-45,8.355
1672,-21,-12,8,-62,-50,-34,-30,-27,8.36
1673,38,74,-2,-20,40,2,84,94,8.365
1674,31,45,12,-3,-39,-42,-22,30,8.370000000000001
1675,11,33,-15,-11,-3,-21,-29,9,8.375
1676,-11,-53,-5,69,47,88,-70,-45,8.38
1677,-40,-42,-21,-108,-95,-63,12,-32,8.385
1678,9,37,5,19,47,3,50,14,8.39
1679,2,-12,-5,-23,4,13,-1,1,8.395
1680,-6,-4,2,-53,-26,-10,-15,-15,8.4
1681,-8,-4,22,61,31,15,-25,-16,8.405
1682,-8,-37,-18,-4,0,24,30,2,8.41
1683,1,0,35,2,9,-16,-10,-2,8.415000000000001
1684,9,34,-20,-10,-3,-13,9,10,8.42
1685,1,0,-40,-28,-22,-10,0,0,8.425
1686,-8,-11,32,27,5,5,-6,-12,8.43
1687,1,-1,5,19,34,7,7,6,8.435
1688,7,9,-25,8,-4,-20,15,18,8.44
1689,-1,-24,17,15,5,10,-23,-19,8.445
1690,-5,-28,3,-5,8,22,7,-13,8.45
1691,-11,13,7,12,-12,-26,-10,8,8.455
1692,23,0,9,-3,14,16,40,30,8.46
1693,-2,-9,-4,-10,-15,-12,-15,-11,8.465
1694,-12,16,-12,-37,-16,-45,-30,-18,8.47
1695,1,9,-12,6,21,58,76,10,8.475
1696,1,6,8,21,5,11,-23,4,8.48
1697,-3,-23,-3,-2,5,14,-18,-6,8.485
1698,0,-84,-1,10,2,10,4,3,8.49
1699,-1,-35,5,-1,-2,-26,-8,-3,8.495000000000001
1700,-3,15,17,22,19,-17,-1,-1,8.5
1701,3,5,-15,-23,-17,-9,-7,-2,8.505
1702,-2,-41,-9,0,1,-1,-1,-2,8.51
1703,0,-75,15,15,5,-6,-11,1,8.515
1704,0,-68,1,-9,-11,-1,9,-3,8.52
1705,-1,-31,-10,-9,-2,-9,-5,1,8.525
1706,-4,-64,2,-3,5,14,2,-2,8.53
1707,5,-101,-2,1,5,-8,1,0,8.535
1708,-2,-128,-6,-2,-5,-4,7,3,8.540000000000001
1709,-3,-100,-4,-6,-3,1,0,1,8.545
1710,2,-6,10,15,6,9,-9,-1,8.55
1711,-4,74,-4,-15,-4,-12,-4,0,8.555
1712,-1,102,1,6,3,-7,8,3,8.56
1713,-4,94,-8,-7,-4,0,-5,-2,8.565
1714,1,99,9,0,2,5,7,-2,8.57
1715,1,95,-3,-3,-1,2,6,1,8.575000000000001
1716,-1,77,1,9,2,6,7,0,8.58
1717,3,52,-4,2,-1,4,0,0,8.585
1718,3,53,0,-2,2,-2,1,1,8.59
1719,1,36,2,11,2,-4,-4,0,8.595
1720,-1,29,-3,-2,0,-3,-5,-1,8.6
1721,-2,106,-3,-8,-4,-3,-3,-2,8.605
1722,-3,127,2,-5,-1,1,-1,-2,8.61
1723,-1,127,-3,3,-1,-2,-5,0,8.615
1724,-3,97,2,-4,-5,-3,-1,-2,8.620000000000001
1725,0,88,-5,-7,-5,-5,-4,0,8.625
1726,-3,61,5,1,1,3,3,-3,8.63
1727,0,117,-3,-14,-4,-4,-2,0,8.635
1728,-1,125,8,27,7,5,5,0,8.64
1729,-1,127,-2,-6,-4,-1,-3,-2,8.645
1730,-2,115,-1,2,1,2,0,-1,8.65
1731,2,49,-2,1,-1,-2,-1,-2,8.655
1732,0,13,-1,-6,0,-5,-3,0,8.66
1733,-2,-111,-2,-1,2,0,-1,0,8.665000000000001
1734,2,-124,4,5,1,2,-2,-1,8.67
1735,-1,-128,0,1,3,3,-10,-2,8.675
1736,1,-119,-5,-15,-7,-6,-3,-3,8.68
1737,-8,-128,1,4,3,-3,7,1,8.685
1738,-1,-128,-1,-7,-4,2,8,1,8.69
1739,1,-119,3,3,0,-3,1,-1,8.695
1740,-1,-117,0,2,-3,-1,-2,-5,8.700000000000001
1741,7,-108,0,-2,-3,0,-3,-1,8.705
1742,-9,-95,-3,0,-2,-3,-3,-4,8.71
1743,2,-69,0,0,-1,-1,0,1,8.715
1744,-4,-72,-2,-2,-1,-1,-1,-1,8.72
1745,-1,-60,-3,-4,-2,-4,-3,-1,8.725
1746,1,-29,0,1,0,2,-1,0,8.73
1747,-3,-30,-2,-3,-6,-2,-2,-1,8.735
1748,2,0,-2,0,7,0,0,0,8.74
1749,0,15,-3,-2,-4,-2,3,-1,8.745000000000001
1750,-4,10,2,2,3,2,1,0,8.75
1751,4,-3,0,-1,-3,-3,-1,1,8.755
1752,-3,-9,0,0,-4,-2,-1,0,8.76
1753,-6,-5,-1,0,0,0,-7,-5,8.765
1754,4,6,-2,-3,-2,3,-1,0,8.77
1755,0,-4,0,-1,0,-2,-16,-4,8.775
1756,-1,0,2,3,-1,-4,22,6,8.78
1757,5,6,-1,-2,-2,-4,0,3,8.785
1758,2,14,0,2,-1,0,5,0,8.790000000000001
1759,-2,17,-4,-1,3,1,0,-2,8.795
1760,-1,11,-3,-2,-1,1,-10,-4,8.8
1761,-4,-1,-2,0,0,-2,-3,-1,8.805
1762,-1,-1,-1,0,-2,-2,1,-1,8.81
1763,-2,0,1,1,0,-1,0,-1,8.815
1764,-4,-2,0,-2,-2,1,-4,-3,8.82
1765,-1,-3,0,-2,1,3,0,-1,8.825000000000001
1766,5,10,0,-1,3,1,1,6,8.83
1767,2,6,-2,0,-4,-6,1,0,8.835
1768,-2,-1,0,0,-3,-1,-2,-1,8.84
1769,-1,-2,-2,-1,-1,1,-1,-3,8.845
1770,0,-2,-3,-1,3,2,-5,-3,8.85
1771,-5,-6,-2,-7,-8,-1,3,-1,8.855
1772,0,-9,-2,-2,2,-2,1,-2,8.86
1773,-4,-10,-2,-3,-2,-2,-2,-5,8.865
1774,1,7,-2,-1,0,-1,0,0,8.870000000000001
1775,3,11,-3,-2,0,0,1,-1,8.875
1776,-7,3,-1,1,-6,0,2,-1,8.88
1777,0,4,-1,4,4,-1,1,5,8.885
1778,-1,-1,-2,-6,-2,-5,-5,1,8.89
1779,2,2,0,2,5,0,0,0,8.895
1780,-1,7,-1,0,0,2,4,1,8.9
1781,1,1,0,4,0,0,0,-1,8.905
1782,-3,-1,0,-3,-3,-1,-4,0,8.91
1783,1,0,0,1,-1,-1,-2,0,8.915000000000001
1784,1,2,0,1,-2,-3,-5,-2,8.92
1785,0,0,-3,-3,-1,0,3,-2,8.925
1786,0,3,-2,-1,-2,-1,-1,-1,8.93
1787,0,3,-1,-2,0,1,4,0,8.935
1788,0,5,-2,-1,-2,-2,-3,-3,8.94
1789,2,6,1,1,2,-1,-1,0,8.945
1790,-5,2,-5,-7,-3,-3,-6,-7,8.950000000000001
1791,0,0,6,7,2,2,5,0,8.955
1792,3,3,-2,-5,-2,-2,3,5,8.96
1793,-3,3,0,-2,-2,-2,-5,-3,8.965
1794,0,4,-3,-4,-1,0,1,0,8.97
1795,-4,2,0,2,0,-1,-4,-1,8.975
1796,3,9,-1,-3,-1,2,-2,-2,8.98
1797,1,33,-1,-2,-3,1,5,4,8.985
1798,-1,14,1,2,1,-2,1,-1,8.99
1799,0,3,-2,-2,-2,-3,-2,2,8.995000000000001
1800,-1,-7,-1,2,-2,-1,-12,-5,9.0
1801,-1,-12,0,0,1,4,9,1,9.005
1802,-3,-10,-1,-1,-3,-3,11,1,9.01
1803,1,-7,0,-2,-1,-2,-9,-1,9.015
1804,-4,-5,-1,0,-3,-2,1,-1,9.02
1805,-1,-5,0,-1,1,0,-8,-3,9.025
1806,-1,-3,0,1,1,3,2,-2,9.03
1807,-5,-6,-4,-4,-2,-4,5,1,9.035
1808,1,0,1,-1,4,-1,4,3,9.040000000000001
1809,5,0,-2,-2,-8,-4,-6,-1,9.045
1810,-1,-3,3,8,10,4,1,1,9.05
1811,-1,2,-1,3,0,0,2,-3,9.055
1812,-2,3,-5,-5,-1,-1,-7,-3,9.06
1813,-7,-3,0,1,0,-2,0,-2,9.065
1814,0,-1,0,-1,-1,-2,-3,-1,9.07
1815,-1,1,-2,-3,-3,1,-2,-2,9.075000000000001
1816,1,3,-1,4,0,-1,-1,-1,9.08
1817,3,-1,0,-3,-1,0,2,3,9.085
1818,-3,-2,-4,-1,-2,-2,-4,-2,9.09
1819,-5,-1,0,-2,1,-2,-1,-1,9.095
1820,-2,-2,-3,-6,-2,-3,-2,-1,9.1
1821,0,1,-1,8,2,0,-2,-2,9.105
1822,3,0,0,1,-2,-1,-5,0,9.11
1823,0,0,-1,-2,-1,-2,-1,-1,9.115
1824,-1,-1,0,0,1,-1,3,2,9.120000000000001
1825,-4,-2,-1,-2,-3,-2,0,0,9.125
1826,-2,2,-3,-2,1,0,-1,1,9.13
1827,-3,-2,-1,-3,0,2,1,-2,9.135
1828,0,2,2,-1,-1,-2,-9,-3,9.14
1829,-1,-2,0,-6,-8,-1,6,2,9.145
1830,2,1,2,5,1,-2,0,2,9.15
1831,1,2,-3,0,1,-3,-1,-1,9.155
1832,-2,1,-2,-4,-2,0,1,-1,9.16
1833,-1,0,-1,1,1,-1,-7,-6,9.165000000000001
1834,-3,0,-1,-2,-4,0,0,-3,9.17
1835,1,1,-1,-3,-2,-1,3,1,9.175
1836,-1,-1,-1,-7,-3,1,-3,-1,9.18
1837,2,2,0,8,-1,-4,0,-1,9.185
1838,-3,-2,0,-2,2,1,0,-2,9.19
1839,0,1,0,6,2,1,-3,-1,9.195
1840,1,0,-1,-1,-3,-1,0,-2,9.200000000000001
1841,-3,-4,-4,-4,-1,-3,-1,-1,9.205
1842,-1,-1,1,-1,-4,-1,-1,-2,9.21
1843,-2,-1,-1,-3,-2,1,4,1,9.215
1844,-1,-1,-2,2,0,-1,-5,0,9.22
1845,-1,-2,0,-1,0,-3,-1,-2,9.225
1846,-2,1,-1,0,-1,-2,-9,-5,9.23
1847,-1,-1,-2,-2,-3,-2,4,-1,9.235
1848,2,0,2,4,2,2,6,6,9.24
1849,2,0,-1,-6,-2,1,-1,-3,9.245000000000001
1850,0,0,-3,-3,-3,-2,-6,-1,9.25
1851,2,3,0,-1,1,1,7,2,9.255
1852,-4,-1,-3,0,0,-2,-3,-3,9.26
1853,-3,-1,0,0,2,2,-1,0,9.265
1854,7,0,-1,-1,-3,-2,2,1,9.27
1855,0,0,-2,-5,-3,-1,-4,-1,9.275
1856,-3,-2,0,5,3,-1,3,0,9.28
1857,1,-1,-2,-1,1,2,-3,-1,9.285
1858,-3,-2,-1,-3,-6,-2,-2,-3,9.290000000000001
1859,0,-3,0,7,4,-1,-1,0,9.295
1860,1,2,0,1,4,0,2,0,9.3
1861,-3,-1,-3,-1,0,-1,0,-2,9.305
1862,-2,2,-1,1,2,2,3,1,9.31
1863,-1,0,0,-5,-3,-4,-6,1,9.315
1864,0,1,1,4,-3,-1,-2,-2,9.32
1865,-2,0,0,-2,-1,0,-1,0,9.325000000000001
1866,2,1,0,-4,-2,1,-1,2,9.33
1867,2,1,-1,-1,-2,0,0,-2,9.335
1868,-1,-2,-2,-2,0,-1,-2,-3,9.34
1869,1,-1,-1,-1,-2,-1,-2,1,9.345
1870,-3,-2,-1,0,-1,-1,3,-1,9.35
1871,-1,0,0,2,0,2,0,-3,9.355
1872,-1,-3,-4,-4,-5,-2,-4,0,9.36
1873,-2,2,1,1,-1,0,7,3,9.365
1874,0,-2,1,-2,1,1,-9,-2,9.370000000000001
1875,-3,0,-2,-1,3,-1,5,1,9.375
1876,2,2,0,-1,-1,0,3,1,9.38
1877,-1,-1,-1,-2,-4,-1,-4,-3,9.385
1878,-2,-1,-1,1,0,-2,2,-2,9.39
1879,-2,-2,0,-2,-3,-2,-8,-4,9.395
1880,-1,-2,-4,-6,-9,-2,-1,-3,9.4
1881,-1,0,0,8,10,0,-1,0,9.405
1882,-2,-2,-3,-1,-1,0,1,0,9.41
1883,-2,-4,-1,-4,-1,0,1,0,9.415000000000001
1884,-2,1,1,1,0,-2,0,-1,9.42
1885,1,-2,-1,-3,-2,0,-1,0,9.425
1886,-1,-2,-2,0,-3,-2,-1,0,9.43
1887,-3,0,-1,2,-1,-1,-4,-2,9.435
1888,-1,-1,-1,-1,2,2,4,1,9.44
1889,0,-1,-1,-4,-4,0,-1,1,9.445
1890,0,-2,3,3,0,-3,0,0,9.450000000000001
1891,-1,0,-2,-3,-3,-2,-1,1,9.455
1892,0,2,3,3,1,-1,-2,-2,9.46
1893,-1,1,-3,2,-2,0,0,-1,9.465
1894,-2,-1,-7,-9,-1,1,1,-1,9.47
1895,0,-1,0,0,0,2,-1,-2,9.475
1896,0,-2,-1,-2,0,-1,-2,0,9.48
1897,0,0,2,-1,-3,-4,-2,-1,9.485
1898,0,2,2,0,2,-1,1,1,9.49
1899,-2,0,-1,-2,-1,0,-2,-1,9.495000000000001
1900,-1,-1,-2,-5,-1,-1,2,-1,9.5
1901,-1,0,-2,-5,-6,-1,0,-1,9.505
1902,0,0,3,3,4,0,2,-1,9.51
1903,-2,-3,-2,4,0,-1,0,-1,9.515
1904,-2,-1,0,-4,-2,-1,0,-1,9.52
1905,0,-1,0,-2,-1,0,-2,-1,9.525
1906,0,-2,-3,0,2,0,-1,-2,9.53
1907,-1,-1,-2,-5,-3,-3,-2,-1,9.535
1908,0,1,7,16,2,-1,0,-2,9.540000000000001
1909,-2,-4,-10,-14,-4,-1,-1,-1,9.545
1910,-2,-1,-1,1,-4,-1,1,0,9.55
1911,1,1,2,1,0,0,1,1,9.555
1912,-1,0,-2,-5,-3,-1,-3,-2,9.56
1913,0,-2,-2,0,2,1,0,0,9.565
1914,-1,0,6,-1,-4,-2,-3,-3,9.57
1915,-2,-2,-2,-2,0,0,0,-1,9.575000000000001
1916,-1,-2,-5,1,0,1,-1,-2,9.58
1917,-2,-1,-1,-4,-2,0,-3,0,9.585
1918,-1,-3,-8,-7,-2,0,0,1,9.59
1919,0,1,4,1,-1,-2,-1,0,9.595
1920,-1,-1,-1,13,0,-3,-1,-2,9.6
1921,0,0,-13,-7,0,1,0,0,9.605
1922,-1,0,17,-1,-1,1,1,0,9.61
1923,-2,-1,-9,-15,-5,-3,-3,0,9.615
1924,-1,-1,4,-3,0,-2,0,0,9.620000000000001
1925,-1,0,-14,11,5,0,1,-3,9.625
1926,1,1,4,-4,-7,-6,-2,-1,9.63
1927,3,1,16,35,10,1,-3,-1,9.635
1928,-3,-3,2,-15,-2,0,3,1,9.64
1929,0,-4,-11,-11,-6,-1,-2,-3,9.645
1930,-3,-2,-12,-3,3,1,-1,0,9.65
1931,0,-4,-32,-26,-7,-1,1,-2,9.655
1932,1,4,20,23,1,-2,-3,0,9.66
1933,-1,-1,15,0,1,-1,-1,0,9.665000000000001
1934,1,-2,-8,-3,-2,-1,-2,0,9.67
1935,0,-1,25,11,2,-2,-2,-1,9.675
1936,-3,-7,-22,-8,1,3,1,0,9.68
1937,-2,-3,23,19,1,-2,-1,-1,9.685
1938,0,-7,-12,4,5,2,-1,-1,9.69
1939,-4,-14,-17,-25,-3,1,1,0,9.695
1940,0,2,13,-6,-8,-3,-2,-2,9.700000000000001
1941,-3,-7,-19,-12,-2,-3,-4,-3,9.705
1942,-1,3,4,-6,0,-4,-1,0,9.71
1943,-2,1,6,12,-3,-1,0,0,9.715
1944,-2,-2,-6,-3,2,1,1,0,9.72
1945,2,6,7,11,0,-2,-1,0,9.725
1946,-1,1,6,32,-1,-1,0,-2,9.73
1947,0,7,14,10,-4,-1,0,0,9.735
1948,-1,-3,-38,-59,-5,-2,-2,-2,9.74
1949,-1,3,5,3,3,0,1,0,9.745000000000001
1950,0,0,-14,-21,-3,0,-1,-1,9.75
1951,1,7,23,38,4,0,0,1,9.755
1952,-4,-4,-7,3,3,2,-3,-2,9.76
1953,0,-2,-12,-11,-4,-2,0,0,9.765
1954,-4,0,12,-24,-12,-5,-3,-4,9.77
1955,-2,-4,-22,10,6,-1,-1,-1,9.775
1956,1,2,-6,-3,-5,-2,-2,0,9.78
1957,0,-1,4,7,-3,3,2,2,9.785
1958,-1,1,11,-7,-4,-1,-1,0,9.790000000000001
1959,3,4,6,-7,4,2,0,-1,9.795
1960,2,-1,-10,5,0,-1,-1,1,9.8
1961,0,-3,24,-13,0,1,-2,1,9.805
1962,-1,2,-23,19,6,-2,-1,-1,9.81
1963,-2,0,8,-11,-7,-1,-1,-1,9.815
1964,1,-3,-1,4,-1,-2,0,1,9.82
1965,-1,5,15,17,0,-2,-1,-2,9.825000000000001
1966,-2,-8,-9,-2,-3,2,2,0,9.83
1967,0,-1,-15,-19,-6,0,-3,-1,9.835
1968,-2,4,15,16,-3,-2,-1,-3,9.84
1969,0,1,-3,11,7,2,0,-1,9.845
1970,3,4,12,19,1,-1,-1,-1,9.85
1971,-5,-10,-18,-27,-8,-4,-3,-4,9.855
1972,2,4,17,6,-3,-3,-6,-1,9.86
1973,-2,-5,-18,-18,3,5,5,0,9.865
1974,0,-2,9,20,7,6,2,0,9.870000000000001
1975,-1,1,11,24,3,1,1,-1,9.875
1976,-1,0,0,-8,-6,-3,-4,-1,9.88
1977,-2,-1,-16,1,0,-5,-5,-3,9.885
1978,1,2,11,0,-5,-3,-2,-1,9.89
1979,0,-3,-1,-11,-2,-2,-1,-2,9.895
1980,-2,-1,-6,9,5,-2,-2,-1,9.9
1981,1,5,7,-10,-6,0,-1,0,9.905
1982,-3,-4,-5,7,-1,-5,-1,-1,9.91
1983,-2,-1,-6,-6,0,3,2,0,9.915000000000001
1984,-1,-3,-11,-8,5,2,3,0,9.92
1985,0,0,0,4,1,-3,0,0,9.925
1986,-4,-4,0,-15,-3,-1,-2,-1,9.93
1987,2,5,1,15,0,-1,-3,0,9.935
1988,-5,-6,-18,-20,-5,-1,1,-1,9.94
1989,-3,0,26,-1,-2,-2,-1,-3,9.945
1990,-3,-7,-26,-3,0,0,1,-2,9.950000000000001
1991,3,4,15,-7,1,-1,0,-1,9.955
1992,-2,0,20,14,2,2,1,0,9.96
1993,0,-1,3,4,-5,-1,-3,0,9.965
1994,-1,1,-8,-12,0,0,0,0,9.97
1995,-1,-1,-2,-5,-5,-1,0,-1,9.975
1996,2,3,11,18,2,-2,-1,0,9.98
1997,0,-6,-9,-11,-1,0,-2,0,9.985
1998,1,1,4,0,3,2,0,1,9.99
1999,2,-1,-10,6,0,-1,-3,0,9.995000000000001
2000,-4,-1,6,2,-5,-1,-1,-1,10.0
2001,1,1,-14,-14,-4,1,1,-2,10.005
2002,-3,-3,-5,-10,-5,-1,-1,-3,10.01
2003,7,1,1,-3,-4,-1,1,2,10.015
2004,-8,-6,0,-18,-9,-4,-1,-2,10.02
2005,-2,-5,-15,23,17,1,-2,-2,10.025
2006,7,4,4,-3,-1,-1,-1,0,10.03
2007,-4,-4,-7,-14,-6,-2,0,-3,10.035
2008,-2,-1,7,10,7,3,-1,-2,10.040000000000001
2009,1,-1,-5,0,-1,-2,0,0,10.045
2010,-16,-8,9,6,-1,0,6,-4,10.05
2011,2,1,5,1,2,2,-12,-1,10.055
2012,9,3,-15,-4,-2,-2,4,-2,10.06
2013,6,-2,-1,-16,-2,-4,0,8,10.065
2014,-10,-6,-2,3,2,-2,-4,9,10.07
2015,-5,0,6,11,-1,-2,6,-3,10.075000000000001
2016,-3,0,-2,-12,0,0,2,0,10.08
2017,0,-2,1,3,-7,1,-6,-6,10.085
2018,6,5,4,1,-2,-3,-2,-4,10.09
2019,-10,-5,-11,-9,-3,1,-3,0,10.095
2020,5,0,3,-6,-5,-2,-6,1,10.1
2021,8,7,7,32,8,1,6,4,10.105
2022,0,-3,-7,-10,0,0,-3,-1,10.11
2023,-6,-1,-1,-3,-5,-2,-5,-6,10.115
2024,-3,3,-6,-1,2,-1,3,-2,10.120000000000001
2025,-4,3,1,-12,-5,-4,-3,1,10.125
2026,2,5,3,6,-4,1,-1,-2,10.13
2027,1,3,-7,-9,0,0,5,-1,10.135
2028,-1,1,4,16,5,-1,-7,-2,10.14
2029,-5,1,0,-8,-3,0,4,-2,10.145
2030,2,2,-2,-4,3,1,-13,-2,10.15
2031,-1,-2,-4,-6,-5,-6,5,1,10.155
2032,10,2,1,2,6,5,0,3,10.16
2033,-12,-12,-11,-47,-21,-6,-5,-3,10.165000000000001
2034,9,-5,3,41,14,-1,7,2,10.17
2035,-9,-9,-5,-1,4,-2,-4,-2,10.175
2036,-1,-10,1,7,1,-2,-4,-3,10.18
2037,2,0,-1,2,4,3,-1,-2,10.185
2038,-1,-3,2,-9,-7,0,0,-2,10.19
2039,-1,-3,-2,0,2,-1,-1,1,10.195
2040,-1,0,-3,-3,-4,-2,0,1,10.200000000000001
2041,1,-1,2,13,5,1,-1,-4,10.205
2042,0,1,-2,-7,-5,-1,0,0,10.21
2043,1,2,3,5,4,1,-3,-1,10.215
2044,-4,3,-5,-14,-9,-2,-5,-3,10.22
2045,1,1,4,8,1,-1,2,-1,10.225
2046,1,7,-3,-4,-1,-2,-1,-1,10.23
2047,2,0,-5,-7,1,0,-1,0,10.235
2048,-2,-1,1,-11,-10,1,6,3,10.24
2049,-2,-1,-1,4,1,-1,-3,1,10.245000000000001
2050,-3,-1,-1,-6,1,-1,-1,-2,10.25
2051,0,-1,1,4,-1,-1,-3,-1,10.255
2052,0,-1,-1,-1,0,-1,0,-2,10.26
2053,3,4,1,7,0,-3,-2,-3,10.265
2054,-1,-1,-5,-16,-4,0,-2,-1,10.27
2055,-4,-4,-2,-6,-5,-2,-4,-4,10.275
2056,-1,0,-2,11,6,0,-1,1,10.28
2057,-1,-1,0,2,0,1,-1,-3,10.285
2058,-2,-1,-1,3,-1,0,1,-1,10.290000000000001
2059,0,-2,-3,-4,-2,0,4,1,10.295
2060,2,1,2,9,5,2,-1,-1,10.3
2061,-3,0,1,0,-6,-1,0,1,10.305
2062,-1,-3,-3,-10,-3,-3,-2,-2,10.31
2063,0,0,-4,5,0,-1,-1,-2,10.315
2064,-5,-4,-1,-18,-8,-1,2,-1,10.32
2065,6,2,0,8,1,-1,-2,0,10.325000000000001
2066,-1,-3,1,-1,1,2,-1,-2,10.33
2067,-1,-2,-1,1,-1,0,0,-1,10.335
2068,-1,0,-4,-1,-1,0,-4,-3,10.34
2069,-4,-5,-1,-3,1,-1,-2,-3,10.345
2070,1,0,-1,-3,-7,-3,1,1,10.35
2071,2,1,-2,-2,-1,-2,2,2,10.355
2072,0,0,1,7,-1,-2,-4,-1,10.36
2073,-3,1,-3,0,0,-1,0,0,10.365
2074,0,1,2,0,0,0,-1,-2,10.370000000000001
2075,1,2,1,0,5,2,-3,-2,10.375
2076,4,2,0,-2,-3,0,2,4,10.38
2077,-2,-1,-1,0,0,0,-1,0,10.385
2078,-6,-2,-1,-6,-6,-5,-2,-4,10.39
2079,3,0,6,6,4,-1,-1,0,10.395
2080,-5,-6,-4,4,3,-1,0,-5,10.4
2081,-1,-2,-1,-2,-4,-1,-2,0,10.405
2082,5,3,1,-1,-2,0,3,3,10.41
2083,-4,-3,-3,-14,-2,0,-2,-2,10.415000000000001
2084,-1,0,3,15,1,-1,-1,-1,10.42
2085,-1,0,-1,0,-1,-1,0,1,10.425
2086,-1,-4,-5,-5,2,2,1,-1,10.43
2087,-1,-1,0,1,-4,0,-6,-1,10.435
2088,-1,-2,-1,-5,-4,-1,-4,-3,10.44
2089,4,0,-1,-2,-2,-2,-17,-4,10.445
2090,-1,1,-2,3,2,-1,10,3,10.450000000000001
2091,1,0,-2,-4,-4,-4,6,4,10.455
2092,3,2,1,-5,0,1,0,0,10.46
2093,-3,0,0,1,0,-1,2,-3,10.465
2094,-4,-3,-2,-6,-4,-1,-6,-5,10.47
2095,-1,-3,-3,2,0,0,0,-2,10.475
2096,-2,-3,1,3,-1,-1,4,0,10.48
2097,2,2,-2,-1,1,-3,0,-2,10.485
2098,-1,0,0,-1,-1,3,-2,0,10.49
2099,-1,-1,-2,-4,-5,-1,1,-2,10.495000000000001
2100,-4,-1,-3,0,0,0,-4,0,10.5
2101,0,-2,0,-4,1,-1,4,1,10.505
2102,-4,-4,-2,0,-4,-5,-3,-1,10.51
2103,2,3,4,8,2,0,-2,-1,10.515
2104,1,2,-2,-2,-1,-3,0,-1,10.52
2105,-7,-5,-3,-2,-3,-1,1,-1,10.525
2106,3,1,-2,-6,-3,-1,-1,0,10.53
2107,0,-1,1,-4,1,0,1,1,10.535
2108,-2,2,2,9,1,-2,1,1,10.540000000000001
2109,-1,-3,-1,2,-1,1,1,-1,10.545
2110,-2,-2,0,3,1,0,-3,-2,10.55
2111,2,-1,-4,-5,-3,-1,0,0,10.555
2112,0,0,-1,-3,4,-1,3,2,10.56
2113,0,3,1,3,-4,-2,1,0,10.565
2114,-1,-1,3,11,3,0,-4,-1,10.57
2115,-3,-2,7,-3,-1,0,1,-1,10.575000000000001
2116,-2,1,-9,-6,-4,-3,-7,-4,10.58
2117,0,1,16,6,4,-7,-1,-1,10.585
2118,1,-1,-13,-3,-1,-1,4,-1,10.59
2119,-3,-3,-5,13,0,0,0,-2,10.595
2120,3,2,22,0,5,-7,7,1,10.6
2121,-1,-1,-24,-18,-4,7,0,-1,10.605
2122,-1,-1,7,1,6,8,2,1,10.61
2123,-1,-5,-8,0,-3,0,8,-1,10.615
2124,-3,-1,5,4,1,7,-21,1,10.620000000000001
2125,0,4,5,3,-3,-5,-4,-1,10.625
2126,-1,0,3,2,0,-1,-6,-1,10.63
2127,-2,-2,-9,-12,-1,-7,-1,1,10.635
2128,-3,-4,0,4,-1,-3,5,-4,10.64
2129,-3,-5,1,-14,-8,-7,5,-2,10.645
2130,2,-1,-11,-5,-5,-4,8,-1,10.65
2131,4,1,10,12,7,2,-6,3,10.655
2132,-1,9,0,-2,-4,-2,1,-3,10.66
2133,-5,-5,8,13,5,5,5,0,10.665000000000001
2134,-5,-4,-27,0,-3,-4,7,-3,10.67
2135,-3,-5,9,-7,-4,0,-10,0,10.675
2136,-1,-4,-1,-3,-7,-3,2,-1,10.68
2137,-2,-2,-14,-4,5,4,-1,0,10.685
2138,3,-3,14,-4,-4,-1,-1,1,10.69
2139,1,1,-11,9,0,-2,-2,-1,10.695
2140,0,-4,-12,-3,-5,1,0,1,10.700000000000001
2141,1,-2,3,-2,4,-2,2,0,10.705
2142,1,1,11,10,1,0,-4,-1,10.71
2143,-2,1,-1,4,0,-2,-1,-2,10.715
2144,-1,-3,-6,-11,-1,-2,3,-3,10.72
2145,-2,0,-2,1,-2,-1,3,2,10.725
2146,0,-2,0,-3,-1,-2,-8,-1,10.73
2147,0,1,-2,-9,-2,-2,-1,-3,10.735
2148,-3,-2,2,22,3,1,2,0,10.74
2149,2,1,-1,-6,-2,-2,-3,0,10.745000000000001
2150,0,3,-4,-7,-6,-1,-7,0,10.75
2151,-1,0,3,3,-1,0,1,-1,10.755
2152,0,-2,-4,-10,-6,-2,-2,-2,10.76
2153,0,0,0,5,5,2,-5,-1,10.765
2154,-4,-1,4,-4,-1,-1,-2,-1,10.77
2155,-5,1,0,0,-7,-2,2,0,10.775
2156,2,-3,-4,-5,1,0,-1,1,10.78
2157,2,-1,1,3,-1,-1,-1,-1,10.785
2158,-2,0,1,3,6,-4,-4,-2,10.790000000000001
2159,-1,0,-2,-4,-4,-2,0,-2,10.795
2160,0,-2,-6,-19,-3,0,-2,1,10.8
2161,-1,3,0,10,-3,0,0,-2,10.805
2162,2,1,2,7,1,0,-2,-2,10.81
2163,-1,2,-1,-3,-3,-2,-2,-1,10.815
2164,0,-1,2,3,3,0,-1,-1,10.82
2165,0,-4,-3,-5,-3,-1,-1,-2,10.825000000000001
2166,-4,0,-3,-5,-4,-2,-1,-1,10.83
2167,1,-1,-4,-5,1,3,-1,0,10.835
2168,1,0,2,9,2,1,0,-2,10.84
2169,-3,-1,-4,-9,-5,-3,-4,0,10.845
2170,-2,1,3,6,1,1,-1,1,10.85
2171,1,1,1,3,2,1,0,-1,10.855
2172,1,0,-3,-4,-2,-2,0,-3,10.86
2173,-6,-3,0,-2,-3,-2,-2,-1,10.865
2174,2,1,-1,-6,0,-1,-1,-2,10.870000000000001
2175,-2,-3,0,1,-3,-1,0,-1,10.875
2176,1,0,-1,0,4,0,0,1,10.88
2177,2,0,-2,4,-2,0,-1,0,10.885
2178,0,2,1,0,1,-1,-1,0,10.89
2179,2,2,2,-2,-1,-1,-2,0,10.895
2180,-2,-1,-5,-5,-1,-2,-1,-1,10.9
2181,-2,-2,0,-2,-1,1,-1,-1,10.905
2182,1,-1,1,0,0,0,2,0,10.91
2183,0,3,0,3,0,-1,1,0,10.915000000000001
2184,0,-1,-2,-2,-4,-2,0,1,10.92
2185,0,-2,-3,-1,1,-1,-1,-1,10.925
2186,-1,-1,-3,-2,-1,0,-3,-2,10.93
2187,-2,-3,-3,-1,0,1,0,-1,10.935
2188,-1,-1,-1,0,0,0,0,0,10.94
2189,2,1,0,3,0,-1,1,1,10.945
2190,-1,-1,0,1,1,-2,1,0,10.950000000000001
2191,-2,-2,-4,-3,-2,-1,1,-2,10.955
2192,0,1,-1,0,-2,-2,-1,-1,10.96
2193,-2,-2,-1,-4,2,0,-2,-2,10.965
2194,0,-3,-4,-2,0,0,-1,0,10.97
2195,-1,-1,-1,-2,-6,-1,0,0,10.975
2196,0,0,1,10,8,2,1,-1,10.98
2197,-2,3,0,0,-1,-3,0,0,10.985
2198,-1,-1,-1,0,-1,-2,0,-2,10.99
2199,2,-2,-2,-8,-4,-1,-1,0,10.995000000000001
2200,-6,-3,0,2,1,-1,-1,-1,11.0
2201,-1,-3,-2,-3,-3,-3,0,-2,11.005
2202,-2,1,-1,-1,-1,2,0,-1,11.01
2203,-1,-2,-2,-3,2,-2,0,0,11.015
2204,-1,0,-3,-4,-4,-1,-1,-1,11.02
2205,0,-1,-3,-4,-2,1,1,1,11.025
2206,-2,0,-2,-4,-3,-3,-3,-2,11.03
2207,2,1,-1,-1,2,-1,0,0,11.035
2208,-2,-1,-1,4,-2,-2,-1,1,11.040000000000001
2209,-1,-1,0,-5,-2,-1,-2,-1,11.045
2210,0,0,-3,-5,2,0,1,0,11.05
2211,-1,-2,0,9,2,-1,-1,-1,11.055
2212,0,-2,-1,-6,-5,-2,-3,-3,11.06
2213,0,1,2,2,0,-2,-1,-1,11.065
2214,-1,-1,0,0,-3,1,0,0,11.07
2215,-3,1,-2,-3,2,-1,0,-1,11.075000000000001
2216,-2,0,-1,3,-2,1,-1,0,11.08
2217,0,-1,-6,-10,-2,0,0,-1,11.085
2218,-1,-2,4,10,2,0,0,-1,11.09
2219,0,-1,-1,3,-1,-2,0,1,11.095
2220,0,0,2,2,-1,-1,1,2,11.1
2221,-1,-1,-5,-10,-2,-1,-1,-2,11.105
2222,-1,-1,0,-4,0,-1,-1,0,11.11
2223,-1,0,1,-1,0,-2,-1,-1,11.115
2224,0,-1,-2,-4,2,0,-1,-2,11.120000000000001
2225,-2,-3,1,11,1,0,0,-2,11.125
2226,1,-2,-1,-2,-3,-1,-4,-1,11.13
2227,0,1,-2,-3,-5,-2,1,-1,11.135
2228,-5,1,-2,1,2,-1,-3,-3,11.14
2229,-3,-2,-2,-3,0,0,-2,1,11.145
2230,0,0,0,-4,-5,-3,6,-1,11.15
2231,3,0,-2,-2,2,0,-3,1,11.155
2232,1,1,2,4,0,0,2,0,11.16
2233,-1,0,1,2,-3,-2,-4,-3,11.165000000000001
2234,-1,0,1,-1,2,0,-2,-3,11.17
2235,-2,0,-2,-7,-4,1,-2,-2,11.175
2236,0,0,1,8,0,-2,0,-1,11.18
2237,-2,1,1,2,0,-2,2,-1,11.185
2238,-1,-1,-3,-6,-1,0,1,0,11.19
2239,0,0,0,3,0,-3,-3,-1,11.195
2240,-1,-3,-3,-11,-10,-3,-4,0,11.200000000000001
2241,2,0,3,7,13,2,1,1,11.205
2242,-3,-2,3,5,-1,-2,-2,0,11.21
2243,-1,-2,-4,-2,1,0,-2,0,11.215
2244,-3,-3,1,-3,-4,-4,-1,-2,11.22
2245,3,3,0,0,-2,-3,-1,0,11.225
2246,-6,-2,-3,-10,-7,-2,0,-1,11.23
2247,0,1,2,13,3,-1,-4,-3,11.235
2248,-4,-4,-1,1,3,-1,1,0,11.24
2249,3,0,-4,-8,-5,-1,4,0,11.245000000000001
2250,3,-1,-2,4,3,-2,-2,-1,11.25
2251,-4,-1,-1,-5,-4,1,2,0,11.255
2252,1,1,-5,-8,0,0,-2,0,11.26
2253,-2,-2,2,6,-2,-2,-7,-1,11.265
2254,1,-1,-1,1,1,-3,2,0,11.27
2255,1,0,0,1,-2,-3,-7,0,11.275
2256,0,-1,-2,-2,-4,-1,0,-2,11.28
2257,-2,0,-3,-4,6,4,7,-2,11.285
2258,1,1,-3,-11,-3,0,4,-2,11.290000000000001
2259,-2,0,2,1,-3,1,-11,0,11.295
2260,1,2,1,6,2,-1,3,-1,11.3
2261,1,-1,-2,1,-2,0,-17,0,11.305
2262,0,0,0,-2,-4,-3,-5,-1,11.31
2263,-3,-2,-1,0,-3,-9,2,-4,11.315
2264,-6,-4,-1,12,-1,3,22,0,11.32
2265,2,1,-5,-23,-1,-2,-6,1,11.325000000000001
2266,3,-2,-1,-1,1,5,-16,3,11.33
2267,0,3,4,1,3,1,-5,0,11.335
2268,-1,-4,-1,-6,-3,-3,-8,-1,11.34
2269,-5,-1,-9,0,-5,-5,15,-4,11.345
2270,-3,1,13,7,1,-2,12,-2,11.35
2271,0,-1,-7,-4,-2,-1,4,0,11.355
2272,2,-1,-1,0,1,1,-1,2,11.36
2273,-3,-3,0,-5,-8,-3,0,0,11.365
2274,1,2,0,6,4,1,-2,0,11.370000000000001
2275,-3,-5,-3,6,1,0,6,0,11.375
2276,0,7,0,-8,-3,-3,-5,-1,11.38
2277,-3,-4,2,3,-3,-2,-2,-2,11.385
2278,-1,-2,-1,2,-2,-5,-4,-1,11.39
2279,0,-3,-2,-11,-1,4,8,-1,11.395
2280,1,4,-4,0,-4,-8,-10,-2,11.4
2281,1,-2,-5,-16,-3,10,-6,1,11.405
2282,-2,1,3,14,5,-1,3,0,11.41
2283,3,0,-2,-15,4,3,7,2,11.415000000000001
2284,0,0,8,22,-1,-6,-8,-3,11.42
2285,-2,-7,-13,-2,5,3,15,3,11.425
2286,1,5,2,-2,-1,6,-11,0,11.43
2287,-2,-12,-5,-18,-7,0,0,-4,11.435
2288,2,7,4,2,0,2,13,-1,11.44
2289,-3,0,11,9,-6,-12,9,-4,11.445
2290,2,-3,-9,16,8,3,-22,1,11.450000000000001
2291,1,-6,0,-32,-5,1,-5,1,11.455
2292,1,0,-18,7,2,2,-13,-3,11.46
2293,-2,7,19,14,4,0,-11,-6,11.465
2294,-2,-7,-18,-13,-3,4,13,0,11.47
2295,-5,3,-15,4,-10,-9,6,1,11.475
2296,0,-8,8,-10,2,-1,3,4,11.48
2297,2,0,10,19,-1,-3,-7,1,11.485
2298,-3,1,-9,-10,-3,-5,15,-5,11.49
2299,0,0,12,12,0,-4,-13,-4,11.495000000000001
2300,-4,-6,-4,-15,-1,5,-17,1,11.5
2301,-4,-4,-8,2,-1,-4,-2,-3,11.505
2302,0,-3,-3,-13,-8,-4,-4,-1,11.51
2303,0,-1,6,-15,-7,-1,4,-7,11.515
2304,-13,-14,-6,-26,-13,5,-2,-12,11.52
2305,1,0,10,25,15,14,12,3,11.525
2306,11,3,4,27,6,-18,16,17,11.53
2307,8,7,-11,-40,1,-4,6,9,11.535
2308,-1,7,4,20,7,-3,-5,0,11.540000000000001
2309,-3,-7,-14,-21,-4,-4,-9,-8,11.545
2310,-1,-2,9,1,-5,9,6,-8,11.55
2311,-11,-1,2,20,8,-3,-24,-7,11.555
2312,4,-3,-11,-33,-7,-2,0,-3,11.56
2313,-3,0,9,36,12,2,13,0,11.565
2314,-4,-2,4,-11,2,0,-33,-9,11.57
2315,-1,-1,-7,20,1,-1,12,6,11.575000000000001
2316,2,-6,-6,-1,9,-3,10,5,11.58
2317,3,4,-10,-27,-15,-13,-1,1,11.585
2318,0,5,3,8,2,4,-2,-3,11.59
2319,0,18,-13,-22,-11,-5,3,0,11.595
2320,-1,59,9,26,-4,-7,-1,-2,11.6
2321,-8,47,-6,-67,-29,6,9,-7,11.605
2322,0,40,8,36,38,28,-70,-18,11.61
2323,-8,1,-2,27,-17,-5,26,-9,11.615
2324,13,2,10,-2,-1,-39,-10,23,11.620000000000001
2325,22,-3,28,3,-9,-22,40,32,11.625
2326,-7,-32,-21,16,-7,0,-12,2,11.63
2327,-1,-27,-40,-97,-61,-15,-4,3,11.635
2328,6,-9,41,90,46,28,14,-6,11.64
2329,-15,-38,-17,16,11,11,-6,-23,11.645
2330,-13,-20,30,-27,-25,-10,7,-8,11.65
2331,4,-20,-1,5,15,22,-20,-8,11.655
2332,-12,-31,-15,-39,-27,12,16,-6,11.66
2333,1,-3,-5,-46,10,10,-19,0,11.665000000000001
2334,7,67,-28,-8,-11,-12,56,21,11.67
2335,12,79,56,39,14,-16,-10,13,11.675
2336,-6,33,-16,-40,8,10,51,-6,11.68
2337,9,23,28,78,12,33,-40,-10,11.685
2338,-13,-76,-18,-18,-3,-22,-19,-17,11.69
2339,0,11,8,12,14,33,44,18,11.695
2340,15,-24,26,44,4,-30,-10,26,11.700000000000001
2341,-1,-29,-19,-36,-21,11,11,5,11.705
2342,-6,-30,8,-7,9,3,21,-9,11.71
2343,6,-31,-27,5,14,-7,-7,-3,11.715
2344,-13,-14,55,6,-8,6,-8,-9,11.72
2345,-12,-20,-71,-67,-48,-14,-56,-18,11.725
2346,13,-16,51,82,-13,-58,-27,15,11.73
2347,-11,-28,17,-9,29,-1,-26,-7,11.735
2348,3,-61,-43,44,15,9,-61,-10,11.74
2349,7,-77,16,56,-1,19,75,14,11.745000000000001
2350,-16,-78,-22,-57,-29,16,-44,-24,11.75
2351,-9,-102,-10,0,-13,-11,49,-3,11.755
2352,3,-128,-7,11,30,33,-13,-7,11.76
2353,0,-98,-6,11,14,-46,7,8,11.765
2354,9,-75,-4,-42,-10,26,126,22,11.77
2355,24,23,10,53,8,-15,-84,24,11.775
2356,-13,-70,17,-50,5,-16,-33,-18,11.78
2357,-18,-59,-26,-55,-35,6,-33,-17,11.785
2358,17,-31,11,-2,18,-16,19,9,11.790000000000001
2359,-17,19,-4,29,-7,3,0,-22,11.795
2360,-12,108,-36,-56,-41,18,-94,-46,11.8
2361,-10,117,63,65,45,-20,75,51,11.805
2362,-17,87,-75,-81,-53,36,37,-7,11.81
2363,1,94,66,106,93,19,-21,-1,11.815
2364,61,118,4,-6,-20,-24,126,79,11.82
2365,-11,125,-6,-56,12,-16,-90,-52,11.825000000000001
2366,-25,124,-16,-48,-2,-2,-59,-4,11.83
2367,18,65,-8,-4,-11,20,15,1,11.835
2368,-4,5,-70,-68,-32,0,-45,-30,11.84
2369,-1,-82,55,98,75,39,45,-3,11.845
2370,-20,-80,32,-9,29,61,106,13,11.85
2371,14,-9,22,23,-4,-49,-60,22,11.855
2372,7,-50,-24,50,8,-14,-37,7,11.86
2373,22,-59,28,-59,-54,-19,-37,-14,11.865
2374,-14,-110,-60,60,56,24,-25,-8,11.870000000000001
2375,6,-105,20,-68,-32,21,41,-10,11.875
2376,-27,-20,29,9,-18,-9,16,3,11.88
2377,7,-5,-16,64,82,33,-12,14,11.885
2378,1,15,21,-106,-43,-5,13,-12,11.89
2379,-13,53,-59,-19,-16,-31,6,0,11.895
2380,10,45,3,-31,14,14,-35,-13,11.9
2381,-19,-99,0,42,-4,33,-54,-42,11.905
2382,49,34,33,67,-2,-57,83,48,11.91
2383,4,17,24,-49,-5,-10,32,35,11.915000000000001
2384,-9,-4,-7,24,4,-9,7,-7,11.92
2385,-20,-50,-29,-21,-14,-11,-18,-17,11.925
2386,-1,-13,-9,-74,-32,-7,-104,-25,11.93
2387,-3,-52,-39,-13,-49,2,13,-1,11.935
2388,-4,-55,47,78,92,51,37,9,11.94
2389,11,27,-47,32,1,-12,49,27,11.945
2390,2,8,41,-5,-49,-23,-24,-7,11.950000000000001
2391,-12,-30,-17,-26,6,14,62,-22,11.955
2392,10,-120,-1,-39,-25,-16,-60,7,11.96
2393,-7,-37,-33,-42,-35,-40,-14,-6,11.965
2394,-9,-57,-3,76,30,14,-52,-18,11.97
2395,-11,2,-1,-36,7,5,7,-13,11.975
2396,-11,47,7,-67,-65,-13,52,12,11.98
2397,21,28,11,56,38,5,32,18,11.985
2398,-10,41,-16,25,24,13,-33,-11,11.99
2399,-22,2,39,-15,-29,26,-5,-23,11.995000000000001
2400,14,98,18,56,9,-20,54,15,12.0
2401,22,61,-6,-90,-64,-22,-8,6,12.005
2402,-2,25,-2,109,84,27,-56,-7,12.01
2403,-7,35,31,41,-25,-14,-9,2,12.015
2404,13,39,-22,-4,-33,-11,93,7,12.02
2405,2,62,-10,-24,-9,-17,13,44,12.025
2406,5,11,15,-22,-3,-2,4,5,12.030000000000001
2407,-19,-73,-38,-48,0,11,-73,-41,12.035
2408,-14,-40,-18,-27,18,14,1,-20,12.040000000000001
2409,-8,-40,-17,11,23,7,-41,-12,12.045
2410,5,-74,-14,-49,-39,-8,50,0,12.05
2411,10,-38,25,48,31,-2,3,20,12.055
2412,-4,29,-16,4,0,-8,-36,7,12.06
2413,-1,41,3,0,5,-3,9,-3,12.065
2414,0,49,22,-32,-10,-17,2,4,12.07
2415,5,5,-17,-1,33,37,20,-8,12.075000000000001
2416,-22,-16,-22,3,-11,-2,-11,-12,12.08
2417,1,43,12,11,-20,-5,10,0,12.085
2418,0,42,4,6,10,-10,-24,-10,12.09
2419,1,0,-22,-26,-20,-25,-76,-26,12.095
2420,-16,-24,12,-5,-3,24,14,-10,12.1
2421,-2,19,-10,-40,-26,-31,36,37,12.105
2422,-21,-28,5,91,66,66,3,-28,12.11
2423,32,35,-18,-13,-43,-77,40,46,12.115
2424,34,0,9,-47,-8,-20,-10,29,12.120000000000001
2425,-4,-14,-31,37,6,19,-2,-19,12.125
2426,-15,8,40,66,2,-15,-23,-12,12.13
2427,-23,-29,12,26,38,43,-30,-33,12.135
2428,-15,-25,-4,-45,-33,-13,1,-9,12.14
2429,1,11,-9,-4,-12,2,-9,-6,12.145
2430,-6,11,16,-15,6,-3,-41,-9,12.15
2431,1,0,4,59,17,12,40,15,12.155000000000001
2432,21,-3,-30,-51,-6,11,21,11,12.16
2433,16,-20,18,11,1,10,-16,-2,12.165000000000001
2434,-20,1,0,-43,-24,-14,28,-8,12.17
2435,-4,1,-3,4,7,-28,-13,7,12.175
2436,2,-6,8,9,2,8,78,4,12.18
2437,-17,-7,-49,-44,-13,-20,-90,-18,12.185
2438,55,11,60,30,1,-43,15,40,12.19
2439,-1,-28,-58,-45,-35,-5,-10,-17,12.195
2440,-59,-8,25,6,1,19,-55,-46,12.200000000000001
2441,-21,-10,17,-1,30,34,-4,-22,12.205
2442,49,9,-9,-6,-18,-22,117,82,12.21
2443,12,-12,-12,-63,-35,-2,-12,2,12.215
2444,-1,3,-11,98,49,2,-16,-4,12.22
2445,-15,-13,41,7,28,10,7,-13,12.225
2446,-12,0,-32,-61,-23,2,-20,-23,12.23
2447,-1,-9,12,51,26,-1,-15,-2,12.235
2448,2,-6,-12,-4,-17,-8,-48,-12,12.24
2449,-18,-8,12,-13,-1,21,-35,-24,12.245000000000001
2450,-7,-13,-17,4,1,21,82,-5,12.25
2451,25,12,-3,-15,-15,-46,-42,39,12.255
2452,28,0,23,4,17,-15,9,37,12.26
2453,6,-5,15,32,-1,-14,-29,-4,12.265
2454,-23,-11,-35,-37,-24,11,17,-14,12.27
2455,-23,-4,-11,30,42,21,1,-16,12.275
2456,-17,-22,-3,-70,-41,20,-35,-38,12.280000000000001
2457,4,15,8,-25,-40,-47,71,17,12.285
2458,35,17,26,73,43,19,-7,50,12.290000000000001
2459,-13,-10,-18,-66,-27,39,-6,-28,12.295
2460,-1,12,-15,105,46,-27,-2,11,12.3
2461,18,4,52,-9,-5,7,18,7,12.305
2462,-32,2,-36,-36,-35,-26,-52,-33,12.31
2463,-2,0,2,42,6,4,20,1,12.315
2464,-7,-13,29,-21,10,23,-40,-26,12.32
2465,-10,3,-35,-68,-63,-19,56,19,12.325000000000001
2466,14,2,-9,76,35,-1,-2,5,12.33
2467,7,20,28,-10,-19,-4,-47,18,12.335
2468,3,-16,-15,-2,4,25,-16,-16,12.34
2469,-3,15,-20,-29,-6,-14,37,10,12.345
2470,10,3,30,-1,5,-23,-28,14,12.35
2471,11,-4,-19,4,2,9,36,7,12.355
2472,4,2,10,-23,-18,-5,-6,10,12.36
2473,11,17,-12,-35,10,-6,-3,4,12.365
2474,-14,0,-8,0,-19,15,-16,-20,12.370000000000001
2475,-31,-11,-21,-5,29,8,-16,-40,12.375
2476,3,22,-6,59,-7,-14,0,16,12.38
2477,10,-4,53,55,70,13,-20,7,12.385
2478,-2,-7,-16,-28,-3,-2,-20,-9,12.39
2479,-14,-9,28,-24,-14,8,13,-11,12.395
2480,2,13,-48,-20,-16,-30,30,12,12.4
2481,11,0,1,12,12,28,17,25,12.405000000000001
2482,-6,-4,-15,-56,-28,-3,-97,-34,12.41
2483,7,3,6,93,15,-31,35,21,12.415000000000001
2484,16,0,35,-11,-3,-2,37,16,12.42
2485,5,-5,-14,21,1,6,8,1,12.425
2486,-10,-6,-16,-60,-15,-2,-28,-12,12.43
2487,-7,-3,7,31,21,38,16,-11,12.435
2488,-2,12,-24,-13,-7,21,31,10,12.44
2489,7,9,18,43,15,-52,2,15,12.445
2490,8,-20,6,10,9,1,-17,-3,12.450000000000001
2491,-8,-3,-11,-45,-15,-7,-22,-11,12.455
2492,-5,11,11,8,4,-2,4,-5,12.46
2493,-5,-9,-13,-22,-15,15,-9,-13,12.465
2494,-5,-2,-20,-65,-31,-4,-3,-4,12.47
2495,7,9,29,20,8,-2,28,8,12.475
2496,-1,6,-3,16,2,-7,-5,1,12.48
2497,-3,-20,-6,-13,-7,14,-29,-14,12.485
2498,-5,5,-1,4,4,-9,22,3,12.49
2499,8,3,6,3,-8,-16,-1,10,12.495000000000001
2500,-4,-1,7,-33,-4,-13,-17,-6,12.5
2501,3,1,-4,10,-2,2,-41,-15,12.505
2502,2,11,-1,28,13,-1,41,13,12.51
2503,4,4,-4,-11,6,7,13,10,12.515
2504,-1,8,-2,-4,2,17,-15,-9,12.52
2505,-11,24,-3,6,-4,10,8,-8,12.525
2506,4,27,0,22,6,-18,12,8,12.530000000000001
2507,2,97,-7,-14,-7,-1,-8,-1,12.535
2508,-8,113,1,-3,-2,-10,-14,-11,12.540000000000001
2509,-4,127,2,8,-9,-10,14,-1,12.545
2510,1,127,-2,-5,2,8,-6,2,12.55
2511,-2,-22,6,-6,-6,-5,13,-2,12.555
2512,-6,-107,2,4,5,-5,-6,-2,12.56
2513,-1,-128,-4,-1,3,8,-3,0,12.565
2514,-3,-128,6,9,3,1,0,2,12.57
2515,-1,-122,-10,0,-1,6,2,0,12.575000000000001
2516,-2,-115,2,2,0,-6,-3,-1,12.58
2517,-2,-113,3,-2,-4,6,-3,-3,12.585
2518,2,-94,-7,5,4,2,5,0,12.59
2519,4,-68,7,3,-1,-3,-4,1,12.595
2520,-1,-64,-7,-13,-2,1,-3,1,12.6
2521,-1,-113,-7,2,-4,0,-3,-3,12.605
2522,0,-124,5,13,12,6,4,0,12.61
2523,0,-128,-3,-4,-1,-3,-1,0,12.615
2524,-1,-123,-2,-2,-1,-1,-6,-1,12.620000000000001
2525,-2,-96,3,3,3,1,3,-1,12.625
2526,0,-116,2,2,-6,-8,-7,-1,12.63
2527,2,12,-7,-4,0,9,6,3,12.635
2528,1,13,3,3,1,1,4,-1,12.64
2529,-1,106,-3,-6,-2,4,0,-1,12.645
2530,-5,118,0,4,2,-3,-3,0,12.65
2531,-2,31,2,0,2,-6,-8,-1,12.655000000000001
2532,0,76,-4,0,-1,-6,-3,0,12.66
2533,5,30,-2,3,2,4,1,1,12.665000000000001
2534,-1,103,-3,0,1,8,5,3,12.67
2535,-1,126,1,-1,-1,0,-1,-2,12.675
2536,-2,66,-1,1,1,-4,2,0,12.68
2537,-2,24,-2,-4,-5,-6,-6,-3,12.685
2538,0,42,2,0,-2,3,2,-3,12.69
2539,-1,111,-2,-6,-4,-5,0,0,12.695
2540,-2,103,0,-3,-2,-1,-3,-2,12.700000000000001
2541,-3,120,-1,-4,-1,0,-2,-2,12.705
2542,0,94,-1,4,-2,0,2,0,12.71
2543,0,95,-2,-3,-3,-3,-2,-2,12.715
2544,-1,26,2,7,5,1,0,0,12.72
2545,-2,-45,0,0,3,1,-1,-1,12.725
2546,-1,-83,-2,-6,-5,0,1,-1,12.73
2547,0,-128,-1,-4,-3,-1,-6,0,12.735
2548,-2,-93,0,-4,-3,2,1,-1,12.74
2549,-1,-75,-1,2,4,3,0,-1,12.745000000000001
2550,-1,-102,-2,0,-2,1,0,-1,12.75
2551,-3,-113,1,-1,0,-2,0,-1,12.755
2552,1,-92,-1,-2,-1,2,2,0,12.76
2553,-3,-81,1,4,-3,1,0,0,12.765
2554,-1,-69,-5,-10,-3,-5,-3,-3,12.77
2555,1,-63,0,2,1,1,-4,-1,12.775
2556,-2,-52,-2,-1,-3,-9,-10,0,12.780000000000001
2557,-1,-48,-2,0,0,8,8,1,12.785
2558,-2,-28,-3,1,0,1,4,0,12.790000000000001
2559,1,-36,-1,1,0,-2,2,0,12.795
2560,-4,-32,-1,-4,-1,0,0,-3,12.8
2561,2,0,-2,0,-1,-6,-7,-1,12.805
2562,-1,-8,0,1,-1,-3,-2,-1,12.81
2563,-1,-11,-3,-7,0,3,0,-1,12.815
2564,-1,0,1,2,-2,1,-1,0,12.82
2565,-1,11,-1,-1,-1,-3,-2,-2,12.825000000000001
2566,1,8,1,-1,-3,-1,0,0,12.83
2567,-1,5,-1,-2,0,-3,0,0,12.835
2568,0,14,-3,-1,-1,-1,0,0,12.84
2569,0,9,0,-1,-2,0,-3,-1,12.845
2570,-2,1,-1,-2,0,0,-3,1,12.85
2571,-3,1,1,2,-2,-3,2,-1,12.855
2572,-2,2,-4,0,0,-2,-1,-1,12.86
2573,1,7,0,0,-1,3,5,0,12.865
2574,0,10,0,0,-1,-4,-1,-1,12.870000000000001
2575,-2,8,-2,-1,-4,-1,-1,1,12.875
2576,-1,7,1,2,1,5,-5,-1,12.88
2577,0,13,-2,-3,-1,-3,-7,-1,12.885
2578,2,12,0,2,0,0,2,0,12.89
2579,1,8,-1,-2,2,-1,-1,-1,12.895
2580,0,9,0,-2,-1,2,-3,-1,12.9
2581,1,11,-2,-3,-1,-4,-2,-1,12.905000000000001
2582,-2,8,-1,-2,-2,0,-4,-2,12.91
2583,-3,7,-2,0,0,0,1,0,12.915000000000001
2584,-2,6,-2,1,-2,-5,0,-2,12.92
2585,-2,11,-1,-1,-1,-2,-1,1,12.925
2586,1,8,-2,1,2,-2,0,0,12.93
2587,-3,5,-1,3,-2,-3,0,-2,12.935
2588,-1,9,0,-1,1,5,3,0,12.94
2589,-3,5,-3,-3,-2,-1,0,-1,12.945
2590,-2,3,-2,0,-3,0,-1,1,12.950000000000001
2591,0,1,1,2,-1,3,-3,0,12.955
2592,1,-1,0,-5,-2,-2,2,0,12.96
2593,0,-1,0,1,-1,-2,-1,0,12.965
2594,-1,3,0,-1,0,-1,-1,2,12.97
2595,0,5,2,0,-1,0,0,-2,12.975
2596,0,3,-1,-2,0,-1,1,-1,12.98
2597,-1,2,1,0,-1,-5,-2,0,12.985
2598,-2,5,0,-1,0,0,-1,-1,12.99
2599,1,4,-1,0,-1,-3,0,0,12.995000000000001
2600,1,5,-2,0,0,0,5,0,13.0
2601,-1,3,0,-1,-1,2,0,0,13.005
2602,-1,3,1,-1,1,0,0,0,13.01
2603,2,3,-1,-3,-1,-3,-2,0,13.015
2604,0,5,4,3,1,0,-1,-1,13.02
2605,-1,1,-3,-1,0,-2,-1,-2,13.025
2606,-3,3,0,0,-1,-2,0,-1,13.030000000000001
2607,1,3,-1,-1,-1,0,-1,0,13.035
2608,1,3,0,0,-1,0,-1,0,13.040000000000001
2609,-1,2,0,2,0,-3,-1,-1,13.045
2610,-2,1,0,-1,0,0,1,0,13.05
2611,0,3,0,-1,-2,0,-1,0,13.055
2612,-1,-1,-3,0,-2,-3,-2,-2,13.06
2613,0,0,0,-1,0,1,-1,1,13.065
2614,0,0,-1,1,1,-2,-2,-3,13.07
2615,-3,1,0,2,-1,-1,1,-2,13.075000000000001
2616,0,1,-3,-2,-1,0,0,0,13.08
2617,-4,1,0,-2,-1,1,-2,-1,13.085
2618,0,0,-2,0,-1,-1,-1,-1,13.09
2619,-1,-1,0,0,1,5,0,0,13.095
2620,3,1,1,-3,1,0,-1,0,13.1
2621,1,3,-1,0,-1,-2,-1,-1,13.105
2622,-4,0,-1,0,-1,-3,-2,-1,13.11
2623,-2,1,3,4,3,2,1,1,13.115
2624,-2,-1,-2,-5,-4,-3,-5,0,13.120000000000001
2625,0,-1,1,0,2,8,9,0,13.125
2626,1,1,-2,-3,-1,-3,-1,-1,13.13
2627,-2,-1,-1,0,0,0,5,0,13.135
2628,-3,0,-2,1,-1,-3,-1,0,13.14
2629,0,0,0,-1,-2,-1,-2,0,13.145
2630,0,1,0,-1,-1,1,-1,-1,13.15
2631,-2,1,-2,-3,-4,-2,-3,-2,13.155000000000001
2632,-1,0,-1,2,-1,0,1,-1,13.16
2633,0,1,-2,-1,-1,-2,-2,-1,13.165000000000001
2634,1,2,-1,-1,0,-1,0,1,13.17
2635,1,1,-1,1,1,-2,-2,-1,13.175
2636,-2,-1,0,-1,0,1,0,-1,13.18
2637,0,-1,-1,-1,-1,-1,-3,-1,13.185
2638,1,-1,-1,2,0,-1,-2,0,13.19
2639,-1,-3,-1,-2,-2,0,0,-2,13.195
2640,0,-4,-1,0,-2,-1,2,-1,13.200000000000001
2641,1,-2,1,1,-1,-2,-2,1,13.205
2642,-2,2,-1,-1,1,1,2,1,13.21
2643,-3,1,-4,-1,-2,2,-2,-1,13.215
2644,-2,2,0,0,0,-1,2,-1,13.22
2645,-1,-1,-1,-1,-1,-1,0,-1,13.225
2646,1,-1,2,-1,-3,0,-1,0,13.23
2647,0,-2,-2,-4,0,0,-1,1,13.235
2648,-1,-1,-1,-3,0,-2,0,-1,13.24
2649,1,-1,-2,-2,0,0,-1,0,13.245000000000001
2650,-2,-1,-1,1,0,-1,-1,-1,13.25
2651,0,0,0,2,1,-2,-1,1,13.255
2652,-2,-1,-1,-3,0,-1,2,-1,13.26
2653,-2,0,0,3,0,-2,0,-1,13.265
2654,1,0,-2,-3,-1,0,-2,-2,13.27
2655,0,1,-2,-1,-3,-5,-3,-3,13.275
2656,0,2,2,0,-1,3,2,0,13.280000000000001
2657,-1,-1,-5,-7,-1,-3,-2,-1,13.285
2658,-1,-2,-1,-1,0,3,2,0,13.290000000000001
2659,-1,0,0,0,-2,-2,-1,0,13.295
2660,-2,2,0,4,1,-1,-1,2,13.3
2661,-2,0,0,0,-2,0,-1,-2,13.305
2662,0,0,-1,-1,-1,-1,-2,-1,13.31
2663,-3,-2,-2,1,-1,2,1,0,13.315
2664,0,-2,-2,-1,-3,0,-3,-2,13.32
2665,-1,-3,0,-2,0,0,1,-1,13.325000000000001
2666,-1,0,0,0,0,-4,-5,-2,13.33
2667,0,1,0,0,1,0,2,1,13.335
2668,-1,-1,-1,0,-1,-2,-3,-1,13.34
2669,1,-1,0,3,-1,-2,-6,-3,13.345
2670,0,0,-1,-2,-1,3,7,2,13.35
2671,-1,-4,0,-1,2,-3,-3,0,13.355
2672,-2,0,-1,-2,-3,0,-2,-2,13.36
2673,-3,0,0,0,0,-4,-2,0,13.365
2674,0,-1,-1,1,-1,-2,-4,-2,13.370000000000001
2675,0,-2,-1,-1,-1,0,-1,-1,13.375
2676,0,-2,-1,-1,1,0,-1,-1,13.38
2677,-1,-1,-1,0,-3,-1,1,-1,13.385
2678,-2,0,-2,-1,-2,-3,-1,-1,13.39
2679,0,-3,-1,-2,-1,-4,0,-1,13.395
2680,0,-3,-1,-1,-1,-2,-1,-1,13.4
2681,-2,-1,-1,-1,0,0,-4,0,13.405000000000001
2682,-1,-2,-1,-4,-2,-2,2,0,13.41
2683,-1,-1,-1,0,-1,0,-1,-1,13.415000000000001
2684,0,1,0,1,0,-2,-1,-1,13.42
2685,-1,0,0,-2,-2,1,1,-1,13.425
2686,0,-1,-2,-1,-1,0,-4,-1,13.43
2687,-3,-1,-1,0,-3,-6,-1,-3,13.435
2688,-2,-2,2,-4,-5,1,-1,-2,13.44
2689,-2,0,-5,3,2,-5,-4,-1,13.445
2690,1,-1,-3,-2,1,10,11,1,13.450000000000001
2691,0,3,0,-2,-3,1,-1,-1,13.455
2692,-2,-2,-5,-5,1,-2,1,0,13.46
2693,1,1,5,7,-2,4,1,0,13.465
2694,-2,2,0,-6,-2,-9,-8,-2,13.47
2695,0,-3,-17,-9,1,3,0,1,13.475
2696,1,0,-3,0,1,1,-1,-2,13.48
2697,-2,-3,28,3,2,-1,1,-1,13.485
2698,-2,0,-8,5,1,0,0,0,13.49
2699,1,3,14,3,-1,2,0,-1,13.495000000000001
2700,-1,1,-8,1,-2,-5,-1,0,13.5
2701,1,-6,-32,-5,-1,3,5,0,13.505
2702,0,6,40,7,-1,-7,-2,-1,13.51
2703,-5,-3,-22,-18,-2,5,-3,-3,13.515
2704,-3,0,0,-4,-4,-10,-5,-2,13.52
2705,2,1,3,7,1,14,12,2,13.525
2706,-2,-2,6,15,1,-7,-12,-7,13.530000000000001
2707,-4,-3,17,4,-9,-22,-13,-3,13.535
2708,10,1,5,16,7,8,0,3,13.540000000000001
2709,-4,-11,-11,-25,4,13,10,2,13.545
2710,-1,-10,-16,-6,-2,3,7,3,13.55
2711,1,-4,-7,-2,1,5,-1,0,13.555
2712,-2,-8,8,5,-1,-3,-8,-1,13.56
2713,2,1,2,5,-3,-10,-6,-3,13.565
2714,2,-4,-13,-8,0,2,-2,-2,13.57
2715,-1,-1,4,11,2,-4,-1,-3,13.575000000000001
2716,-2,0,1,-6,-3,0,3,1,13.58
2717,0,6,-4,1,-2,-2,-2,-1,13.585
2718,-1,2,-6,-8,-3,-3,0,-1,13.59
2719,0,4,3,2,-1,1,2,2,13.595
2720,-2,2,-6,-3,0,0,3,-1,13.6
2721,-3,3,-2,-6,-2,-4,-5,-2,13.605
2722,-1,1,2,2,1,1,-2,1,13.61
2723,-1,2,-1,1,1,2,5,1,13.615
2724,-1,-2,-4,-6,-6,0,0,-1,13.620000000000001
2725,-2,1,3,1,4,-3,-2,-2,13.625
2726,1,-1,0,1,-1,1,3,0,13.63
2727,0,-1,0,2,2,2,2,1,13.635
2728,-2,-1,-3,-4,1,-1,0,0,13.64
2729,0,0,2,-2,-2,-6,-4,-1,13.645
2730,0,1,-3,1,0,-1,0,-1,13.65
2731,2,0,-1,3,-1,1,-2,-1,13.655000000000001
2732,-3,-1,-5,-9,-1,0,0,-3,13.66
2733,-1,7,0,0,-3,-3,-1,-1,13.665000000000001
2734,0,8,-2,-1,1,8,1,1,13.67
2735,-2,4,0,-5,-3,-2,-2,-2,13.675
2736,0,2,4,3,0,0,0,0,13.68
2737,-1,-3,0,3,-1,-1,0,-1,13.685
2738,-2,-6,-2,-3,-3,-3,0,-2,13.69
2739,0,-3,0,0,-3,2,-2,-1,13.695
2740,-1,-4,-1,1,0,-1,1,1,13.700000000000001
2741,-2,-3,-2,-3,-1,-2,-3,-1,13.705
2742,0,-3,0,2,-1,-4,-2,0,13.71
2743,-1,-3,-1,-2,4,1,1,-1,13.715
2744,0,-5,-1,0,0,0,-2,-1,13.72
2745,0,-4,-1,0,-1,-2,-2,-1,13.725
2746,-1,-1,-3,-1,-2,-2,-1,0,13.73
2747,1,-3,0,-1,1,1,-1,0,13.735
2748,-2,0,-2,1,0,-2,-2,-2,13.74
2749,-1,0,1,-1,-2,-2,-2,0,13.745000000000001
2750,1,1,0,7,2,1,-1,2,13.75
2751,0,-2,-2,-4,-1,-1,-1,-1,13.755
2752,-1,-1,-3,-3,-3,1,1,0,13.76
2753,0,0,-1,-2,-1,-2,0,-1,13.765
2754,-4,-1,-1,-2,0,-3,-1,-2,13.77
2755,-2,0,0,3,1,-1,0,0,13.775
2756,1,-1,2,-1,-2,-3,-1,-1,13.780000000000001
2757,-1,-2,-3,-1,-1,-2,-2,-1,13.785
2758,-2,-1,-3,-2,1,4,2,0,13.790000000000001
2759,1,-1,-1,0,-1,-1,0,-1,13.795
2760,-1,-2,-1,1,-1,-1,-2,-2,13.8
2761,1,0,-2,-1,-1,-1,0,-1,13.805
2762,1,-1,-1,-1,-1,0,-1,-1,13.81
2763,-1,0,-2,-3,-2,0,-1,0,13.815
2764,-1,1,-1,0,1,1,-2,-1,13.82
2765,0,0,0,1,-1,-1,-1,-2,13.825000000000001
2766,0,-1,-3,-4,-2,-2,-2,0,13.83
2767,0,0,1,1,-1,0,0,0,13.835
2768,-1,0,-1,-4,-4,-2,-1,-1,13.84
2769,-1,-2,-1,0,2,2,0,0,13.845
2770,-1,-2,-2,-2,-2,-1,0,-1,13.85
2771,-2,-1,1,3,0,0,1,0,13.855
2772,0,-1,-1,1,-1,-1,-5,-1,13.86
2773,0,-1,-1,0,-1,0,1,-1,13.865
2774,-1,-2,0,2,-1,-1,-1,1,13.870000000000001
2775,-3,-2,-2,-4,1,-2,-1,-2,13.875
2776,0,0,-2,-5,-1,2,1,1,13.88
2777,-2,-1,-1,-1,-2,-2,-2,-1,13.885
2778,-2,1,0,0,0,-1,-2,-1,13.89
2779,1,-2,-2,1,0,-2,-1,-1,13.895
2780,-2,0,1,2,-1,-1,0,-1,13.9
2781,0,-1,-1,-2,-1,1,-1,-1,13.905000000000001
2782,0,-1,1,1,-1,-2,0,-1,13.91
2783,-1,0,-2,-2,-2,0,0,0,13.915000000000001
2784,-1,0,-2,0,1,1,1,-1,13.92
2785,0,-1,-2,-1,0,-1,-1,0,13.925
2786,-2,-1,-1,-3,-2,-1,-3,-1,13.93
2787,-3,-2,0,2,2,-1,-1,-1,13.935
2788,0,-1,0,-1,-2,-1,1,0,13.94
2789,-1,-1,-2,0,1,1,-1,-1,13.945
2790,-1,2,-1,-3,-1,-1,0,-1,13.950000000000001
2791,1,0,-2,-1,-1,-1,-1,-1,13.955
2792,-1,-1,-1,1,-1,-4,-1,-1,13.96
2793,0,-1,1,-1,-1,3,-1,-1,13.965
2794,1,-1,1,0,0,1,-1,-2,13.97
2795,0,0,-1,-2,-1,0,0,-1,13.975
2796,-1,-2,-1,2,0,0,0,-1,13.98
2797,-1,1,-1,-1,-3,-3,0,0,13.985
2798,-3,-2,-3,-4,-1,-2,-1,-1,13.99
2799,0,-2,-2,-3,-2,-1,0,0,13.995000000000001
2800,0,-2,-2,-2,-1,0,0,0,14.0
2801,-1,0,3,2,-1,-1,-1,-3,14.005
2802,2,-2,0,-1,1,1,0,0,14.01
2803,0,1,-1,-7,-2,-1,-2,0,14.015
2804,-2,-1,-1,0,1,-2,0,0,14.02
2805,-1,0,0,3,-1,-3,-1,-1,14.025
2806,-1,-2,-2,-5,-2,-2,-2,-1,14.030000000000001
2807,-2,-2,-1,-2,-2,0,-1,0,14.035
2808,0,-1,0,0,1,-3,-2,-2,14.040000000000001
2809,-1,-3,0,1,-1,0,-1,1,14.045
2810,0,1,-1,1,-1,-2,-4,0,14.05
2811,0,-1,-2,0,-1,0,1,-2,14.055
2812,-1,0,0,-3,-1,0,0,-2,14.06
2813,-1,1,-1,-3,-2,-1,-3,-1,14.065
2814,-1,-2,-1,-2,-1,-2,-1,-2,14.07
2815,-1,-1,0,-1,1,0,-2,-1,14.075000000000001
2816,0,-2,-1,2,-2,-2,0,0,14.08
2817,3,1,-2,-1,-2,-2,1,0,14.085
2818,1,-1,-1,-1,-1,-1,2,-1,14.09
2819,-2,-2,-1,2,-1,0,-1,-2,14.095
2820,0,0,0,0,0,2,-1,1,14.1
2821,-1,-1,-3,-3,-2,-3,0,-1,14.105
2822,-1,1,0,0,1,-3,-1,1,14.11
2823,0,-1,-1,-1,-1,-1,0,-1,14.115
2824,0,-1,-1,1,1,-1,-1,0,14.120000000000001
2825,1,-2,-2,-3,-1,-2,-1,0,14.125
2826,-4,-3,-1,-1,1,0,-1,0,14.13
2827,0,0,2,4,-1,-1,1,1,14.135
2828,-1,-1,-5,-12,-5,0,0,-2,14.14
2829,-1,1,-1,-2,0,0,-1,0,14.145
2830,-1,1,-2,-1,-1,0,0,0,14.15
2831,0,-1,0,1,-1,-1,-1,1,14.155000000000001
2832,1,-1,1,8,1,-1,-1,-1,14.16
2833,-2,-2,-3,-5,-1,0,-2,0,14.165000000000001
2834,0,0,-1,1,-2,0,0,0,14.17
2835,-1,0,-1,1,-2,-3,-2,-2,14.175
2836,2,1,2,4,1,1,1,0,14.18
2837,0,-2,-1,-2,0,0,1,-2,14.185
2838,2,-1,0,1,-1,0,0,0,14.19
2839,-1,-1,0,-2,-1,0,0,0,14.195
2840,-1,-2,-1,0,0,-1,0,-2,14.200000000000001
2841,-1,-1,-1,-1,-1,-2,0,0,14.205
2842,-1,-1,-3,-1,-1,-1,0,-2,14.21
2843,-1,0,-1,0,-1,-3,-5,0,14.215
2844,-1,-1,-2,-5,-1,1,1,1,14.22
2845,-2,-3,1,3,1,0,-1,0,14.225
2846,-1,0,1,2,-1,0,0,0,14.23
2847,-1,-1,-1,-4,-2,-1,0,1,14.235
2848,-2,0,-1,1,-1,-1,-3,-1,14.24
2849,-3,-5,-2,-5,-2,0,-1,-3,14.245000000000001
2850,0,-2,-2,-4,-1,-2,-1,0,14.25
2851,-2,1,-1,-1,-1,-2,-1,0,14.255
2852,0,2,-2,0,0,-1,-2,-1,14.26
2853,2,2,0,2,1,0,0,-1,14.265
2854,0,-2,1,2,-1,0,0,-1,14.27
2855,0,1,1,0,-1,1,0,-1,14.275
2856,-1,-1,0,1,0,-2,0,1,14.280000000000001
2857,-1,0,-2,-2,-1,0,-1,0,14.285
2858,-3,0,0,-2,0,1,0,-1,14.290000000000001
2859,0,-4,-3,0,-1,0,-1,-2,14.295
2860,-2,-16,-1,-2,-2,0,-2,-1,14.3
2861,-1,-16,-1,0,0,-2,0,0,14.305
2862,0,-10,-2,0,-1,0,-1,-2,14.31
2863,-1,-5,-1,-1,0,-1,0,-3,14.315
2864,-1,2,-1,-2,-3,-3,-2,-1,14.32
2865,0,6,-1,0,-1,-1,-1,0,14.325000000000001
2866,0,8,-2,-2,-2,-1,-1,0,14.33
2867,0,4,1,3,1,0,0,-2,14.335
2868,0,6,-2,-4,-1,-2,0,-1,14.34
2869,-2,4,0,-6,-1,-2,-1,0,14.345
2870,-2,2,1,-1,-2,-2,1,-1,14.35
2871,0,2,0,1,1,0,2,-1,14.355
2872,0,0,0,0,-1,0,0,2,14.36
2873,-1,-1,0,1,-1,-1,-1,-1,14.365
2874,-1,-1,-1,1,0,-2,-3,-1,14.370000000000001
2875,0,0,0,-1,-2,-1,-1,1,14.375
2876,-2,0,-4,-2,0,-1,0,-1,14.38
2877,-2,3,0,2,-2,-1,0,-2,14.385
2878,1,2,-3,1,-1,0,-1,-1,14.39
2879,-2,1,0,0,-2,-1,-1,-1,14.395
2880,-1,2,-1,0,2,0,1,1,14.4
2881,2,3,-2,0,0,-1,1,-1,14.405000000000001
2882,-2,-3,-1,-2,-1,-2,1,-2,14.41
2883,-1,0,-3,-2,-1,-2,-1,1,14.415000000000001
2884,0,-1,-2,1,0,0,-1,-1,14.42
2885,1,-1,-1,-1,1,0,2,-3,14.425
2886,0,-1,0,-2,1,-1,-2,-2,14.43
2887,0,-1,-2,-4,-2,0,0,-2,14.435
2888,1,-2,-1,1,-2,-2,-2,-3,14.44
2889,-1,0,-2,1,1,-2,-1,1,14.445
2890,0,1,-2,-2,-1,-2,1,-2,14.450000000000001
2891,-5,-5,-2,-3,-2,-2,-1,-1,14.455
2892,0,0,0,-2,-2,0,0,0,14.46
2893,-2,0,-1,0,-1,0,-2,0,14.465
2894,-1,-1,-1,2,-2,1,-2,0,14.47
2895,1,-2,0,-1,-1,0,-1,0,14.475
2896,0,0,-1,-2,-2,0,0,-1,14.48
2897,0,1,-1,3,0,0,0,-1,14.485
2898,1,0,-1,-3,-1,-1,-2,0,14.49
2899,-2,-2,-2,1,-1,-1,0,-1,14.495000000000001
2900,-2,-1,-2,-3,0,0,-2,-2,14.5
2901,1,0,-2,-1,-1,1,0,0,14.505
2902,0,0,-2,-1,0,-1,-1,-1,14.51
2903,0,-1,-1,0,1,2,0,0,14.515
2904,-1,-1,0,0,-2,-1,1,0,14.52
2905,-2,-1,-1,-1,-2,-2,-1,0,14.525
2906,-2,0,-1,-1,1,-1,0,-1,14.530000000000001
2907,1,-1,-1,-2,0,-1,-1,-1,14.535
2908,-1,-2,0,0,2,-1,-1,-2,14.540000000000001
2909,-1,0,1,-1,0,-1,0,0,14.545
2910,-1,0,-2,0,-1,-1,0,-1,14.55
2911,0,0,0,-1,-1,-3,-2,-1,14.555
2912,-1,0,-2,-2,-3,-1,0,0,14.56
2913,0,-2,-1,-1,-1,0,-1,0,14.565
2914,0,-3,0,1,-1,0,0,0,14.57
2915,-2,0,-3,0,-2,0,-2,1,14.575000000000001
2916,-1,-3,1,1,-3,-1,-3,-1,14.58
2917,-1,0,-2,-3,-2,-1,0,-1,14.585
2918,-1,1,-1,-2,-2,-1,-1,-2,14.59
2919,0,-1,0,1,1,-1,0,0,14.595
2920,-2,-1,-2,-1,1,0,0,-2,14.6
2921,-2,-1,0,0,-1,0,-2,-1,14.605
2922,0,0,1,1,0,0,0,-1,14.61
2923,1,0,2,0,-1,-1,0,-1,14.615
2924,-1,-1,0,-1,-2,-1,-2,-1,14.620000000000001
2925,-2,-1,0,-2,0,-1,-2,-1,14.625
2926,-2,0,-1,2,-3,0,1,1,14.63
2927,0,-2,-3,-2,-2,-1,0,0,14.635
2928,1,-1,-1,0,0,0,-1,-2,14.64
2929,0,1,-2,-2,-3,-1,-2,0,14.645
2930,-2,-2,1,0,-1,-2,-2,0,14.65
2931,0,2,0,-2,-1,1,0,-2,14.655000000000001
2932,-2,0,-2,0,0,-3,-1,0,14.66
2933,0,-2,-1,-1,0,-1,0,-1,14.665000000000001
2934,0,-2,-4,-1,0,0,0,0,14.67
2935,1,-3,-1,0,-1,1,-1,0,14.675
2936,-1,-1,-2,-2,-1,-2,-2,0,14.68
2937,0,0,0,2,-1,0,-1,-3,14.685
2938,-1,-1,1,-1,0,-2,-2,0,14.69
2939,-2,0,0,-1,0,0,0,-1,14.695
2940,-1,-1,1,1,1,-3,-1,-1,14.700000000000001
2941,-1,-3,-3,-1,0,-1,0,0,14.705
2942,-1,-1,1,0,-1,0,-2,0,14.71
2943,-1,-1,-3,-2,-2,0,-2,0,14.715
2944,-1,-1,-3,-5,-2,0,-1,-1,14.72
2945,-1,1,-1,-1,0,-3,0,-2,14.725
2946,-2,0,-2,-2,0,-1,-1,-1,14.73
2947,0,-1,0,0,0,-3,0,-3,14.735
2948,-2,-2,1,0,1,2,-1,0,14.74
2949,1,0,-1,-2,-3,1,0,0,14.745000000000001
2950,-1,-2,1,1,-1,0,-1,-1,14.75
2951,-1,-3,0,0,1,-1,-3,0,14.755
2952,1,-1,-2,0,-2,0,3,0,14.76
2953,-1,0,0,-2,0,0,0,-1,14.765
2954,0,2,0,-1,0,-2,-3,-1,14.77
2955,-1,-2,-2,-1,-1,-1,0,-1,14.775
2956,0,-1,-1,-1,-2,-3,-2,0,14.780000000000001
2957,-1,0,1,-1,-2,-3,-3,-1,14.785
2958,-1,-1,-2,-1,0,-1,0,-1,14.790000000000001
2959,0,1,-3,-1,-1,-1,-1,-2,14.795
2960,-1,-2,0,0,-2,-1,-1,0,14.8
2961,0,-2,0,0,0,-1,-1,0,14.805
2962,0,0,-2,-2,-3,-2,0,1,14.81
2963,0,0,0,1,0,0,1,-1,14.815
2964,0,2,1,1,-1,0,-2,0,14.82
2965,0,-2,-3,-2,-1,-1,1,-1,14.825000000000001
2966,-2,-3,-2,-5,-1,0,-2,0,14.83
2967,0,-2,1,6,0,0,-1,0,14.835
2968,0,-1,0,-4,0,-1,-1,0,14.84
2969,1,-2,-1,-1,0,-1,-2,-2,14.845
2970,-1,1,-1,0,0,-1,-1,-2,14.85
2971,-1,0,-2,-2,-3,-1,-1,-2,14.855
2972,-3,1,1,5,2,-1,-1,-2,14.86
2973,1,0,-4,-3,-2,-2,0,0,14.865
2974,0,-2,0,-1,-2,0,1,-2,14.870000000000001
2975,0,-1,1,-3,0,0,-1,0,14.875
2976,-2,-1,-1,-1,0,-1,1,0,14.88
2977,0,-2,1,2,0,1,-2,-1,14.885
2978,-1,0,-2,0,0,-1,1,0,14.89
2979,-1,-2,0,-3,-2,-2,-2,0,14.895
2980,-1,-1,-3,-3,0,0,-1,-2,14.9
2981,-1,1,2,1,-2,2,-1,1,14.905000000000001
2982,0,-2,-2,-2,0,-3,-1,-2,14.91
2983,-2,-1,-2,-2,-1,0,-1,-1,14.915000000000001
2984,0,-1,-2,-2,-2,-1,-1,1,14.92
2985,-1,-1,-2,-3,0,-1,-2,-1,14.925
2986,-2,-1,0,1,-2,-1,-3,-1,14.93
2987,0,0,1,2,1,-1,1,0,14.935
2988,-1,-1,-2,-3,-3,0,-2,-3,14.94
2989,-3,-2,-2,-1,-1,-2,0,-1,14.945
2990,-1,1,0,2,2,0,-1,-1,14.950000000000001
2991,-1,0,-4,-6,-1,-2,-1,-1,14.955
2992,-2,-3,2,0,1,-2,0,-1,14.96
2993,-1,-1,0,1,-1,-1,-1,0,14.965
2994,-1,-1,-1,-1,-2,-1,-2,-1,14.97
2995,-2,0,-1,-1,0,1,1,-1,14.975
2996,0,0,1,2,0,-2,1,-2,14.98
2997,1,-2,-2,-5,-1,-3,-2,-1,14.985
2998,-2,-2,0,0,1,-1,0,0,14.99
2999,-1,-1,-2,0,-1,-1,-1,-1,14.995000000000001
3000,-1,-1,0,1,-1,-1,0,-1,15.0
3001,-2,0,1,3,-2,0,-1,-2,15.005
3002,0,1,-2,-2,0,0,-1,1,15.01
3003,0,1,-1,1,-1,0,-2,0,15.015
3004,-1,-3,-3,-3,-2,1,-3,-1,15.02
3005,-1,0,0,0,1,0,-2,-2,15.025
3006,0,-2,-1,-1,-1,-2,1,0,15.030000000000001
3007,0,0,-3,-3,-3,-1,-2,-1,15.035
3008,0,-1,-1,0,0,-1,0,0,15.040000000000001
3009,0,-1,1,2,-1,-1,1,-1,15.045
3010,-1,-3,-2,-3,-2,0,0,-1,15.05
3011,-1,-1,0,-1,-1,-3,-2,0,15.055
3012,-1,0,-3,-2,-3,-3,-2,-1,15.06
3013,0,1,-2,-2,-1,0,-1,-1,15.065
3014,1,0,0,0,-1,-1,0,-1,15.07
3015,-1,-2,1,1,-1,-1,-2,0,15.075000000000001
3016,-1,-1,-3,-4,-1,-2,-2,-1,15.08
3017,-2,-2,0,0,0,-1,0,0,15.085
3018,-3,1,0,-1,-1,0,-2,-1,15.09
3019,-1,0,0,-3,-1,-1,0,0,15.095
3020,0,-1,0,1,0,-2,1,-1,15.1
3021,0,-2,0,1,-1,0,0,-2,15.105
3022,0,-3,-4,-5,-2,-2,-1,-1,15.11
3023,-2,-2,-2,0,-1,-1,0,-2,15.115
3024,0,-1,-2,2,-1,-1,0,1,15.120000000000001
3025,-1,-1,-1,-1,-1,0,0,-1,15.125
3026,1,0,0,1,0,1,-1,-1,15.13
3027,-1,0,0,-2,0,0,-2,-2,15.135
3028,1,-1,-1,-1,-1,0,-1,-2,15.14
3029,0,0,0,-1,0,-2,-1,-1,15.145
3030,-2,1,0,0,-1,-1,-2,1,15.15
3031,-2,-1,-1,0,-1,-1,-2,-1,15.155000000000001
3032,-1,0,-1,0,1,-1,-1,0,15.16
3033,-2,-1,0,-1,-2,-2,-1,-1,15.165000000000001
3034,-1,0,-1,-1,1,0,0,-1,15.17
3035,-1,-3,0,-5,-2,0,0,0,15.175
3036,0,0,-1,-1,-1,1,1,-1,15.18
3037,-2,-2,-3,0,-1,-3,-1,-1,15.185
3038,-1,0,0,0,-2,-4,-2,-2,15.19
3039,0,0,-1,1,0,0,-1,1,15.195
3040,0,-1,2,0,-1,-1,-1,-1,15.200000000000001
3041,-1,-1,-3,-2,-2,1,0,1,15.205
3042,0,0,-2,-4,0,-1,-1,0,15.21
3043,-1,0,0,0,0,-1,1,0,15.215
3044,-2,-2,0,1,-1,1,-2,-1,15.22
3045,-2,1,0,-2,-2,-1,-1,0,15.225
3046,-2,-2,0,1,-3,-2,0,0,15.23
3047,-1,-1,0,3,1,1,1,0,15.235
3048,-3,0,0,-4,-1,0,0,-1,15.24
3049,0,-1,0,-2,-1,1,-1,0,15.245000000000001
3050,0,0,1,0,-1,0,-1,-1,15.25
3051,1,-1,-4,-2,-3,-1,0,0,15.255
3052,-1,-2,0,0,-2,-2,-1,0,15.26
3053,0,-1,0,0,0,-2,-1,-1,15.265
3054,0,-2,0,-1,-1,0,-1,0,15.27
3055,-3,0,1,-1,2,0,1,-1,15.275
3056,-1,0,-1,-2,-1,-1,-1,-1,15.280000000000001
3057,0,0,-2,-1,-2,-3,-2,0,15.285
3058,0,-1,-4,-2,-1,1,0,-1,15.290000000000001
3059,0,-1,-1,1,0,-2,-1,0,15.295
3060,-2,-2,-1,-3,-1,-2,-1,-2,15.3
3061,-1,1,-1,0,-1,0,-1,-1,15.305
3062,0,-1,1,2,1,-1,-1,-1,15.31
3063,-1,-2,-3,-5,-4,-1,0,0,15.315
3064,0,-1,-1,0,-2,0,0,0,15.32
3065,-1,-1,0,-3,0,1,-2,-1,15.325000000000001
3066,-2,0,1,4,0,0,0,0,15.33
3067,0,1,1,3,-3,1,0,0,15.335
3068,-1,0,-4,-7,-2,-1,-1,1,15.34
3069,-1,-1,-2,-1,-2,-1,-1,0,15.345
3070,0,-3,0,-2,0,0,1,-1,15.35
3071,-1,-2,1,0,0,-2,-2,-2,15.355
3072,-2,1,1,2,-1,-2,-2,-1,15.36
3073,0,0,-1,-2,1,1,1,0,15.365
3074,-2,0,-1,-3,-3,-1,-2,-1,15.370000000000001
3075,0,-1,-2,2,-2,-1,-1,0,15.375
3076,1,-1,0,1,1,0,-1,-2,15.38
3077,-2,-1,-1,-2,0,-1,0,0,15.385
3078,-1,0,1,0,2,0,0,2,15.39
3079,-2,-2,2,-2,0,-1,0,0,15.395
3080,0,-1,-2,2,1,0,-1,0,15.4
3081,-2,0,-2,-1,0,-1,-2,-2,15.405000000000001
3082,-1,2,-2,-1,0,0,-2,-2,15.41
3083,0,0,-1,-1,2,0,0,0,15.415000000000001
3084,0,-2,-1,-2,-2,-2,-1,-1,15.42
3085,1,-2,0,2,-1,-1,0,0,15.425
3086,-1,-3,-1,-2,-3,-1,-1,-2,15.43
3087,-2,0,-4,-1,-2,0,-2,0,15.435
3088,0,-1,0,-1,0,0,-1,-2,15.44
3089,-1,-1,0,0,0,-3,-1,0,15.445
3090,-1,0,-2,-2,-2,-3,-3,0,15.450000000000001
3091,-1,0,1,2,1,0,0,-2,15.455
3092,-2,-1,-2,-4,0,0,-1,1,15.46
3093,-2,0,0,0,-1,0,-1,1,15.465
3094,1,-1,-1,-1,0,-1,-2,-1,15.47
3095,0,-2,0,-2,-3,-1,-2,-1,15.475
3096,-1,0,-3,-2,0,-1,-1,-1,15.48
3097,0,1,-3,0,1,1,0,0,15.485000000000001
3098,-1,-2,-3,-3,-1,-1,1,0,15.49
3099,0,0,-1,-1,-1,-1,0,1,15.495000000000001
3100,0,0,0,1,-2,-2,-2,1,15.5
3101,0,-2,-1,1,1,-2,-1,-1,15.505
3102,-1,0,0,1,-1,1,-2,0,15.51
3103,0,-1,0,3,0,-1,1,0,15.515
3104,1,-2,-1,-1,-2,-2,4,-2,15.52
3105,0,-1,0,-2,-1,-1,-4,0,15.525
3106,-1,0,-1,-1,-1,-1,2,0,15.530000000000001
3107,-6,-1,-1,-2,-1,0,2,-1,15.535
3108,0,-1,-1,3,0,0,-6,-3,15.540000000000001
3109,2,1,-2,0,0,1,0,-2,15.545
3110,-1,-1,-2,-5,-3,0,2,3,15.55
3111,-1,-2,-2,-2,1,1,-1,-1,15.555
3112,0,1,-1,-2,-3,-2,-1,0,15.56
3113,-1,0,0,-2,-1,-1,-3,-3,15.565
3114,-3,-3,-2,1,-2,-1,-5,-3,15.57
3115,-1,-2,-3,-5,-2,-1,-2,0,15.575000000000001
3116,-3,-3,1,4,0,1,-1,-1,15.58
3117,3,0,-1,1,0,-1,-3,0,15.585
3118,-1,0,0,0,-1,0,0,-1,15.59
3119,-1,-1,-1,2,-1,-2,1,-1,15.595
3120,0,0,0,-3,2,-1,-1,-1,15.6
3121,2,0,-1,-4,-1,0,2,1,15.605
3122,-3,-3,2,11,1,-1,0,-2,15.610000000000001
3123,-2,1,-1,-6,-5,-3,-5,-2,15.615
3124,-2,-2,0,0,-1,0,2,1,15.620000000000001
3125,0,-1,-3,3,3,1,4,1,15.625
3126,-2,-4,-3,-9,-1,-1,-6,-2,15.63
3127,0,-1,-2,2,0,-4,-2,-2,15.635
3128,-1,-1,-2,-7,-7,-1,0,2,15.64
3129,0,-2,2,2,-1,1,2,1,15.645
3130,-1,1,-3,-1,1,-1,-1,-1,15.65
3131,-1,0,-1,11,3,0,-1,-2,15.655000000000001
3132,-2,-2,-1,-9,-1,1,-10,-8,15.66
3133,-4,-1,-2,-2,-1,0,6,-3,15.665000000000001
3134,3,-1,-6,-6,-5,-7,5,1,15.67
3135,-1,1,6,4,5,2,0,3,15.675
3136,3,-1,-3,5,-4,-6,3,2,15.68
3137,4,4,1,3,3,1,-6,1,15.685
3138,-3,1,-5,-10,-7,-2,-5,-5,15.69
3139,-2,-1,-1,-9,-4,-3,3,-3,15.695
3140,-5,-7,-4,-6,-5,-3,-5,-2,15.700000000000001
3141,-4,-5,1,8,10,1,-4,-4,15.705
3142,-3,-2,-5,-6,-3,-1,0,-1,15.71
3143,1,-1,2,-4,3,3,0,1,15.715
3144,0,-1,0,-3,-2,4,3,2,15.72
3145,-2,-3,-2,3,3,-4,4,0,15.725
3146,3,0,0,-31,-9,-5,-2,0,15.73
3147,-2,-3,6,35,8,4,3,0,15.735000000000001
3148,3,2,9,9,0,-5,0,-1,15.74
3149,2,-1,-22,-9,-7,-3,-2,0,15.745000000000001
3150,1,-2,-2,-2,1,-1,-1,2,15.75
3151,-5,-1,-7,-6,-6,-4,-6,-3,15.755
3152,-3,2,1,3,2,4,-10,-6,15.76
3153,-3,-2,5,-8,1,2,8,2,15.765
3154,1,3,3,14,5,1,9,5,15.77
3155,3,-1,-3,-8,-6,-6,2,2,15.775
3156,-1,1,-5,0,-1,-1,6,-2,15.780000000000001
3157,-2,1,1,-1,4,5,-16,-6,15.785
3158,-6,-5,-4,-11,-17,-8,-2,-3,15.790000000000001
3159,5,3,9,0,11,6,-8,0,15.795
3160,-1,-1,-7,1,2,4,5,2,15.8
3161,-1,0,9,-8,-28,-8,-3,1,15.805
3162,3,2,6,29,29,8,13,4,15.81
3163,4,4,-7,1,-5,-4,0,2,15.815
3164,4,4,7,6,17,1,12,7,15.82
3165,-3,-1,-8,-2,-1,-4,-3,-3,15.825000000000001
3166,0,4,4,14,-6,6,-8,-6,15.83
3167,-16,-15,-7,-34,-20,-4,-15,-10,15.835
3168,3,1,-5,3,9,3,-1,-2,15.84
3169,-4,-3,-4,-7,-5,-7,13,4,15.845
3170,5,3,9,34,17,6,-3,2,15.85
3171,-2,14,-2,-5,-4,-2,-2,-1,15.855
3172,3,18,-9,-58,-20,-8,-4,-1,15.860000000000001
3173,-1,17,11,56,26,7,-20,-7,15.865
3174,-5,8,-6,-13,-8,-4,-3,-3,15.870000000000001
3175,2,22,7,5,3,0,14,2,15.875
3176,-10,23,-2,3,-8,-4,6,-7,15.88
3177,1,27,-17,-19,-6,-5,-15,2,15.885
3178,3,41,-7,-82,-27,-10,-6,4,15.89
3179,11,24,29,86,50,15,16,10,15.895
3180,-3,-7,8,14,8,11,14,4,15.9
3181,-4,-29,-9,-15,-21,-24,-23,-10,15.905000000000001
3182,-3,-34,-6,-2,7,6,-26,-5,15.91
3183,1,-33,-8,-34,-9,-7,3,1,15.915000000000001
3184,7,-17,9,10,-1,-1,-11,-2,15.92
3185,-2,47,-4,15,19,17,12,-10,15.925
3186,-26,3,-13,-68,-22,13,-6,-7,15.93
3187,1,55,-9,1,-18,-42,5,4,15.935
3188,9,-1,1,32,1,-6,15,23,15.94
3189,0,-21,13,24,-6,2,-5,-8,15.945
3190,2,-16,4,10,2,3,-4,-13,15.950000000000001
3191,1,-30,-16,-27,-20,-6,-12,-3,15.955
3192,-6,-28,-5,6,14,4,-8,-1,15.96
3193,4,-18,-11,-7,-14,-11,3,3,15.965
3194,1,-31,17,21,-7,0,42,11,15.97
3195,-8,-28,0,-15,12,24,25,-1,15.975
3196,2,-17,-4,20,5,-20,-50,-14,15.98
3197,-5,-3,19,31,9,15,28,5,15.985000000000001
3198,-8,-29,-27,2,-13,-16,-16,-10,15.99
3199,0,-6,6,-32,-26,-12,-43,-8,15.995000000000001
3200,0,-10,5,-62,-28,9,17,1,16.0
3201,8,-9,-6,18,36,2,19,12,16.005
3202,-7,-16,-12,2,-2,-6,6,8,16.01
3203,7,-3,7,17,6,-5,-37,-5,16.015
3204,0,-2,-7,-14,-6,15,37,5,16.02
3205,-3,-21,9,3,-1,2,-2,-2,16.025
3206,-2,2,2,-10,-13,-2,4,-4,16.03
3207,-6,-32,-25,-3,0,-9,3,1,16.035
3208,-8,-2,3,7,16,4,-63,-21,16.04
3209,-1,-4,-18,-11,-28,-4,-14,-7,16.045
3210,9,10,-10,19,9,5,22,2,16.05
3211,-9,-1,31,47,-11,-12,5,2,16.055
3212,2,-7,1,34,1,-19,13,20,16.06
3213,-9,-9,-3,-29,-18,-17,-12,-2,16.065
3214,9,-1,38,70,44,18,14,8,16.07
3215,9,10,-11,-42,-11,9,6,-11,16.075
3216,-19,-21,-57,-32,-25,-5,-18,-21,16.080000000000002
3217,-17,-27,49,27,18,25,-25,-12,16.085
3218,3,-16,-3,-52,-5,-9,17,10,16.09
3219,12,-21,-25,-30,13,19,14,13,16.095
3220,8,-12,24,73,25,-28,18,7,16.1
3221,-3,-18,-14,-53,-22,-9,-9,-12,16.105
3222,-7,-70,-2,-27,-4,6,-71,-27,16.11
3223,0,-97,3,3,-2,13,77,20,16.115000000000002
3224,14,-42,-9,-15,-4,1,-28,11,16.12
3225,-11,-40,-12,-37,-23,-11,12,1,16.125
3226,0,6,21,67,43,7,-14,-7,16.13
3227,0,-10,-8,-10,-7,-13,-9,-5,16.135
3228,-9,-12,-10,-6,0,5,11,-7,16.14
3229,-4,-17,3,-50,-10,7,-18,-11,16.145
3230,11,-14,12,55,20,-2,44,15,16.15
3231,-1,66,-25,0,-8,0,-8,9,16.155
3232,1,52,41,5,-6,-9,0,3,16.16
3233,7,27,-11,38,37,8,-32,-7,16.165
3234,-25,-30,-17,-48,-19,-20,-34,-34,16.17
3235,6,-25,-1,-15,-22,13,29,8,16.175
3236,-9,4,-14,-13,6,22,76,9,16.18
3237,6,54,10,44,10,-23,-70,-13,16.185
3238,15,102,-10,-9,-28,-37,6,24,16.19
3239,-2,96,20,-63,-8,-11,-26,-6,16.195
3240,-14,102,10,15,-13,0,13,-3,16.2
3241,-4,50,-15,-7,8,38,34,-8,16.205000000000002
3242,-7,16,2,2,-7,3,-15,-4,16.21
3243,5,10,-17,-4,-8,-12,-4,5,16.215
3244,-1,5,-8,-36,6,7,-50,-17,16.22
3245,-9,17,10,-22,-20,-16,42,8,16.225
3246,4,62,-29,-65,-20,16,31,5,16.23
3247,-6,115,4,16,-11,-3,-24,-7,16.235
3248,10,108,18,-2,12,16,21,12,16.240000000000002
3249,18,107,2,61,26,-10,-7,23,16.245
3250,2,47,-10,-28,-24,0,-4,-2,16.25
3251,-15,-34,11,20,13,11,-26,-24,16.255
3252,-1,-45,9,1,-12,2,26,-9,16.26
3253,-5,-61,-17,-23,-3,-1,-3,1,16.265
3254,-6,-45,-6,-88,-47,7,-17,-10,16.27
3255,12,-35,16,98,41,-22,26,31,16.275
3256,0,0,-23,-10,-6,-12,-32,8,16.28
3257,4,-68,18,-21,7,2,44,7,16.285
3258,-2,-35,-27,33,-8,6,-13,-7,16.29
3259,-18,-70,13,-30,-3,6,-24,-28,16.295
3260,-8,-40,14,7,-1,-5,-4,-12,16.3
3261,-13,-38,-21,-43,-18,13,25,1,16.305
3262,13,-43,24,87,30,-4,-5,12,16.31
3263,14,-40,-9,-35,-24,-8,-7,4,16.315
3264,14,-1,14,2,28,-6,4,7,16.32
3265,-10,-34,-11,16,-14,2,-5,-6,16.325
3266,-8,-36,0,-16,-4,-9,-16,-1,16.330000000000002
3267,-11,-13,-9,16,28,15,30,-7,16.335
3268,-2,-22,-9,-30,-17,-4,-38,-6,16.34
3269,6,9,6,30,7,0,8,5,16.345
3270,-2,-34,15,-14,-8,19,27,1,16.35
3271,-8,-6,-13,-43,-11,-3,-10,-4,16.355
3272,9,12,-18,29,10,-3,24,9,16.36
3273,1,-9,9,-51,-22,-11,2,4,16.365000000000002
3274,8,-14,5,44,21,16,4,-1,16.37
3275,0,-4,5,-20,-19,1,-16,0,16.375
3276,-4,-3,-1,5,8,-13,7,-5,16.38
3277,-13,-32,-39,-88,-22,-4,-16,-16,16.385
3278,-3,10,25,81,11,-26,-8,3,16.39
3279,12,21,-13,17,9,-5,23,12,16.395
3280,-2,-24,12,-19,-20,28,27,7,16.4
3281,9,28,-1,-33,-22,-22,32,10,16.405
3282,-6,-15,-8,13,29,0,-32,-16,16.41
3283,-11,-7,2,33,30,0,-26,-15,16.415
3284,-11,-25,-18,-37,-49,-9,-2,-11,16.42
3285,-2,-21,4,16,14,17,-55,-15,16.425
3286,12,7,4,11,15,-11,72,29,16.43
3287,-1,12,0,-1,-8,1,-11,7,16.435
3288,-8,4,3,-16,5,-1,-35,-20,16.44
3289,13,3,8,26,26,12,6,-2,16.445
3290,-6,12,-24,-59,-18,-15,-11,-1,16.45
3291,-4,-3,9,26,9,-5,-18,-5,16.455000000000002
3292,-7,7,-15,3,6,4,13,1,16.46
3293,-4,-3,14,5,-14,-1,-20,-5,16.465
3294,9,-21,13,20,2,22,37,1,16.47
3295,-16,-23,-21,-31,-21,-22,-22,-16,16.475
3296,-7,-6,-14,-31,-7,-1,33,-9,16.48
3297,7,28,32,70,15,-4,-23,15,16.485
3298,17,66,-6,3,-12,-28,54,45,16.490000000000002
3299,12,-1,22,22,18,21,6,2,16.495
3300,-2,17,-3,23,0,-3,2,-2,16.5
3301,-10,14,-12,-7,1,-4,-19,-12,16.505
3302,-14,-58,-16,-60,2,25,-33,-35,16.51
3303,-2,2,-1,42,3,-10,4,3,16.515
3304,7,5,4,-6,-8,-6,-50,-4,16.52
3305,-2,-8,2,-68,-46,2,7,4,16.525
3306,-1,18,16,82,48,0,11,16,16.53
3307,2,24,-18,6,4,0,22,7,16.535
3308,1,6,12,13,-10,-1,-8,-2,16.54
3309,-3,0,-10,49,26,6,4,-3,16.545
3310,3,-37,-7,-27,-10,6,-4,-8,16.55
3311,-11,-5,-22,-23,-18,-16,-16,-7,16.555
3312,14,-8,28,13,17,1,16,11,16.56
3313,-1,-1,-11,-19,-12,13,-23,-11,16.565
3314,-9,31,7,8,-7,-42,-3,0,16.57
3315,8,5,-4,-23,6,26,24,10,16.575
3316,-11,-2,0,32,24,4,-22,-14,16.580000000000002
3317,4,-20,-17,-32,-20,-16,28,-5,16.585
3318,6,20,11,1,12,12,-5,12,16.59
3319,13,10,3,3,-16,-5,-21,-7,16.595
3320,-16,7,4,2,-2,1,4,-3,16.6
3321,2,-15,-6,14,22,3,35,7,16.605
3322,-1,-8,-10,-39,-25,-7,-30,-7,16.61
3323,3,16,-1,11,5,0,12,5,16.615000000000002
3324,3,-17,17,-9,-10,12,-36,-7,16.62
3325,-9,7,-4,48,38,-11,-4,-6,16.625
3326,-6,-18,1,-88,-42,9,35,2,16.63
3327,-4,5,19,17,11,13,6,4,16.635
3328,8,24,-7,-13,-2,-5,-19,6,16.64
3329,12,-2,13,33,2,-14,-8,7,16.645
3330,1,18,-19,-24,-1,-11,-16,-9,16.65
3331,-1,-22,-5,-14,-7,12,29,1,16.655
3332,-16,14,6,-5,2,-6,-12,-10,16.66
3333,-8,-12,-10,-12,-1,-1,5,2,16.665
3334,0,-15,-9,5,-5,7,-63,-21,16.67
3335,-3,-1,1,-39,-18,-22,42,0,16.675
3336,21,38,16,82,45,10,36,30,16.68
3337,17,13,18,51,21,-2,4,23,16.685
3338,-5,3,5,35,5,5,-16,-18,16.69
3339,-18,-24,-11,-1,1,8,-15,-10,16.695
3340,3,-17,-26,-33,-25,-12,-9,-8,16.7
3341,-16,-26,-3,-40,-17,-4,-11,-13,16.705000000000002
3342,1,-16,24,4,17,15,-12,1,16.71
3343,-3,10,-20,-56,-42,-12,-3,-7,16.715
3344,4,-21,2,19,20,4,17,2,16.72
3345,8,19,-3,-67,-38,-18,-24,4,16.725
3346,1,21,-2,55,31,0,30,15,16.73
3347,2,13,24,16,8,1,-8,2,16.735
3348,-6,2,-13,-23,-13,0,4,-4,16.740000000000002
3349,-9,-23,-14,-25,9,3,13,-7,16.745
3350,-13,-26,-12,-1,-5,-1,-46,-20,16.75
3351,6,-24,9,22,15,16,19,11,16.755
3352,7,11,-9,-19,-9,-3,17,17,16.76
3353,4,-2,2,-6,-7,4,9,1,16.765
3354,-10,-20,-1,20,5,12,-26,-19,16.77
3355,-15,-33,-24,-32,-5,7,-7,-16,16.775
3356,18,30,28,1,1,-27,15,32,16.78
3357,17,62,7,28,3,-10,9,16,16.785
3358,-1,1,-2,0,-4,-9,5,0,16.79
3359,-1,-10,-2,8,5,11,-28,-16,16.795
3360,-16,-26,-15,-25,-13,7,-6,-20,16.8
3361,0,-6,5,14,6,-1,11,4,16.805
3362,-1,-3,0,5,0,3,4,2,16.81
3363,2,0,6,-5,3,-5,-13,-5,16.815
3364,-3,0,-11,3,-1,1,0,-3,16.82
3365,0,4,6,17,-1,4,1,0,16.825
3366,1,5,5,-11,-13,-23,3,-2,16.830000000000002
3367,4,-2,1,7,8,9,3,4,16.835
3368,13,5,-4,3,-2,3,-1,-2,16.84
3369,-12,-2,-4,-1,-1,7,4,-3,16.845
3370,0,-1,-27,-7,-5,6,11,5,16.85
3371,2,15,31,14,7,-7,-11,2,16.855
3372,-2,-10,-14,4,-3,0,-6,-4,16.86
3373,-2,-9,-2,-4,-6,3,-3,-3,16.865000000000002
3374,1,4,6,-4,-3,-5,8,4,16.87
3375,0,-7,1,16,4,0,-10,0,16.875
3376,-8,-26,-5,-7,-1,4,-6,-7,16.88
3377,0,-35,-2,-3,-3,-4,6,0,16.885
3378,0,-39,1,-8,-6,-6,6,5,16.89
3379,2,-95,-1,11,8,12,2,-2,16.895
3380,-6,-57,-2,-4,-4,5,-13,-4,16.9
3381,-2,-125,-5,3,2,-11,8,-2,16.905
3382,6,-64,2,-2,3,8,6,3,16.91
3383,-2,30,-6,-1,-2,-5,-4,-3,16.915
3384,-4,66,-5,-1,-3,-4,-4,-2,16.92
3385,0,127,8,4,1,4,5,0,16.925
3386,-3,127,-2,-3,-1,-2,-2,-1,16.93
3387,1,48,-3,-2,-1,-3,-3,2,16.935
3388,-3,89,-3,-2,0,-3,-2,-2,16.94
3389,0,41,-7,-7,-4,-2,-3,0,16.945
3390,0,-10,-1,1,-1,2,5,0,16.95
3391,-2,74,1,4,-2,-5,-2,-1,16.955000000000002
3392,-1,31,2,-7,-1,0,1,-2,16.96
3393,3,117,3,4,1,4,2,1,16.965
3394,1,127,0,0,-1,1,-2,0,16.97
3395,-1,127,-4,0,1,-3,-5,0,16.975
3396,-1,5,0,-3,-3,-3,-1,-1,16.98
3397,0,-51,1,0,-2,-5,1,-1,16.985
3398,-1,-98,-2,-6,-3,0,0,1,16.990000000000002
3399,-2,-30,-1,3,-3,-5,-6,-2,16.995
3400,-4,12,1,1,0,-8,1,-2,17.0
3401,0,110,-3,-1,-2,5,-2,1,17.005
3402,3,127,2,6,5,6,5,0,17.01
3403,0,62,-1,-3,0,8,5,-1,17.015
3404,1,9,-3,1,0,-2,-5,-1,17.02
3405,0,43,-3,0,0,0,-4,0,17.025
3406,-1,-14,1,-2,-2,-3,-2,0,17.03
3407,-1,-53,2,0,-2,-1,0,1,17.035
3408,-3,-94,-6,-3,-1,5,5,-2,17.04
3409,-1,-128,1,0,1,3,4,1,17.045
3410,-3,-94,-1,0,1,-3,-5,-3,17.05
3411,-1,-107,-2,-3,-4,-4,-3,0,17.055
3412,2,-127,2,2,-4,0,2,1,17.06
3413,-1,-98,-2,-1,0,2,-1,-2,17.065
3414,-1,-73,3,3,1,-4,-1,0,17.07
3415,-2,-53,0,1,1,-1,-2,-2,17.075
3416,-2,-29,-1,0,-2,-3,-4,-2,17.080000000000002
3417,-2,-23,-5,-1,1,1,6,1,17.085
3418,-1,-25,4,1,-2,-3,-1,-1,17.09
3419,0,-19,-3,-3,1,3,2,-1,17.095
3420,0,-5,-4,0,1,1,1,0,17.1
3421,-2,-19,3,-2,-2,-1,-2,-3,17.105
3422,0,-10,2,5,0,-8,-6,0,17.11
3423,-2,7,-6,-8,-4,2,1,-1,17.115000000000002
3424,1,6,6,4,-1,-2,-2,-1,17.12
3425,-2,-6,-41,-12,-2,-2,-2,-3,17.125
3426,-2,19,13,-1,-3,-1,-6,-1,17.13
3427,0,5,12,2,-4,-11,-2,1,17.135
3428,0,-5,-5,2,2,3,-5,2,17.14
3429,1,-3,10,-2,-2,-1,1,-1,17.145
3430,0,4,-17,1,2,-1,-1,-1,17.150000000000002
3431,1,4,9,7,1,1,-2,-2,17.155
3432,-3,-3,6,-11,-5,0,-5,-2,17.16
3433,1,8,5,4,2,-5,1,1,17.165
3434,1,-11,-24,-6,-1,0,2,0,17.17
3435,-2,2,14,4,-3,-4,-6,-1,17.175
3436,-3,13,10,4,-2,-3,3,-2,17.18
3437,4,14,12,4,6,4,-1,3,17.185
3438,-4,5,4,-13,-8,-6,-5,-4,17.19
3439,1,7,-7,3,0,-3,1,0,17.195
3440,-3,-4,-14,8,3,-5,-9,-4,17.2
3441,-3,-10,10,-10,0,7,4,0,17.205000000000002
3442,-3,-26,-55,-22,-3,8,10,1,17.21
3443,-1,11,-10,2,3,-7,-11,-2,17.215
3444,1,12,-9,-13,0,3,13,0,17.22
3445,-1,-9,55,27,-5,0,-3,0,17.225
3446,-3,-1,2,-13,-11,0,-5,-5,17.23
3447,1,11,13,7,11,-3,5,-1,17.235
