slno,emg1,emg2,emg3,emg4,emg5,emg6,emg7,emg8,Time
0,-2,-3,-10,-6,-24,-5,-2,-1,0.0
1,1,-1,-2,1,4,2,2,2,0.005
2,0,-2,-1,0,0,0,1,0,0.01
3,-3,-4,0,4,-7,-6,-3,-4,0.015
4,1,-2,2,-6,4,1,-2,-1,0.02
5,-1,-3,1,-4,-4,-1,0,-1,0.025
6,-1,-2,-2,-6,-1,-1,1,-1,0.03
7,-2,-3,0,-7,-2,-2,-2,-1,0.035
8,-1,-4,0,9,1,0,-1,-2,0.04
9,0,-1,-1,1,1,1,0,-1,0.045
10,1,-1,-2,-3,-5,0,-2,-1,0.05
11,-1,-4,-10,-32,-9,-2,-1,-1,0.055
12,-2,0,6,23,13,1,1,-1,0.06
13,1,-1,-3,-3,-8,-1,0,-1,0.065
14,-4,0,7,28,-3,-5,-1,-4,0.07
15,-3,-2,-6,-9,12,7,-1,-1,0.075
16,2,0,-3,-20,-7,-2,-1,-1,0.08
17,-1,1,-1,-7,5,1,-1,-2,0.085
18,-1,2,-2,-8,-8,-2,1,1,0.09
19,0,-1,-1,4,-3,-3,-2,-2,0.095
20,-2,0,0,-1,4,-2,-1,-1,0.1
21,2,1,0,10,2,-2,-1,0,0.105
22,1,-2,1,3,3,-1,-4,-2,0.11
23,-1,-1,-1,8,-2,-2,0,-1,0.115
24,1,1,0,4,-3,2,0,-1,0.12
25,-2,-5,-3,-1,-5,-4,-3,-2,0.125
26,-2,0,-2,0,-1,-6,-1,-2,0.13
27,-2,1,0,-1,1,-3,-1,0,0.135
28,1,1,1,-1,1,-1,1,1,0.14
29,-1,-3,-7,-5,-3,-4,-4,-1,0.145
30,-1,-2,-2,-3,-7,-2,-1,-1,0.15
31,0,-1,-1,1,13,2,2,0,0.155
32,0,1,-1,-5,-10,-5,-2,1,0.16
33,0,2,3,-10,20,4,-2,-1,0.165
34,1,1,-2,-5,-2,0,-1,0,0.17
35,-2,-3,1,27,-5,-5,-3,-2,0.17500000000000002
36,-1,1,-2,-7,1,2,1,-2,0.18
37,-3,-1,-2,1,-13,-7,-2,-3,0.185
38,0,0,-2,-17,2,5,-1,-2,0.19
39,-2,2,-1,-10,-4,1,-1,0,0.195
40,-1,-1,0,4,5,4,-2,1,0.2
41,-2,-3,-4,-3,-10,-3,-2,-2,0.20500000000000002
42,-1,-1,1,7,3,-1,1,1,0.21
43,0,1,0,-1,-3,0,0,1,0.215
44,-1,-1,-1,3,3,-1,0,0,0.22
45,-3,-1,-1,-2,-2,-1,0,-2,0.225
46,3,0,-1,6,-1,-3,-2,0,0.23
47,1,2,-4,-20,-3,-2,1,0,0.23500000000000001
48,-5,2,1,8,0,-2,0,2,0.24
49,11,-1,2,2,0,0,-1,-1,0.245
50,-9,-5,1,15,0,-3,0,-1,0.25
51,3,-3,-6,-26,-7,1,-1,1,0.255
52,-1,-2,3,26,6,2,0,0,0.26
53,-3,0,-3,-7,-4,-1,-2,-1,0.265
54,-1,-2,-3,-6,-2,-1,-2,-2,0.27
55,-1,0,2,5,2,0,0,-1,0.275
56,1,-1,-6,-36,-3,-1,1,-2,0.28
57,-5,0,7,42,4,-1,0,-1,0.28500000000000003
58,2,-1,-3,-6,-3,-1,-2,-1,0.29
59,-3,-1,-1,4,0,2,-1,0,0.295
60,0,-2,1,0,-2,0,-2,-1,0.3
61,-2,-1,-3,-13,-4,-1,-1,-2,0.305
62,-2,-2,0,0,-2,0,1,-3,0.31
63,2,-1,-1,2,-2,0,0,-1,0.315
64,2,-1,-4,-7,-2,-1,-1,-1,0.32
65,-2,0,0,4,-3,-1,0,1,0.325
66,-3,1,-3,-3,1,0,-2,0,0.33
67,0,-1,1,1,1,0,0,-2,0.335
68,-2,0,-3,-24,-4,-4,-1,-1,0.34
69,-4,0,7,46,9,0,0,-1,0.34500000000000003
70,2,-1,-1,-2,-3,-3,-3,-1,0.35000000000000003
71,-1,-1,0,3,2,2,2,-1,0.355
72,2,-1,-9,-22,-4,-2,1,-1,0.36
73,-2,-2,6,11,1,0,-1,1,0.365
74,-2,-1,-3,0,-1,0,-1,-1,0.37
75,-1,-1,-1,4,0,-1,-2,-2,0.375
76,-2,-1,1,9,1,-1,-1,-2,0.38
77,0,-1,-9,-46,-9,-1,0,-1,0.385
78,-2,0,7,23,5,0,-1,-2,0.39
79,-3,-1,2,9,0,0,-1,-1,0.395
80,3,-4,0,7,1,1,0,2,0.4
81,-1,-3,-5,-19,-5,-2,-1,-1,0.405
82,2,-2,3,7,2,2,1,-1,0.41000000000000003
83,-2,-4,-9,-18,-3,-1,-2,0,0.41500000000000004
84,-3,0,2,8,0,-2,-2,-1,0.42
85,-1,0,-3,1,0,-2,0,0,0.425
86,0,-1,1,-13,-2,-2,-1,0,0.43
87,0,-2,2,3,-1,-1,-2,-2,0.435
88,-2,-1,1,7,-2,-1,-1,-3,0.44
89,0,-1,-1,-9,-1,-1,-1,0,0.445
90,0,1,-2,-6,0,-1,-2,-1,0.45
91,0,2,1,1,0,-2,0,0,0.455
92,-1,0,1,-3,-2,-1,-2,-2,0.46
93,-1,1,-1,-1,0,2,-1,-1,0.465
94,-1,1,1,4,-2,-1,-1,-1,0.47000000000000003
95,1,0,1,5,1,-1,-1,-3,0.47500000000000003
96,0,-2,0,2,0,0,-1,-1,0.48
97,0,-2,-3,-10,-7,-3,0,0,0.485
98,0,-1,-3,-2,3,5,0,1,0.49
99,0,0,3,-6,0,-1,1,2,0.495
100,-3,-1,-4,2,0,-2,0,-3,0.5
101,-1,-3,-3,1,0,-3,0,-2,0.505
102,0,0,-2,-6,-2,-4,0,0,0.51
103,-1,1,1,-1,-1,0,1,-1,0.515
104,-1,-2,-1,0,-1,-3,0,-1,0.52
105,-1,-2,-2,-1,1,0,-1,-3,0.525
106,0,-2,0,-2,-3,0,-1,-1,0.53
107,-3,0,0,1,2,1,1,0,0.535
108,1,1,2,3,0,1,0,1,0.54
109,0,-1,-4,-4,0,2,-2,-1,0.545
110,0,-2,0,-5,-2,-2,-1,-1,0.55
111,0,-2,-2,-9,-3,-1,0,-2,0.555
112,-3,-1,-4,0,-2,-1,-1,-1,0.56
113,-2,1,5,12,3,-1,-1,-1,0.5650000000000001
114,0,-1,-1,-1,-1,0,-2,0,0.5700000000000001
115,0,-2,-4,-4,-5,-6,-3,0,0.5750000000000001
116,1,-2,0,-4,-3,3,0,0,0.58
117,0,-1,0,-3,5,6,2,0,0.585
118,0,0,-3,-2,-1,1,1,-1,0.59
119,-2,-2,-2,1,0,2,0,0,0.595
120,-2,-1,3,10,-2,-4,-2,-2,0.6
121,1,0,-2,-1,-2,-5,1,0,0.605
122,-1,0,-1,-2,0,-1,-2,-1,0.61
123,0,0,-5,-36,-7,-3,-1,0,0.615
124,-1,-2,8,60,10,0,-2,-1,0.62
125,-1,-1,-1,-4,-2,0,-2,1,0.625
126,-2,-2,-1,-3,0,0,1,1,0.63
127,1,-1,-1,1,-1,0,-1,0,0.635
128,-2,0,-3,-22,-3,-2,-1,1,0.64
129,-1,0,0,-3,1,2,-1,-2,0.645
130,-1,-4,-3,3,-2,-3,-1,-2,0.65
131,-1,-2,1,10,1,2,2,-3,0.655
132,-1,-1,-3,-10,-3,1,0,-2,0.66
133,-2,-2,-3,-4,-2,-2,0,-2,0.665
134,1,2,1,1,0,0,0,0,0.67
135,-3,-2,0,10,3,2,-1,-1,0.675
136,0,0,-2,-7,-4,-4,-2,-2,0.68
137,0,0,-2,-16,-1,3,1,-1,0.685
138,1,1,0,5,1,1,0,0,0.6900000000000001
139,0,2,5,29,3,1,-1,-1,0.6950000000000001
140,-3,-1,-4,-9,-3,0,-2,-2,0.7000000000000001
141,-1,1,-1,-2,-4,-3,-3,-1,0.705
142,-2,-1,-2,-12,-3,-1,-1,-1,0.71
143,0,0,1,-2,3,-2,0,-1,0.715
144,0,-1,-2,-5,-3,0,-1,0,0.72
145,0,-1,-2,1,-1,-2,-1,-2,0.725
146,-1,-1,0,-1,-1,-1,-1,0,0.73
147,0,2,-1,5,1,-1,0,1,0.735
148,-2,0,-1,-6,-2,-1,1,0,0.74
149,-1,-1,-1,1,1,0,-1,1,0.745
150,0,-2,0,2,0,0,0,-1,0.75
151,0,-1,-4,-4,-2,0,-2,1,0.755
152,0,-3,-2,-5,-2,-2,0,-1,0.76
153,2,0,2,5,0,-2,0,-1,0.765
154,-2,-4,-4,-2,-3,-2,-3,-2,0.77
155,-1,-1,-6,-30,-5,-1,-1,0,0.775
156,-2,-1,4,25,4,1,-1,-2,0.78
157,-2,-3,1,18,0,-3,-1,0,0.785
158,0,0,-1,1,0,0,-2,0,0.79
159,-1,-2,3,1,-1,-1,0,-1,0.795
160,0,1,-2,-12,-2,-2,-2,-1,0.8
161,-8,-5,-9,-13,-4,-2,-1,-1,0.805
162,1,-3,-1,-1,-2,-2,-2,-2,0.81
163,6,2,1,8,1,1,0,3,0.8150000000000001
164,-3,-1,1,-12,-2,-1,-1,1,0.8200000000000001
165,1,4,1,2,-1,0,0,-1,0.8250000000000001
166,-6,-1,-2,-2,1,-2,1,-2,0.8300000000000001
167,-3,0,2,4,-1,-2,0,-4,0.835
168,-1,-2,-4,2,-1,-1,0,0,0.84
169,1,-2,-1,-24,-4,-1,0,0,0.845
170,-1,-2,-5,-7,-2,1,0,0,0.85
171,0,-1,0,-36,-6,-2,-2,-2,0.855
172,-1,1,26,87,17,1,-1,0,0.86
173,-2,-4,-14,-43,-8,-2,-2,0,0.865
174,-1,0,5,23,2,-2,-1,-1,0.87
175,-2,-3,-7,-11,-4,-2,-1,-2,0.875
176,1,-1,-7,-40,-7,-2,-2,-1,0.88
177,-1,0,0,2,-1,0,-1,-2,0.885
178,1,-1,0,-5,-1,-2,-3,-2,0.89
179,-1,-2,2,7,1,-1,-2,-1,0.895
180,-2,-3,-5,-9,-3,0,-1,-2,0.9
181,3,0,2,-3,2,0,0,1,0.905
182,-1,-1,5,37,4,1,2,-1,0.91
183,-2,-2,2,13,0,-1,1,-3,0.915
184,0,-2,-5,-13,-2,-1,0,-2,0.92
185,0,-2,-1,0,0,0,0,1,0.925
186,-2,2,0,-5,-4,-4,-1,1,0.93
187,0,0,-1,10,5,7,2,1,0.935
188,0,-1,-4,-4,0,-2,0,0,0.9400000000000001
189,-1,1,4,15,2,0,1,0,0.9450000000000001
190,0,0,-3,-18,-3,-3,-2,-2,0.9500000000000001
191,-1,-1,-4,10,-2,-3,-2,-2,0.9550000000000001
192,-2,-1,-8,-17,-6,-3,-1,-2,0.96
193,0,1,2,9,0,0,0,1,0.965
194,0,2,-2,-7,-2,0,0,1,0.97
195,-1,0,-2,-19,-2,-1,0,1,0.975
196,-1,-1,0,-6,-2,0,-1,-2,0.98
197,1,-1,4,48,5,0,-1,-1,0.985
198,-2,-2,0,-1,0,-2,-2,-2,0.99
199,0,1,-3,-9,-1,0,-1,-1,0.995
200,0,0,-3,-11,-4,-2,-1,-1,1.0
201,1,1,3,-5,-1,-2,1,-1,1.0050000000000001
202,0,-2,-7,-16,-4,1,2,1,1.01
203,-2,-2,3,19,6,-3,-4,-4,1.0150000000000001
204,0,-1,-8,-64,-18,-8,-1,0,1.02
205,-3,-4,8,74,13,6,-2,-4,1.025
206,1,1,2,-3,-2,1,-1,1,1.03
207,-1,0,1,-2,-7,-3,-2,-2,1.035
208,-1,-2,-5,-4,5,-4,-1,1,1.04
209,0,-1,-3,-28,-1,4,2,2,1.045
210,0,1,-1,0,1,0,-1,-2,1.05
211,0,-1,-1,6,-1,-1,-1,-2,1.055
212,1,0,1,7,-4,-1,-1,-2,1.06
213,1,2,0,-10,-5,-4,-1,-2,1.065
214,-3,-1,1,3,1,0,0,1,1.07
215,-1,0,-2,-7,-6,-2,0,0,1.075
216,-3,-1,0,15,2,0,0,-1,1.08
217,-3,1,-2,-7,-1,0,-1,-3,1.085
218,1,-1,-4,-9,-4,-1,-1,-3,1.09
219,0,0,0,-3,3,0,-1,1,1.095
220,-3,-2,-2,-1,1,1,-1,-1,1.1
221,-1,-1,2,15,1,-2,-1,0,1.105
222,1,-1,0,-1,-1,1,-2,0,1.11
223,0,-2,-2,1,1,1,1,1,1.115
224,-1,0,0,10,1,0,-1,-2,1.12
225,-3,-3,-5,-25,-5,-3,1,0,1.125
226,0,0,-2,-2,0,1,-1,-3,1.1300000000000001
227,-1,-2,1,13,3,0,-3,0,1.135
228,0,-2,-1,-4,-1,-1,0,0,1.1400000000000001
229,2,-2,-1,-12,-2,0,0,-2,1.145
230,-1,-3,4,14,3,-1,-2,-3,1.1500000000000001
231,0,0,-2,-2,1,0,0,-2,1.155
232,-1,1,0,3,-1,0,-1,-1,1.16
233,0,2,-2,-19,-3,-1,0,0,1.165
234,-1,-2,3,21,4,-1,-1,-1,1.17
235,0,-1,0,-3,-3,0,-1,0,1.175
236,-3,1,0,6,-2,-1,-3,-1,1.18
237,1,0,-4,-7,-2,-2,-2,0,1.185
238,-1,0,-2,-23,-3,-1,0,0,1.19
239,-2,-1,0,2,0,-1,-2,1,1.195
240,2,-1,-3,-3,-1,2,0,-2,1.2
241,-2,-2,0,-12,-2,-1,-1,-3,1.205
242,-1,1,-2,0,0,-1,-2,-1,1.21
243,-1,0,0,5,1,-2,-1,-2,1.215
244,-1,-3,-2,4,-1,-1,-1,-2,1.22
245,0,0,0,7,-1,-1,-3,-1,1.225
246,0,0,0,-4,3,6,1,9,1.23
247,-2,1,-2,-2,-2,1,-1,4,1.235
248,-1,-2,-2,-10,-2,0,-2,2,1.24
249,-2,0,0,4,0,-3,0,-2,1.245
250,-1,-2,0,-1,-3,-3,0,-6,1.25
251,0,-1,1,-4,0,-2,0,-5,1.2550000000000001
252,-1,-2,1,7,2,-4,1,-2,1.26
253,1,0,0,4,0,-2,-2,-1,1.2650000000000001
254,-2,-1,-3,-9,-2,-1,-1,-2,1.27
255,-2,-2,0,0,0,-2,-1,-3,1.2750000000000001
256,-1,-3,-3,-12,-3,0,0,-3,1.28
257,0,0,2,16,4,2,2,0,1.285
258,1,1,-2,-9,-4,-1,-1,-1,1.29
259,-2,-1,-1,-8,-3,-1,-3,-3,1.295
260,2,0,0,10,0,-1,-3,-1,1.3
261,0,-2,-2,-20,-3,-2,-1,1,1.305
262,-2,-3,2,11,1,-1,-1,-1,1.31
263,-2,0,0,-2,-1,0,0,0,1.315
264,-1,0,-3,1,-1,-1,-1,-1,1.32
265,0,1,-1,1,-1,1,-2,0,1.325
266,-2,-1,-1,-13,-3,-2,-3,-2,1.33
267,1,-1,2,17,1,0,0,0,1.335
268,-1,-3,0,11,1,-1,0,-2,1.34
269,-3,-2,-2,2,-1,0,-1,-1,1.345
270,0,-2,-4,-10,-2,-1,0,-1,1.35
271,1,1,-5,-27,-3,-1,1,1,1.355
272,-2,-1,2,14,1,-2,0,-1,1.36
273,-2,-3,-1,-2,-1,-1,-1,-1,1.365
274,0,1,-1,-2,-2,-1,-2,-1,1.37
275,-2,-2,3,12,0,-1,-1,-2,1.375
276,-2,1,0,-2,-1,1,-1,-1,1.3800000000000001
277,0,1,-3,-2,-2,-1,0,-2,1.385
278,-2,-2,-2,-4,-1,2,0,-2,1.3900000000000001
279,-2,-1,0,11,2,-1,0,-2,1.395
280,-1,-3,-2,-17,-4,-2,-1,-1,1.4000000000000001
281,0,-1,3,22,0,-1,0,0,1.405
282,1,-2,-2,4,2,-1,2,2,1.41
283,-2,0,-1,-4,-3,-1,-2,-1,1.415
284,-1,-2,1,-2,0,1,-1,0,1.42
285,-2,-1,-4,-10,-1,-2,1,0,1.425
286,-1,1,-1,-1,-1,-2,-1,0,1.43
287,1,-3,-1,-3,-3,-1,-3,-1,1.435
288,1,2,2,9,1,-2,-3,0,1.44
289,0,0,-4,-10,-3,-1,-2,1,1.445
290,-2,-2,4,16,1,2,-1,-1,1.45
291,0,-3,-4,-12,-3,0,1,-1,1.455
292,-2,-1,-2,5,0,-1,-1,0,1.46
293,0,-1,1,5,1,0,-1,-1,1.465
294,1,-1,-1,-2,2,-1,0,0,1.47
295,-1,2,-3,-8,-2,-2,1,-1,1.475
296,-1,0,-1,0,-1,-2,-1,-2,1.48
297,-2,-1,1,-4,-2,-1,0,0,1.485
298,-3,-1,0,-6,-3,-2,0,0,1.49
299,1,-2,-1,3,-2,-2,-1,1,1.495
300,1,-3,-2,-4,-2,0,-1,0,1.5
301,-2,-3,0,-2,0,-1,-2,-1,1.5050000000000001
302,-1,-1,-2,-4,0,0,-3,-2,1.51
303,-1,-3,-4,4,0,-1,0,-2,1.5150000000000001
304,0,-1,2,-5,0,-1,1,-2,1.52
305,0,-1,0,-4,-2,-1,1,-1,1.5250000000000001
306,0,-1,-5,-6,-4,-1,1,0,1.53
307,-2,0,6,28,5,1,-2,0,1.5350000000000001
308,0,-1,-3,-10,-4,-1,-2,-2,1.54
309,1,-2,-1,-10,-1,-1,0,-1,1.545
310,-1,-2,0,4,0,-3,0,0,1.55
311,-1,-1,-4,-14,-4,-2,1,0,1.555
312,-2,-1,-1,-1,-1,-2,-1,1,1.56
313,-1,-1,0,2,-1,2,-2,-1,1.565
314,-1,0,-3,-22,-2,-1,0,1,1.57
315,-2,0,2,28,1,-2,0,-1,1.575
316,-3,0,1,4,0,-2,-2,-1,1.58
317,1,1,0,-5,-2,0,0,-1,1.585
318,-1,-3,-2,7,3,0,1,-1,1.59
319,0,-2,-4,-14,-3,-2,-3,-2,1.595
320,0,-2,-2,0,-1,-2,-1,2,1.6
321,-1,-1,-4,-5,0,0,-1,-1,1.605
322,-1,1,5,14,0,0,0,-1,1.61
323,-1,-2,-1,-3,-2,-2,-1,-2,1.615
324,0,0,0,3,-1,1,0,-2,1.62
325,0,0,0,-5,0,-2,-1,-1,1.625
326,-1,-1,-3,-2,-1,0,-2,-2,1.6300000000000001
327,-1,-2,-4,-24,-4,0,-2,-1,1.635
328,0,0,7,41,5,0,-1,-2,1.6400000000000001
329,-1,1,1,4,-1,-1,-1,0,1.645
330,-1,1,-3,-3,-2,-1,0,0,1.6500000000000001
331,0,-2,-3,1,-5,0,-2,0,1.655
332,0,0,-4,-29,0,-1,1,0,1.6600000000000001
333,-1,-2,1,14,0,-2,0,-1,1.665
334,-1,0,4,17,3,0,0,0,1.67
335,-1,-4,-3,-10,-1,-2,-2,-1,1.675
336,0,-2,-4,-18,-4,-1,-1,-2,1.68
337,1,0,3,24,5,1,1,0,1.685
338,-1,-1,-2,-14,-5,-2,-3,1,1.69
339,-2,0,1,1,-1,-1,1,1,1.695
340,-3,-1,0,-1,-3,-3,0,-3,1.7
341,-1,-1,-3,-10,0,-1,-1,-1,1.705
342,1,1,1,-1,0,-1,-1,-2,1.71
343,0,0,2,7,1,-1,-3,0,1.715
344,0,-2,-3,0,-2,0,0,1,1.72
345,0,-1,-4,-15,-2,-1,0,-1,1.725
346,-2,1,2,2,-2,2,0,0,1.73
347,-1,-2,-1,7,0,0,-3,-2,1.735
348,1,0,1,17,2,0,0,-2,1.74
349,-1,-2,0,3,-3,-2,-3,-1,1.745
350,1,-3,-3,-5,-1,2,1,-1,1.75
351,-1,1,-1,-1,-1,0,0,-1,1.7550000000000001
352,-1,-1,-2,-17,-3,0,0,-1,1.76
353,-2,0,-1,1,0,1,-1,-1,1.7650000000000001
354,-1,-1,3,5,2,-3,-1,-1,1.77
355,-2,0,-1,-7,-2,-4,0,-1,1.7750000000000001
356,-1,0,-3,-12,1,0,0,1,1.78
357,-1,-3,-1,4,-2,-4,-2,0,1.7850000000000001
358,-1,-2,-4,-2,-2,-2,1,1,1.79
359,1,-2,-1,0,2,-1,-1,-1,1.795
360,0,-2,-1,-10,-3,0,-1,0,1.8
361,-2,1,-1,-11,-1,-1,0,1,1.805
362,-1,0,1,6,-1,1,-2,-1,1.81
363,-2,-1,-3,-4,-1,-1,-3,-1,1.815
364,-2,-2,1,7,-1,-2,-1,0,1.82
365,1,-1,-1,-9,-3,0,-2,-1,1.825
366,1,-1,-2,-1,1,-2,0,0,1.83
367,-2,0,0,-1,-1,-1,1,-4,1.835
368,-1,-1,-3,-9,-2,-2,-1,-1,1.84
369,-2,0,3,9,-2,0,-2,0,1.845
370,0,-1,0,-10,-1,-1,-1,-1,1.85
371,0,-1,-4,-13,-4,0,1,0,1.855
372,-1,-1,6,31,6,1,-1,-2,1.86
373,-1,-1,-2,1,-2,-1,0,-2,1.865
374,0,0,0,1,-1,1,-2,-1,1.87
375,-1,-1,-6,-17,-2,-2,-2,0,1.875
376,-1,1,-1,6,-2,0,-2,0,1.8800000000000001
377,1,-2,-1,-2,3,-1,-1,0,1.885
378,-1,-2,3,3,0,-1,0,-1,1.8900000000000001
379,-1,0,-1,-1,-1,-2,-1,0,1.895
380,-1,-3,-4,-9,-2,0,-1,0,1.9000000000000001
381,-1,-1,0,4,0,-1,0,-1,1.905
382,0,-1,-3,-9,-4,-1,-2,0,1.9100000000000001
383,-1,0,6,22,2,1,-1,-1,1.915
384,-2,-1,-5,-12,-3,-1,-2,-1,1.92
385,-1,-1,2,22,3,-1,0,0,1.925
386,0,1,0,1,2,0,0,-1,1.93
387,-3,-2,-3,-2,-1,-2,-2,-2,1.935
388,0,-1,1,0,0,2,0,-4,1.94
389,-1,-1,-5,-17,-4,1,-1,-2,1.945
390,-1,-1,3,5,1,0,-1,-1,1.95
391,0,-1,1,10,1,-2,-1,0,1.955
392,0,-2,-3,-2,-1,0,1,-1,1.96
393,0,0,-1,-10,-2,-1,-1,-1,1.965
394,-4,-2,-2,-1,-2,-2,0,1,1.97
395,-1,-2,-1,-9,-2,0,-1,1,1.975
396,-2,-1,0,11,-1,-2,-2,2,1.98
397,-2,0,-3,-18,-3,0,-1,1,1.985
398,0,0,0,21,1,0,0,-2,1.99
399,0,-1,-4,-19,-5,-1,1,-1,1.995
400,0,1,0,5,3,-2,-1,-3,2.0
401,-2,-1,1,10,0,0,-1,-3,2.005
402,2,0,-4,-8,-1,-2,-2,1,2.0100000000000002
403,0,0,-2,-17,-3,-1,-1,0,2.015
404,0,-2,0,-3,-3,0,0,0,2.02
405,-1,1,-3,-15,-3,-1,1,-1,2.025
406,-3,-1,5,28,3,1,0,-1,2.0300000000000002
407,-2,-1,0,6,1,2,0,-1,2.035
408,-1,0,-4,-11,-2,-1,-2,1,2.04
409,-1,-2,0,3,-1,-1,-2,-3,2.045
410,0,0,-1,-15,-1,0,0,0,2.05
411,1,-1,-4,4,-1,-2,-2,-1,2.055
412,-2,-2,-3,-13,-2,0,-1,1,2.06
413,0,-1,0,21,2,0,-2,-2,2.065
414,-2,1,-3,-8,-2,1,-1,-1,2.07
415,-1,-2,0,4,-1,-1,-1,-3,2.075
416,0,-2,0,-12,0,-2,-2,0,2.08
417,-1,-1,-1,-1,-1,-1,-1,1,2.085
418,-1,-1,3,11,2,1,0,-2,2.09
419,-1,-2,-1,7,1,0,-1,-3,2.095
420,0,1,-3,-22,-4,-1,0,-1,2.1
421,0,-1,2,16,1,-1,1,-1,2.105
422,0,-1,0,-7,-1,0,1,-1,2.11
423,-1,1,0,0,0,-2,-3,0,2.115
424,1,-2,-3,3,0,0,-1,-1,2.12
425,0,1,-1,-13,-2,-1,-2,0,2.125
426,-1,0,-1,2,2,0,0,-1,2.13
427,-1,-3,1,3,-2,-2,0,-2,2.1350000000000002
428,0,0,3,5,-1,1,1,0,2.14
429,-2,-2,-6,-9,-2,-2,0,1,2.145
430,0,-1,-2,13,1,-2,0,0,2.15
431,-2,0,2,3,1,-1,-1,0,2.1550000000000002
432,0,-1,-2,-8,-3,-1,-1,-1,2.16
433,-1,1,2,22,3,-1,1,1,2.165
434,0,-1,-8,-33,-5,-2,-2,-2,2.17
435,0,0,6,23,2,-1,-1,-2,2.1750000000000003
436,0,1,-1,4,-3,-2,0,0,2.18
437,-1,-1,-4,-11,-2,0,-2,-2,2.185
438,-2,-2,0,-6,0,-2,-1,0,2.19
439,0,-1,-6,-8,-2,0,-3,0,2.195
440,-3,0,2,1,3,0,-1,-2,2.2
441,0,-1,3,3,0,0,-1,-1,2.205
442,-1,-1,-2,-6,-3,-1,0,0,2.21
443,1,0,0,-7,-2,-1,1,-1,2.215
444,0,0,-3,2,-2,-1,1,-1,2.22
445,0,-1,0,2,1,3,1,-1,2.225
446,1,0,0,4,0,-2,-2,-1,2.23
447,-3,-1,-3,-3,-1,-1,-2,-1,2.235
448,0,-1,-1,8,-1,0,-1,-1,2.24
449,-2,0,0,-9,0,-2,-1,0,2.245
450,0,-2,-1,-3,-2,-1,-1,-1,2.25
451,-1,1,1,4,1,-1,0,1,2.255
452,-2,-3,-5,-6,0,0,-1,-2,2.2600000000000002
453,-1,-1,-2,-7,-3,0,1,0,2.265
454,0,-1,-2,1,-2,0,-2,1,2.27
455,0,-1,-1,-7,-1,0,-1,-1,2.275
456,-1,0,0,2,0,1,0,-1,2.2800000000000002
457,-1,0,2,-5,1,0,0,0,2.285
458,-1,-2,0,2,-3,0,-2,-1,2.29
459,-2,-1,-2,-6,-4,-1,0,-1,2.295
460,1,0,1,5,3,1,2,-1,2.3000000000000003
461,-1,-2,-3,-10,-4,-2,-3,-2,2.305
462,1,0,-1,8,1,1,0,2,2.31
463,-1,-4,-1,4,0,0,-1,-1,2.315
464,0,0,0,0,1,-2,0,-1,2.32
465,-1,-1,-5,-5,-4,-2,-2,-1,2.325
466,-1,0,0,-2,0,0,1,0,2.33
467,-2,-1,-4,-7,-3,-1,-1,-1,2.335
468,1,-1,1,6,1,-1,-2,0,2.34
469,1,0,1,-3,-1,-2,0,1,2.345
470,-3,-3,-1,0,-7,-3,-1,-1,2.35
471,-1,-4,-3,-1,14,3,0,0,2.355
472,0,2,4,4,0,-1,0,0,2.36
473,0,-2,-4,10,2,-1,-2,-3,2.365
474,-1,1,-4,-34,-3,-2,0,-2,2.37
475,-1,-1,5,19,-4,-3,-1,0,2.375
476,-1,-1,-3,-2,0,2,2,1,2.38
477,-1,-1,-1,-7,-1,3,1,1,2.3850000000000002
478,0,-2,-3,-3,-4,0,0,-2,2.39
479,-2,-2,-4,-12,-5,-4,-1,-4,2.395
480,-1,-1,1,14,0,-2,-4,-2,2.4
481,-1,0,0,-4,-3,-1,-2,-1,2.4050000000000002
482,0,0,-2,2,1,0,-1,0,2.41
483,-1,1,-1,-1,-5,-1,-2,0,2.415
484,-1,-2,1,2,-1,0,0,1,2.42
485,0,0,1,6,-1,1,1,-1,2.4250000000000003
486,-2,-1,2,10,4,0,-2,-2,2.43
487,-1,-2,-4,-12,-8,-5,-2,-1,2.435
488,1,0,0,-2,4,6,1,-1,2.44
489,-1,1,2,-1,3,1,0,1,2.445
490,-3,-3,0,18,0,-1,-1,-1,2.45
491,-2,-2,-4,3,-3,-1,-1,-2,2.455
492,-1,-2,-4,-20,-6,-4,-1,0,2.46
493,-1,0,0,-7,0,-2,1,-2,2.465
494,1,1,1,6,1,0,-3,-1,2.47
495,-1,2,-1,-10,-2,-2,0,0,2.475
496,-1,-1,-1,4,-1,-3,-3,1,2.48
497,-1,-2,0,-2,0,0,1,-1,2.485
498,-1,-2,1,-5,-2,-2,-1,0,2.49
499,-2,0,-3,-13,-2,1,-2,-3,2.495
500,-2,0,3,27,2,1,0,-2,2.5
501,0,0,-1,10,1,-2,-1,-1,2.505
502,1,0,-3,-8,-3,0,-1,-1,2.5100000000000002
503,0,0,3,9,2,-2,-1,-2,2.515
504,-1,0,-4,-11,-3,-2,-2,-2,2.52
505,0,-2,0,-5,-3,-1,1,-2,2.525
506,0,-2,-3,2,-1,2,1,0,2.5300000000000002
507,-1,-1,-2,-4,-4,1,-1,1,2.535
508,-1,-3,0,1,-2,-2,-2,-2,2.54
509,0,-2,0,4,-4,-3,-1,-2,2.545
510,0,1,-4,-39,2,2,2,0,2.5500000000000003
511,-3,-2,9,57,8,-2,-3,-2,2.555
512,0,-1,-5,-10,-7,0,-1,-1,2.56
513,-1,-1,-3,-3,-4,-1,-2,-1,2.565
514,0,0,0,-7,-4,-1,-1,1,2.57
515,-1,0,-2,-19,-5,0,-2,-1,2.575
516,-1,0,-1,-8,-2,-2,-3,2,2.58
517,-2,-4,4,17,3,0,-1,-1,2.585
518,0,-2,1,7,-1,-3,1,-1,2.59
519,-2,-5,-6,-6,0,-2,1,0,2.595
520,-1,-1,0,-1,-2,-1,-1,-1,2.6
521,0,-3,-6,-17,-1,-1,-3,2,2.605
522,-1,0,5,29,4,-2,-2,-2,2.61
523,-1,-3,1,4,2,-1,3,-3,2.615
524,-2,-1,-3,-17,-5,-5,-30,-6,2.62
525,-3,-2,-3,-2,-3,0,11,-1,2.625
526,1,1,0,-1,4,6,11,7,2.63
527,1,0,-2,-6,3,0,-5,-3,2.6350000000000002
528,1,0,0,-5,2,5,27,7,2.64
529,-1,-1,0,3,-1,-4,-7,-2,2.645
530,-1,0,-1,-1,-6,-4,-5,-4,2.65
531,0,-1,-4,-6,-3,-2,4,1,2.6550000000000002
532,-1,-1,-1,-2,-2,-1,-5,-3,2.66
533,2,5,2,-6,-5,-2,-7,-1,2.665
534,-3,-6,-2,-2,-1,-3,3,-1,2.67
535,-3,-4,-5,12,5,-1,-5,-1,2.6750000000000003
536,-2,0,-5,-28,-3,-3,0,-3,2.68
537,-1,-2,5,34,7,2,2,-1,2.685
538,0,1,1,8,-4,1,-6,-5,2.69
539,1,0,1,-11,-5,1,-1,-1,2.695
540,0,-1,-2,7,2,0,1,-3,2.7
541,1,1,-3,-27,-5,2,4,0,2.705
542,-1,0,-1,-7,1,-4,-3,-1,2.71
543,0,-2,-2,-1,-6,-1,-2,1,2.715
544,1,-1,3,10,4,0,3,-1,2.72
545,0,-2,-2,-5,0,0,-3,0,2.725
546,-4,-2,-3,6,-1,0,-6,-2,2.73
547,-1,1,0,-8,-2,1,2,1,2.735
548,0,-3,1,11,1,0,2,3,2.74
549,-1,-1,-4,-2,-4,-5,-7,0,2.745
550,-3,-1,-2,-2,-3,-2,-2,3,2.75
551,-1,2,0,-6,-5,0,-2,2,2.755
552,2,2,4,1,1,1,-4,1,2.7600000000000002
553,-1,-3,-1,1,2,5,17,0,2.765
554,0,-1,-3,-9,-3,-3,-2,-2,2.77
555,3,2,6,11,0,-1,0,-1,2.775
556,-2,-3,-3,7,-3,-1,0,-3,2.7800000000000002
557,1,3,1,-5,-1,-2,-5,-2,2.785
558,-4,-2,-3,-3,-3,-1,-5,-4,2.79
559,-1,-1,-1,-10,0,1,-1,-4,2.795
560,-2,-1,-3,-15,-2,0,0,-2,2.8000000000000003
561,-2,4,8,27,0,1,-2,-3,2.805
562,-1,-1,-2,0,0,-1,1,-1,2.81
563,-1,-2,-2,-4,-1,-1,-4,-2,2.815
564,-2,0,-1,4,-1,-2,2,0,2.82
565,-2,0,-5,-10,1,-1,-5,-1,2.825
566,0,1,0,-1,2,-2,2,1,2.83
567,-2,0,-1,4,0,-2,-2,-2,2.835
568,-1,0,-1,0,0,-4,-1,0,2.84
569,0,0,-3,-7,-1,-2,-3,1,2.845
570,1,0,5,9,-2,-2,-2,0,2.85
571,-5,-4,-8,4,2,-1,1,-1,2.855
572,-1,0,-3,-6,-1,3,1,-1,2.86
573,-2,-4,-3,-7,-1,0,-2,-2,2.865
574,1,0,-1,-4,-1,-1,0,-2,2.87
575,1,0,0,-9,-2,-1,-1,-1,2.875
576,1,0,1,8,0,-1,0,-1,2.88
577,0,-3,-3,0,1,-1,-2,1,2.8850000000000002
578,0,-1,0,-1,-2,-2,1,2,2.89
579,-1,-2,0,6,0,-1,0,1,2.895
580,0,-2,-2,4,0,-2,0,0,2.9
581,0,2,-1,-6,0,-2,1,-2,2.9050000000000002
582,-1,-1,-2,-4,0,-2,-2,0,2.91
583,0,-1,0,-5,-3,-1,-1,-1,2.915
584,0,-1,3,2,-2,-1,-1,0,2.92
585,-1,-2,-1,0,-1,0,-1,-1,2.9250000000000003
586,-1,1,-1,-4,-1,-2,-2,-3,2.93
587,-2,-4,-2,6,-1,-1,-1,-2,2.935
588,1,-1,1,3,0,1,2,1,2.94
589,-2,-2,-2,-5,-4,0,-3,-1,2.945
590,0,-2,-2,2,-2,0,-1,1,2.95
591,-2,-2,-3,-13,-4,1,0,-1,2.955
592,-2,-1,1,3,2,0,-1,-1,2.96
593,0,-2,-4,-6,1,-1,-1,-1,2.965
594,-2,0,5,17,2,0,-3,-1,2.97
595,0,2,-2,-9,-4,-1,-1,-1,2.975
596,-2,-4,-2,12,3,0,0,-3,2.98
597,-1,1,-3,-4,-1,1,-1,-1,2.985
598,0,-1,-3,-10,0,0,-1,-1,2.99
599,-1,1,1,-2,1,-2,-1,0,2.995
600,-2,-1,-1,-7,-1,-2,-2,-1,3.0
601,-1,-2,0,3,1,-1,0,-1,3.005
602,0,-3,-3,-1,-1,0,0,-2,3.0100000000000002
603,-1,0,1,-1,20,0,-1,-1,3.015
604,0,2,-1,-5,3,-2,-2,-1,3.02
605,-3,-2,0,4,0,-1,-2,-1,3.025
606,-1,-2,-2,-3,-7,-1,-1,-1,3.0300000000000002
607,-1,-1,-3,0,-9,0,-2,-2,3.035
608,-1,0,0,1,-5,0,-1,0,3.04
609,0,0,2,2,-2,-1,1,1,3.045
610,0,-1,-1,-4,-2,0,0,-1,3.0500000000000003
611,0,0,0,0,-5,-1,1,0,3.055
612,-1,-2,-1,-2,-2,-1,-1,0,3.06
613,2,2,-1,0,-2,0,-1,1,3.065
614,1,-1,0,-3,-1,-1,-1,0,3.0700000000000003
615,0,-2,-3,-1,-3,-2,-3,-1,3.075
616,0,-1,-6,-21,-3,0,0,0,3.08
617,1,-1,7,25,1,1,1,-1,3.085
618,0,-2,-4,-6,0,1,-2,-3,3.09
619,-2,-1,4,13,1,1,0,-1,3.095
620,-1,-2,-3,0,-2,-1,-1,-3,3.1
621,2,-2,-4,-10,-1,-1,-1,0,3.105
622,0,1,-2,-3,0,-2,0,0,3.11
623,-1,-2,-2,-8,-10,-2,-1,-1,3.115
624,-1,-1,0,6,13,1,2,0,3.12
625,-2,-1,-1,-1,1,-2,1,-2,3.125
626,-1,-1,0,3,0,-1,-1,-1,3.13
627,-1,-3,-3,-8,-2,-1,-1,-2,3.1350000000000002
628,-1,2,3,3,-6,-3,-2,-1,3.14
629,1,0,-2,-10,-3,-2,0,-2,3.145
630,0,-2,2,11,0,0,0,-1,3.15
631,0,-1,-2,1,-1,-2,0,0,3.1550000000000002
632,-1,0,-4,-9,-3,0,-2,0,3.16
633,-2,2,3,11,2,0,-2,2,3.165
634,-2,4,-3,-6,-2,0,1,0,3.17
635,-1,0,-3,0,-1,0,0,0,3.1750000000000003
636,-1,-1,0,3,-2,0,-2,0,3.18
637,0,-2,-3,-15,-4,-2,-1,1,3.185
638,-1,-3,1,1,-3,-2,0,-4,3.19
639,0,-2,0,-2,-4,0,0,-2,3.1950000000000003
640,-1,-4,-3,5,6,2,0,-1,3.2
641,1,-3,2,0,-3,1,-2,-1,3.205
642,-1,-5,-3,-4,0,-1,0,-1,3.21
643,1,0,-2,-14,-3,-2,0,-1,3.215
644,-1,0,7,25,-4,-3,-3,-1,3.22
645,0,0,1,3,2,-2,0,-3,3.225
646,-2,-2,-5,-5,-2,-2,-1,-2,3.23
647,0,0,0,2,3,1,1,2,3.235
648,1,2,1,-7,-1,1,-1,1,3.24
649,-2,-1,1,0,2,-1,-3,0,3.245
650,-3,0,-2,-7,-3,-2,-2,1,3.25
651,1,0,1,4,2,0,0,0,3.255
652,0,0,-2,-8,-2,-1,1,-1,3.2600000000000002
653,-1,0,0,8,0,0,1,-1,3.265
654,-2,-3,-4,-6,-4,-4,-3,-1,3.27
655,-1,-1,-1,3,1,0,-2,-1,3.275
656,0,-1,-2,-4,-1,1,-1,0,3.2800000000000002
657,-1,-3,-6,-17,-2,0,0,0,3.285
658,-2,-2,-1,5,1,-1,-2,-2,3.29
659,-2,-2,3,9,-4,-1,-2,-1,3.295
660,0,1,-1,3,13,3,0,0,3.3000000000000003
661,-2,0,-1,0,-1,-2,-2,-1,3.305
662,-2,-2,-3,-9,-2,-1,-1,0,3.31
663,-1,-2,-2,-8,-2,-1,1,-2,3.315
664,-1,-1,3,6,-5,-1,-1,-1,3.3200000000000003
665,0,-1,-4,-3,-1,0,-1,-1,3.325
666,0,0,0,2,0,0,-1,1,3.33
667,0,1,-2,-3,1,-3,-2,0,3.335
668,-1,-3,0,-2,-3,-2,0,1,3.34
669,2,2,1,1,2,1,-1,1,3.345
670,-1,-1,-1,-7,-3,0,-2,1,3.35
671,-2,-2,1,3,1,1,-1,0,3.355
672,0,-4,1,7,-2,0,-3,-2,3.36
673,2,-1,-1,-2,-3,1,2,0,3.365
674,-2,0,1,5,2,-1,0,-3,3.37
675,-3,-1,-2,-10,-3,-2,1,1,3.375
676,-2,0,-2,-4,-5,-2,0,-2,3.38
677,-2,-2,0,11,6,-1,-1,0,3.3850000000000002
678,2,2,-1,-4,-1,-3,-1,-2,3.39
679,-2,-1,-1,0,-1,0,-1,-1,3.395
680,-2,-1,-2,-9,-6,-3,-3,-2,3.4
681,0,0,0,-2,-1,0,-1,-1,3.4050000000000002
682,0,0,0,3,3,1,1,-1,3.41
683,0,0,-1,-3,-4,-1,-1,-1,3.415
684,-2,-1,-3,-2,0,-2,-1,-1,3.42
685,-1,-1,0,-1,2,0,0,1,3.4250000000000003
686,-2,-3,1,5,-1,-1,-2,-1,3.43
687,0,-2,0,10,0,-1,1,-1,3.435
688,-2,-2,1,5,-1,0,1,0,3.44
689,-1,1,0,-7,-5,-1,1,-1,3.4450000000000003
690,0,-1,-2,-3,-4,0,-2,0,3.45
691,0,0,-2,1,6,0,-2,-1,3.455
692,3,2,-2,-9,-2,0,0,1,3.46
693,0,-1,0,-1,0,0,3,-1,3.465
694,-1,-3,-1,0,-5,-1,1,-1,3.47
695,0,-2,-3,-6,1,0,0,0,3.475
696,0,1,1,-2,2,-1,-1,0,3.48
697,-1,0,-1,2,-2,0,-2,1,3.485
698,-1,-3,-1,-5,-1,-1,-3,0,3.49
699,-1,-2,-1,1,1,-1,-2,-1,3.495
700,-3,-4,0,5,0,1,-2,-2,3.5
701,1,0,0,-1,-1,-1,-3,-3,3.505
702,0,-2,-1,2,-1,-1,0,-1,3.5100000000000002
703,-1,1,-3,-17,-2,0,-1,0,3.515
704,0,1,-1,10,-2,-1,0,-1,3.52
705,1,1,0,3,1,0,1,-1,3.525
706,-2,0,3,1,2,-2,-1,-1,3.5300000000000002
707,-1,-1,1,-1,-1,1,-2,-2,3.535
708,-1,-4,-6,-17,-9,-2,-3,-1,3.54
709,-2,-3,-3,3,7,1,0,0,3.545
710,0,1,-1,-2,0,0,-1,1,3.5500000000000003
711,1,0,2,2,-1,-1,1,1,3.555
712,-2,0,0,0,1,0,0,-1,3.56
713,-1,-3,-7,-24,-5,-2,-2,-1,3.565
714,0,0,8,29,1,-2,-1,-2,3.5700000000000003
715,-1,-2,-1,8,0,1,0,-2,3.575
716,1,0,-3,-5,-4,-2,1,-2,3.58
717,-1,0,-2,-3,1,-1,0,0,3.585
718,-1,-1,-1,-1,2,0,-1,0,3.59
719,-2,0,3,0,-1,-2,-2,0,3.595
720,1,0,3,4,2,-2,1,-1,3.6
721,0,0,0,-4,-1,1,-3,1,3.605
722,0,-1,-5,-6,-3,-2,-2,1,3.61
723,1,1,-1,1,-1,1,1,0,3.615
724,1,-2,-1,-8,-1,2,0,-2,3.62
725,-1,0,0,3,-2,-1,0,-1,3.625
726,-1,0,-3,-26,-4,0,-1,-2,3.63
727,-1,-2,5,29,3,0,0,-2,3.6350000000000002
728,-2,-2,0,6,5,0,0,0,3.64
729,-1,-2,0,3,-4,-2,0,-1,3.645
730,-2,1,-2,-6,-3,0,0,0,3.65
731,2,-1,-4,-16,-3,-1,1,-1,3.6550000000000002
732,-1,-1,-4,-8,-1,0,1,0,3.66
733,0,0,2,14,2,-1,0,0,3.665
734,-1,-1,-4,-6,-5,-1,-1,-2,3.67
735,0,0,-1,-2,1,-1,0,0,3.6750000000000003
736,1,0,2,3,-1,-2,-2,4,3.68
737,-1,-1,-3,-4,-1,1,-2,1,3.685
738,-2,-2,0,3,1,-1,-1,-2,3.69
739,-1,0,-1,-4,-1,-1,-1,-1,3.6950000000000003
740,-1,-4,1,3,-5,-4,-1,-1,3.7
741,-2,0,-3,3,2,-1,0,-2,3.705
742,0,-3,-2,1,-2,0,1,-1,3.71
743,-2,-2,-4,-7,1,-1,-1,-2,3.715
744,1,-1,-3,-6,0,0,0,0,3.72
745,0,-1,2,7,-4,-1,-2,-1,3.725
746,-1,0,-2,-2,-2,-2,-3,-1,3.73
747,-2,-2,-3,-2,-1,-1,-1,0,3.735
748,0,-1,-3,-6,-1,0,-1,-1,3.74
749,1,-3,2,1,0,2,0,-2,3.745
750,0,-1,-3,-9,-3,-2,-1,-1,3.75
751,-1,-1,-2,2,-3,-1,-1,-1,3.755
752,-1,0,1,14,1,0,-1,-1,3.7600000000000002
753,-2,0,1,0,-4,2,0,1,3.765
754,-1,-1,1,6,9,1,0,-1,3.77
755,0,-1,-1,-10,-3,-1,-2,0,3.775
756,0,1,0,-3,-1,1,-1,-1,3.7800000000000002
757,-1,-1,-1,-5,-6,-3,-1,-2,3.785
758,-2,-3,-2,-2,-4,-3,-2,-1,3.79
759,-1,-1,-3,-7,1,0,0,0,3.795
760,0,0,-1,6,1,-2,-2,-1,3.8000000000000003
761,0,0,1,0,0,-3,-1,-1,3.805
762,-2,-2,-3,0,0,0,-1,0,3.81
763,-2,0,-1,-2,0,0,-1,-1,3.815
764,0,0,0,5,-1,-1,-2,-1,3.8200000000000003
765,1,0,-2,-7,1,-1,-1,-3,3.825
766,-2,-3,-3,3,0,-1,-1,-2,3.83
767,-1,-2,-1,-4,0,0,1,-1,3.835
768,1,-1,-3,-3,-1,1,0,0,3.84
769,0,0,0,4,-3,-2,-4,1,3.845
770,0,1,2,3,6,0,0,-1,3.85
771,1,-1,4,3,-1,1,0,-2,3.855
772,-2,0,-5,-11,-1,0,-2,-1,3.86
773,0,-3,-6,-5,-3,-4,0,-1,3.865
774,-1,-1,1,1,-3,-1,-2,0,3.87
775,0,0,-1,-1,-1,-1,-1,2,3.875
776,-1,-1,0,-2,1,-1,2,1,3.88
777,-2,0,-1,-1,-1,-2,-1,-1,3.8850000000000002
778,0,-1,-2,-1,-5,-2,-1,0,3.89
779,-1,-1,-1,4,2,-1,0,-1,3.895
780,-2,-1,0,4,-3,-1,0,-2,3.9
781,-1,-2,-1,0,3,1,-1,0,3.9050000000000002
782,-2,0,-2,-7,-4,-1,-1,-1,3.91
783,-1,-2,3,3,-3,-3,-3,0,3.915
784,-1,-3,-4,-5,-5,-1,-1,-2,3.92
785,-1,-1,0,-1,6,2,0,-2,3.9250000000000003
786,-1,-1,-1,1,-3,-1,-1,-2,3.93
787,0,-1,-5,-14,-4,-1,-1,-3,3.935
788,-2,1,6,22,0,-2,0,-1,3.94
789,0,-3,-1,0,-2,0,1,0,3.9450000000000003
790,1,-1,-1,0,-2,-2,0,-2,3.95
791,0,-3,-3,-1,-2,0,-1,0,3.955
792,-1,1,-3,-15,1,0,0,-1,3.96
793,-3,2,0,1,0,0,-2,-1,3.9650000000000003
794,-1,-1,-3,0,-4,-3,-1,-2,3.97
795,-2,-2,-1,8,1,-1,-1,-1,3.975
796,1,-2,-2,-7,2,0,0,-1,3.98
797,-1,-1,0,4,1,-2,-1,0,3.985
798,-4,-2,-2,-6,0,-1,-2,1,3.99
799,-1,1,0,-1,-2,-1,-3,-1,3.995
800,1,-2,-4,-15,-2,-1,-1,-1,4.0
801,-1,-1,1,14,-1,0,-2,0,4.005
802,0,-1,0,-3,-3,-1,-1,-1,4.01
803,-3,1,0,11,5,0,0,0,4.015
804,-1,-1,-1,-6,-1,-2,-2,1,4.0200000000000005
805,-1,-2,-2,-9,-4,-2,1,-1,4.025
806,-1,-3,-1,3,4,-1,-2,-1,4.03
807,2,-2,-1,-8,-4,1,0,-1,4.035
808,-2,-1,0,6,0,1,-1,1,4.04
809,0,-1,-1,0,1,0,1,1,4.045
810,-2,-1,3,6,3,-1,0,-2,4.05
811,-2,-2,-2,-4,-1,0,1,-1,4.055
812,1,-1,-1,-1,-3,-2,0,-2,4.0600000000000005
813,0,1,-6,-26,-8,-3,-2,-2,4.065
814,-2,1,3,17,0,-1,-1,1,4.07
815,-2,-1,-1,0,-1,-1,-1,0,4.075
816,-2,2,-1,0,2,2,-2,-1,4.08
817,1,-3,-3,2,2,0,-1,-1,4.085
818,0,-3,-2,-13,-2,-2,-2,0,4.09
819,-1,-2,-4,-9,-5,-2,-2,-2,4.095
820,-1,-4,4,15,4,0,0,0,4.1
821,4,2,1,-2,4,4,1,1,4.105
822,-3,-3,-5,-7,-4,0,-2,-2,4.11
823,-4,-3,-1,0,-10,-6,-2,-3,4.115
824,-2,1,-4,-8,15,1,-1,-1,4.12
825,3,2,10,21,5,4,3,1,4.125
826,-2,-3,-5,-5,-5,-4,-3,-4,4.13
827,-2,-3,-2,1,0,0,-4,-2,4.135
828,-2,-1,-3,-8,-8,-2,-1,-1,4.14
829,1,1,0,-2,0,2,2,3,4.1450000000000005
830,-2,-1,0,-3,-1,-1,0,-1,4.15
831,-3,-3,-2,-5,-1,-4,-1,-2,4.155
832,-1,-2,-1,2,-1,0,0,0,4.16
833,1,3,0,0,5,2,2,1,4.165
834,-1,-2,0,-3,-4,-2,-2,-3,4.17
835,-2,-2,-1,0,-1,-3,-2,-1,4.175
836,-1,-1,2,0,0,0,-1,-1,4.18
837,0,3,2,1,0,1,0,2,4.1850000000000005
838,-1,-4,-2,-4,-4,-3,-2,-3,4.19
839,-1,0,-1,1,0,0,-1,-3,4.195
840,0,-2,-2,-12,-2,0,0,-2,4.2
841,-1,0,2,9,-3,0,0,2,4.205
842,-3,-2,0,4,5,-2,-2,0,4.21
843,1,0,-2,-1,1,1,-1,-2,4.215
844,0,-1,-1,1,1,-1,0,1,4.22
845,-1,0,-1,-5,-2,0,1,0,4.225
846,-2,-1,-4,-7,-5,-1,0,-1,4.23
847,-2,-1,0,2,-1,0,1,-2,4.235
848,-2,1,-1,-5,-2,-1,-1,-1,4.24
849,-1,-1,1,-4,-2,0,1,-1,4.245
850,-1,-1,-5,-19,-2,-1,-1,0,4.25
851,-1,-2,6,30,3,-2,-3,-2,4.255
852,-1,-1,-1,10,-3,0,0,0,4.26
853,0,1,-1,-1,1,0,1,-1,4.265
854,0,-1,-3,1,-2,-1,-1,-3,4.2700000000000005
855,-1,1,-1,-11,-1,-1,-2,-2,4.275
856,-2,-3,-1,-3,-8,-2,-1,-1,4.28
857,1,0,3,12,18,3,1,0,4.285
858,-2,-3,-3,-6,-3,-2,-1,-1,4.29
859,1,-1,-1,-5,0,-1,1,-1,4.295
860,2,0,1,3,-4,-2,1,0,4.3
861,-2,-3,-3,-10,-4,-3,0,1,4.305
862,-3,-1,0,2,-3,-3,-1,-2,4.3100000000000005
863,0,-3,-5,-11,0,-1,-1,1,4.315
864,-1,-1,4,17,2,0,-2,-2,4.32
865,1,0,0,-10,-1,-1,-1,1,4.325
866,-3,-4,-2,16,1,0,-2,-1,4.33
867,-3,1,-2,-9,-4,-1,0,0,4.335
868,1,-1,-6,-9,0,0,1,0,4.34
869,1,0,-2,-2,-4,-2,-1,0,4.345
870,-2,0,0,0,2,1,-1,0,4.3500000000000005
871,-2,-1,-4,-8,-9,-1,-1,-1,4.355
872,-1,1,2,11,15,3,0,2,4.36
873,-1,0,0,1,-2,-1,-1,-3,4.365
874,-1,-2,-4,-14,-6,-2,-3,-2,4.37
875,1,-3,2,11,0,0,-1,-1,4.375
876,0,0,2,-3,-3,-2,-1,-1,4.38
877,-1,-3,-6,-7,-4,-2,-2,-3,4.385
878,-2,-2,-4,-13,-3,-1,-3,0,4.39
879,0,0,4,22,1,-2,0,0,4.3950000000000005
880,0,-1,-1,-5,-2,-1,0,0,4.4
881,-3,1,2,4,2,0,-1,-2,4.405
882,-1,-2,-3,-8,-4,-2,-2,-2,4.41
883,1,0,-5,-7,1,-1,-2,1,4.415
884,1,0,0,-2,-1,0,2,0,4.42
885,-1,-2,-4,-3,-3,-1,-2,-1,4.425
886,-1,-1,3,10,-2,-2,-3,-1,4.43
887,0,1,-2,-4,-2,3,0,1,4.4350000000000005
888,0,-2,-2,-7,-3,0,-3,0,4.44
889,-2,-2,-1,-1,-7,-2,-1,-2,4.445
890,0,0,-3,3,10,0,1,-2,4.45
891,0,-1,5,8,3,-2,1,-2,4.455
892,-1,-1,-1,1,-2,-1,0,-2,4.46
893,1,-2,0,1,-4,-2,-1,-2,4.465
894,-3,-2,-2,-7,-6,-3,-2,0,4.47
895,0,0,-3,-9,1,0,0,0,4.4750000000000005
896,1,0,-3,-6,2,2,1,0,4.48
897,-3,-1,-2,-2,-2,-2,-2,-2,4.485
898,-1,-1,-1,2,-3,-1,0,-1,4.49
899,-1,0,-3,-5,1,-1,-1,-1,4.495
900,0,-1,-1,-1,-3,1,0,0,4.5
901,-1,-1,-2,-1,0,-1,-2,0,4.505
902,-1,-2,0,-2,2,-2,-3,-2,4.51
903,1,2,3,5,-8,-3,-2,-2,4.515
904,0,0,1,8,15,3,1,-1,4.5200000000000005
905,-1,-2,-2,-10,-2,-1,-1,0,4.525
906,-3,-2,-3,0,-5,-2,-1,-2,4.53
907,0,-1,-2,-7,-1,-2,-1,1,4.535
908,-2,1,-1,-3,-9,-3,-1,-1,4.54
909,0,-1,-1,3,0,-1,-2,-1,4.545
910,0,-1,-2,-11,-6,-2,-3,-2,4.55
911,-1,-1,-3,3,1,0,-1,-2,4.555
912,0,0,1,7,1,0,1,0,4.5600000000000005
913,-2,-2,-4,-5,0,2,-2,0,4.565
914,0,-1,2,11,-1,0,-2,-1,4.57
915,-1,-1,-2,-5,0,-2,0,0,4.575
916,0,-1,-1,-4,-3,0,-1,1,4.58
917,-2,-3,-1,1,-2,-3,-2,-3,4.585
918,0,0,0,2,1,-2,-1,-1,4.59
919,-1,-1,-2,-1,1,2,0,0,4.595
920,-1,-1,-3,-13,-1,-2,0,0,4.6000000000000005
921,-1,-1,7,23,-2,-3,-2,-3,4.605
922,-2,-1,-1,-6,-7,-3,-1,0,4.61
923,0,-1,2,10,14,2,1,-2,4.615
924,-1,0,-2,-9,-4,-1,0,-1,4.62
925,0,0,-2,-8,0,-1,-2,0,4.625
926,-2,-4,-4,2,-5,-2,-1,0,4.63
927,-2,0,-2,-8,-6,0,0,0,4.635
928,2,0,0,5,2,0,-1,0,4.64
929,-1,0,-2,-5,-1,-2,-2,0,4.6450000000000005
930,0,1,-1,-1,0,-2,0,1,4.65
931,0,-2,-1,-3,-3,-2,-1,2,4.655
932,1,0,2,5,1,1,1,0,4.66
933,-3,-2,-2,-3,-3,-4,0,-2,4.665
934,-1,0,-3,-16,0,-3,-2,-1,4.67
935,-2,-2,2,15,3,2,-1,-1,4.675
936,-2,0,2,9,-1,-2,1,-4,4.68
937,2,-1,-1,-3,1,-1,0,-3,4.6850000000000005
938,0,2,0,2,0,1,-1,-2,4.69
939,-1,-3,-4,-15,-3,-1,-2,0,4.695
940,1,-2,1,5,0,1,-1,1,4.7
941,-2,-1,-1,0,-3,-3,-2,-1,4.705
942,-1,0,-3,-1,2,0,2,0,4.71
943,-1,0,0,-3,-2,0,0,1,4.715
944,1,0,-2,0,-1,0,-1,1,4.72
945,-1,-2,-2,-8,-8,-2,-1,-1,4.7250000000000005
946,1,-1,0,9,4,0,0,-2,4.73
947,1,0,0,1,1,0,-1,1,4.735
948,-1,-2,-3,-1,1,-1,0,1,4.74
949,-1,-1,-1,-2,-2,-1,0,-1,4.745
950,-1,-2,-1,-7,-4,-1,0,-1,4.75
951,-1,0,-2,-2,-3,-1,-1,-2,4.755
952,0,1,0,5,1,0,2,-2,4.76
953,-2,0,-2,-5,-3,-1,1,-1,4.765
954,-1,-2,0,6,-2,0,-1,-1,4.7700000000000005
955,1,-3,-4,-6,0,0,3,-1,4.775
956,1,-1,-3,-8,-3,1,0,1,4.78
957,-2,-2,-4,-1,-4,-3,-1,-2,4.785
958,1,-1,-1,3,5,1,0,-2,4.79
959,-1,0,0,-1,0,0,-1,1,4.795
960,0,0,1,1,1,0,0,1,4.8
961,-3,-2,0,1,0,0,0,-1,4.805
962,0,0,0,2,-1,-1,-4,0,4.8100000000000005
963,-1,0,0,-2,-3,-3,-3,-1,4.815
964,1,0,1,0,2,0,1,0,4.82
965,-1,-2,-2,-1,0,0,-4,-1,4.825
966,-1,0,-1,-2,-6,-2,0,-3,4.83
967,1,0,-6,-1,10,2,3,1,4.835
968,1,2,5,18,1,0,-1,3,4.84
969,-1,-2,1,8,1,-3,-2,-1,4.845
970,0,0,0,-2,-8,0,-2,0,4.8500000000000005
971,0,-1,-4,-9,-6,-4,0,-1,4.855
972,0,0,-3,-8,5,2,1,-1,4.86
973,-1,-2,-5,-1,-2,-1,-2,-1,4.865
974,0,1,1,2,1,-1,1,0,4.87
975,1,0,2,-1,-3,0,-2,-1,4.875
976,0,0,-1,-2,-1,0,-1,0,4.88
977,-3,-3,-1,-3,0,-3,1,-3,4.885
978,-2,-1,-1,-2,0,0,0,0,4.89
979,0,-2,-2,-6,-1,0,0,-1,4.8950000000000005
980,0,-1,3,16,1,-1,-3,-1,4.9
981,-1,-2,0,4,-1,-1,-4,-1,4.905
982,-2,0,-2,-2,1,1,-2,-1,4.91
983,-2,-2,-3,-10,-11,-2,0,-1,4.915
984,-2,-2,3,10,3,1,1,-1,4.92
985,0,-2,-3,-8,-2,-3,-1,-1,4.925
986,0,-2,3,5,4,-3,0,0,4.93
987,-1,-1,0,1,-1,0,-2,-2,4.9350000000000005
988,-1,1,-5,-13,-5,0,-1,0,4.94
989,-1,-1,-1,-3,-2,-3,-2,-2,4.945
990,-1,-2,0,2,1,-1,-1,1,4.95
991,-2,0,1,4,0,-1,1,0,4.955
992,0,1,0,-6,-1,2,1,-1,4.96
993,-2,-2,-4,0,-2,0,-2,-1,4.965
994,1,0,-2,-6,-2,-1,-1,-2,4.97
995,1,-1,-1,-2,-1,0,-1,2,4.9750000000000005
996,1,1,4,8,3,-1,0,0,4.98
997,-1,-4,-3,0,-2,-2,-3,-4,4.985
998,0,-2,-2,2,-1,0,0,-1,4.99
999,0,-1,0,-2,-1,1,-1,0,4.995
1000,-1,0,-4,-12,-3,1,1,1,5.0
1001,-3,-2,-3,4,-2,-2,-2,-3,5.005
1002,0,-2,0,1,0,0,0,1,5.01
1003,1,1,1,3,1,-1,0,1,5.015
1004,0,-1,0,-7,-3,0,1,3,5.0200000000000005
1005,-1,-1,-3,-5,-3,-2,-3,0,5.025
1006,-1,-1,-1,-2,0,1,-2,1,5.03
1007,-1,-1,0,0,-2,0,-1,-3,5.035
1008,0,-2,-7,-18,-4,1,-1,-3,5.04
1009,-2,0,5,22,5,1,-1,-2,5.045
1010,0,-1,-1,4,1,-1,2,-1,5.05
1011,0,1,-1,1,0,0,-1,0,5.055
1012,-2,-1,0,2,-2,-3,-1,-3,5.0600000000000005
1013,-1,-2,-5,-19,-6,-2,-1,-1,5.065
1014,1,2,0,-1,0,1,0,-1,5.07
1015,0,-1,0,11,0,-1,0,-2,5.075
1016,1,-2,-3,-4,0,0,-1,-1,5.08
1017,-1,-1,-3,-4,-2,0,0,-2,5.085
1018,1,0,-2,-5,-1,0,1,2,5.09
1019,-1,-1,1,2,5,1,0,0,5.095
1020,0,1,-1,6,0,-1,0,-1,5.1000000000000005
1021,-2,-2,-1,2,0,-2,-3,-2,5.105
1022,-1,0,0,-6,-4,-3,0,-1,5.11
1023,-1,-1,2,6,2,1,-1,-1,5.115
1024,-1,-3,0,-4,0,1,0,-2,5.12
1025,0,-2,-3,-8,-5,-1,-1,-1,5.125
1026,-1,0,0,-1,-1,1,-1,-3,5.13
1027,0,-1,-2,1,1,-1,-1,0,5.135
1028,0,-2,-2,3,1,-2,-2,-1,5.14
1029,-2,-3,-6,-15,-5,-3,-4,-3,5.1450000000000005
1030,-1,0,4,12,4,0,-1,1,5.15
1031,1,0,2,-1,-1,-1,1,0,5.155
1032,-1,0,1,1,-1,-1,2,0,5.16
1033,-1,0,-3,-5,-3,-4,-2,0,5.165
1034,1,1,-5,-21,0,-1,0,0,5.17
1035,-1,0,6,22,0,0,-2,-1,5.175
1036,1,1,1,2,1,0,-1,-3,5.18
1037,-1,-1,1,-1,-2,-1,-1,-1,5.1850000000000005
1038,-1,-4,-3,-3,-2,0,0,1,5.19
1039,0,-1,-3,-9,-1,-1,0,-1,5.195
1040,-1,1,2,1,-1,0,-1,-4,5.2
1041,-2,-1,-1,-6,-8,-3,-1,-3,5.205
1042,-1,-1,0,6,1,0,0,-1,5.21
1043,-1,-1,-2,-6,4,0,1,3,5.215
1044,-3,0,4,12,0,0,0,3,5.22
1045,-1,0,-2,-7,0,-1,-2,-1,5.2250000000000005
1046,-1,-2,2,11,-2,-2,0,2,5.23
1047,1,-2,-2,-4,-5,-1,-1,-1,5.235
1048,-2,-1,-4,-11,-1,0,-1,1,5.24
1049,-3,-1,3,10,0,0,-1,-2,5.245
1050,-1,0,0,1,2,1,0,-1,5.25
1051,-2,-1,1,5,-1,-2,0,-2,5.255
1052,1,-4,-2,-5,0,0,1,1,5.26
1053,-2,-2,-3,-3,-5,-3,-1,-2,5.265
1054,1,0,-2,-5,2,0,-2,0,5.2700000000000005
1055,1,0,-3,-4,-2,-1,-1,1,5.275
1056,-1,-1,0,2,0,-3,-1,-1,5.28
1057,-1,-1,-2,-2,0,-2,-3,-2,5.285
1058,-2,-5,-4,3,-1,-1,1,-2,5.29
1059,-1,-2,-1,-7,-4,-1,-1,-2,5.295
1060,-1,-1,-2,0,-1,-2,-1,0,5.3
1061,-1,0,0,2,0,-3,-2,-3,5.305
1062,-1,0,0,0,0,0,0,-1,5.3100000000000005
1063,-2,-2,-6,-22,-2,0,0,-1,5.315
1064,-2,0,1,22,2,-1,-1,-1,5.32
1065,-1,-3,-1,2,0,-2,1,-1,5.325
1066,2,2,1,-3,-7,-2,0,2,5.33
1067,0,-2,-2,5,13,1,1,1,5.335
1068,-4,-3,-6,-12,-4,-5,-3,-1,5.34
1069,-3,-1,-3,-2,-2,-1,-2,-1,5.345
1070,1,3,5,5,2,2,0,0,5.3500000000000005
1071,0,1,-1,-3,-4,-2,-2,0,5.355
1072,-1,-3,-3,-7,-5,-4,-5,-3,5.36
1073,1,-3,1,4,-1,-2,-1,-1,5.365
1074,0,-1,-1,-3,1,1,2,1,5.37
1075,-1,0,1,2,-3,-1,0,-1,5.375
1076,-2,-1,-3,-11,-4,-2,-1,-2,5.38
1077,-3,-2,5,21,-3,-2,-2,-2,5.385
1078,1,1,3,6,9,2,1,-1,5.39
1079,1,-1,-1,-11,-3,-1,-1,-2,5.3950000000000005
1080,-3,-3,-2,9,0,-1,0,-2,5.4
1081,-2,-3,-2,-12,-1,0,-1,0,5.405
1082,0,-2,0,0,-1,-1,0,0,5.41
1083,0,0,1,3,0,0,-1,-2,5.415
1084,1,-1,-4,-10,-3,-1,0,-2,5.42
1085,-2,-3,-2,-6,-2,0,0,-1,5.425
1086,1,2,2,6,2,1,0,0,5.43
1087,-1,-2,-2,-2,-2,-1,2,-2,5.4350000000000005
1088,-4,-3,-3,-5,-5,-3,-5,-4,5.44
1089,1,1,-1,0,1,0,-1,0,5.445
1090,2,1,0,-2,-1,2,-1,1,5.45
1091,-1,1,0,3,-3,-1,0,0,5.455
1092,-1,-3,-2,-2,-4,0,-2,-2,5.46
1093,-2,0,-2,-6,-3,-2,-2,-2,5.465
1094,-1,2,-1,1,3,1,0,-1,5.47
1095,-1,0,0,5,0,1,-1,1,5.4750000000000005
1096,-2,-3,-6,-18,-4,-3,-1,-4,5.48
1097,-1,0,0,14,0,-3,-1,0,5.485
1098,-1,1,4,7,-1,0,3,0,5.49
1099,-1,-1,2,4,2,0,-1,-1,5.495
1100,-3,-3,-3,-12,-14,-3,-5,0,5.5
1101,0,1,-3,-8,13,1,0,-2,5.505
1102,0,2,0,-3,3,1,1,0,5.51
1103,-1,-2,-1,7,-1,-1,1,0,5.515
1104,-1,-2,-2,-3,-3,-3,-3,-2,5.5200000000000005
1105,-1,-2,-2,-7,-7,-1,-2,0,5.525
1106,2,-2,-1,0,-1,1,-1,1,5.53
1107,1,1,0,-4,1,-2,-1,1,5.535
1108,-3,-2,-3,-1,-1,-2,-2,-1,5.54
1109,-1,-3,-2,1,-2,-1,1,-1,5.545
1110,0,-1,1,-1,1,0,-1,1,5.55
1111,0,-2,-3,-13,-4,-2,1,0,5.555
1112,0,-2,2,12,4,-2,0,-2,5.5600000000000005
1113,0,-2,-3,-12,-1,0,-3,-2,5.565
1114,1,-3,1,16,1,0,0,-2,5.57
1115,-1,-1,0,2,-1,1,0,-1,5.575
1116,-3,0,-1,-1,1,-2,1,-2,5.58
1117,0,-3,-2,-8,-3,1,-2,1,5.585
1118,0,0,-3,-7,-2,-1,-3,-1,5.59
1119,1,-1,0,3,0,1,0,0,5.595
1120,-2,-2,-2,1,0,0,0,-1,5.6000000000000005
1121,0,0,-1,-1,-2,-1,0,-1,5.605
1122,0,2,-2,-5,0,-1,-1,1,5.61
1123,-1,-1,-2,6,-2,-2,-2,-2,5.615
1124,-2,0,1,-3,-2,-1,-4,1,5.62
1125,1,0,-1,-1,-1,-3,0,0,5.625
1126,0,-2,-2,-4,1,-1,0,0,5.63
1127,2,1,2,8,2,1,0,1,5.635
1128,-2,-2,-4,-2,-3,-2,-1,-1,5.64
1129,-3,-1,1,-5,-9,-2,-3,-2,5.6450000000000005
1130,0,1,1,21,6,1,0,0,5.65
1131,-2,-1,0,3,3,-2,-1,-1,5.655
1132,1,0,-5,-5,-2,-1,-1,-2,5.66
1133,0,-2,-2,-1,0,-2,-2,0,5.665
1134,0,-3,-5,-19,-8,-2,2,-3,5.67
1135,-3,-1,-1,-4,-3,-1,0,-2,5.675
1136,-2,-1,1,6,1,-1,-2,-1,5.68
1137,0,-1,0,-4,-4,0,-1,-2,5.6850000000000005
1138,0,-2,-3,-6,0,-1,-2,0,5.69
1139,0,-1,2,-5,1,1,2,-1,5.695
1140,-1,1,3,9,2,-1,0,0,5.7
1141,-3,0,-3,-12,-2,0,-2,0,5.705
1142,-2,2,3,18,1,0,0,-1,5.71
1143,-2,-3,-4,-6,-2,-2,-1,2,5.715
1144,0,-2,-4,-2,-3,-3,-2,-1,5.72
1145,-3,-2,1,5,2,-2,-1,0,5.7250000000000005
1146,-1,1,-3,-10,-2,-1,0,0,5.73
1147,0,0,-1,-4,-2,-1,-1,-1,5.735
1148,-2,-3,-3,-1,-1,0,0,-1,5.74
1149,0,-1,-2,3,0,0,2,-1,5.745
1150,-2,-1,0,-4,-2,-1,-2,0,5.75
1151,-1,2,0,-2,-5,-2,-2,0,5.755
1152,-2,0,-1,2,10,-1,-2,-1,5.76
1153,0,-1,-1,0,-3,-2,-3,-1,5.765
1154,0,-2,-2,-1,-1,-2,-1,0,5.7700000000000005
1155,1,-2,-4,-11,0,1,0,-2,5.775
1156,-1,0,7,14,-4,-3,-3,-2,5.78
1157,0,-1,-3,-8,-2,-2,0,-1,5.785
1158,-2,-1,0,3,-2,-1,0,0,5.79
1159,0,-2,-2,2,0,0,0,-1,5.795
1160,-2,-1,-2,-7,-5,0,0,-1,5.8
1161,0,1,-2,3,1,-1,-1,0,5.805
1162,-1,-1,-3,-8,-1,1,-1,-3,5.8100000000000005
1163,1,0,-1,0,0,0,-1,-2,5.815
1164,0,-1,1,-1,-1,-1,-3,0,5.82
1165,-1,-3,-4,1,-2,-2,0,0,5.825
1166,-2,2,2,1,0,1,1,-1,5.83
1167,-2,-1,2,14,1,-1,-3,0,5.835
1168,-2,-4,-5,-10,-3,-2,-1,-1,5.84
1169,1,0,0,3,-2,-2,-1,-1,5.845
1170,0,-2,-4,-9,1,1,-2,-1,5.8500000000000005
1171,0,0,-1,-3,-1,-1,2,0,5.855
1172,0,-1,0,-1,-3,0,-1,-2,5.86
1173,0,-1,0,-6,1,1,1,0,5.865
1174,0,-4,-1,4,-1,2,-2,-1,5.87
1175,1,0,2,1,-5,-1,-1,-4,5.875
1176,0,-2,-4,0,3,0,-1,-3,5.88
1177,-1,0,0,-2,2,2,0,-3,5.885
1178,1,0,1,2,0,-1,0,2,5.89
1179,-1,-1,-1,-1,-1,1,-2,2,5.8950000000000005
1180,-1,-1,-2,-3,-7,-2,-1,0,5.9
1181,-1,0,1,7,-2,0,0,0,5.905
1182,1,0,-4,-9,-1,-2,0,1,5.91
1183,-2,0,3,6,0,-2,0,-1,5.915
1184,1,0,-3,-12,-2,-2,0,-1,5.92
1185,0,0,2,3,2,-1,-2,-2,5.925
1186,1,-2,1,-2,-2,-2,-1,-1,5.93
1187,-2,-1,-3,-2,1,0,2,0,5.9350000000000005
1188,-2,-1,0,0,1,-2,1,-2,5.94
1189,0,-1,0,3,-2,0,-1,1,5.945
1190,0,-2,-4,-2,-1,-1,-2,-2,5.95
1191,1,-1,-1,-6,2,2,0,0,5.955
1192,-1,-1,4,10,-1,-3,0,-1,5.96
1193,0,0,-2,1,-2,-1,1,0,5.965
1194,-2,-1,-1,-8,-2,-3,0,-1,5.97
1195,-1,-1,-1,2,0,-2,-2,1,5.9750000000000005
1196,1,-3,-3,-5,-1,0,0,0,5.98
1197,-1,0,0,-3,-1,-1,1,-2,5.985
1198,1,-2,-2,-2,0,-1,-2,-1,5.99
1199,0,0,-4,-18,0,-1,0,0,5.995
1200,-3,-4,-1,16,-1,-1,-1,0,6.0
1201,-1,-2,-2,-1,-3,-2,-3,0,6.005
1202,-2,0,3,8,1,0,-1,1,6.01
1203,1,1,0,2,-1,1,-2,-1,6.015000000000001
1204,0,0,-2,-9,-2,-1,-1,0,6.0200000000000005
1205,0,1,0,0,1,-1,-1,-1,6.025
1206,-3,-1,1,3,-2,0,-1,-1,6.03
1207,0,-2,-1,-3,-1,0,-1,0,6.035
1208,-1,-2,-3,-3,-1,-1,-1,-2,6.04
1209,1,-1,-3,-1,-1,0,0,0,6.045
1210,1,0,0,1,1,-1,3,-1,6.05
1211,-1,-2,-1,4,0,0,-1,-1,6.055
1212,0,-1,-1,-9,-1,-2,0,-2,6.0600000000000005
1213,-1,-1,-1,-1,-1,0,-3,1,6.065
1214,-3,-1,-2,0,-2,0,-1,-2,6.07
1215,0,2,-1,1,0,-1,0,0,6.075
1216,-2,-1,-2,-3,-1,-1,-3,-2,6.08
1217,0,-1,-1,-3,0,-1,2,0,6.085
1218,2,0,-1,-1,-2,0,1,-1,6.09
1219,-1,-1,-2,3,0,-1,0,1,6.095
1220,-1,0,3,-2,0,-1,0,0,6.1000000000000005
1221,1,-2,-2,-14,0,-1,-1,-2,6.105
1222,-1,-2,2,15,1,0,0,0,6.11
1223,-2,-1,0,4,-2,0,-1,1,6.115
1224,-1,1,-4,-6,1,-2,-1,-1,6.12
1225,0,0,0,6,0,0,1,-2,6.125
1226,0,-1,0,-6,-1,0,-3,-1,6.13
1227,1,-1,-2,-3,-1,0,1,1,6.135
1228,-2,-4,-2,-3,-1,0,0,-1,6.140000000000001
1229,-2,-1,0,-1,1,1,0,0,6.1450000000000005
1230,-2,0,-5,-7,-2,-2,0,0,6.15
1231,-1,0,-1,1,0,1,1,-1,6.155
1232,0,-2,-3,-2,-1,-3,-2,-1,6.16
1233,-2,0,-3,-11,-1,-2,-1,2,6.165
1234,-2,-1,4,14,2,0,0,-1,6.17
1235,0,-1,-1,-2,-1,0,1,0,6.175
1236,1,0,-2,-3,-4,0,-1,-1,6.18
1237,-1,-2,2,8,1,1,-2,-4,6.1850000000000005
1238,0,-2,-5,-5,0,0,0,-3,6.19
1239,0,0,-1,-2,-2,-1,-1,-5,6.195
1240,0,-1,-1,0,-1,-1,-1,1,6.2
1241,-1,0,3,11,1,1,2,2,6.205
1242,-2,-1,-3,-10,-2,-1,-1,1,6.21
1243,-1,0,2,2,0,0,-2,-1,6.215
1244,-1,-2,-1,-6,-2,-2,0,-1,6.22
1245,0,2,1,-1,-1,-1,0,-1,6.2250000000000005
1246,0,-2,-4,-12,-2,-2,0,-2,6.23
1247,1,1,1,10,0,0,-1,0,6.235
1248,-2,-5,-8,-2,-3,0,-4,-1,6.24
1249,1,0,0,4,2,1,0,-1,6.245
1250,-2,0,4,3,-1,-1,1,-2,6.25
1251,0,1,-2,-10,-1,-1,0,2,6.255
1252,-2,0,1,-1,0,-1,-1,-1,6.26
1253,1,1,-1,1,-1,-1,-1,0,6.265000000000001
1254,-1,-3,-3,-8,-2,-3,-1,-1,6.2700000000000005
1255,-1,0,0,1,1,0,-2,-1,6.275
1256,-1,-1,-3,-6,-2,0,-2,0,6.28
1257,0,-2,0,8,0,-1,0,1,6.285
1258,0,1,-1,2,0,-1,0,0,6.29
1259,-4,-4,-3,-2,-1,-2,1,-2,6.295
1260,-1,1,1,6,2,-1,-1,-1,6.3
1261,-3,0,-2,-2,-3,-1,-2,-2,6.305
1262,-1,-1,-2,-2,-2,-1,-1,-1,6.3100000000000005
1263,-2,-1,-1,3,-1,0,0,-1,6.315
1264,0,0,-2,-9,-3,-3,0,-1,6.32
1265,1,-3,-4,-5,-1,1,0,1,6.325
1266,1,1,0,6,0,-1,0,1,6.33
1267,-1,-1,-1,-8,-2,0,-3,0,6.335
1268,-2,0,2,8,-1,-1,-1,-2,6.34
1269,-1,-2,-1,-1,-2,-2,-2,-2,6.345
1270,0,1,-2,-1,0,-1,-3,-1,6.3500000000000005
1271,0,0,-2,-5,0,-1,1,-2,6.355
1272,2,-1,1,1,-2,0,-2,1,6.36
1273,-1,-1,-2,2,-1,-1,0,0,6.365
1274,-2,-3,-3,-7,-2,0,0,1,6.37
1275,-1,0,-1,2,-1,1,0,-1,6.375
1276,0,-1,-1,1,1,0,-1,0,6.38
1277,-2,0,-3,-12,-2,-1,-1,-2,6.385
1278,2,0,0,5,0,-1,0,1,6.390000000000001
1279,-1,-2,0,4,0,-2,-1,1,6.3950000000000005
1280,-1,-4,-2,2,-1,-1,0,0,6.4
1281,-1,0,-2,-4,-1,-1,1,0,6.405
1282,-2,-1,0,-3,0,0,0,1,6.41
1283,0,-1,-3,-13,-1,-1,-1,-1,6.415
1284,-1,0,2,12,-1,1,1,-3,6.42
1285,1,2,1,1,0,-1,0,-2,6.425
1286,-4,-3,-7,-11,-3,1,-1,-4,6.43
1287,0,-1,1,9,1,0,2,-1,6.4350000000000005
1288,-2,0,-3,-6,-1,-3,2,-3,6.44
1289,-2,-4,-2,-6,-2,1,1,-1,6.445
1290,1,1,3,5,0,1,0,-1,6.45
1291,-1,-1,-1,-2,-1,-2,-2,1,6.455
1292,-3,-1,-2,-4,-2,-3,-5,0,6.46
1293,0,-1,0,5,0,-1,-2,0,6.465
1294,-1,0,-2,-4,-1,0,-1,-2,6.47
1295,1,0,-3,-2,-1,0,-1,0,6.4750000000000005
1296,0,-3,-3,-7,-4,-3,-3,1,6.48
1297,-1,0,3,14,2,0,1,1,6.485
1298,-2,-1,3,4,0,-1,-1,0,6.49
1299,-2,-2,0,4,1,0,-1,0,6.495
1300,-1,1,0,-5,-3,0,-1,-2,6.5
1301,1,1,-3,-9,-1,-2,-2,0,6.505
1302,0,-1,-1,-1,-1,-3,-1,-1,6.51
1303,1,1,0,-3,0,0,-1,-1,6.515000000000001
1304,-2,0,2,9,0,0,-2,-2,6.5200000000000005
1305,0,0,-1,2,-2,-1,-3,2,6.525
1306,-1,0,0,0,-1,-1,0,0,6.53
1307,-2,-2,3,2,0,0,0,0,6.535
1308,-1,-3,-4,-19,-4,-2,0,-1,6.54
1309,-2,-1,2,14,-1,-1,0,-1,6.545
1310,-1,-1,1,12,1,-1,0,-2,6.55
1311,2,1,-2,-3,-3,0,-1,-2,6.555
1312,-2,-4,-1,-1,0,-2,-1,-1,6.5600000000000005
1313,-1,0,-3,-7,-2,-1,1,-2,6.565
1314,-1,-1,-3,-8,-2,-1,-3,-1,6.57
1315,-1,-1,0,-1,0,-2,-1,-1,6.575
1316,0,-1,-2,-4,-2,0,1,-1,6.58
1317,1,-3,-2,0,0,0,-2,-3,6.585
1318,1,-3,-1,2,-3,-1,-1,1,6.59
1319,-3,0,-1,0,-1,-1,-2,0,6.595
1320,-1,0,0,0,0,-2,-2,-1,6.6000000000000005
1321,-2,-1,-4,-9,-1,-2,-1,1,6.605
1322,0,1,0,1,0,0,-1,0,6.61
1323,-2,-2,-2,2,-2,0,1,-1,6.615
1324,-1,0,-2,-1,-2,-2,-1,-1,6.62
1325,-1,-1,1,-3,0,0,1,-1,6.625
1326,1,-1,-1,0,0,-1,0,-2,6.63
1327,-1,-2,-2,-3,-2,-1,-1,-3,6.635
1328,0,-1,-2,-4,-1,0,-2,-2,6.640000000000001
1329,-1,-2,1,10,1,-2,-1,-2,6.6450000000000005
1330,-1,-1,0,-3,0,-2,-2,-1,6.65
1331,-2,-2,-3,0,-1,-1,-1,-1,6.655
1332,-1,-1,1,1,1,-3,-2,-2,6.66
1333,0,-1,-3,-11,0,0,-1,0,6.665
1334,0,0,0,3,-4,-1,-3,1,6.67
1335,0,-1,-2,-1,-5,-4,0,0,6.675
1336,1,-1,1,9,10,1,0,1,6.68
1337,-1,0,-2,-4,-3,-2,2,0,6.6850000000000005
1338,-1,-3,-1,-1,1,0,0,0,6.69
1339,-1,0,-1,-4,-5,0,-2,0,6.695
1340,-2,-3,-1,-2,-5,-3,-2,0,6.7
1341,0,-2,-1,0,-1,0,-2,-2,6.705
1342,-2,0,-2,-7,-3,0,-1,0,6.71
1343,-1,-1,0,-5,1,-1,0,-1,6.715
1344,-2,-2,3,18,0,-1,0,-1,6.72
1345,-1,0,-1,-1,1,0,0,-1,6.7250000000000005
1346,2,-2,-4,-4,-3,0,0,1,6.73
1347,-1,-1,1,2,2,-1,-1,0,6.735
1348,-1,1,-2,-10,0,-2,-3,-2,6.74
1349,-1,-4,-3,0,-2,-2,0,-1,6.745
1350,-1,0,2,4,-1,-1,0,-1,6.75
1351,0,-1,-3,-4,0,-1,-2,0,6.755
1352,-1,-2,-1,-3,-3,-1,0,-1,6.76
1353,-1,0,2,-1,-3,-1,-1,-1,6.765000000000001
1354,-1,-1,-3,-6,1,0,-1,0,6.7700000000000005
1355,0,-2,0,3,1,1,0,1,6.775
1356,-1,-1,-1,-2,-2,-1,0,-1,6.78
1357,1,2,2,-2,-2,-1,-1,-2,6.785
1358,-2,-2,0,0,2,-1,0,-3,6.79
1359,-1,-1,-4,-1,1,1,0,-1,6.795
1360,-1,0,1,1,-2,-2,-1,-2,6.8
1361,1,-1,1,-2,-1,0,0,-1,6.805
1362,0,2,2,0,-2,-2,0,-2,6.8100000000000005
1363,-1,-2,-2,-2,-8,-3,-1,-2,6.815
1364,-1,0,-5,-8,12,3,-2,-1,6.82
1365,-3,-1,4,15,0,-1,-1,0,6.825
1366,0,-1,-1,1,-1,1,-1,0,6.83
1367,-2,0,3,5,-1,-3,-2,1,6.835
1368,-1,0,-3,-6,-6,0,-1,0,6.84
1369,0,-2,-4,-6,-1,-2,0,1,6.845
1370,-1,0,-2,-7,0,-1,0,0,6.8500000000000005
1371,0,-1,-1,-7,-1,-3,-3,0,6.855
1372,0,0,-1,2,-3,-2,0,-1,6.86
1373,-1,0,-1,-5,0,0,-4,-2,6.865
1374,-2,0,0,2,-1,0,0,-1,6.87
1375,-1,-1,0,-1,2,0,1,-2,6.875
1376,0,-1,-1,0,-4,-1,-1,-1,6.88
1377,1,-1,-2,-2,-1,1,1,1,6.885
1378,-1,-1,0,2,1,-2,-2,0,6.890000000000001
1379,-1,-1,-2,3,0,0,0,-1,6.8950000000000005
1380,-1,-2,-2,0,-3,-2,-2,0,6.9
1381,0,-1,-1,-3,0,0,-1,-1,6.905
1382,-1,-1,0,-1,0,1,-2,-2,6.91
1383,-1,0,-1,-1,1,0,0,-4,6.915
1384,-2,-1,-1,-1,-3,-2,-1,-1,6.92
1385,0,2,0,-2,0,-2,-1,0,6.925
1386,-1,-1,-1,-1,-2,-2,-1,-1,6.93
1387,0,0,-1,-5,-1,-2,0,-2,6.9350000000000005
1388,-1,0,0,0,-1,-2,0,-2,6.94
1389,-2,-1,1,5,-1,-1,-1,-1,6.945
1390,0,0,-2,-1,0,-1,-1,1,6.95
1391,-1,-1,-2,-4,-6,0,-2,-1,6.955
1392,-1,-2,-2,-2,-1,0,-1,-1,6.96
1393,0,0,-2,-1,3,0,1,1,6.965
1394,0,1,-1,0,-1,0,2,-1,6.97
1395,-1,0,-2,-1,0,0,0,-1,6.9750000000000005
1396,-1,1,-1,-3,-6,-2,-2,-2,6.98
1397,0,0,-1,1,-2,0,0,0,6.985
1398,-2,1,0,-2,1,-1,-1,0,6.99
1399,-2,-1,-2,0,-2,-1,-4,0,6.995
1400,0,-1,-1,-5,0,-1,0,0,7.0
1401,1,-1,1,-12,0,-1,-2,-2,7.005
1402,-1,-2,3,18,1,-1,-2,-3,7.01
1403,-1,-1,2,7,1,-1,1,-1,7.015000000000001
1404,-3,0,-1,5,0,1,-1,-2,7.0200000000000005
1405,-3,-1,-5,-9,-2,-1,-1,-2,7.025
1406,1,1,-4,-19,-2,0,0,0,7.03
1407,-1,-2,3,14,0,-1,-1,-1,7.035
1408,-2,-3,-1,-2,-1,-1,0,0,7.04
1409,-1,-1,-1,2,-3,0,-1,0,7.045
1410,0,-2,-2,-3,-1,1,0,1,7.05
1411,0,-1,-3,-5,-2,-2,0,-1,7.055
1412,0,0,-2,-1,1,1,0,0,7.0600000000000005
1413,1,-2,0,2,0,0,-2,-2,7.065
1414,1,-2,-1,3,1,-2,-2,-2,7.07
1415,-2,0,-2,-8,-1,0,-2,-2,7.075
1416,-2,-2,-4,-20,-8,-3,-2,-2,7.08
1417,-2,0,0,17,7,2,0,-1,7.085
1418,-1,0,0,6,0,1,-1,1,7.09
1419,0,-1,-1,-5,-2,-1,-1,1,7.095
1420,-1,-4,-4,2,3,-2,-1,0,7.1000000000000005
1421,-1,0,-2,-7,-4,-1,0,-1,7.105
1422,-1,0,-3,-10,-3,-2,-1,-1,7.11
1423,-1,0,1,10,3,2,0,0,7.115
1424,0,1,-1,-4,-3,0,0,0,7.12
1425,0,-2,-3,-3,-4,-1,1,1,7.125
1426,-1,-2,2,6,-1,0,-1,-2,7.13
1427,-1,-1,-3,-6,-3,-3,-1,-2,7.135
1428,-1,-1,1,3,0,0,-2,1,7.140000000000001
1429,-1,-1,2,3,-1,-1,1,0,7.1450000000000005
1430,-1,0,-2,-5,0,-2,-2,-2,7.15
1431,0,-3,-5,-13,-3,-1,-2,-2,7.155
1432,0,1,2,11,0,-1,-1,-2,7.16
1433,-1,-1,-1,2,-3,-1,-1,-1,7.165
1434,0,0,-2,-3,-1,-2,0,-1,7.17
1435,-2,-2,1,0,0,-2,-1,0,7.175
1436,-1,0,0,0,-2,0,0,0,7.18
1437,0,1,-1,-7,0,-2,-1,-1,7.1850000000000005
1438,1,0,-1,4,0,-1,1,-2,7.19
1439,-3,-1,1,7,1,-3,-3,0,7.195
1440,0,0,3,0,-1,0,0,-1,7.2
1441,0,-1,-3,-2,-1,1,-2,0,7.205
1442,-1,-1,-3,-7,-2,-1,-2,0,7.21
1443,-1,-2,-3,-2,-1,-3,-2,-1,7.215
1444,0,-1,-2,-9,0,-2,-2,0,7.22
1445,0,0,5,11,0,-1,0,0,7.2250000000000005
1446,0,-3,-1,-2,0,0,0,1,7.23
1447,0,-1,-1,-2,-2,-1,-1,-1,7.235
1448,-1,0,-1,2,-1,-2,-3,-1,7.24
1449,-1,-2,-2,-8,-1,-1,0,-2,7.245
1450,-1,0,2,2,-1,1,1,0,7.25
1451,0,-1,0,2,-1,-1,1,0,7.255
1452,-2,-1,-3,-8,-8,-1,0,-1,7.26
1453,-1,0,-3,5,5,0,-2,-1,7.265000000000001
1454,0,-1,0,2,3,-2,-1,-1,7.2700000000000005
1455,-2,-1,-1,-3,-2,0,-1,-1,7.275
1456,0,-1,1,12,2,-1,0,0,7.28
1457,-1,0,-2,-9,-6,0,-1,-1,7.285
1458,-2,-2,3,13,-2,-1,0,2,7.29
1459,0,0,0,-5,-1,-2,-1,-2,7.295
1460,0,-3,-5,-4,-4,-1,0,-1,7.3
1461,-2,-1,3,11,1,-1,0,-1,7.305
1462,1,1,-5,-12,-2,-2,1,-1,7.3100000000000005
1463,1,-2,-2,-1,-3,-1,-1,-2,7.315
1464,-1,-1,-1,0,0,-2,-1,0,7.32
1465,1,-2,-2,-4,-1,-2,-1,-2,7.325
1466,-2,-1,1,-3,0,0,0,0,7.33
1467,0,0,0,1,-1,-1,-1,-2,7.335
1468,-1,-1,1,0,1,1,-1,0,7.34
1469,-1,-2,-3,-8,-1,-1,0,1,7.345
1470,1,1,-1,5,-1,0,0,-1,7.3500000000000005
1471,-2,-1,-3,-2,-1,-1,-1,-3,7.355
1472,1,-1,1,8,1,-1,-2,-1,7.36
1473,-2,0,3,6,0,-2,0,0,7.365
1474,-1,1,-1,-7,0,2,0,-1,7.37
1475,-2,-4,-5,-5,-2,0,-2,-1,7.375
1476,-2,1,-2,-5,1,0,-1,-2,7.38
1477,-2,-2,0,4,-3,0,1,0,7.385
1478,-1,0,2,2,1,0,-2,0,7.390000000000001
1479,0,-1,-1,1,0,-2,-1,1,7.3950000000000005
1480,1,0,1,-3,-1,-1,0,0,7.4
1481,0,0,-4,-4,0,-1,-1,-1,7.405
1482,0,-1,-2,-8,-7,-2,0,-1,7.41
1483,1,1,1,10,11,2,0,0,7.415
1484,-1,-1,-4,-16,-1,-1,0,1,7.42
1485,0,-1,0,9,0,2,-2,-1,7.425
1486,-1,-2,3,12,1,0,0,-1,7.43
1487,-1,-2,1,-5,-6,-3,-1,-1,7.4350000000000005
1488,0,-1,-2,3,-1,1,1,-2,7.44
1489,-1,-1,-4,-12,-1,0,0,-2,7.445
1490,0,-1,1,0,-1,0,-2,-1,7.45
1491,-2,0,-2,-5,-2,-1,1,0,7.455
1492,-2,-1,1,3,1,1,-2,-1,7.46
1493,1,0,-2,-5,-4,-1,-1,0,7.465
1494,-1,-1,-2,2,-3,-2,0,1,7.47
1495,-2,-3,-3,-9,-7,-3,-2,-1,7.4750000000000005
1496,1,1,-1,12,15,2,0,0,7.48
1497,0,0,-1,-3,1,0,-1,-2,7.485
1498,1,0,0,-2,2,-1,0,-1,7.49
1499,-1,-1,-1,-1,-4,-1,-1,-2,7.495
1500,0,-3,-1,-5,-7,-4,0,-1,7.5
1501,0,-2,-4,-15,-1,-1,-3,-1,7.505
1502,-1,0,9,28,4,-2,0,-2,7.51
1503,-2,-3,-3,-4,-3,0,-2,-1,7.515000000000001
1504,0,0,3,7,-2,0,-1,-1,7.5200000000000005
1505,0,0,-2,-3,0,0,0,2,7.525
1506,0,-1,-5,-16,-4,-2,0,-2,7.53
1507,0,0,3,8,1,-3,-1,-2,7.535
1508,1,-1,2,2,-1,-2,-1,0,7.54
1509,-1,-1,1,2,0,-1,-1,-1,7.545
1510,-1,0,-4,-9,0,1,-1,0,7.55
1511,-2,0,1,2,0,-1,-1,-1,7.555
1512,1,-4,-5,-5,-1,-1,1,0,7.5600000000000005
1513,-1,0,1,3,-2,-1,1,-1,7.565
1514,-1,-1,-2,-3,-1,0,1,0,7.57
1515,-3,-1,-3,-8,-5,1,-2,-1,7.575
1516,-1,1,2,7,8,0,-1,2,7.58
1517,-1,-1,2,12,0,0,-1,-1,7.585
1518,-1,-1,1,2,1,-1,-2,0,7.59
1519,1,-2,-1,-1,-3,-3,-2,0,7.595
1520,-1,0,-2,-12,-5,-1,-1,-1,7.6000000000000005
1521,-1,0,-1,-2,-1,0,0,0,7.605
1522,-1,-1,-3,-5,-1,0,2,-1,7.61
1523,-1,-1,-1,-2,0,-2,1,-1,7.615
1524,0,1,-1,6,-3,1,0,0,7.62
1525,-1,0,1,-1,1,-1,-2,-2,7.625
1526,1,-1,-1,-2,0,0,-2,-1,7.63
1527,-1,-1,-3,-6,0,1,-1,-1,7.635
1528,-1,-2,-2,1,-1,-3,-1,-1,7.640000000000001
1529,-1,-1,1,2,-2,0,0,0,7.6450000000000005
1530,1,0,-2,-6,0,-1,2,1,7.65
1531,1,-1,-4,-11,0,-2,-1,1,7.655
1532,0,-1,1,9,-2,-2,-2,-3,7.66
1533,1,0,2,16,1,-2,-3,-1,7.665
1534,-1,-2,1,-1,1,-1,-1,-1,7.67
1535,-2,2,-1,0,0,-1,1,-1,7.675
1536,-2,-1,-1,-9,-4,-1,-1,0,7.68
1537,-1,-2,0,-3,0,-2,1,0,7.6850000000000005
1538,1,-1,0,-2,-3,0,-1,-2,7.69
1539,-1,0,-4,2,-4,0,-3,-1,7.695
1540,-1,2,1,-4,6,0,2,0,7.7
1541,-1,-1,-3,-2,0,-1,0,0,7.705
1542,0,-1,-2,1,0,0,-2,1,7.71
1543,-1,-3,-2,-4,-5,-3,0,-1,7.715
1544,-1,-1,0,0,-2,-1,1,-1,7.72
1545,0,1,-2,-4,-2,0,-1,-1,7.7250000000000005
1546,-1,0,-4,-9,-2,1,0,0,7.73
1547,-1,-1,1,0,1,0,0,-2,7.735
1548,-1,1,4,17,0,0,-1,0,7.74
1549,-1,-2,-3,-3,-1,-1,-1,-1,7.745
1550,0,1,-1,-10,-2,0,-3,0,7.75
1551,0,1,2,10,1,0,-2,-3,7.755
1552,0,-1,-1,-9,-1,-2,1,-1,7.76
1553,-3,-2,-3,-5,-3,-1,-3,-1,7.765000000000001
1554,0,-1,1,2,-2,0,1,-2,7.7700000000000005
1555,-1,-3,-1,-1,1,-1,-1,-3,7.775
1556,0,1,-1,-4,-2,-1,-2,-2,7.78
1557,-1,0,0,0,0,0,1,-1,7.785
1558,-2,-1,0,1,0,-1,-1,0,7.79
1559,1,-2,-4,-10,-1,-2,-1,0,7.795
1560,-2,-2,3,21,1,1,0,0,7.8
1561,0,-1,1,3,-1,-1,-2,-2,7.805000000000001
1562,0,-2,-4,1,0,1,-2,0,7.8100000000000005
1563,-1,-1,-1,0,-5,0,-1,0,7.815
1564,-1,-1,-6,-14,-5,-2,-1,-1,7.82
1565,0,-1,-2,-5,6,1,1,1,7.825
1566,0,-1,1,6,0,-2,-1,-2,7.83
1567,-2,-1,0,4,-1,-1,-1,-2,7.835
1568,1,-2,-2,-8,-5,-2,-2,-1,7.84
1569,-1,-1,-1,1,-2,-2,-1,0,7.845
1570,-1,0,0,-2,2,0,0,2,7.8500000000000005
1571,-1,-2,-1,0,-3,-2,0,0,7.855
1572,-1,2,2,-1,1,1,-1,0,7.86
1573,0,-2,-2,-2,-2,0,0,1,7.865
1574,-1,0,-4,-14,-2,-1,0,-1,7.87
1575,0,-1,0,9,2,-2,-2,0,7.875
1576,-2,-2,0,7,-1,-2,-2,-4,7.88
1577,0,-1,-2,-7,-2,-3,-3,-1,7.885
1578,0,0,-1,1,-2,-1,-2,1,7.890000000000001
1579,-3,-2,-4,-9,-1,-1,0,-2,7.8950000000000005
1580,0,-1,-4,-6,0,0,0,1,7.9
1581,0,1,2,6,-1,-1,0,0,7.905
1582,-1,-1,-1,-3,0,-1,1,-1,7.91
1583,0,-2,-1,0,0,-1,-3,1,7.915
1584,0,-1,-1,-4,0,0,0,0,7.92
1585,-1,-1,-1,-3,-3,-2,-1,-2,7.925
1586,1,1,2,6,-1,-2,-1,0,7.930000000000001
1587,0,-2,-1,0,2,-2,-1,-3,7.9350000000000005
1588,0,-1,-1,-3,0,-1,-1,0,7.94
1589,-1,-3,-2,-4,-6,0,0,0,7.945
1590,-1,-1,-5,-7,-5,-1,-2,-2,7.95
1591,-1,-2,4,9,5,2,-2,0,7.955
1592,0,-1,0,3,-1,1,-2,-2,7.96
1593,0,0,0,-2,-1,0,-2,-1,7.965
1594,-3,1,0,4,-2,-1,-3,0,7.97
1595,-1,2,-4,-22,-5,-2,-1,-2,7.9750000000000005
1596,1,-2,0,6,1,0,2,0,7.98
1597,-1,1,1,1,0,-1,-2,-1,7.985
1598,-1,-1,-3,-2,1,0,-1,-2,7.99
1599,-1,-2,-1,1,-3,-1,-2,-1,7.995
1600,-2,-2,-1,-5,-1,-1,-1,1,8.0
1601,-1,1,-2,-1,-1,0,0,0,8.005
1602,1,0,1,-1,0,0,1,-1,8.01
1603,0,0,-2,-1,-1,0,1,-1,8.015
1604,0,-1,-4,-12,-2,-3,0,0,8.02
1605,0,0,2,12,0,-2,0,1,8.025
1606,-1,-2,0,2,1,-2,-2,-2,8.03
1607,-1,-3,-3,-4,-8,-2,-2,-2,8.035
1608,-2,0,-3,-5,-1,-1,0,-2,8.040000000000001
1609,-1,-1,-2,-6,2,3,-1,-1,8.045
1610,-2,0,-2,-5,0,-1,0,-1,8.05
1611,0,-2,-2,11,2,-1,0,-2,8.055
1612,0,-2,-1,-6,-4,0,-1,-1,8.06
1613,-1,-1,0,-1,0,2,-1,0,8.065
1614,-2,-2,3,5,1,0,1,-1,8.07
1615,-2,-1,-3,-5,-3,-4,-2,0,8.075
1616,-1,0,0,1,0,-1,0,-1,8.08
1617,0,1,-3,-23,-2,-1,0,-3,8.085
1618,0,-3,0,22,3,-1,-1,-2,8.09
1619,-1,-1,2,2,1,-1,0,-2,8.095
1620,0,1,-2,1,1,-1,0,0,8.1
1621,0,1,-2,-3,-1,0,-1,-1,8.105
1622,-2,-4,-7,-12,-4,-2,-1,-1,8.11
1623,0,-1,-1,-2,0,-1,-2,0,8.115
1624,-1,-2,0,4,0,-1,0,-3,8.120000000000001
1625,-1,-3,2,3,-1,-2,-2,0,8.125
1626,-1,0,-1,-1,0,-2,0,-2,8.13
1627,-2,-2,-3,1,0,0,-2,0,8.135
1628,0,1,3,3,3,0,-2,-1,8.14
1629,1,0,-1,5,2,0,1,-1,8.145
1630,0,1,0,-14,-3,0,-2,0,8.15
1631,-1,-1,4,13,-5,-4,-1,0,8.155
1632,-2,-1,-3,0,11,3,-2,0,8.16
1633,-1,-1,1,4,1,-2,-1,-2,8.165000000000001
1634,-1,-2,-1,-1,-1,0,-2,-1,8.17
1635,0,1,1,-14,-2,-2,-1,-3,8.175
1636,-2,-2,-4,-6,-6,0,-1,1,8.18
1637,1,-1,2,8,-1,-1,0,2,8.185
1638,0,-1,-4,-3,-1,-2,-1,0,8.19
1639,-2,-2,-2,-2,-3,-3,-1,-1,8.195
1640,0,1,2,1,-2,0,0,-3,8.2
1641,-2,-3,-2,4,1,1,-1,1,8.205
1642,0,2,2,7,-1,-1,-1,-1,8.21
1643,-1,1,1,6,2,0,-2,-2,8.215
1644,1,-1,-1,-2,-4,-1,0,5,8.22
1645,-2,0,-4,-10,-1,-2,1,6,8.225
1646,0,1,-4,-4,-1,0,-1,1,8.23
1647,0,0,-1,-2,2,-1,-1,-1,8.235
1648,-1,-1,1,-1,-2,0,-1,-7,8.24
1649,-2,1,-2,-7,-4,0,1,-5,8.245000000000001
1650,-2,-4,-3,1,-3,-1,-2,-2,8.25
1651,-1,-1,-3,-9,-1,0,0,-4,8.255
1652,-1,-1,5,15,-1,-4,-2,-3,8.26
1653,-2,-1,-1,0,-3,-3,-1,-2,8.265
1654,-2,2,3,-6,-1,0,-1,-1,8.27
1655,-3,-4,-7,-7,-3,-1,0,0,8.275
1656,1,-1,-2,-4,-7,-1,-1,-1,8.28
1657,0,0,3,7,13,0,-2,0,8.285
1658,-2,-3,-3,3,-1,0,-1,-2,8.290000000000001
1659,-1,1,-1,-4,0,0,-1,1,8.295
1660,0,1,0,-3,0,0,1,0,8.3
1661,-1,-5,-7,-7,-7,-3,-2,-2,8.305
1662,0,1,4,5,1,-1,1,2,8.31
1663,0,0,2,7,0,-1,0,0,8.315
1664,-2,-1,-2,2,1,-3,-2,0,8.32
1665,-1,-2,-3,-4,-3,-2,-3,-1,8.325
1666,-3,-2,-1,1,-1,-1,0,0,8.33
1667,-1,-1,-4,-2,-2,0,1,-1,8.335
1668,0,0,4,13,0,1,0,1,8.34
1669,-1,-2,-2,-4,-3,1,-1,-1,8.345
1670,1,0,0,-1,-2,-2,-1,-2,8.35
1671,1,-1,0,-4,-1,-2,-1,0,8.355
1672,0,0,-4,-13,0,-1,0,-5,8.36
1673,1,-1,-1,3,0,-2,0,-1,8.365
1674,-2,1,-1,-3,-1,-1,-2,-3,8.370000000000001
1675,-2,1,-2,-9,-2,1,-1,0,8.375
1676,-1,-2,1,4,0,-1,0,1,8.38
1677,-1,-2,1,3,-6,-1,-1,0,8.385
1678,-2,1,2,6,11,1,0,0,8.39
1679,-2,-3,-3,-1,-2,-3,-2,0,8.395
1680,0,1,-3,-16,-3,-2,-1,-1,8.4
1681,-1,1,1,4,-2,-1,0,-2,8.405
1682,-1,-4,-4,-3,-5,-3,-1,-2,8.41
1683,-1,-1,2,4,-1,1,-2,0,8.415000000000001
1684,-1,-2,-4,-8,-1,0,0,-1,8.42
1685,-2,0,2,-3,-2,0,1,-1,8.425
1686,-1,-1,-1,1,-1,0,-2,-1,8.43
1687,-2,2,-3,-1,-2,-2,-1,-2,8.435
1688,-1,-2,-2,-1,-3,-1,0,1,8.44
1689,1,1,0,6,0,-1,0,-1,8.445
1690,-1,0,-2,-4,0,-3,-1,-1,8.45
1691,0,-1,0,-1,0,-2,-3,-1,8.455
1692,-2,-1,-1,-12,-1,0,-2,0,8.46
1693,0,-1,2,16,2,0,-1,-2,8.465
1694,0,-2,-1,0,-4,0,1,-2,8.47
1695,0,1,-1,0,-1,0,-1,-1,8.475
1696,-1,0,-3,-2,0,0,-1,0,8.48
1697,0,-2,-2,-6,-1,0,0,-1,8.485
1698,-3,-3,-1,-4,-4,-1,-2,1,8.49
1699,-1,-1,-1,-1,-5,-1,1,1,8.495000000000001
1700,-2,-1,-2,2,-3,0,0,-1,8.5
1701,-1,0,-3,-10,5,0,2,1,8.505
1702,2,0,-1,1,-3,-3,0,-2,8.51
1703,-2,-1,-1,-4,2,0,0,-1,8.515
1704,-1,0,1,7,-3,-2,-3,-1,8.52
1705,-1,0,0,-2,-2,-1,-1,-1,8.525
1706,0,-1,-1,-2,0,-2,-4,-1,8.53
1707,0,0,0,3,-2,-1,0,-1,8.535
1708,1,-1,-6,-17,0,-1,1,0,8.540000000000001
1709,1,-1,3,17,2,1,-3,-1,8.545
1710,-1,0,0,-2,-1,-1,-1,0,8.55
1711,-1,-1,-7,-23,-2,0,2,-2,8.555
1712,-2,-1,10,39,3,-1,-3,-1,8.56
1713,0,1,-6,-14,-2,-1,-1,0,8.565
1714,0,0,5,4,-4,0,0,-1,8.57
1715,-2,-2,1,9,1,-2,-1,-2,8.575000000000001
1716,-1,-3,-5,-10,0,-1,-1,-1,8.58
1717,-2,-2,-4,-5,-2,-1,0,0,8.585
1718,0,0,-2,-7,-1,-1,-1,-1,8.59
1719,0,0,1,5,1,-2,-3,-1,8.595
1720,-1,1,1,1,0,1,-1,-2,8.6
1721,-2,1,1,-3,-6,-2,0,0,8.605
1722,2,0,-4,-7,11,2,2,1,8.61
1723,0,0,7,22,4,1,0,-1,8.615
1724,-3,-3,-2,-2,-2,-1,-2,0,8.620000000000001
1725,0,1,-1,0,-1,0,0,0,8.625
1726,0,-1,-2,-5,-4,-2,0,2,8.63
1727,-3,-2,-2,-1,-1,-3,-2,0,8.635
1728,-1,0,-3,-5,0,-1,-1,-2,8.64
1729,1,-1,-1,-6,-1,-1,1,-1,8.645
1730,-1,1,1,5,0,1,-1,0,8.65
1731,-2,-4,1,7,-2,0,-3,-1,8.655
1732,-1,0,-1,-5,-3,1,-2,-2,8.66
1733,-1,1,0,-5,2,0,-1,1,8.665000000000001
1734,0,1,0,-5,-2,-2,0,-3,8.67
1735,2,1,0,1,-2,-2,-1,-2,8.675
1736,0,-1,-2,-1,-2,-2,0,-3,8.68
1737,-1,-2,-2,-4,-1,1,-1,0,8.685
1738,0,0,2,12,1,1,1,1,8.69
1739,-3,-2,-3,-12,-3,-3,-2,0,8.695
1740,0,0,0,-3,-3,-3,-1,-1,8.700000000000001
1741,1,-1,-4,-2,0,-2,-1,0,8.705
1742,-2,0,2,5,-1,0,0,0,8.71
1743,-2,-3,-4,-11,-4,-1,-1,-1,8.715
1744,0,-1,1,8,2,-1,0,1,8.72
1745,-1,0,2,1,1,0,0,-2,8.725
1746,-1,-3,-4,-4,-1,1,0,0,8.73
1747,-4,-2,-2,-8,-8,-2,-2,-1,8.735
1748,2,0,0,4,6,-1,-1,-2,8.74
1749,0,2,2,-2,2,1,0,1,8.745000000000001
1750,1,-1,1,3,-1,2,-1,0,8.75
1751,-2,-1,-5,-1,-5,-1,0,-1,8.755
1752,-1,-3,-8,-26,-6,-2,-1,-3,8.76
1753,2,6,7,24,6,1,0,0,8.765
1754,0,-7,9,8,2,1,-2,0,8.77
1755,4,32,2,-11,-4,-7,-6,-5,8.775
1756,-17,-55,0,16,-33,-9,-10,-15,8.78
1757,-2,13,8,68,31,9,5,-10,8.785
1758,-4,-3,-6,-13,12,2,1,28,8.790000000000001
1759,7,-6,-2,-35,-26,-2,6,1,8.795
1760,1,101,36,4,32,13,12,3,8.8
1761,-29,-89,-34,17,12,-3,-13,-17,8.805
1762,-4,-45,-30,-21,-2,0,9,-14,8.81
1763,3,-12,-11,64,33,10,32,42,8.815
1764,70,102,14,9,22,10,-20,-49,8.82
1765,57,103,33,-22,4,0,-13,48,8.825000000000001
1766,-32,-34,-4,-17,-23,-17,-11,0,8.83
1767,-17,-77,-40,-64,-35,-20,5,48,8.835
1768,17,58,-15,4,-28,-10,7,54,8.84
1769,-18,-64,-2,11,21,3,-3,-46,8.845
1770,9,32,33,-50,-40,-9,-13,-40,8.85
1771,-61,-38,14,-90,6,2,-13,-34,8.855
1772,-103,-110,28,62,-86,-9,39,-112,8.86
1773,56,100,61,35,48,29,17,-16,8.865
1774,-24,-101,-44,98,20,6,-40,-96,8.870000000000001
1775,-73,-6,-76,-56,-37,-37,-66,-106,8.875
1776,70,48,-21,-128,-43,-4,63,127,8.88
1777,43,-15,-13,-44,-16,19,66,29,8.885
1778,41,51,-2,97,-3,13,15,127,8.89
1779,51,113,59,5,10,9,-18,-26,8.895
1780,35,28,39,118,107,57,14,79,8.9
1781,-46,-38,-18,-100,-5,-27,-31,-32,8.905
1782,-20,120,20,-97,-20,-14,-8,-122,8.91
1783,-52,-121,7,125,127,30,-34,-93,8.915000000000001
1784,38,-52,27,-7,35,2,-4,62,8.92
1785,-7,91,24,-31,-58,-33,2,52,8.925
1786,-33,-17,-23,-84,36,1,2,-54,8.93
1787,-32,-70,-10,50,-102,-29,15,-103,8.935
1788,-121,-128,-29,-27,-11,-28,-36,-43,8.94
1789,78,3,-15,3,70,47,37,86,8.945
1790,-13,-5,32,-80,-59,-21,24,127,8.950000000000001
1791,127,113,27,60,100,48,124,127,8.955
1792,49,-8,-13,44,-46,-19,-96,-70,8.96
1793,-63,-62,37,33,-3,-4,-48,-80,8.965
1794,-46,-51,-85,-105,-64,-43,-51,-127,8.97
1795,56,-27,55,118,69,59,9,39,8.975
1796,2,-76,-29,-72,28,3,47,96,8.98
1797,27,55,0,-84,-11,-24,-16,-100,8.985
1798,-82,-112,-5,-22,-85,-37,-11,-78,8.99
1799,3,55,39,22,50,53,59,53,8.995000000000001
1800,64,-31,-17,-45,9,-8,-55,32,9.0
1801,-4,37,23,-52,-38,-18,39,65,9.005
1802,-55,54,8,15,-1,10,10,-61,9.01
1803,14,-93,-52,-84,-36,-23,-31,91,9.015
1804,42,55,-18,29,-10,-13,-43,-123,9.02
1805,14,51,35,77,-67,-30,-41,-58,9.025
1806,86,66,42,111,109,72,105,109,9.03
1807,-5,119,-35,-31,-47,-20,-28,-33,9.035
1808,-97,-37,-12,-94,-38,-22,-16,-81,9.040000000000001
1809,-50,-102,-69,5,-38,-20,7,30,9.045
1810,70,76,13,56,26,22,27,96,9.05
1811,-10,-106,41,-2,68,35,-24,-16,9.055
1812,-1,94,-10,7,-7,-22,3,33,9.06
1813,-25,61,-45,9,-12,-10,7,-58,9.065
1814,-17,-21,-5,-97,-33,-7,-25,3,9.07
1815,24,-32,-6,-41,-92,-25,-26,49,9.075000000000001
1816,-47,18,1,20,-65,-10,42,-99,9.08
1817,68,-32,31,54,66,34,15,75,9.085
1818,-40,-61,-4,11,42,-17,-83,17,9.09
1819,12,127,22,14,-43,-34,16,1,9.095
1820,-9,0,1,-15,45,35,0,-5,9.1
1821,3,-99,-68,-64,-57,-15,-1,-7,9.105
1822,-9,-41,-29,69,15,-9,-3,-37,9.11
1823,-2,-20,11,-18,-27,-9,13,20,9.115
1824,-36,-48,13,-47,-9,12,36,-23,9.120000000000001
1825,-3,25,2,25,59,-6,-41,-5,9.125
1826,12,-17,16,62,70,36,-7,-105,9.13
1827,-54,6,1,-16,-8,-2,23,-106,9.135
1828,-19,-52,-36,-41,-1,-5,-22,-40,9.14
1829,34,36,2,-38,-86,-12,-29,41,9.145
1830,72,18,30,82,72,58,92,16,9.15
1831,35,-33,-18,-41,13,4,33,110,9.155
1832,102,74,31,77,-32,17,49,127,9.16
1833,-46,20,13,-93,-30,-47,-101,-128,9.165000000000001
1834,-36,99,23,37,-41,-36,-89,-64,9.17
1835,-19,-61,-21,-23,24,14,42,44,9.175
1836,-52,67,1,-87,-13,-1,26,-128,9.18
1837,-30,7,-54,91,-11,17,11,108,9.185
1838,45,40,27,-82,-39,-10,-2,-30,9.19
1839,-15,16,18,-60,-120,-32,-9,-74,9.195
1840,94,12,29,103,98,53,19,85,9.200000000000001
1841,-109,-128,-31,-51,-65,-23,-18,-88,9.205
1842,50,74,2,56,79,36,20,113,9.21
1843,21,127,-9,60,33,-9,-43,-17,9.215
1844,-18,-108,-56,-68,-65,-23,0,39,9.22
1845,8,55,57,11,43,38,56,-2,9.225
1846,-92,-126,-100,-128,-41,-63,-77,-102,9.23
1847,72,107,15,17,-74,-14,-17,-9,9.235
1848,108,127,70,127,127,45,19,127,9.24
1849,4,30,-28,-53,-14,-1,8,-93,9.245000000000001
1850,-39,-19,-19,-23,-72,-25,-27,-32,9.25
1851,-6,-45,8,-59,32,-7,-16,10,9.255
1852,-52,-71,-13,-35,-54,-27,-10,-128,9.26
1853,2,44,24,54,-18,24,51,123,9.265
1854,107,-31,36,103,76,19,-14,34,9.27
1855,-82,60,-10,22,27,-7,9,-72,9.275
1856,-41,70,-34,-115,-9,-26,-44,23,9.28
1857,-80,-111,3,60,-25,8,-31,-128,9.285
1858,100,112,31,16,28,-7,52,127,9.290000000000001
1859,8,-57,-14,-26,-30,5,-38,-92,9.295
1860,-60,27,-1,-75,-78,-27,-27,-108,9.3
1861,38,50,21,44,80,11,21,50,9.305
1862,-59,-67,-32,-6,-29,13,18,-39,9.31
1863,51,23,26,9,39,22,36,89,9.315
1864,-58,19,-35,-21,-28,-22,42,-9,9.32
1865,97,57,-16,-10,-12,-21,-69,95,9.325000000000001
1866,9,18,2,-75,-12,20,3,18,9.33
1867,-12,-42,34,103,73,16,-21,-66,9.335
1868,-104,-128,-57,-76,-94,-27,-23,-118,9.34
1869,69,116,94,99,126,52,44,94,9.345
1870,-41,30,-61,-22,3,-42,-38,-115,9.35
1871,-19,-125,23,58,-2,11,10,26,9.355
1872,73,127,16,107,-3,7,0,102,9.36
1873,-11,-47,-26,-128,-28,7,52,-3,9.365
1874,48,9,-1,-2,-59,-16,6,127,9.370000000000001
1875,-75,-54,3,-56,1,-18,-32,-99,9.375
1876,37,-43,12,-26,-22,4,53,71,9.38
1877,-26,-44,7,69,40,10,-65,-106,9.385
1878,-24,-9,-13,-48,-6,3,23,48,9.39
1879,8,10,-11,49,-23,33,72,73,9.395
1880,37,127,-3,-26,-9,-9,-55,-51,9.4
1881,25,-42,-26,-128,-28,-53,-30,2,9.405
1882,-53,-128,35,93,44,30,27,12,9.41
1883,-11,30,-49,-74,-101,-50,-57,-76,9.415000000000001
1884,-22,-66,-34,-72,-12,11,32,-6,9.42
1885,30,13,34,98,127,65,69,60,9.425
1886,-4,-22,41,-51,-123,-28,-29,-74,9.43
1887,41,84,3,-125,-66,-21,8,-39,9.435
1888,-96,-110,-3,127,97,8,-29,-71,9.44
1889,5,-39,-71,-96,-72,-30,-29,20,9.445
1890,-59,-103,-11,-18,-27,2,37,-82,9.450000000000001
1891,30,80,5,17,91,23,1,41,9.455
1892,112,108,59,0,42,26,27,76,9.46
1893,-128,-89,-90,11,-34,-23,-15,-125,9.465
1894,78,103,-5,-15,12,7,29,127,9.47
1895,-35,-37,-14,-92,-29,-21,-33,-37,9.475
1896,49,68,54,83,116,20,-25,27,9.48
1897,40,127,36,-35,-125,-28,39,-22,9.485
1898,-39,-19,-13,-31,34,27,4,-108,9.49
1899,41,16,16,-81,-88,-17,-5,42,9.495000000000001
1900,-58,-21,-4,47,40,16,-1,-45,9.5
1901,-30,-128,9,70,38,14,7,23,9.505
1902,-22,-36,-27,-87,-59,-23,33,-108,9.51
1903,43,49,59,72,50,11,15,127,9.515
1904,-78,-82,-85,-66,-14,-21,-36,-89,9.52
1905,-49,-22,8,41,18,21,27,-122,9.525
1906,73,121,33,13,25,-19,-77,48,9.53
1907,-25,-105,-4,36,36,13,13,84,9.535
1908,22,73,35,-23,-49,-8,39,79,9.540000000000001
1909,5,-52,-58,-86,-13,-29,-44,7,9.545
1910,28,-64,24,111,46,15,47,-16,9.55
1911,-15,74,-17,-70,-7,-3,-40,-93,9.555
1912,-13,15,-3,122,-21,-13,-23,48,9.56
1913,31,102,33,-94,-53,2,23,-16,9.565
1914,-12,98,92,64,67,30,26,127,9.57
1915,-53,68,-41,-87,13,-9,-20,-99,9.575000000000001
1916,45,26,3,42,-2,20,-2,-26,9.58
1917,-4,-6,35,23,-9,-8,21,-30,9.585
1918,31,-27,-1,-41,5,0,-56,-29,9.59
1919,-46,-31,-24,23,-11,-5,5,0,9.595
1920,-7,-75,21,-87,-32,-21,-39,-114,9.6
1921,-9,34,-43,8,-12,0,13,90,9.605
1922,-4,-33,2,14,-26,-8,-7,-32,9.61
1923,-44,-127,3,69,29,31,55,-62,9.615
1924,119,-32,-36,-86,-44,-43,-38,123,9.620000000000001
1925,16,-6,46,-38,8,0,-12,-18,9.625
1926,-58,-38,-65,68,51,4,-14,-43,9.63
1927,-24,-5,-12,32,-69,-2,41,-37,9.635
1928,57,91,38,61,114,52,20,50,9.64
1929,-18,57,2,-85,3,-20,-40,-66,9.645
1930,-17,-12,-29,58,-31,-8,16,127,9.65
1931,-18,-67,-10,57,78,-8,-44,-80,9.655
1932,-9,-13,28,-57,-22,-1,28,-33,9.66
1933,-2,-126,-23,58,-47,8,-17,-72,9.665000000000001
1934,-113,-6,0,-128,-125,-40,-25,-128,9.67
1935,79,127,0,27,-9,-11,19,98,9.675
1936,-22,-67,-63,-14,-14,-21,-53,-4,9.68
1937,19,-8,27,-4,34,6,11,23,9.685
1938,-44,-33,-68,-56,-22,-3,-40,-73,9.69
1939,-56,-31,7,-51,-10,-17,-11,-85,9.695
1940,-12,67,62,66,-44,17,48,85,9.700000000000001
1941,85,93,6,-52,49,13,-10,95,9.705
1942,127,62,44,127,-1,20,36,99,9.71
1943,-54,-71,-50,-75,-55,-1,-4,-16,9.715
1944,-76,17,-8,-65,-32,-32,-40,-128,9.72
1945,-86,20,-14,-10,-57,-23,-21,-73,9.725
1946,63,120,46,83,127,59,52,-59,9.73
1947,48,-60,-44,-43,-2,-17,-12,117,9.735
1948,-51,-73,-17,-87,-17,3,22,-16,9.74
1949,-5,12,6,17,-15,-2,-10,-29,9.745000000000001
1950,2,75,18,-93,-41,-9,24,38,9.75
1951,-41,-39,13,36,-10,-21,-36,-124,9.755
1952,48,28,24,21,44,22,35,91,9.76
1953,-3,21,-35,48,-52,6,22,-38,9.765
1954,6,31,-31,-128,-57,-55,-59,2,9.77
1955,13,11,-19,127,120,83,1,-58,9.775
1956,9,24,11,11,3,-2,10,116,9.78
1957,5,-57,17,-47,-26,0,33,-18,9.785
1958,-10,3,47,-21,-10,5,16,-56,9.790000000000001
1959,-5,-4,-26,28,-87,-14,0,-7,9.795
1960,-15,-41,-3,-38,-4,-6,-15,-127,9.8
1961,-3,18,-15,49,46,11,-2,43,9.805
1962,2,-51,-19,40,17,8,8,7,9.81
1963,20,40,23,-62,-6,-24,-25,32,9.815
1964,-23,-7,27,23,-1,-37,-40,-57,9.82
1965,-68,-21,-25,84,2,-3,9,55,9.825000000000001
1966,81,12,21,-45,-34,17,9,-3,9.83
1967,-4,1,42,65,15,24,3,47,9.835
1968,57,32,-48,25,26,14,56,-13,9.84
1969,91,13,114,127,52,5,-9,-35,9.845
1970,-117,-62,-123,-108,-87,-1,33,8,9.85
1971,122,68,115,79,69,20,38,89,9.855
1972,-115,-30,-4,13,-28,0,-3,-87,9.86
1973,-27,-1,-39,-63,10,7,16,37,9.865
1974,29,58,105,127,47,2,-21,-38,9.870000000000001
1975,82,55,-41,-108,-39,-12,-7,7,9.875
1976,-17,-13,-9,60,12,-8,-27,-4,9.88
1977,-82,-19,-51,-87,-15,-19,-35,-31,9.885
1978,-19,-11,-42,-67,7,-7,-6,0,9.89
1979,-38,-6,-18,-52,-7,-12,-2,-7,9.895
1980,64,14,47,58,15,13,9,-7,9.9
1981,82,13,42,-41,-9,3,-14,12,9.905
1982,-78,-46,-53,10,4,-15,-23,-22,9.91
1983,-86,16,90,29,43,11,18,6,9.915000000000001
1984,110,-2,-80,-128,-61,-1,-15,-14,9.92
1985,-98,-32,57,83,27,-5,11,15,9.925
1986,39,-15,32,88,21,-2,-23,9,9.93
1987,-21,-27,-101,-94,-45,-16,-15,-28,9.935
1988,-30,-22,36,105,27,14,6,2,9.94
1989,29,-8,-82,-117,-17,-7,-6,-6,9.945
1990,-7,-4,1,11,-2,-12,-4,-5,9.950000000000001
1991,-16,3,8,-10,1,-1,-7,-8,9.955
1992,0,-8,9,-27,5,7,9,7,9.96
1993,19,14,38,98,43,11,8,24,9.965
1994,-12,-30,-48,-88,-34,-16,-5,-7,9.97
1995,28,1,-33,-67,-15,-2,3,19,9.975
1996,-19,-18,-4,-45,-10,-3,0,9,9.98
1997,2,-1,-8,-18,4,5,1,6,9.985
1998,11,9,43,55,26,6,6,10,9.99
1999,9,-4,-10,19,-5,-2,1,3,9.995000000000001
2000,-26,-4,-5,-40,13,-1,-6,-1,10.0
2001,0,3,55,86,21,12,9,3,10.005
2002,14,-8,-25,-33,-3,2,8,3,10.01
2003,3,3,-26,-67,-10,-5,-6,0,10.015
2004,-10,6,13,10,-5,1,2,-8,10.02
2005,17,7,-8,14,-4,-1,1,0,10.025
2006,11,10,15,-33,-4,-2,1,1,10.03
2007,-1,7,16,27,2,-2,-2,-3,10.035
2008,-6,2,2,12,1,1,-1,-1,10.040000000000001
2009,5,-2,-27,-21,1,-1,-2,-2,10.045
2010,-3,1,5,14,5,-3,-2,-5,10.05
2011,-3,3,4,4,-5,-3,-3,-1,10.055
2012,-2,-2,3,25,18,3,2,0,10.06
2013,0,-4,-34,-75,-28,-9,-4,-1,10.065
2014,5,6,22,-5,23,7,1,-3,10.07
2015,3,8,11,43,10,2,-2,1,10.075000000000001
2016,-14,-7,-9,-28,-23,-10,-7,-4,10.08
2017,-1,-1,-18,10,31,9,4,0,10.085
2018,5,1,-4,-24,-2,1,4,3,10.09
2019,5,5,15,34,4,0,-1,-4,10.095
2020,-3,2,10,8,-12,-3,-7,-2,10.1
2021,1,0,-10,-42,-6,2,1,4,10.105
2022,2,-1,-1,-11,-2,-2,-2,-3,10.11
2023,0,1,14,44,16,1,0,0,10.115
2024,-1,2,-4,-14,-2,2,3,2,10.120000000000001
2025,5,0,0,-10,-12,0,1,4,10.125
2026,-2,-4,-3,14,0,-5,-6,-4,10.13
2027,-1,-4,-4,-12,-14,-6,-4,-3,10.135
2028,1,2,5,0,7,4,4,1,10.14
2029,4,1,2,3,-13,-4,-2,0,10.145
2030,-7,-6,-7,8,0,-5,-5,-4,10.15
2031,-3,-3,-11,-38,-12,-4,-4,-4,10.155
2032,3,-1,-3,-8,-2,3,2,1,10.16
2033,-2,-5,14,70,21,2,-1,-2,10.165000000000001
2034,-7,-9,-18,-30,-28,-12,-5,-8,10.17
2035,3,0,2,24,13,6,3,-1,10.175
2036,1,1,-3,-1,2,4,3,4,10.18
2037,1,0,-18,-74,-30,-4,0,-2,10.185
2038,-1,-1,5,12,10,-1,-4,-2,10.19
2039,-1,-1,5,34,-5,-7,-5,-4,10.195
2040,3,3,-4,-20,-11,-1,0,-1,10.200000000000001
2041,2,3,4,13,14,2,0,-4,10.205
2042,-4,-6,-5,6,-17,-6,-3,-5,10.21
2043,-3,-5,-15,-31,-5,-2,-3,-1,10.215
2044,1,1,5,10,7,3,2,-2,10.22
2045,-2,2,-5,-5,-6,-3,-2,-1,10.225
2046,0,3,5,9,2,1,-3,-1,10.23
2047,-2,-2,-9,-22,-7,-2,-1,-4,10.235
2048,-3,-1,6,5,7,0,0,-3,10.24
2049,0,2,3,0,-7,-1,0,-1,10.245000000000001
2050,-4,-6,-9,0,-4,-2,-2,-3,10.25
2051,0,0,11,49,18,2,-2,1,10.255
2052,1,-3,-7,-5,-5,0,0,2,10.26
2053,-2,0,-17,-49,-14,-1,1,1,10.265
2054,0,0,17,46,18,3,-2,0,10.27
2055,0,0,-7,-24,-6,-2,-1,-1,10.275
2056,-1,-2,3,15,0,5,2,0,10.28
2057,0,0,-3,-20,-8,-3,-2,-3,10.285
2058,1,-2,-8,-15,-7,-1,0,1,10.290000000000001
2059,0,3,11,10,7,2,-2,-1,10.295
2060,2,3,1,15,25,4,2,1,10.3
2061,-4,-6,-2,10,0,-1,-1,-1,10.305
2062,-2,-3,0,-18,-12,-3,-1,-1,10.31
2063,0,0,2,13,16,3,1,0,10.315
2064,-1,-2,-6,-12,-4,-1,-2,1,10.32
2065,-1,1,13,35,0,-2,-1,-1,10.325000000000001
2066,3,2,-1,-6,4,1,-1,0,10.33
2067,0,-2,-14,-29,-21,-4,1,1,10.335
2068,-3,-2,1,12,4,-2,-2,-2,10.34
2069,-2,-2,-7,2,-7,-2,-2,0,10.345
2070,2,8,6,-18,5,2,3,0,10.35
2071,-3,-8,-10,8,2,-1,1,-2,10.355
2072,3,3,8,6,-8,1,0,2,10.36
2073,-1,-4,0,-3,8,0,-1,-3,10.365
2074,-3,-1,-2,7,-7,-3,-2,-1,10.370000000000001
2075,0,1,-3,-28,-4,-1,1,0,10.375
2076,-1,0,-1,4,2,-2,0,-1,10.38
2077,-3,-1,1,0,-10,-5,-4,-3,10.385
2078,-1,1,2,20,19,3,0,-1,10.39
2079,1,0,3,-4,0,-2,0,-1,10.395
2080,-3,-4,-11,-11,-10,-4,0,0,10.4
2081,0,4,9,-5,-4,-1,-1,-1,10.405
2082,-1,-3,-11,-17,-1,1,-1,0,10.41
2083,-1,4,13,32,1,-1,-2,0,10.415000000000001
2084,0,-1,-2,9,4,3,2,1,10.42
2085,-4,0,-3,-3,-3,-2,-3,-2,10.425
2086,-1,-2,-4,-17,-6,-1,-1,-1,10.43
2087,1,-1,3,20,11,3,0,2,10.435
2088,1,4,-2,-8,-1,0,1,-1,10.44
2089,-1,-2,-10,-14,4,-1,-1,-1,10.445
2090,0,4,8,17,-11,-1,0,0,10.450000000000001
2091,-2,-2,-9,-37,-9,-5,-3,-3,10.455
2092,0,2,9,47,-8,2,4,2,10.46
2093,-3,-6,-9,-5,7,0,-1,-2,10.465
2094,1,-1,3,-11,-10,-2,0,1,10.47
2095,1,-2,-2,16,12,4,1,1,10.475
2096,0,0,-5,-47,-10,-3,-4,0,10.48
2097,-2,-1,5,14,5,-1,-2,-2,10.485
2098,-1,-1,-2,6,2,1,1,-2,10.49
2099,-2,-1,-1,-6,-16,-4,-3,-3,10.495000000000001
2100,1,-1,-7,-6,9,3,2,1,10.5
2101,-2,-5,-2,14,-3,-1,-4,-2,10.505
2102,0,2,2,-8,2,-1,0,-1,10.51
2103,-1,-3,1,13,1,-1,0,0,10.515
2104,-2,-5,-7,-3,1,2,-1,-1,10.52
2105,2,1,0,-11,-5,-2,1,-1,10.525
2106,0,0,-1,-2,1,-1,-1,0,10.53
2107,-2,1,-7,-27,-15,-2,-2,0,10.535
2108,0,-1,2,13,16,3,1,0,10.540000000000001
2109,-2,-4,-7,8,-3,-6,-5,-2,10.545
2110,1,0,-2,7,5,-1,-2,0,10.55
2111,2,3,-5,-14,-4,-1,2,-2,10.555
2112,-2,-1,9,-3,-3,-4,-4,-4,10.56
2113,-3,-1,3,7,-9,-4,0,-3,10.565
2114,1,-2,-6,-2,3,1,1,1,10.57
2115,-2,-3,-1,-2,-4,1,0,0,10.575000000000001
2116,3,4,0,-12,-3,1,1,2,10.58
2117,-3,-7,-8,-6,-5,-4,-3,0,10.585
2118,0,1,5,13,9,2,-1,-1,10.59
2119,0,-2,-3,-8,-2,0,-1,1,10.595
2120,-2,-5,-5,13,-3,-2,-1,-1,10.6
2121,0,4,-3,-33,-5,-2,-2,1,10.605
2122,-3,-5,-6,-6,0,-1,-2,-2,10.61
2123,-2,-2,4,29,-2,-1,-1,-1,10.615
2124,1,-1,5,1,13,3,1,-1,10.620000000000001
2125,-3,-1,-1,-31,-21,-7,-4,-4,10.625
2126,2,3,-3,27,28,7,3,1,10.63
2127,0,-2,2,3,-2,-1,-2,-1,10.635
2128,0,0,-7,-6,-6,1,-1,2,10.64
2129,0,-1,0,2,3,1,-2,-2,10.645
2130,-3,2,0,-35,-16,-6,-1,-4,10.65
2131,0,-2,2,20,4,-1,0,1,10.655
2132,1,1,-1,-1,6,-1,0,-1,10.66
2133,-4,-6,-2,7,-5,-3,-2,-5,10.665000000000001
2134,0,0,-1,-3,-5,-2,0,-2,10.67
2135,1,3,2,-5,4,1,-1,-1,10.675
2136,0,0,-9,-27,-10,-3,0,0,10.68
2137,-3,-3,8,26,7,-1,-2,-2,10.685
2138,0,-1,3,7,-5,-1,0,-2,10.69
2139,-2,-3,-4,-5,0,1,0,-1,10.695
2140,-1,1,0,-11,-9,0,-2,-1,10.700000000000001
2141,0,-2,-1,1,4,2,-1,-1,10.705
2142,-1,-3,7,26,16,2,0,2,10.71
2143,0,0,-4,-14,-9,0,-1,1,10.715
2144,-1,0,3,11,3,-1,0,1,10.72
2145,2,-1,-4,0,-7,-2,1,0,10.725
2146,-1,-2,-6,-15,-6,-1,0,0,10.73
2147,2,1,1,-9,-1,0,1,1,10.735
2148,3,2,4,28,5,1,0,0,10.74
2149,-1,-1,-2,-5,9,1,-1,-1,10.745000000000001
2150,-2,0,-3,-5,-2,-2,1,0,10.75
2151,1,0,3,-4,5,3,1,0,10.755
2152,-2,0,-7,-16,-6,-2,-1,-1,10.76
2153,-2,-4,-5,2,-3,-3,-1,-2,10.765
2154,-1,-4,-7,-12,-2,0,-1,-2,10.77
2155,-4,-2,-1,-1,-6,-3,-1,-2,10.775
2156,1,-1,1,-3,6,3,0,0,10.78
2157,-1,0,4,8,0,-2,-1,-2,10.785
2158,-1,1,6,11,-1,-2,-2,0,10.790000000000001
2159,1,3,-6,-7,-10,2,1,1,10.795
2160,-2,-1,21,36,1,-4,-4,-3,10.8
2161,-5,-8,-17,-13,-5,-2,-1,-4,10.805
2162,2,2,-4,-27,-6,-1,0,0,10.81
2163,-2,-2,2,18,1,-2,-3,-3,10.815
2164,-1,-1,-9,-17,0,1,1,0,10.82
2165,-2,-2,3,3,3,0,-2,-3,10.825000000000001
2166,2,4,4,0,-2,-1,-1,-1,10.83
2167,1,-1,-10,-20,4,-2,-1,-1,10.835
2168,0,-2,6,5,-9,-1,-1,-3,10.84
2169,0,1,0,8,6,0,0,-2,10.845
2170,0,0,3,10,-2,0,0,2,10.85
2171,0,2,0,-5,5,-1,0,0,10.855
2172,-3,-5,-7,-7,-2,-3,0,-2,10.86
2173,-2,-1,-2,-12,-10,-2,-3,-1,10.865
2174,-2,-3,0,-1,4,0,0,-1,10.870000000000001
2175,0,-1,4,22,6,2,0,1,10.875
2176,0,-1,1,-3,1,0,-2,-2,10.88
2177,-2,-3,-6,-9,-12,-4,-4,-3,10.885
2178,0,2,0,4,-1,2,0,-1,10.89
2179,-1,1,-3,-13,-2,-2,0,-1,10.895
2180,-2,-4,-8,-39,-15,-7,-5,-4,10.9
2181,0,0,3,34,3,5,2,3,10.905
2182,-1,0,0,15,6,2,-1,1,10.91
2183,-3,-2,6,18,-6,-2,-1,-2,10.915000000000001
2184,1,2,0,0,15,5,-2,1,10.92
2185,-2,1,1,-16,2,-3,-3,-3,10.925
2186,-4,-4,-8,-14,-10,-2,-1,-2,10.93
2187,2,1,0,-1,2,0,2,-2,10.935
2188,-2,-2,-6,-4,-6,-3,0,-1,10.94
2189,0,1,-3,-15,-12,-4,-2,-1,10.945
2190,0,1,12,21,6,-1,-2,-1,10.950000000000001
2191,1,-4,-4,-5,5,-1,-2,0,10.955
2192,-1,1,-1,0,-2,0,2,2,10.96
2193,-1,-3,-6,0,0,-4,-2,-2,10.965
2194,-2,0,7,10,3,0,1,0,10.97
2195,-1,-1,-1,7,-5,-2,-2,-2,10.975
2196,-1,2,1,-7,-5,0,-1,0,10.98
2197,-3,-3,-10,-7,-20,-6,-3,-2,10.985
2198,0,-4,-17,-38,-15,-2,0,0,10.99
2199,-2,-3,4,27,15,3,-2,-2,10.995000000000001
2200,3,2,3,35,10,6,4,2,11.0
2201,-3,0,-5,-35,-8,-4,-5,-3,11.005
2202,-1,-1,4,13,-19,-4,0,0,11.01
2203,3,4,7,0,12,2,2,2,11.015
2204,0,-2,-4,-7,-6,-4,-2,-3,11.02
2205,-1,-2,-3,-18,7,0,-2,-3,11.025
2206,2,0,9,17,-3,-1,-2,-3,11.03
2207,-1,-2,0,-3,-6,-4,-2,-3,11.035
2208,-1,-2,-2,1,-2,-4,-3,-3,11.040000000000001
2209,-3,-3,-2,0,1,-2,-2,-1,11.045
2210,1,0,-5,-24,4,1,-1,0,11.05
2211,-1,-1,2,24,-1,1,2,1,11.055
2212,-2,-1,-6,-1,1,-1,-1,1,11.06
2213,-1,-1,5,3,2,-2,-2,-3,11.065
2214,0,-2,-6,-7,-1,-1,0,2,11.07
2215,-1,-1,-4,-22,-1,0,0,-1,11.075000000000001
2216,-1,0,4,6,-4,-3,-1,-1,11.08
2217,-2,0,10,28,12,0,0,0,11.085
2218,-2,-5,-7,3,3,-2,1,0,11.09
2219,0,2,-5,-17,-5,-1,5,0,11.095
2220,0,3,-4,-32,-6,0,2,0,11.1
2221,-2,-5,-3,-7,-11,-4,-3,-3,11.105
2222,4,2,18,64,20,11,6,1,11.11
2223,0,-1,-11,-14,2,1,-1,1,11.115
2224,-2,-5,0,11,1,-2,-2,-2,11.120000000000001
2225,-2,2,6,-2,-1,-1,-3,0,11.125
2226,-1,1,-8,-27,-7,-3,-4,-1,11.13
2227,0,0,-6,-24,-3,-1,-2,1,11.135
2228,0,-1,8,22,2,-2,-2,-1,11.14
2229,-1,-2,-2,6,1,-1,0,-2,11.145
2230,-2,0,-4,-12,-3,-2,-1,0,11.15
2231,2,2,8,5,-6,0,1,0,11.155
2232,-2,-2,-8,1,11,-1,-1,-2,11.16
2233,0,0,-3,-3,-2,-2,1,-1,11.165000000000001
2234,-2,1,-5,-1,0,-1,0,0,11.17
2235,-2,1,-2,-10,-2,-3,0,-1,11.175
2236,-2,-4,-1,0,-5,0,-3,-1,11.18
2237,1,1,3,6,0,0,-2,-1,11.185
2238,-2,-5,-4,-2,-2,-2,0,0,11.19
2239,-1,-5,-5,-2,9,0,-2,0,11.195
2240,-1,-4,-4,-8,-12,-1,0,-1,11.200000000000001
2241,-2,-1,3,19,22,3,2,-2,11.205
2242,-1,-1,-5,-19,-15,-3,-1,-1,11.21
2243,-2,0,7,12,8,2,0,0,11.215
2244,-2,2,2,0,7,1,-2,-1,11.22
2245,0,-3,-9,-23,-9,-1,-1,0,11.225
2246,-1,1,-1,-23,-9,-5,-2,-3,11.23
2247,0,-4,-6,16,8,3,0,1,11.235
2248,-3,0,3,3,-3,-2,-1,1,11.24
2249,-3,-3,0,12,-3,-1,-2,-1,11.245000000000001
2250,-1,-1,-2,5,3,0,-2,0,11.25
2251,0,1,3,-6,-8,-1,0,0,11.255
2252,-1,-6,-15,-31,-7,-2,-3,-4,11.26
2253,-3,-2,7,22,3,0,-1,-1,11.265
2254,1,-1,7,11,1,2,-2,-3,11.27
2255,1,1,-5,-20,-8,0,0,-1,11.275
2256,-3,-1,1,16,1,-1,-1,-1,11.28
2257,-2,-2,0,3,2,-1,-1,-2,11.285
2258,-1,1,0,-1,2,-1,-1,-1,11.290000000000001
2259,0,0,-1,0,-3,-1,0,-1,11.295
2260,-4,-5,-6,-2,3,-3,-1,-2,11.3
2261,1,0,-3,-15,-20,-5,-1,-1,11.305
2262,-1,1,0,-7,-2,-2,0,0,11.31
2263,-1,0,-1,3,-8,-1,1,0,11.315
2264,-1,2,13,27,3,0,-1,-4,11.32
2265,-1,-3,-6,-13,5,0,-2,-1,11.325000000000001
2266,-1,2,-6,-21,-17,-2,-2,-3,11.33
2267,1,1,6,27,24,4,2,1,11.335
2268,-1,-2,0,5,-2,-3,-2,-2,11.34
2269,-1,1,-5,-9,-7,0,0,-1,11.345
2270,0,-3,3,9,6,0,-3,-1,11.35
2271,-3,-1,-8,-22,-12,-3,-4,-4,11.355
2272,-1,-2,-2,-7,-8,-2,-1,0,11.36
2273,0,-2,-6,-21,1,-1,-1,0,11.365
2274,1,-1,2,13,3,0,1,0,11.370000000000001
2275,0,-2,3,11,-3,-4,0,1,11.375
2276,-1,-1,-4,-5,0,-1,-1,0,11.38
2277,-2,1,0,-5,-9,-2,-1,-1,11.385
2278,0,0,-8,-28,1,0,1,1,11.39
2279,-1,-1,13,39,6,1,0,0,11.395
2280,-5,-2,-2,3,-3,-4,-1,-2,11.4
2281,-1,0,-2,-8,-2,0,-3,0,11.405
2282,-1,-3,-9,-6,2,3,2,0,11.41
2283,2,1,6,9,6,2,1,1,11.415000000000001
2284,1,-2,2,-12,-4,-3,-4,-1,11.42
2285,0,-3,-5,4,-5,-3,-3,0,11.425
2286,1,0,4,21,22,3,1,1,11.43
2287,0,-1,-12,-34,-16,-2,0,1,11.435
2288,0,0,-4,7,-2,0,-2,0,11.44
2289,-4,1,7,4,-13,-6,0,-3,11.445
2290,1,1,4,16,11,3,3,1,11.450000000000001
2291,-1,-1,-10,-33,-6,-3,0,1,11.455
2292,1,-2,10,40,16,1,0,1,11.46
2293,1,-1,-8,-13,-1,0,0,-1,11.465
2294,0,0,2,-5,-10,-3,-1,-2,11.47
2295,0,1,2,5,4,1,0,-1,11.475
2296,-2,-2,-8,-26,-12,-3,-2,-2,11.48
2297,-1,-1,-3,-5,3,0,0,-1,11.485
2298,-2,-2,4,21,1,-2,0,0,11.49
2299,-1,0,0,-12,-8,-1,0,-1,11.495000000000001
2300,1,0,1,6,14,0,-1,1,11.5
2301,-1,-4,-7,-17,-3,-1,-1,-1,11.505
2302,2,-1,4,20,-14,1,1,2,11.51
2303,-1,2,4,14,10,2,1,1,11.515
2304,-3,0,-5,-17,-9,-3,-2,-2,11.52
2305,1,2,-1,-3,3,-1,0,0,11.525
2306,0,-1,-3,-5,-5,-1,-2,-1,11.53
2307,0,-4,-7,-18,-5,0,1,-1,11.535
2308,-2,-1,2,16,0,-2,-1,-3,11.540000000000001
2309,-3,-1,-1,1,-4,-1,-1,2,11.545
2310,0,-2,-4,-11,3,-2,-1,0,11.55
2311,1,0,9,19,2,0,1,-1,11.555
2312,-3,-2,-6,-11,0,-3,0,-3,11.56
2313,-1,-2,-2,-3,-3,-1,0,-1,11.565
2314,0,0,-2,-4,4,1,1,-1,11.57
2315,3,1,2,9,2,0,0,0,11.575000000000001
2316,0,-1,-5,-19,-7,-1,-2,0,11.58
2317,0,1,4,6,-5,-2,-1,0,11.585
2318,-2,1,-6,-11,8,2,-3,-1,11.59
2319,2,2,4,15,6,3,-2,1,11.595
2320,-2,-1,3,16,-2,1,-2,-3,11.6
2321,2,-2,2,10,8,4,-1,-3,11.605
2322,1,-2,1,1,-2,-1,-2,-3,11.61
2323,-2,0,-6,-21,3,1,-1,-4,11.615
2324,0,0,-4,-29,-18,-7,-3,-2,11.620000000000001
2325,0,-4,-8,13,18,7,4,1,11.625
2326,-3,-1,19,37,4,-6,-1,-3,11.63
2327,0,-1,-3,-6,-6,0,4,1,11.635
2328,-3,-6,-1,10,17,0,-2,-2,11.64
2329,-3,1,-2,-12,-3,-3,1,-1,11.645
2330,0,0,-9,-21,-7,-1,1,0,11.65
2331,-1,1,2,-5,3,-2,2,0,11.655
2332,-1,-3,-4,-5,-7,-2,0,-1,11.66
2333,0,1,-3,-8,-7,-1,-2,-2,11.665000000000001
2334,0,-1,-4,-3,3,4,0,1,11.67
2335,-1,2,8,19,4,-1,-4,-1,11.675
2336,-2,-5,-13,-14,-5,-2,-2,0,11.68
2337,-2,-1,2,-3,-4,-3,-3,0,11.685
2338,0,1,4,15,1,-1,-2,0,11.69
2339,1,1,-1,5,-5,0,-2,1,11.695
2340,-2,-1,0,-6,-10,-2,-1,-1,11.700000000000001
2341,0,-2,-3,-2,9,1,0,2,11.705
2342,0,-1,-2,-2,-6,-2,-2,1,11.71
2343,0,-4,-7,-8,-1,0,-2,3,11.715
2344,-3,0,1,-23,4,-1,-3,-2,11.72
2345,-4,-2,1,24,-16,-3,-1,-2,11.725
2346,0,1,9,5,-3,-1,-1,-1,11.73
2347,3,4,2,16,10,3,0,-1,11.735
2348,0,-1,-4,-7,-2,-1,-2,-2,11.74
2349,2,2,1,-9,1,-3,0,-1,11.745000000000001
2350,-2,-1,-3,-5,3,1,1,-1,11.75
2351,-2,0,-1,-13,-4,0,0,-1,11.755
2352,-2,-2,1,12,-6,-2,-3,-3,11.76
2353,-1,-3,-2,-1,-2,1,1,-1,11.765
2354,-1,-2,1,1,5,1,1,-1,11.77
2355,0,-2,-3,-7,-5,-2,-1,-1,11.775
2356,-1,0,-2,-1,1,-1,-2,-1,11.78
2357,0,0,-2,-12,-4,-4,-2,0,11.785
2358,0,0,2,11,1,1,-1,0,11.790000000000001
2359,2,0,-7,-20,0,1,2,0,11.795
2360,0,-6,10,36,-6,-5,-4,-2,11.8
2361,1,4,12,6,12,4,1,-1,11.805
2362,-4,-5,-12,-9,-3,-1,-2,1,11.81
2363,2,1,-1,2,6,2,3,2,11.815
2364,-5,-5,-11,-10,-2,-2,-3,-3,11.82
2365,0,0,-7,-21,-9,-3,-2,-1,11.825000000000001
2366,2,3,5,27,52,13,8,2,11.83
2367,3,-1,4,-13,-22,-5,-2,-1,11.835
2368,3,1,4,35,29,8,1,0,11.84
2369,0,-1,1,6,3,-1,-4,-2,11.845
2370,-2,0,-7,-29,-17,-4,0,-4,11.85
2371,-5,-1,-1,3,0,0,0,-1,11.855
2372,-3,1,-1,-18,-9,-2,-1,-3,11.86
2373,0,-1,-1,6,1,1,-2,-1,11.865
2374,0,0,1,-6,-9,-4,-4,-2,11.870000000000001
2375,0,-1,-1,-6,0,0,-4,-2,11.875
2376,-2,-1,6,23,-9,-4,-4,-3,11.88
2377,-1,-1,-3,12,4,3,1,1,11.885
2378,-4,-3,-6,-16,-12,-4,-2,0,11.89
2379,-1,2,3,6,10,-1,-1,1,11.895
2380,-5,-2,-9,-23,-6,-4,0,-2,11.9
2381,-2,1,-3,-13,0,-2,2,0,11.905
2382,1,3,12,22,0,-1,0,1,11.91
2383,-2,-2,-1,-1,-6,-1,1,-3,11.915000000000001
2384,-5,-3,-1,12,4,-2,-3,-3,11.92
2385,0,1,3,8,1,0,1,0,11.925
2386,-1,-2,-6,-20,-17,-2,0,-1,11.93
2387,0,0,-3,8,18,6,3,0,11.935
2388,-1,-1,-5,-20,-10,-4,-3,-2,11.94
2389,0,1,0,2,4,1,-1,-2,11.945
2390,-3,1,-3,-8,-3,-1,-1,-1,11.950000000000001
2391,-1,-2,-4,-23,0,-1,0,2,11.955
2392,-2,-4,5,26,-13,-4,-4,-4,11.96
2393,-1,-2,-1,2,3,0,1,1,11.965
2394,0,-4,-1,8,-8,-3,-2,0,11.97
2395,0,2,0,11,6,1,1,-1,11.975
2396,-2,1,-5,-32,-12,-4,-1,-1,11.98
2397,1,-1,0,13,6,1,0,0,11.985
2398,-1,-1,-3,-8,-5,-1,-4,-1,11.99
2399,0,0,5,3,-2,-1,-2,-1,11.995000000000001
2400,-3,-3,-10,-44,-8,-4,-3,-2,12.0
2401,4,2,4,27,0,4,6,4,12.005
2402,-3,-4,5,24,4,-1,-1,-1,12.01
2403,0,3,7,29,-1,2,-1,0,12.015
2404,-3,-4,-1,-1,5,0,-3,-3,12.02
2405,-3,-3,-8,-27,-9,-6,-2,-3,12.025
2406,1,3,-4,-17,2,1,1,-2,12.030000000000001
2407,0,1,0,-4,-4,1,-1,0,12.035
2408,-2,-5,-9,-8,-11,-4,-1,-4,12.040000000000001
2409,-1,1,1,-3,3,-1,-1,-1,12.045
2410,1,-1,3,1,4,-1,-2,-1,12.05
2411,-2,-1,3,21,-1,-1,-1,-1,12.055
2412,0,-1,-5,-6,2,1,-2,0,12.06
2413,0,-3,1,4,-1,1,-1,-1,12.065
2414,1,1,0,-6,2,0,1,-1,12.07
2415,0,-2,-4,-5,-3,-4,0,1,12.075000000000001
2416,0,-1,-1,-3,1,-1,0,0,12.08
2417,1,1,-2,-2,-2,-1,0,-1,12.085
2418,-1,0,5,18,-3,-2,-3,-2,12.09
2419,-1,-2,-3,-4,-3,-1,0,-3,12.095
2420,-2,0,-6,-14,-8,-3,-1,-2,12.1
2421,-4,-2,5,23,14,0,-1,-1,12.105
2422,-2,-2,-6,-9,0,0,-1,-1,12.11
2423,0,0,1,-18,2,-1,-1,2,12.115
2424,-4,-2,-9,3,-5,-1,-5,-1,12.120000000000001
2425,1,3,5,5,-8,0,-3,-1,12.125
2426,-5,-4,-1,-3,2,-1,0,-1,12.13
2427,0,1,4,11,5,2,2,1,12.135
2428,0,-1,-3,-14,-1,-2,-1,0,12.14
2429,-4,-4,3,10,3,0,-1,0,12.145
2430,-1,0,-6,-15,-3,-1,1,0,12.15
2431,-3,-1,-1,2,-11,0,1,-3,12.155000000000001
2432,0,4,9,15,6,-1,2,-2,12.16
2433,-5,-3,-7,-6,-6,-2,-2,-3,12.165000000000001
2434,-2,-1,0,-6,2,1,0,-1,12.17
2435,-6,-5,-8,-22,-12,-2,-2,-1,12.175
2436,-1,0,5,23,12,-1,1,-2,12.18
2437,0,-1,-4,-4,-2,-1,1,-1,12.185
2438,5,2,-8,-20,-8,0,-1,-1,12.19
2439,5,0,4,18,4,-2,-1,-1,12.195
2440,0,-2,5,20,2,0,-3,-1,12.200000000000001
2441,2,0,0,-9,1,-1,1,0,12.205
2442,2,1,-1,1,3,1,1,-1,12.21
2443,0,-1,-6,-11,-3,-1,1,-3,12.215
2444,-6,-6,-6,-19,3,-2,-1,-2,12.22
2445,-1,0,10,20,-7,1,0,1,12.225
2446,1,-2,-1,7,1,-1,1,2,12.23
2447,0,-1,-5,-3,-3,0,0,0,12.235
2448,1,1,1,-3,6,1,-1,-1,12.24
2449,-1,1,-6,-17,-1,0,-2,0,12.245000000000001
2450,-2,-2,3,12,-6,0,-1,0,12.25
2451,-1,0,1,-8,-4,-2,-1,-2,12.255
2452,-4,-7,-8,-13,-9,-4,-3,-5,12.26
2453,-2,2,2,5,9,1,0,-2,12.265
2454,1,1,3,12,9,1,0,0,12.27
2455,-1,1,2,9,5,-1,-1,-2,12.275
2456,-3,-3,-7,-26,-11,-4,-2,-1,12.280000000000001
2457,2,-2,4,10,-1,-1,-2,1,12.285
2458,1,0,-3,-4,-2,-1,-1,0,12.290000000000001
2459,-2,0,-3,-12,3,1,0,1,12.295
2460,-1,1,-3,1,-3,-3,0,-1,12.3
2461,-2,-2,4,5,-6,-6,-3,-3,12.305
2462,-3,-1,-2,7,3,1,0,0,12.31
2463,-1,-4,-6,-7,0,-1,0,-2,12.315
2464,-2,-3,2,8,-1,-2,-2,-1,12.32
2465,-1,-3,-7,-20,-6,0,0,1,12.325000000000001
2466,1,7,6,-14,-5,-1,1,-1,12.33
2467,-3,-7,-10,-12,-12,-4,-2,-3,12.335
2468,-1,-3,5,25,15,2,2,-2,12.34
2469,2,-1,-6,-4,2,-1,0,-2,12.345
2470,1,0,5,20,1,-1,0,-1,12.35
2471,0,2,-2,-12,-4,-3,-2,0,12.355
2472,0,1,-2,-8,-9,-2,-3,-2,12.36
2473,-1,-1,-1,-4,-2,-2,0,-1,12.365
2474,0,-1,-5,-20,-5,-1,0,-4,12.370000000000001
2475,0,-2,0,4,4,1,-2,-2,12.375
2476,-3,-3,3,27,-7,-4,-4,-1,12.38
2477,-1,-1,-4,-15,-2,0,0,0,12.385
2478,-2,-4,-2,7,4,1,-1,2,12.39
2479,-2,-2,0,6,2,0,-1,0,12.395
2480,0,0,-10,-25,-9,-2,-2,-1,12.4
2481,-1,0,8,13,2,0,0,-2,12.405000000000001
2482,1,0,-7,-13,-3,0,1,1,12.41
2483,-1,-2,10,30,6,0,-1,-2,12.415000000000001
2484,-6,-4,-9,-14,-10,-5,-5,-4,12.42
2485,0,0,-5,-2,8,2,0,1,12.425
2486,0,-1,7,14,0,1,-3,-2,12.43
2487,0,0,-2,-15,-1,1,0,-2,12.435
2488,-1,0,1,-2,-5,-1,-1,-2,12.44
2489,0,1,1,-1,-1,1,0,0,12.445
2490,-3,-4,-8,-7,-4,-4,-1,0,12.450000000000001
2491,0,-3,-4,-4,-1,0,-1,1,12.455
2492,-2,-3,-1,-10,-7,-2,-2,-2,12.46
2493,0,0,-2,1,4,1,1,-2,12.465
2494,0,3,0,-13,6,2,1,0,12.47
2495,-3,-1,4,39,9,0,1,-2,12.475
2496,-2,0,1,-4,-3,-2,-1,-2,12.48
2497,-1,0,-6,-15,-7,0,2,1,12.485
2498,-2,0,2,-2,-4,0,-1,-1,12.49
2499,-2,-5,-8,-25,-5,-3,-3,0,12.495000000000001
2500,-1,0,9,25,3,-1,-2,1,12.5
2501,1,-2,-4,-2,-13,-2,-1,0,12.505
2502,0,0,2,2,9,3,0,2,12.51
2503,-1,0,-5,-21,2,-2,-3,-1,12.515
2504,-1,-1,7,15,-18,-2,-1,-1,12.52
2505,-2,-3,-6,-7,-5,-4,-2,-2,12.525
2506,-1,-1,-3,-3,-2,-1,1,-2,12.530000000000001
2507,0,1,1,-3,-3,-3,-2,-1,12.535
2508,2,-3,-6,-22,3,0,-1,0,12.540000000000001
2509,1,1,6,14,6,-1,0,-2,12.545
2510,1,1,-1,-2,-6,1,-1,-2,12.55
2511,-1,-4,-3,7,2,-1,-2,-1,12.555
2512,-3,0,-6,-9,3,-2,-1,-1,12.56
2513,-2,-3,1,-1,1,-1,-2,-2,12.565
2514,0,-3,-4,-2,0,-2,-2,-2,12.57
2515,0,1,-1,-5,-7,-3,-3,-2,12.575000000000001
2516,-1,-2,-3,8,1,-1,1,-2,12.58
2517,0,0,-1,-2,3,2,2,1,12.585
2518,-3,0,-1,-2,-11,-3,-2,0,12.59
2519,0,0,-4,-7,11,1,1,0,12.595
2520,-3,-2,2,21,6,-1,-2,-3,12.6
2521,-2,0,-2,-8,-4,-1,2,-1,12.605
2522,-1,0,2,20,7,1,1,1,12.61
2523,-1,-1,-6,-20,-19,-5,-2,0,12.615
2524,3,5,1,-4,15,2,1,0,12.620000000000001
2525,0,-3,-3,1,-1,-1,0,-1,12.625
2526,0,-2,-2,-1,7,1,1,0,12.63
2527,-2,-2,5,13,-4,-1,-2,-1,12.635
2528,-2,-2,-6,-21,-4,-2,-3,0,12.64
2529,2,0,3,10,0,0,-2,-1,12.645
2530,0,-1,1,-3,-4,-1,0,0,12.65
2531,-2,0,3,10,-1,-1,-3,-3,12.655000000000001
2532,-1,-4,-3,-11,-7,-2,0,-1,12.66
2533,1,-2,-4,-17,-1,0,1,0,12.665000000000001
2534,2,2,2,9,0,1,2,1,12.67
2535,-2,-2,-3,3,-3,-3,-3,-4,12.675
2536,-2,-2,-3,-5,-10,-6,-3,-4,12.68
2537,-1,3,2,12,19,4,0,-1,12.685
2538,2,0,-2,-17,-2,0,1,0,12.69
2539,-2,1,8,27,3,0,-2,-1,12.695
2540,-2,-2,-5,-10,-8,-2,1,-2,12.700000000000001
2541,0,-1,1,10,1,-1,0,1,12.705
2542,0,-3,2,5,-4,-2,0,0,12.71
2543,-3,-4,-9,-15,-2,-3,-1,-3,12.715
2544,0,1,3,3,3,1,-1,-2,12.72
2545,-2,-1,-5,-15,-17,-3,-2,0,12.725
2546,0,0,-1,-10,2,-1,-2,0,12.73
2547,-1,-3,-4,-14,-14,-2,-3,-2,12.735
2548,0,2,4,35,6,0,1,1,12.74
2549,-3,1,-4,-3,1,2,-1,-1,12.745000000000001
2550,0,3,1,-2,0,1,2,-2,12.75
2551,0,-1,0,-6,-5,-2,-3,-1,12.755
2552,-1,-3,-6,-22,-2,0,-2,-1,12.76
2553,0,-3,5,12,-2,0,-1,-2,12.765
2554,0,-2,-2,7,5,0,-2,0,12.77
2555,-1,-4,-5,0,-4,-1,1,3,12.775
2556,0,-1,-4,-18,6,2,-1,2,12.780000000000001
2557,1,-1,-2,-6,-2,-2,-2,-5,12.785
2558,0,-3,9,19,0,-1,0,-1,12.790000000000001
2559,-1,0,2,6,4,-1,0,-5,12.795
2560,-1,-2,-5,-2,-2,0,0,1,12.8
2561,-1,0,-8,-23,-6,-1,-1,1,12.805
2562,1,1,1,5,1,1,1,-3,12.81
2563,1,0,-1,-6,-1,-4,0,-2,12.815
2564,-2,-1,5,20,-1,-3,-1,-2,12.82
2565,-1,0,0,3,4,0,0,1,12.825000000000001
2566,0,2,-6,-14,-9,0,0,2,12.83
2567,-1,2,2,1,1,-1,0,1,12.835
2568,0,-1,0,-9,-5,-2,-3,-3,12.84
2569,-1,-2,-4,-8,-6,-3,1,-1,12.845
2570,2,3,3,14,26,6,1,3,12.85
2571,-2,-3,-7,-14,-3,-1,1,0,12.855
2572,-2,-3,1,11,-4,-5,-3,-3,12.86
2573,1,4,7,16,7,3,2,2,12.865
2574,0,-3,0,-5,-5,-2,-2,1,12.870000000000001
2575,-3,-2,-4,1,-4,-3,-4,-3,12.875
2576,-1,-3,-9,-16,-1,0,1,0,12.88
2577,1,0,3,4,2,-2,-2,1,12.885
2578,-1,1,-2,-6,-5,-2,1,0,12.89
2579,-2,-1,-1,2,2,0,0,1,12.895
2580,1,0,1,0,-3,1,0,-1,12.9
2581,1,-2,0,-4,-3,-1,0,2,12.905000000000001
2582,-1,-2,-4,-2,1,1,1,-1,12.91
2583,-1,-3,-1,-1,-2,-2,-4,-2,12.915000000000001
2584,0,1,1,2,1,0,-2,0,12.92
2585,-3,2,-2,-7,4,1,-1,1,12.925
2586,-3,0,-1,-11,-8,-2,-2,0,12.93
2587,-4,-2,-2,19,-4,-1,0,-1,12.935
2588,-2,-1,1,-4,4,-1,0,-1,12.94
2589,1,0,2,-7,-6,-3,-3,-2,12.945
2590,0,1,-2,0,-8,-1,1,-4,12.950000000000001
2591,-2,0,3,-1,-20,-5,0,-2,12.955
2592,0,-1,1,9,8,0,1,-1,12.96
2593,0,-1,-3,-10,5,2,1,1,12.965
2594,-1,-1,4,17,-5,-1,-1,-1,12.97
2595,0,-2,-6,-11,0,0,0,-1,12.975
2596,-1,-2,-3,-7,0,1,1,0,12.98
2597,-1,-1,0,4,-4,-2,0,-2,12.985
2598,1,-1,-1,-6,6,1,0,1,12.99
2599,-4,-4,0,-2,2,-2,-5,-4,12.995000000000001
2600,-4,-2,-1,-4,-2,-2,-4,-3,13.0
2601,-3,-4,1,5,7,1,-4,-5,13.005
2602,-11,-16,-4,-5,-5,-2,-2,-7,13.01
2603,-11,-8,-5,-16,0,-3,-4,-8,13.015
2604,-4,-10,1,-20,-29,-9,7,3,13.02
2605,16,36,14,58,19,11,8,5,13.025
2606,-14,10,2,-1,3,0,-8,-23,13.030000000000001
2607,-9,-28,-23,7,13,0,0,0,13.035
2608,24,-6,8,-4,23,-1,3,19,13.040000000000001
2609,7,41,2,-52,-25,-2,14,34,13.045
2610,-15,-19,10,43,-2,9,20,27,13.05
2611,36,-39,-23,-31,-54,-18,-12,-14,13.055
2612,0,102,28,52,60,6,4,-21,13.06
2613,-62,-93,-31,-54,-63,-41,-48,-51,13.065
2614,27,82,12,0,18,13,27,30,13.07
2615,-4,102,0,-73,7,15,2,-110,13.075000000000001
2616,-41,-106,-45,88,-28,15,-3,64,13.08
2617,40,113,-22,-12,1,-22,-9,78,13.085
2618,11,-17,29,-19,-28,-5,-23,38,13.09
2619,36,51,58,108,98,11,3,10,13.095
2620,-58,-45,-12,-102,-48,-24,-13,-128,13.1
2621,7,99,-14,5,87,41,28,86,13.105
2622,72,38,6,42,-13,14,17,95,13.11
2623,-3,-70,-50,21,35,5,3,13,13.115
2624,-34,46,-23,-64,-27,-8,10,-51,13.120000000000001
2625,-93,-118,14,-33,-38,-7,-25,-128,13.125
2626,6,101,-6,-29,-67,-20,9,-49,13.13
2627,-14,39,43,74,-43,-2,-46,88,13.135
2628,111,-36,-18,-23,10,24,37,38,13.14
2629,-14,-109,-26,94,46,-18,-18,19,13.145
2630,-53,40,-1,-84,10,-11,-13,-126,13.15
2631,-6,-24,-63,-103,-119,-60,51,116,13.155000000000001
2632,-3,-9,33,94,88,54,-4,-82,13.16
2633,-31,30,0,-87,-60,-20,8,-64,13.165000000000001
2634,-25,-58,-9,-2,-29,-12,29,-128,13.17
2635,-87,4,19,21,112,49,-13,-69,13.175
2636,49,7,-37,-123,-58,-30,-37,76,13.18
2637,56,-22,71,127,52,44,-4,-6,13.185
2638,-44,11,-37,-13,83,7,-41,10,13.19
2639,16,40,-5,-74,-80,-28,25,2,13.195
2640,66,81,25,61,-26,32,60,43,13.200000000000001
2641,7,-19,-7,-64,-56,-30,-13,21,13.205
2642,-25,-84,-16,-96,-27,-24,-44,-50,13.21
2643,29,58,85,127,97,45,9,7,13.215
2644,-69,-83,-6,8,43,-22,-39,-30,13.22
2645,17,66,-8,-64,-50,-12,0,-37,13.225
2646,-29,-58,-60,-77,18,-13,-7,-51,13.23
2647,21,27,-5,0,-3,9,23,55,13.235
2648,-23,30,25,79,34,25,-8,-66,13.24
2649,13,-60,-29,-66,-7,8,18,39,13.245000000000001
2650,70,62,44,109,97,38,43,127,13.25
2651,-16,45,-7,-108,61,-9,-17,-104,13.255
2652,21,10,39,116,-26,10,10,124,13.26
2653,85,86,54,50,41,5,-30,6,13.265
2654,-34,84,21,-76,-25,-26,-42,-78,13.27
2655,-26,-44,-26,-20,-75,-5,36,-17,13.275
2656,-3,-9,-37,9,84,12,14,30,13.280000000000001
2657,-72,-88,-35,-78,-76,-10,2,-120,13.285
2658,31,-61,36,70,-75,1,27,127,13.290000000000001
2659,-8,-18,-38,3,-98,-47,-35,-125,13.295
2660,-7,40,18,-65,27,4,7,54,13.3
2661,35,51,40,120,71,41,14,29,13.305
2662,50,-63,-32,-66,-41,-18,37,75,13.31
2663,10,-29,46,83,97,38,-35,33,13.315
2664,-27,-5,-47,-72,-79,-35,7,-84,13.32
2665,14,16,-22,-40,57,7,5,-20,13.325000000000001
2666,-60,-107,-13,-25,31,-19,-38,29,13.33
2667,15,41,13,-29,-78,-1,1,24,13.335
2668,-26,24,-10,47,-26,-32,-36,-113,13.34
2669,17,7,17,35,22,31,74,118,13.345
2670,8,42,-12,-53,-24,-15,-32,-57,13.35
2671,-16,-128,4,93,86,44,62,42,13.355
2672,4,81,28,-24,-64,-7,-12,9,13.36
2673,-46,-20,-46,5,-25,-21,-51,-92,13.365
2674,-39,-29,3,18,14,11,9,-61,13.370000000000001
2675,-16,-33,-40,-119,-46,-37,-57,46,13.375
2676,21,16,-8,-69,5,6,18,-18,13.38
2677,40,30,42,32,29,3,27,127,13.385
2678,8,10,-35,52,44,26,40,-66,13.39
2679,7,69,33,11,8,-1,-55,-119,13.395
2680,-6,-47,-20,-80,-50,-45,1,-37,13.4
2681,-8,-67,-6,-93,36,-7,-36,107,13.405000000000001
2682,-25,38,23,79,-42,10,10,-111,13.41
2683,8,-72,-21,39,4,-6,21,70,13.415000000000001
2684,13,-2,39,-55,125,23,-10,95,13.42
2685,40,30,61,95,55,64,48,-28,13.425
2686,-30,21,-36,-75,-15,-16,-14,-3,13.43
2687,4,-52,-25,-128,-47,-7,3,-55,13.435
2688,10,-2,19,-6,-12,-16,-41,18,13.44
2689,-69,-76,-82,-43,-37,-32,-9,-98,13.445
2690,12,21,41,82,77,37,57,123,13.450000000000001
2691,45,-62,-43,-83,-96,-34,-36,84,13.455
2692,79,16,26,72,79,31,13,127,13.46
2693,8,45,-15,-5,-38,-9,8,-46,13.465
2694,-70,-128,-16,-84,-41,-32,-9,-113,13.47
2695,-2,114,12,59,84,12,-22,-50,13.475
2696,-24,39,22,20,-93,-23,-4,-37,13.48
2697,-4,-4,-60,-23,-39,-36,-32,-63,13.485
2698,-13,44,29,102,91,44,1,26,13.49
2699,35,71,-2,-9,-5,23,54,17,13.495000000000001
2700,-15,-70,22,-9,-47,-13,-7,-30,13.5
2701,-23,9,29,98,-3,19,25,-78,13.505
2702,-33,-9,-23,-83,-58,-26,-37,-81,13.51
2703,4,11,15,14,29,-4,-25,-21,13.515
2704,64,-20,-32,28,67,3,-44,41,13.52
2705,-70,6,-32,-113,-115,-68,-61,-93,13.525
2706,46,1,11,111,1,48,94,127,13.530000000000001
2707,5,51,38,40,-70,-13,-58,-74,13.535
2708,-44,-69,-36,-35,4,-33,-39,89,13.540000000000001
2709,56,106,60,82,51,17,-9,68,13.545
2710,-57,0,-49,-108,-50,-41,-79,-112,13.55
2711,7,-41,16,88,-46,19,72,41,13.555
2712,-4,-22,29,87,84,33,35,36,13.56
2713,-1,67,-28,-111,-48,-17,-17,-60,13.565
2714,17,-33,3,-42,-65,-27,34,-30,13.57
2715,-17,-29,-20,64,107,2,6,76,13.575000000000001
2716,7,-11,27,-61,-14,19,36,-128,13.58
2717,-13,-62,16,82,73,37,27,-27,13.585
2718,-14,60,-26,-87,-96,-39,-1,17,13.59
2719,-4,93,-3,19,88,-13,-86,70,13.595
2720,-27,1,-34,3,-38,0,42,-49,13.6
2721,49,66,25,-75,-19,11,6,-21,13.605
2722,17,-67,3,-40,27,-7,-51,80,13.61
2723,-31,-1,-22,-27,-25,-18,-20,-82,13.615
2724,20,97,-6,-14,-14,-5,-4,-10,13.620000000000001
2725,-30,-57,2,-9,9,-12,9,24,13.625
2726,33,16,21,-47,10,15,66,-78,13.63
2727,4,-101,-35,5,55,17,-44,115,13.635
2728,-34,-39,23,-17,9,-1,-32,-121,13.64
2729,-68,37,-32,-35,-109,-47,-3,-68,13.645
2730,70,32,39,127,42,25,-20,70,13.65
2731,-16,-118,3,-46,-29,-7,47,-29,13.655000000000001
2732,-46,14,-48,-85,-86,-22,2,-92,13.66
2733,41,22,15,103,50,18,-1,40,13.665000000000001
2734,-13,-28,14,32,24,17,19,-18,13.67
2735,-18,33,13,-54,-73,-33,-36,-126,13.675
2736,55,83,-8,45,33,21,85,127,13.68
2737,28,-128,18,-11,-19,-13,-88,91,13.685
2738,-1,12,-68,-19,-36,-22,-37,-126,13.69
2739,4,-39,-26,-13,-59,-2,50,106,13.695
2740,-68,-115,-32,-125,22,-26,-56,-128,13.700000000000001
2741,-8,48,60,89,66,50,72,78,13.705
2742,105,127,37,8,-63,2,7,98,13.71
2743,-27,12,-15,-102,9,-27,8,-128,13.715
2744,23,22,24,75,-33,31,27,76,13.72
2745,-18,-56,-13,-15,-14,6,21,-11,13.725
2746,0,47,28,86,13,-5,-39,8,13.73
2747,-17,-12,-23,-63,-5,6,27,-48,13.735
2748,-40,-75,34,69,18,6,4,-110,13.74
2749,-19,39,-78,-93,-42,-11,-5,46,13.745000000000001
2750,49,7,14,44,29,8,8,60,13.75
2751,-46,46,5,-36,-29,-13,-14,-109,13.755
2752,-21,-77,-31,38,41,21,-25,35,13.76
2753,8,-49,-4,-63,-21,-19,23,-41,13.765
2754,46,59,0,-25,57,15,-1,84,13.77
2755,41,84,23,84,90,25,3,123,13.775
2756,-33,83,5,-128,-106,-60,-33,-67,13.780000000000001
2757,-34,-43,14,123,127,69,27,-90,13.785
2758,-14,62,-1,-70,44,-1,-22,4,13.790000000000001
2759,13,-47,-34,-60,-89,-37,6,24,13.795
2760,39,21,58,127,46,52,39,97,13.8
2761,-23,20,-4,-128,-41,-33,-13,-94,13.805
2762,-29,-113,-46,111,0,6,-14,-45,13.81
2763,-2,-7,12,-13,7,-2,0,-13,13.815
2764,0,-19,-32,-42,-31,-26,-2,-26,13.82
2765,11,-19,7,37,5,-8,-36,12,13.825000000000001
2766,-28,-44,31,-7,19,13,15,-8,13.83
2767,-10,-14,-8,-38,-42,-13,-3,-40,13.835
2768,0,-42,-69,3,-9,1,-10,-17,13.84
2769,58,80,35,-23,46,8,-13,59,13.845
2770,-26,-60,-35,-58,-128,-67,-2,3,13.85
2771,55,-58,-5,119,35,39,43,90,13.855
2772,-22,-30,21,-75,4,-20,-53,-47,13.86
2773,8,44,10,4,62,40,23,-28,13.865
2774,10,-36,41,68,-26,16,-9,-25,13.870000000000001
2775,-73,-23,-18,-46,-91,-46,-3,-64,13.875
2776,-42,20,-45,39,73,30,40,-72,13.88
2777,59,83,38,-37,41,-10,-23,96,13.885
2778,-25,-63,-59,-87,4,11,18,-28,13.89
2779,44,31,67,10,23,9,-10,72,13.895
2780,9,7,-1,-24,-21,-4,-13,-45,13.9
2781,-44,-75,-40,-38,-76,-47,43,51,13.905000000000001
2782,79,123,55,31,77,31,-49,65,13.91
2783,-40,-60,-11,23,23,7,-8,-46,13.915000000000001
2784,-51,54,-10,-59,-44,-50,-76,-44,13.92
2785,-15,-3,10,20,-22,14,49,27,13.925
2786,43,-128,-53,17,1,5,29,51,13.93
2787,-6,20,18,12,18,11,6,-46,13.935
2788,36,22,16,14,-69,-12,3,-13,13.94
2789,-39,-27,-13,-4,38,12,-15,-88,13.945
2790,-40,22,1,-121,7,-11,-18,-52,13.950000000000001
2791,-32,-30,39,42,-82,-37,-4,-93,13.955
2792,115,70,35,38,68,42,29,127,13.96
2793,-43,-82,-80,-88,-78,-26,-27,-41,13.965
2794,-7,18,0,-31,-11,-7,30,75,13.97
2795,37,27,-16,-83,6,2,-16,-20,13.975
2796,-29,-68,35,27,3,9,16,6,13.98
2797,26,-10,10,62,-20,-2,10,14,13.985
2798,-36,-31,-9,9,10,-16,-39,-95,13.99
2799,-12,16,-27,-17,14,13,-6,24,13.995000000000001
2800,27,37,17,14,12,6,27,55,14.0
2801,23,25,39,104,40,17,-16,1,14.005
2802,-60,-41,-26,-68,-7,-11,14,-97,14.01
2803,-37,8,-3,-37,-76,-20,7,-34,14.015
2804,75,15,27,90,93,39,5,122,14.02
2805,2,-40,-50,-47,-17,-20,-10,-3,14.025
2806,5,-15,24,34,8,-1,-8,-20,14.030000000000001
2807,-11,68,2,-6,16,10,0,-28,14.035
2808,-39,-43,-49,-122,-50,-21,3,-10,14.040000000000001
2809,8,15,61,42,-4,8,10,-9,14.045
2810,10,33,20,58,9,-4,-13,8,14.05
2811,10,-5,-9,-51,23,13,-16,1,14.055
2812,-35,-17,-7,-38,-35,-9,19,-50,14.06
2813,19,25,-28,-16,6,15,5,30,14.065
2814,11,19,7,43,-5,-5,-13,0,14.07
2815,5,-21,18,24,28,2,-1,6,14.075000000000001
2816,6,41,-6,-74,-4,1,22,18,14.08
2817,-19,-49,20,22,27,-12,-32,-56,14.085
2818,16,66,13,67,72,17,7,-2,14.09
2819,-32,-15,-9,16,3,8,9,-85,14.095
2820,37,-15,-18,-40,-46,-15,1,108,14.1
2821,16,-16,-18,24,61,-2,-11,-47,14.105
2822,-29,-1,8,-9,-33,-7,-5,-49,14.11
2823,13,-7,-10,-6,37,9,-8,2,14.115
2824,-35,23,8,-105,-12,-18,-9,-71,14.120000000000001
2825,-49,-48,47,81,-7,19,23,-33,14.125
2826,46,-21,-38,-78,-78,-14,-18,80,14.13
2827,-26,-94,-59,-79,40,5,-19,-91,14.135
2828,-30,-11,55,113,-24,12,42,-64,14.14
2829,92,110,-7,-9,20,31,33,127,14.145
2830,60,14,6,-79,11,-4,-27,67,14.15
2831,27,0,30,52,-1,8,-1,-13,14.155000000000001
2832,-20,-64,-68,-70,-55,-30,-41,-108,14.16
2833,-39,-14,4,-45,-25,-19,-16,-126,14.165000000000001
2834,-43,-9,24,54,1,9,24,-65,14.17
2835,29,13,13,59,-15,-25,-22,42,14.175
2836,-14,7,-62,7,29,6,-10,-1,14.18
2837,3,-4,26,72,-15,-4,56,51,14.185
2838,58,-8,27,-16,-22,21,-20,38,14.19
2839,-81,15,-18,-69,-3,-14,18,-27,14.195
2840,111,12,-62,-24,-23,-41,-114,-8,14.200000000000001
2841,57,34,73,5,27,56,77,60,14.205
2842,-124,-56,-105,-117,-61,31,77,-25,14.21
2843,59,54,-9,127,47,40,29,49,14.215
2844,-95,-13,84,-34,5,-1,-18,0,14.22
2845,29,-14,-107,-48,-28,-56,-55,5,14.225
2846,92,83,78,109,7,-33,-15,9,14.23
2847,33,-21,13,-38,-4,-8,-52,49,14.235
2848,40,-1,5,-59,12,25,40,-23,14.24
2849,2,6,-18,-82,-20,-9,-25,-17,14.245000000000001
2850,-40,-1,35,63,21,-12,-12,-35,14.25
2851,73,11,-94,-128,-20,-9,17,63,14.255
2852,-105,-22,-77,17,21,22,46,27,14.26
2853,28,6,114,54,0,11,-1,-32,14.265
2854,-7,-42,-128,-100,-20,-26,-25,-16,14.27
2855,-64,18,49,-31,-8,-7,0,-57,14.275
2856,75,35,66,127,57,27,24,14,14.280000000000001
2857,-128,-52,-104,-128,-88,-21,-14,-27,14.285
2858,18,6,71,127,32,-20,-48,-52,14.290000000000001
2859,53,29,19,-52,-36,21,32,81,14.295
2860,-51,-24,25,62,4,-2,-4,-29,14.3
2861,-4,14,-31,14,-12,-15,-25,-29,14.305
2862,1,-14,3,5,38,10,-21,-6,14.31
2863,-34,-14,-17,-31,-42,-8,9,1,14.315
2864,10,26,54,103,38,5,13,13,14.32
2865,-4,-30,-68,-97,-17,-17,-26,-1,14.325000000000001
2866,-37,-5,41,59,14,11,14,-14,14.33
2867,-3,3,21,7,12,4,13,1,14.335
2868,14,3,-40,-128,-42,-11,-5,9,14.34
2869,17,13,74,127,54,9,-28,11,14.345
2870,-27,-22,-111,-128,-24,-12,3,-10,14.35
2871,2,-4,36,41,29,6,8,-6,14.355
2872,11,1,1,-25,-16,-10,-9,15,14.36
2873,-6,4,-1,-60,-50,-1,11,7,14.365
2874,-15,5,1,-29,6,11,18,-9,14.370000000000001
2875,-1,-3,27,69,11,5,0,0,14.375
2876,-3,2,-4,15,3,0,-7,2,14.38
2877,1,7,-26,-12,-4,-4,0,3,14.385
2878,-5,8,31,46,10,5,10,-2,14.39
2879,1,0,-8,-11,-11,-5,-6,3,14.395
2880,9,9,8,35,8,-2,6,8,14.4
2881,4,5,-1,-29,-14,-10,-3,0,14.405000000000001
2882,-5,-6,-2,-19,-11,-8,-1,-2,14.41
2883,-6,-5,-10,-8,12,0,1,0,14.415000000000001
2884,1,8,10,6,1,-2,0,0,14.42
2885,4,-2,10,27,0,-2,-2,1,14.425
2886,-7,2,-6,-25,-1,5,4,-4,14.43
2887,-8,-2,-2,-29,-6,-1,-2,-7,14.435
2888,2,-1,-2,7,-11,0,-6,6,14.44
2889,5,5,-8,-15,-1,3,-1,3,14.445
2890,0,7,32,59,26,11,8,3,14.450000000000001
2891,-8,-11,-37,-11,-21,-6,-8,-8,14.455
2892,3,1,8,-11,-6,-5,-5,0,14.46
2893,-4,-3,-20,-31,-39,-9,1,0,14.465
2894,-5,-6,-3,-5,14,6,3,-3,14.47
2895,-2,-1,8,-10,-8,-2,-4,-1,14.475
2896,-2,-4,2,37,7,-1,-4,-1,14.48
2897,3,-2,-4,-20,-7,0,2,2,14.485
2898,3,2,3,-12,-7,1,3,2,14.49
2899,-1,-1,5,12,7,-4,-4,-2,14.495000000000001
2900,0,-4,-18,-55,-15,-4,0,1,14.5
2901,9,10,32,82,37,9,7,6,14.505
2902,-2,0,-3,-21,-12,-3,0,-2,14.51
2903,-1,-2,-1,0,-1,-3,-3,-1,14.515
2904,2,4,15,3,18,5,1,-2,14.52
2905,-2,-5,-8,4,7,5,-1,-2,14.525
2906,0,4,7,14,11,2,0,-2,14.530000000000001
2907,-2,-1,-9,-22,-15,-3,-1,0,14.535
2908,-1,5,18,25,-4,1,0,-3,14.540000000000001
2909,1,3,0,2,1,2,1,1,14.545
2910,-2,3,-7,-49,-22,-3,-1,-4,14.55
2911,-6,-8,-10,25,-1,-3,0,-3,14.555
2912,-1,-1,6,5,11,-1,-4,-3,14.56
2913,2,2,-5,-5,15,6,2,2,14.565
2914,0,0,-8,-21,-6,-3,-2,0,14.57
2915,0,1,8,-1,3,0,0,-2,14.575000000000001
2916,-2,-3,-11,-3,-5,-4,-1,-3,14.58
2917,2,-1,2,-1,3,-2,0,-1,14.585
2918,-1,2,9,6,-4,-2,-2,-2,14.59
2919,2,3,4,9,11,3,2,2,14.595
2920,-7,-14,-23,-7,-9,-5,-5,-3,14.6
2921,1,3,0,-6,2,1,0,2,14.605
2922,-2,-4,-4,-3,-9,-4,-3,-3,14.61
2923,0,-1,1,-8,3,2,1,0,14.615
2924,1,6,0,-15,-2,1,3,3,14.620000000000001
2925,1,1,7,20,4,1,-1,-1,14.625
2926,-2,-4,-5,-15,-15,-3,-3,-4,14.63
2927,0,0,4,-10,8,-1,-2,-1,14.635
2928,1,3,15,44,10,6,3,0,14.64
2929,-1,-3,0,17,19,4,2,-3,14.645
2930,-2,-1,7,2,-6,0,0,-2,14.65
2931,-3,-2,-3,15,1,-3,-2,-3,14.655000000000001
2932,1,3,-5,-30,-11,-2,-2,0,14.66
2933,1,3,-2,-12,-4,0,0,1,14.665000000000001
2934,-2,-1,-6,1,3,-2,-1,-2,14.67
2935,0,0,2,-21,-7,-2,-1,-1,14.675
2936,-1,-4,-5,5,-28,-6,-1,-1,14.68
2937,4,5,3,-8,24,6,2,3,14.685
2938,-9,-11,-6,20,-4,-6,-6,-5,14.69
2939,0,1,6,8,1,-1,-1,0,14.695
2940,-1,2,4,1,-5,0,-1,1,14.700000000000001
2941,0,-2,-5,-14,-9,-1,-2,0,14.705
2942,0,1,1,-7,-2,-2,-1,2,14.71
2943,-1,-1,2,6,2,1,-1,-1,14.715
2944,0,-2,-4,-10,7,1,-1,-1,14.72
2945,1,3,7,5,-4,-1,-2,-1,14.725
2946,-4,-6,-8,-6,6,-1,1,-2,14.73
2947,-1,1,3,1,-10,-2,-3,0,14.735
2948,0,0,-12,-16,9,1,1,1,14.74
2949,-1,-1,15,38,1,-2,-4,-3,14.745000000000001
2950,-2,-3,-10,-4,-10,-5,-3,-3,14.75
2951,0,3,4,10,7,2,0,-1,14.755
2952,1,-1,-3,-16,-2,-1,0,-1,14.76
2953,0,3,-4,-17,-5,-2,2,0,14.765
2954,-2,0,1,-1,3,0,-5,0,14.77
2955,-2,-4,-4,3,-6,-1,1,-3,14.775
2956,2,2,2,-3,6,1,-1,0,14.780000000000001
2957,-2,-1,1,-9,-6,-4,0,-2,14.785
2958,-3,-3,-16,-40,-10,-1,2,0,14.790000000000001
2959,0,3,25,80,25,5,1,1,14.795
2960,-1,-2,-1,7,1,-1,1,-2,14.8
2961,-1,-2,-2,-3,-3,0,1,0,14.805
2962,1,2,7,6,-4,-2,-3,-3,14.81
2963,1,0,-13,-31,-6,0,0,0,14.815
2964,-1,-1,1,1,3,0,-1,-1,14.82
2965,-2,-1,-1,2,-3,-2,-2,0,14.825000000000001
2966,1,1,-3,-11,0,-1,-1,-2,14.83
2967,-1,-1,-2,-4,-3,-2,0,1,14.835
2968,-1,-3,1,8,-1,-1,-2,-1,14.84
2969,-3,-9,-26,-63,-14,-1,0,0,14.845
2970,5,7,27,93,26,9,6,4,14.85
2971,-4,-9,-7,1,-4,-4,-4,-2,14.855
2972,-1,0,1,14,7,0,-1,1,14.86
2973,-1,0,-1,0,4,-2,-1,-1,14.865
2974,0,-1,-9,-33,-13,-3,-1,-2,14.870000000000001
2975,3,3,-1,-14,-4,1,1,1,14.875
2976,-1,-1,-1,-10,-3,0,0,-1,14.88
2977,0,1,1,6,-5,1,-1,-1,14.885
2978,-1,-1,-2,-6,-1,-5,-4,-3,14.89
2979,1,0,0,1,-2,-1,-3,-1,14.895
2980,0,-1,-3,-10,-4,-2,0,-1,14.9
2981,0,-1,5,18,7,0,1,-2,14.905000000000001
2982,-5,-4,-6,-7,-8,-6,-3,-1,14.91
2983,-2,0,-2,-9,0,-1,0,-2,14.915000000000001
2984,1,0,-4,-6,3,2,1,-2,14.92
2985,0,-2,4,28,2,0,0,0,14.925
2986,-3,0,6,-4,1,-3,-6,-2,14.93
2987,-2,-3,-4,4,-8,-2,0,0,14.935
2988,0,0,0,-4,-1,1,-1,0,14.94
2989,0,-1,-1,8,4,1,0,0,14.945
2990,-2,-4,-6,-16,-5,-2,-3,-2,14.950000000000001
2991,0,4,3,-2,1,0,0,2,14.955
2992,-1,-1,1,-1,-1,0,0,1,14.96
2993,0,1,1,-8,-6,-2,-3,0,14.965
2994,0,-4,-17,-43,-6,-1,-1,-2,14.97
2995,-3,-7,16,48,0,-3,-3,-1,14.975
2996,2,1,-1,25,21,5,4,2,14.98
2997,-1,1,5,13,0,-2,-3,0,14.985
2998,-4,-2,-9,-26,-12,-5,-3,-2,14.99
2999,1,2,-4,-20,18,5,2,0,14.995000000000001
3000,-2,1,1,-9,-8,-2,-3,-2,15.0
3001,1,-1,2,-13,0,0,-2,-1,15.005
3002,-2,-4,-5,15,-7,-1,-2,-3,15.01
3003,-1,2,-3,-6,-12,-6,-3,-1,15.015
3004,-2,-3,5,15,15,5,1,2,15.02
3005,-2,0,-10,-20,-1,1,-1,-1,15.025
3006,-4,-6,0,0,-8,-4,-4,-4,15.030000000000001
3007,1,-2,-6,-13,-4,1,-1,-1,15.035
3008,0,0,0,0,-6,-2,-2,-1,15.040000000000001
3009,0,0,4,1,-3,-2,-2,0,15.045
3010,-3,-2,3,7,4,-1,-1,-2,15.05
3011,0,-1,-4,-6,2,-1,2,-1,15.055
3012,1,2,6,-4,-5,1,1,0,15.06
3013,-4,-3,6,25,-1,-2,-2,-3,15.065
3014,-1,-2,2,19,11,2,0,-1,15.07
3015,1,4,0,-5,-5,1,-2,-2,15.075000000000001
3016,-2,-4,-15,-19,10,-2,0,-3,15.08
3017,-4,-3,-5,6,-4,-1,0,0,15.085
3018,-2,1,3,7,3,-1,1,0,15.09
3019,0,-1,-2,-10,-3,-2,0,-1,15.095
3020,-1,0,2,-8,-9,-3,-4,0,15.1
3021,-1,0,-7,-11,-5,-2,0,0,15.105
3022,-3,-2,5,19,3,-4,-3,-3,15.11
3023,-2,-1,0,0,6,1,1,2,15.115
3024,-1,-2,-2,1,-9,-2,-2,0,15.120000000000001
3025,0,-2,0,-1,8,1,-1,1,15.125
3026,-1,0,-9,-13,-8,-2,-2,0,15.13
3027,0,1,3,3,-5,-2,0,-1,15.135
3028,-1,-1,2,6,6,2,1,0,15.14
3029,0,0,-2,-5,-4,-2,-1,-1,15.145
3030,0,-1,-6,-34,-10,-3,-3,0,15.15
3031,1,-2,9,44,9,3,-2,-2,15.155000000000001
3032,-1,-4,-13,-18,-13,-4,-2,0,15.16
3033,0,1,6,20,-6,1,0,0,15.165000000000001
3034,-4,0,0,-25,-13,-7,-3,-5,15.17
3035,1,2,0,8,-10,2,2,1,15.175
3036,3,3,11,15,10,3,2,0,15.18
3037,-3,-4,-1,4,0,-4,-2,-3,15.185
3038,0,-2,-5,-3,7,0,-1,-2,15.19
3039,-1,-1,-4,-24,-3,-1,-2,-1,15.195
3040,0,1,6,12,-2,-2,-1,1,15.200000000000001
3041,-2,-1,-5,-21,-1,-1,-1,-3,15.205
3042,0,0,6,38,8,1,0,-1,15.21
3043,0,-3,-15,-35,-8,-4,-2,0,15.215
3044,0,1,6,21,0,1,-1,-1,15.22
3045,-4,-3,-4,-16,-5,-5,-3,-1,15.225
3046,-2,-2,-2,-1,-1,-1,0,0,15.23
3047,0,4,3,3,7,1,2,2,15.235
3048,0,-4,-7,-9,-9,-4,-2,0,15.24
3049,-1,1,1,-5,-1,-1,-2,-2,15.245000000000001
3050,-2,1,-6,-23,-3,1,0,-1,15.25
3051,-1,1,6,29,-3,0,1,0,15.255
3052,-4,-2,1,-1,1,-1,-2,-2,15.26
3053,0,0,3,8,-5,-1,1,1,15.265
3054,1,-3,-2,3,6,0,-1,0,15.27
3055,-1,-1,-1,-11,2,-1,-1,-1,15.275
3056,2,-1,-3,-9,-5,0,-1,0,15.280000000000001
3057,0,1,-1,1,6,0,0,-2,15.285
3058,-2,-3,-2,1,-8,-1,-3,-2,15.290000000000001
3059,-1,-5,-12,-49,-23,-4,0,0,15.295
3060,2,1,14,79,55,13,4,2,15.3
3061,-3,-1,3,7,-1,-1,-3,-1,15.305
3062,-2,-4,-3,-5,0,-2,0,-1,15.31
3063,-1,1,3,5,-2,-1,-1,0,15.315
3064,1,0,-5,-27,-21,-3,-1,-1,15.32
3065,0,-2,-3,-9,2,0,-1,-1,15.325000000000001
3066,-1,1,0,7,3,0,-2,-2,15.33
3067,0,1,0,1,5,2,-1,0,15.335
3068,1,0,-2,-22,-9,-1,2,0,15.34
3069,-4,-5,-9,5,-3,-4,-1,-2,15.345
3070,0,0,-5,-21,-7,-4,0,-1,15.35
3071,1,-2,4,16,11,1,0,-1,15.355
3072,-4,-1,4,14,-4,-3,-3,-2,15.36
3073,1,0,-3,-13,-6,-2,-3,-2,15.365
3074,-1,1,-2,7,-1,-1,-1,0,15.370000000000001
3075,0,2,-4,-15,4,1,0,-1,15.375
3076,-1,-1,-2,-9,-3,-1,-1,0,15.38
3077,-2,0,3,3,-1,-1,-1,-3,15.385
3078,0,0,-2,-6,-3,0,1,0,15.39
3079,-5,-8,-12,-15,-1,-2,-1,-3,15.395
3080,2,4,9,2,4,2,3,1,15.4
3081,-2,-5,0,29,2,0,-2,-2,15.405000000000001
3082,1,3,13,27,6,2,-1,0,15.41
3083,2,2,1,0,-5,-1,-2,1,15.415000000000001
3084,-2,1,-11,-32,-10,-3,-1,0,15.42
3085,-1,0,-2,-17,-1,-2,0,1,15.425
3086,-1,-2,1,5,0,-2,-3,-1,15.43
3087,1,0,1,3,3,1,-1,-1,15.435
3088,1,0,-3,-5,-3,-2,-3,0,15.44
3089,0,-1,1,-1,-2,0,-3,-2,15.445
3090,-1,-2,-4,-5,-7,-2,0,-3,15.450000000000001
3091,-3,-3,-3,5,3,-1,1,0,15.455
3092,2,1,-10,-30,0,2,3,0,15.46
3093,-2,0,18,56,3,-2,-4,-2,15.465
3094,-1,-5,-5,-4,1,-2,-1,-2,15.47
3095,1,3,3,3,1,-1,-3,-1,15.475
3096,0,0,-5,-7,-5,1,1,0,15.48
3097,-1,-2,-7,-27,-3,0,1,-1,15.485000000000001
3098,-4,-3,-2,-7,-9,-3,-3,-3,15.49
3099,-1,-2,1,19,17,2,2,-1,15.495000000000001
3100,-1,-2,-3,2,-6,0,0,-2,15.5
3101,-1,2,-11,-63,-4,-2,-3,-3,15.505
3102,-4,-5,18,63,-20,-5,-3,0,15.51
3103,-1,-1,1,28,21,4,0,1,15.515
3104,-1,1,4,10,-2,-1,-1,0,15.52
3105,-2,-2,-4,-12,-2,-3,-2,-2,15.525
3106,0,-3,-15,-42,-5,-3,-3,-1,15.530000000000001
3107,2,2,3,-9,-9,-1,-1,0,15.535
3108,-2,-1,3,10,5,0,0,-1,15.540000000000001
3109,-2,-1,-3,-3,-6,-3,-2,-2,15.545
3110,0,1,1,-7,7,3,1,0,15.55
3111,-1,1,3,7,-2,-1,0,-2,15.555
3112,-1,-1,-4,-1,4,0,0,0,15.56
3113,-2,-1,-2,1,-4,-3,-2,1,15.565
3114,1,0,-7,-27,-6,-2,-2,0,15.57
3115,1,-1,8,24,13,4,2,0,15.575000000000001
3116,0,0,4,12,-3,-2,-2,-3,15.58
3117,-1,-1,4,11,0,-1,-1,-3,15.585
3118,-1,-4,-5,3,3,0,-2,-3,15.59
3119,1,0,-8,-30,-12,-4,0,0,15.595
3120,1,0,2,-6,1,0,0,1,15.6
3121,-1,-3,-2,2,-1,-1,-2,-1,15.605
3122,0,2,-1,-6,6,1,1,-1,15.610000000000001
3123,-2,-2,-1,-5,-6,-1,0,2,15.615
3124,0,-1,-1,5,1,0,2,-1,15.620000000000001
3125,-1,0,-5,-1,0,-4,-3,0,15.625
3126,0,3,1,3,-1,0,1,1,15.63
3127,-1,-1,-1,-2,2,0,-1,0,15.635
3128,-1,0,3,3,-2,3,2,1,15.64
3129,-1,-2,-7,-12,-6,-2,0,-4,15.645
3130,1,2,21,51,16,3,2,0,15.65
3131,-3,-5,-9,-15,-12,-3,-2,-1,15.655000000000001
3132,1,1,0,1,6,0,0,-1,15.66
3133,-2,-1,1,2,-4,-1,-2,-1,15.665000000000001
3134,0,0,-7,-20,-2,1,0,-2,15.67
3135,1,1,1,-4,-5,1,0,-1,15.675
3136,-1,-2,0,3,-2,1,1,1,15.68
3137,-1,-4,-5,-7,-1,-1,-3,-1,15.685
3138,0,0,1,3,1,-2,1,0,15.69
3139,0,-1,-1,2,0,-2,-1,1,15.695
3140,1,-1,-3,-7,-2,-1,-1,2,15.700000000000001
3141,-3,-2,-3,4,-3,-2,-1,-2,15.705
3142,0,0,-3,0,-4,2,1,0,15.71
3143,2,3,3,-10,0,0,-1,-1,15.715
3144,-2,-3,-7,-5,1,0,0,-2,15.72
3145,-1,-1,8,27,-2,-4,-2,-2,15.725
3146,-2,-3,-2,-5,0,0,-1,1,15.73
3147,-2,2,-3,-5,-1,0,1,0,15.735000000000001
3148,0,1,7,6,-1,1,0,0,15.74
3149,-1,-2,-2,-6,-1,-2,0,-1,15.745000000000001
3150,0,0,-2,-13,-6,-3,-2,-2,15.75
3151,1,-1,5,14,19,5,0,0,15.755
3152,0,-1,-8,-5,0,-2,-1,0,15.76
3153,-3,-5,-9,-27,-1,-3,-1,-2,15.765
3154,1,3,10,33,4,2,1,2,15.77
3155,-1,0,-1,-1,-9,-3,-1,-1,15.775
3156,1,1,3,7,1,0,1,0,15.780000000000001
3157,-4,-3,-2,5,0,-2,-2,-2,15.785
3158,-1,0,-6,-19,-2,-2,-1,-2,15.790000000000001
3159,0,-1,0,-4,-3,0,0,-2,15.795
3160,1,3,3,-9,-2,-1,-2,-1,15.8
3161,1,-1,-6,4,0,0,-2,0,15.805
3162,1,-2,2,3,6,0,0,-1,15.81
3163,1,-2,-1,-4,-3,-4,-1,0,15.815
3164,1,0,7,13,3,0,-1,-1,15.82
3165,-4,-3,-3,-8,-6,-3,-2,-3,15.825000000000001
3166,-2,-3,-1,-5,-3,-2,0,0,15.83
3167,0,2,-2,-4,-1,-3,-1,0,15.835
3168,0,1,1,-3,-5,-1,0,-1,15.84
3169,-2,-1,-2,7,-6,-2,-2,-1,15.845
3170,1,-1,-2,12,19,3,1,0,15.85
3171,-1,-4,-3,-5,-5,0,-1,-3,15.855
3172,0,-1,-2,-4,0,1,1,0,15.860000000000001
3173,-1,1,3,0,0,-1,0,-1,15.865
3174,-1,0,-6,-11,-5,-1,-3,-2,15.870000000000001
3175,-2,0,-6,-16,-3,-2,-1,1,15.875
3176,-1,0,6,21,2,0,-2,-1,15.88
3177,-2,-4,1,12,-2,-3,-4,-2,15.885
3178,-1,-2,-4,-5,-3,-1,-1,0,15.89
3179,0,-2,-9,-11,1,1,0,0,15.895
3180,-2,-2,-3,-12,-4,-1,0,0,15.9
3181,-2,0,1,2,0,-1,0,-1,15.905000000000001
3182,0,2,1,-2,-1,-1,0,-1,15.91
3183,-1,1,0,-16,-4,0,-1,1,15.915000000000001
3184,-1,0,-1,17,2,0,0,-1,15.92
3185,-1,-1,4,15,6,1,-2,-1,15.925
3186,-1,-3,-11,-17,-4,0,-4,-5,15.93
3187,2,0,-2,2,-10,1,3,-2,15.935
3188,3,0,5,7,7,3,2,1,15.94
3189,-1,-3,0,-8,-7,-3,-1,-2,15.945
3190,1,-1,-1,1,0,0,0,3,15.950000000000001
3191,0,-1,1,0,-2,-3,-1,0,15.955
3192,0,-2,-6,-17,-5,0,2,1,15.96
3193,-2,-2,-3,-2,0,-1,-1,-2,15.965
3194,0,2,4,-5,-2,-1,-1,0,15.97
3195,0,0,1,10,5,1,0,1,15.975
3196,-3,-1,-12,-45,-12,-1,0,0,15.98
3197,-1,0,16,55,21,2,-2,-2,15.985000000000001
3198,-2,-2,4,18,0,-2,-2,-2,15.99
3199,-1,-2,2,13,-1,-3,0,0,15.995000000000001
3200,0,1,-4,-11,2,-1,0,-1,16.0
3201,-1,-3,-14,-38,-14,-3,-2,-2,16.005
3202,-2,-1,1,-2,-4,1,1,0,16.01
3203,-1,-1,6,16,10,1,-2,-2,16.015
3204,2,1,-1,3,0,2,-1,0,16.02
3205,-3,-3,-14,-44,-14,-3,-2,-2,16.025
3206,0,0,7,30,18,2,1,-1,16.03
3207,0,1,12,27,1,-1,1,0,16.035
3208,-3,-2,-6,-3,-2,-2,-1,-1,16.04
3209,1,-1,2,5,-6,-2,-1,-1,16.045
3210,-1,-2,-6,-22,-6,-1,0,1,16.05
3211,0,0,-2,-12,0,3,0,0,16.055
3212,1,2,8,13,1,0,1,-1,16.06
3213,-3,-4,-8,-18,0,-2,-2,-2,16.065
3214,1,0,-4,-10,-16,-3,0,1,16.07
3215,-3,-2,6,17,10,0,-1,-1,16.075
3216,0,0,2,17,2,-1,0,0,16.080000000000002
3217,-2,-3,-3,-10,-5,-3,-4,-3,16.085
3218,0,1,1,-3,-2,0,1,-2,16.09
3219,-1,-2,-7,-16,-6,-2,-2,0,16.095
3220,2,-1,-1,0,0,0,1,2,16.1
3221,-1,-4,-2,-6,-2,-4,-1,-2,16.105
3222,1,1,-3,-9,0,0,-2,1,16.11
3223,-1,-2,4,23,0,2,0,-2,16.115000000000002
3224,0,0,-2,-9,0,-1,2,1,16.12
3225,0,0,3,12,0,-2,-2,0,16.125
3226,-1,0,2,-6,-6,-1,1,0,16.13
3227,0,0,-6,-13,13,1,-1,-1,16.135
3228,0,-1,0,14,-1,0,-2,-1,16.14
3229,-3,-1,-4,-8,-6,-3,0,-3,16.145
3230,-1,-2,-4,-4,-3,-2,-1,-1,16.15
3231,0,-1,-4,-5,-5,0,-1,-1,16.155
3232,-4,-5,-2,9,-6,-5,-4,-3,16.16
3233,-1,0,-4,-14,6,-1,-1,1,16.165
3234,-2,0,4,19,9,1,-1,-1,16.17
3235,1,0,-5,-27,-9,-4,-1,0,16.175
3236,2,-1,3,14,-13,-2,2,0,16.18
3237,-3,-1,-2,-6,-6,-2,-2,-3,16.185
3238,0,-1,3,12,12,1,1,-1,16.19
3239,0,2,1,-5,-1,0,0,-1,16.195
3240,-1,-2,-2,-11,3,1,-1,-1,16.2
3241,-3,-5,-4,-1,-8,-4,-3,-2,16.205000000000002
3242,1,1,0,-7,-1,0,1,1,16.21
3243,-1,-1,-2,1,0,-1,1,-1,16.215
3244,1,2,4,-2,3,1,-1,1,16.22
3245,-1,-2,-6,-16,-5,-2,-4,-2,16.225
3246,-1,-2,10,40,4,0,-1,-1,16.23
3247,0,-3,0,1,-2,-1,-3,-1,16.235
3248,-2,1,6,16,7,1,-1,-3,16.240000000000002
3249,-4,-3,-5,-8,-1,-3,-2,-2,16.245
3250,-2,2,-5,-26,-4,2,-1,0,16.25
3251,-1,-2,-1,1,-6,0,0,-1,16.255
3252,1,-1,-3,-12,-1,1,1,-1,16.26
3253,-2,-1,-2,-10,-2,-4,-1,-1,16.265
3254,-1,-1,9,23,4,1,0,-2,16.27
3255,-2,-1,-4,1,-5,-1,0,0,16.275
3256,0,-2,-3,-2,16,2,-1,3,16.28
3257,-1,-2,0,12,-4,-1,-2,-2,16.285
3258,0,-1,-9,-25,-6,-5,-1,-1,16.29
3259,-2,2,8,16,2,2,0,-1,16.295
3260,0,0,-1,-9,-5,0,0,0,16.3
3261,-2,-4,-2,3,0,-1,-3,-2,16.305
3262,0,-1,-16,-43,-13,-3,0,-2,16.31
3263,-1,0,22,63,21,2,1,0,16.315
3264,-2,0,1,-4,-2,-2,-1,0,16.32
3265,-2,-3,1,7,1,-2,-2,-4,16.325
3266,-2,-2,-6,-13,-6,-4,-1,-2,16.330000000000002
3267,-1,0,-5,-11,-4,0,0,1,16.335
3268,-1,1,2,0,1,-1,-2,0,16.34
3269,-1,-3,0,10,0,-3,-3,-2,16.345
3270,2,-2,-4,-6,0,1,0,1,16.35
3271,-1,-4,-12,-28,-2,-3,-3,0,16.355
3272,-3,0,11,28,4,0,-1,-2,16.36
3273,-3,-1,-5,-28,-13,-3,-2,-2,16.365000000000002
3274,-1,1,10,52,19,4,0,0,16.37
3275,0,-3,-6,-10,-5,-1,1,-2,16.375
3276,1,-3,-9,-17,-9,-1,-1,0,16.38
3277,-2,0,-1,-3,-2,-2,-1,-3,16.385
3278,1,2,4,-5,-2,0,-1,0,16.39
3279,-1,-1,-3,-4,0,1,0,0,16.395
3280,-3,-2,-6,-6,-1,-2,0,-2,16.4
3281,0,-1,-10,-28,-3,0,0,0,16.405
3282,-2,-1,20,53,7,-1,1,-2,16.41
3283,0,0,-4,-6,-1,-1,-1,0,16.415
3284,-1,-3,-1,-3,-5,-2,0,-2,16.42
3285,-1,-1,2,11,1,-3,-2,-1,16.425
3286,1,0,-10,-27,-6,-1,0,0,16.43
3287,1,1,-1,-6,-2,0,-1,0,16.435
3288,-2,1,1,-3,-1,-2,0,0,16.44
3289,-1,-4,0,7,0,-3,-2,-1,16.445
3290,-1,0,-4,-19,-14,-2,-3,0,16.45
3291,0,2,4,18,23,4,2,0,16.455000000000002
3292,3,-2,-12,-33,-6,-1,-2,-1,16.46
3293,-1,-2,15,55,4,-2,-2,-2,16.465
3294,-1,-1,2,2,0,-1,-1,0,16.47
3295,0,-1,-2,-12,-14,-4,-1,-1,16.475
3296,-1,-3,-2,-5,-3,-1,-3,-1,16.48
3297,-1,-2,-5,-11,0,0,0,-1,16.485
3298,0,-3,-5,-7,-3,-1,-1,0,16.490000000000002
3299,1,1,2,0,-3,1,-1,0,16.495
3300,-1,-2,-12,-26,3,-1,0,0,16.5
3301,0,3,9,1,-4,2,0,0,16.505
3302,-4,-2,13,43,3,-2,-2,-2,16.51
3303,-2,-4,-5,3,1,1,-1,-3,16.515
3304,-3,-4,-2,8,1,1,-1,-2,16.52
3305,-1,0,-9,-24,-5,-2,0,-1,16.525
3306,2,2,-7,-27,-1,0,1,0,16.53
3307,-1,0,4,2,-1,-2,1,0,16.535
3308,-2,0,2,8,-3,-3,-3,-2,16.54
3309,-1,1,-1,-3,0,-2,-4,-2,16.545
3310,0,-4,-8,-2,1,0,0,-5,16.55
3311,-1,-2,-1,-1,-4,-4,-1,-3,16.555
3312,-2,-1,1,-7,-10,-4,-3,-3,16.56
3313,-1,-4,-7,-5,18,2,0,-1,16.565
3314,0,-3,2,20,0,-1,-2,-1,16.57
3315,2,0,-1,0,-1,2,-1,3,16.575
3316,1,1,4,5,-4,-3,1,0,16.580000000000002
3317,-1,-1,-1,-4,-9,-3,-3,0,16.585
3318,-1,-1,-6,-20,0,1,2,2,16.59
3319,0,0,-9,-28,-1,3,1,1,16.595
3320,-3,1,16,46,5,-1,-1,0,16.6
3321,-3,-3,-4,-8,-13,-4,-3,-4,16.605
3322,1,-1,5,16,7,0,-1,-1,16.61
3323,-1,1,-2,-25,-12,-3,-1,0,16.615000000000002
3324,-1,-3,-6,4,13,2,-1,-2,16.62
3325,1,0,1,2,-2,-1,-1,0,16.625
3326,-2,1,-6,-15,-3,-2,0,0,16.63
3327,-1,-3,-4,-17,-10,-6,-2,0,16.635
3328,0,1,3,17,12,5,1,0,16.64
3329,-2,-2,3,10,-3,-3,-1,-2,16.645
3330,2,-1,0,-7,-1,0,0,-1,16.65
3331,1,0,0,11,-4,1,-2,0,16.655
3332,-2,-1,-3,-13,-10,-6,-3,-3,16.66
3333,-4,-8,-11,-9,-1,-1,0,-3,16.665
3334,3,3,3,-6,-1,1,2,1,16.67
3335,0,0,3,10,3,2,0,-1,16.675
3336,-2,-2,-2,-1,-6,-3,-2,-1,16.68
3337,-2,-1,0,4,1,-1,-2,-1,16.685
3338,-1,3,2,-3,-1,-1,-1,-1,16.69
3339,-1,-1,-1,8,4,0,1,0,16.695
3340,-3,-1,-2,-11,-2,-2,0,1,16.7
3341,-1,0,-2,-12,-7,-1,-1,0,16.705000000000002
3342,-2,-5,1,4,1,0,-2,0,16.71
3343,0,2,2,21,4,1,-1,-2,16.715
3344,-1,-4,-4,-4,-5,-3,-2,-2,16.72
3345,1,0,-5,-9,-4,-2,1,-2,16.725
3346,0,1,-6,-13,-3,0,-1,1,16.73
3347,0,-2,-1,-9,-6,0,1,0,16.735
3348,0,0,-1,-1,13,2,-2,0,16.740000000000002
3349,-2,-2,7,29,4,0,-2,0,16.745
3350,1,0,-5,-9,-1,0,-1,-1,16.75
3351,0,2,2,-3,-3,-1,0,1,16.755
3352,-3,-2,-3,-2,-8,-2,-2,-4,16.76
3353,-1,1,-2,-5,2,0,1,0,16.765
3354,-2,1,-1,-1,-1,0,2,0,16.77
3355,-1,0,-2,-19,2,-1,0,0,16.775
3356,-1,-3,-4,4,-8,-4,-1,-2,16.78
3357,-2,-1,8,16,4,-1,-3,-1,16.785
3358,0,-2,-8,-14,-4,-1,-1,0,16.79
3359,0,-1,8,32,10,0,-1,-1,16.795
3360,0,-2,-7,-20,-13,-4,-2,-2,16.8
3361,-1,0,4,14,-3,-2,-2,-1,16.805
3362,0,1,-3,-4,0,0,1,-1,16.81
3363,1,3,2,-4,1,1,0,1,16.815
3364,-2,-4,-2,-3,-2,-3,-3,-2,16.82
3365,0,-1,-11,-24,-15,-4,-2,-3,16.825
3366,1,0,8,20,20,4,2,0,16.830000000000002
3367,0,-3,-2,8,3,-1,-1,-1,16.835
3368,-2,-2,-5,-8,-2,-4,-1,-3,16.84
3369,-1,0,2,2,-4,-1,0,1,16.845
3370,1,-1,0,-1,-8,-2,-1,-2,16.85
3371,2,2,0,-1,0,3,2,1,16.855
3372,-3,-2,-8,-29,3,0,-2,-1,16.86
3373,-2,0,7,22,-2,-2,-2,0,16.865000000000002
3374,-2,-6,-2,9,-2,-1,0,-1,16.87
3375,1,2,0,4,3,0,0,0,16.875
3376,-1,0,2,-11,-4,-3,-3,-1,16.88
3377,0,1,0,-7,5,-2,0,-2,16.885
3378,0,-1,-4,-9,-3,-1,0,1,16.89
3379,2,3,3,9,3,2,0,1,16.895
3380,-2,-4,0,8,-1,-2,-3,-2,16.9
3381,-1,1,-2,-10,0,0,1,-4,16.905
3382,-1,1,3,1,-1,1,-2,-2,16.91
3383,0,-2,-4,-9,-5,0,0,2,16.915
3384,0,0,1,-2,-5,0,0,-1,16.92
3385,-1,-3,-2,10,-1,-2,-2,0,16.925
3386,1,3,0,-11,1,0,0,1,16.93
3387,-2,1,3,5,8,4,3,1,16.935
3388,-2,-4,-1,23,-3,-3,0,0,16.94
3389,1,0,2,2,4,2,1,1,16.945
3390,0,-2,-10,-17,-14,-2,-1,0,16.95
3391,-1,-3,-2,3,1,-1,-2,-2,16.955000000000002
3392,-1,-2,-5,-10,-12,-4,-2,-3,16.96
3393,1,1,-2,-7,6,2,1,0,16.965
3394,-3,-2,1,8,2,0,1,0,16.97
3395,0,2,4,4,-4,0,-1,1,16.975
3396,-1,0,-3,-15,-1,-1,-2,-3,16.98
3397,-1,-4,-5,-4,-5,-2,-1,-3,16.985
3398,-2,1,9,23,5,-1,-2,0,16.990000000000002
3399,0,-2,-1,-2,-3,-1,-1,-1,16.995
3400,2,2,-5,-16,-2,-2,1,0,17.0
3401,-1,-3,12,30,2,-2,-1,-2,17.005
