slno,emg1,emg2,emg3,emg4,emg5,emg6,emg7,emg8,Time
0,-1,0,-1,-1,-1,-1,-1,0,0.0
1,0,1,3,0,0,0,0,-1,0.005
2,-2,-2,-2,-1,-2,-1,-2,-1,0.01
3,2,0,0,2,-1,-1,-2,0,0.015
4,1,0,-1,-1,0,0,-1,-1,0.02
5,-1,0,-2,1,-1,1,1,0,0.025
6,1,1,1,-3,0,-1,-1,-1,0.03
7,-3,-2,-3,-2,-2,0,0,0,0.035
8,-1,-4,-3,-2,-1,0,1,0,0.04
9,-1,-5,-3,0,-1,-1,-1,-1,0.045
10,-2,-2,0,-1,0,1,1,0,0.05
11,0,1,1,-1,0,-1,-1,-1,0.055
12,0,2,3,0,-1,-1,1,-1,0.06
13,-2,-2,-3,-3,-2,-3,0,-2,0.065
14,-2,-5,-4,-4,-2,-1,-1,-2,0.07
15,0,1,2,1,1,0,-1,-1,0.075
16,0,0,-1,2,2,0,0,-1,0.08
17,-4,-4,-5,-4,0,-1,-1,-1,0.085
18,-1,1,0,2,0,0,0,-1,0.09
19,-1,-1,-1,-2,-2,-1,-1,0,0.095
20,-1,-1,-1,-3,-3,-2,-3,-1,0.1
21,1,4,0,1,0,-1,-2,1,0.105
22,-2,-2,-3,0,-2,0,0,-2,0.11
23,-1,-3,0,0,0,-1,-1,1,0.115
24,1,0,-1,-1,0,0,0,-1,0.12
25,-3,-3,0,-2,-2,-2,-2,-1,0.125
26,0,-1,-2,-4,-1,0,-1,0,0.13
27,-4,-5,-4,0,-2,-1,-1,-2,0.135
28,0,-1,-1,-1,0,0,-1,-1,0.14
29,0,-4,-1,-1,-1,1,0,-1,0.145
30,0,-1,2,2,0,-1,-1,0,0.15
31,1,4,-1,-3,0,-1,1,0,0.155
32,-2,-6,-5,-2,-1,-3,-2,-2,0.16
33,1,0,0,0,-2,-1,-1,0,0.165
34,-1,1,-1,-1,1,0,1,0,0.17
35,1,-1,-2,0,0,-1,-1,1,0.17500000000000002
36,-3,-1,-1,-1,0,-1,0,-2,0.18
37,0,-1,-1,-1,-1,-1,-1,-1,0.185
38,-3,-7,-3,-3,-3,-1,-2,-2,0.19
39,-2,0,0,0,1,-1,0,-1,0.195
40,-1,0,-3,-3,-2,-1,1,0,0.2
41,-2,-1,-2,0,-2,-2,-1,-1,0.20500000000000002
42,-1,-1,1,-2,-1,-1,-1,0,0.21
43,0,-1,0,1,1,-1,-1,-2,0.215
44,0,0,0,1,-1,-2,-1,0,0.22
45,0,2,0,-1,0,0,1,-1,0.225
46,1,-1,0,-1,-2,-1,-2,-3,0.23
47,0,0,0,-1,-2,-2,0,-1,0.23500000000000001
48,-1,-1,0,0,-1,0,-1,-1,0.24
49,0,3,1,-1,0,-1,-1,-1,0.245
50,-3,-3,-2,-1,-1,-4,-2,-3,0.25
51,0,-2,-3,-2,-1,0,-1,-1,0.255
52,0,1,1,-1,-1,-1,0,1,0.26
53,2,0,-1,-3,-3,-1,-1,-1,0.265
54,0,2,0,-1,-2,0,0,0,0.27
55,0,-4,-1,1,-3,-1,-1,-1,0.275
56,-1,-3,-2,-2,1,-1,-2,-1,0.28
57,0,1,0,0,0,-1,0,-1,0.28500000000000003
58,-2,-1,-5,0,-1,-2,-1,-1,0.29
59,-2,0,2,-2,-2,0,1,1,0.295
60,1,0,1,0,-1,0,0,-1,0.3
61,-2,-2,-2,2,-1,-1,1,-1,0.305
62,-1,-1,0,-2,-2,-3,-1,-2,0.31
63,-2,-2,-1,-1,0,0,0,0,0.315
64,-1,0,1,2,-1,-2,-2,1,0.32
65,-1,-3,-3,-2,-2,0,-1,-1,0.325
66,0,0,0,2,1,1,1,0,0.33
67,-1,-1,-1,-2,-1,-2,-1,-2,0.335
68,1,1,1,0,0,0,0,-1,0.34
69,1,-1,-1,1,0,-1,-1,-1,0.34500000000000003
70,-1,1,0,-1,-2,-2,1,0,0.35000000000000003
71,-2,-8,-6,-3,-1,-1,0,-1,0.355
72,0,-1,1,1,-1,0,-2,-1,0.36
73,-3,-5,-3,1,1,-2,-2,-1,0.365
74,1,-1,-1,-1,-2,1,0,-1,0.37
75,1,1,0,1,1,2,0,2,0.375
76,0,0,-1,-1,-1,-1,-2,-1,0.38
77,0,0,-2,-3,-1,0,-1,-1,0.385
78,-1,-3,0,1,1,-1,-1,1,0.39
79,-1,0,1,-1,-1,1,0,-1,0.395
80,-2,-8,-4,-4,-2,-3,-1,-2,0.4
81,0,0,-1,-1,0,-1,0,0,0.405
82,-1,2,0,0,0,-1,-1,-1,0.41000000000000003
83,-1,1,-1,1,-2,-1,-2,-2,0.41500000000000004
84,-1,1,-1,-2,0,0,1,-1,0.42
85,-1,0,0,0,-1,-2,0,-1,0.425
86,-1,-2,-1,-2,0,0,1,-1,0.43
87,0,1,0,-1,-2,-1,-3,-1,0.435
88,1,1,1,-2,-2,0,-1,-1,0.44
89,-1,-6,-4,-1,-1,-2,-3,-1,0.445
90,1,3,0,0,0,-1,0,1,0.45
91,-2,-1,-2,-1,-1,-2,-1,-1,0.455
92,-1,2,-1,1,-2,0,-1,-1,0.46
93,-2,-2,-2,-3,-1,1,0,-1,0.465
94,-1,-5,-1,-3,-4,0,0,-3,0.47000000000000003
95,0,0,2,0,1,0,-2,-1,0.47500000000000003
96,-3,-2,-1,0,2,-1,-2,-1,0.48
97,-1,-2,-6,-2,-1,0,0,-1,0.485
98,2,6,0,1,-1,1,-2,0,0.49
99,-3,-4,-1,-1,-1,-1,0,-2,0.495
100,-1,-3,-4,-2,-2,-1,-2,0,0.5
101,1,5,4,0,1,-1,1,1,0.505
102,0,-2,0,0,-2,-1,0,0,0.51
103,-1,2,-1,1,0,-1,-1,-2,0.515
104,0,1,0,-2,-4,0,1,1,0.52
105,-3,-1,0,0,0,0,-1,-1,0.525
106,1,-2,-2,-3,-2,-1,-1,0,0.53
107,-1,-1,-2,-3,-1,0,-1,1,0.535
108,-2,2,-1,0,0,0,0,-1,0.54
109,-1,-1,-1,-3,-1,-3,-1,-1,0.545
110,-1,-4,-4,-2,-1,-1,-2,-1,0.55
111,1,0,0,-1,-1,-1,0,0,0.555
112,-2,-6,-2,-2,-2,-3,-3,-1,0.56
113,0,-1,-2,-1,-2,0,0,0,0.5650000000000001
114,1,0,0,2,-1,-1,-2,0,0.5700000000000001
115,1,2,0,0,-1,-1,1,1,0.5750000000000001
116,-1,1,-2,-2,-1,1,0,-2,0.58
117,0,1,4,0,0,-1,0,0,0.585
118,0,2,-1,1,3,0,1,-2,0.59
119,-2,-3,-3,-3,-2,-1,-2,-1,0.595
120,0,1,1,2,0,1,-2,-2,0.6
121,-3,-2,-1,0,-1,-2,-3,0,0.605
122,-3,-6,-1,-3,-1,-2,-2,-1,0.61
123,0,0,0,-1,0,0,1,0,0.615
124,-1,-3,2,1,-1,-1,1,-1,0.62
125,0,0,-2,-1,-1,0,-2,-1,0.625
126,0,2,1,2,-1,1,-1,0,0.63
127,-1,0,-1,-2,-1,-1,-2,-1,0.635
128,-3,-3,0,-2,-1,-2,0,-1,0.64
129,1,0,-1,0,0,-1,0,0,0.645
130,-3,-4,0,-2,0,-2,0,-2,0.65
131,1,1,-2,-1,0,-1,0,-1,0.655
132,-1,1,0,-2,0,0,-1,0,0.66
133,2,6,2,1,1,1,1,0,0.665
134,-4,-6,-3,-4,-3,-1,-2,-1,0.67
135,-2,-5,-4,-2,-2,-2,-1,-1,0.675
136,-1,-1,1,1,0,-1,-1,-1,0.68
137,-2,-3,-2,-2,0,-1,-1,-1,0.685
138,0,1,0,-1,-2,0,-1,0,0.6900000000000001
139,0,1,2,0,0,-2,-1,-1,0.6950000000000001
140,-1,-4,-5,-4,0,-1,-1,-1,0.7000000000000001
141,1,-5,-4,1,0,-1,-1,-1,0.705
142,-2,-2,0,0,2,-2,1,0,0.71
143,-2,-2,-2,-1,-2,0,0,-1,0.715
144,0,4,0,-1,-2,-1,0,0,0.72
145,-2,-3,-1,-1,-2,-2,-3,0,0.725
146,0,2,0,-1,0,-1,0,-2,0.73
147,0,-4,-3,-1,0,0,-1,-2,0.735
148,-1,-2,-1,1,1,-1,1,-2,0.74
149,-1,1,1,-3,-2,1,0,-1,0.745
150,0,1,-2,0,-2,0,-1,0,0.75
151,0,1,2,0,-1,0,-1,0,0.755
152,-1,2,-1,0,-1,-1,-2,0,0.76
153,-3,-3,0,-1,1,1,1,0,0.765
154,-3,-2,-1,-2,0,-1,-1,-1,0.77
155,-4,-5,-7,-2,-3,-3,0,-2,0.775
156,0,-1,0,1,-1,-2,-1,-1,0.78
157,0,1,-1,0,-1,-2,-1,-1,0.785
158,1,4,2,0,2,0,-2,1,0.79
159,-2,-2,0,-1,-1,1,-1,-1,0.795
160,0,-2,-2,2,0,0,0,1,0.8
161,0,0,-1,-1,-2,-1,0,-1,0.805
162,-2,-4,-4,0,-3,0,0,-2,0.81
163,0,3,2,-2,-1,-1,-1,0,0.8150000000000001
164,1,0,-3,-3,-2,0,-1,-2,0.8200000000000001
165,1,-1,2,1,-1,1,-1,-2,0.8250000000000001
166,-1,1,0,0,0,-2,0,0,0.8300000000000001
167,0,2,2,1,0,-3,-2,0,0.835
168,0,1,-2,-1,-1,-1,-2,0,0.84
169,-1,-4,-4,-1,-2,-2,-3,-1,0.845
170,-1,-4,-2,0,-2,0,-1,-2,0.85
171,1,4,1,1,1,1,1,0,0.855
172,0,1,0,-3,-1,-2,1,1,0.86
173,-3,-4,-3,-2,-1,0,0,-2,0.865
174,1,5,1,-2,-1,-1,-2,1,0.87
175,-2,-4,-4,-1,-1,-2,0,-4,0.875
176,0,3,2,-1,0,-1,-3,0,0.88
177,-3,-2,-1,-2,-1,-1,-2,-1,0.885
178,2,7,2,1,-1,1,0,1,0.89
179,-1,-5,-3,1,1,-1,0,-2,0.895
180,-2,-7,-4,-2,-1,0,-2,-2,0.9
181,0,3,0,-1,1,1,0,0,0.905
182,0,-2,-4,-2,-1,-3,0,-1,0.91
183,0,1,3,1,2,0,0,0,0.915
184,0,-1,-3,-1,-2,-1,1,-2,0.92
185,-1,0,2,0,0,-2,0,0,0.925
186,0,-3,0,-1,-1,-1,-1,0,0.93
187,1,-1,0,-3,-1,-1,-1,-1,0.935
188,-1,0,2,1,1,-1,0,1,0.9400000000000001
189,0,-1,-1,0,-1,-1,0,-2,0.9450000000000001
190,-2,-4,-3,-2,-2,1,-1,0,0.9500000000000001
191,0,0,-2,-2,-2,-1,0,-1,0.9550000000000001
192,-2,-1,-1,1,-1,-1,1,1,0.96
193,1,2,-2,1,0,0,1,0,0.965
194,0,-5,0,0,-1,-2,0,-3,0.97
195,1,2,2,0,-1,-1,-1,-1,0.975
196,1,0,0,0,0,-2,-2,-2,0.98
197,-3,-6,-6,-1,-2,0,-2,-2,0.985
198,0,-1,1,0,0,0,-1,0,0.99
199,-4,-7,-1,-3,-1,-1,-4,-2,0.995
200,-4,-3,-4,-4,-1,-1,-1,-2,1.0
201,1,5,1,-2,-2,-3,-2,-1,1.0050000000000001
202,-1,-2,0,1,1,-2,-1,-1,1.01
203,-1,-1,-1,1,-2,-3,1,2,1.0150000000000001
204,0,-2,0,-2,-3,-1,0,1,1.02
205,0,-1,-1,-3,0,1,-1,0,1.025
206,-1,3,-1,-2,-1,0,1,0,1.03
207,-1,2,1,0,-1,1,0,0,1.035
208,-2,-1,0,0,0,1,-1,0,1.04
209,1,-1,-1,-2,-1,-1,0,-1,1.045
210,0,2,-1,-1,0,0,0,-1,1.05
211,-2,-4,-1,-2,-1,1,-1,-3,1.055
212,3,3,1,-1,-1,2,1,-1,1.06
213,-4,-5,-1,-1,0,-3,-2,0,1.065
214,1,2,-1,-3,0,0,-2,1,1.07
215,2,3,1,-1,0,0,0,0,1.075
216,-1,-1,-1,0,-2,0,1,0,1.08
217,1,1,2,-1,-1,-2,-1,-1,1.085
218,-1,-2,-2,1,-2,0,0,-2,1.09
219,1,3,-1,-1,-1,0,1,0,1.095
220,-1,1,0,-1,0,-2,0,0,1.1
221,-1,-3,0,-1,-1,-1,-2,-3,1.105
222,-4,-7,-3,0,0,0,-2,-2,1.11
223,1,0,0,0,0,0,-1,-1,1.115
224,-3,-5,-4,-1,0,-1,-2,-2,1.12
225,0,0,-2,0,-2,0,2,-1,1.125
226,0,0,0,-2,-2,-2,0,-1,1.1300000000000001
227,0,0,-1,-1,0,0,-1,-1,1.135
228,-2,-1,0,-2,-1,-1,-1,-2,1.1400000000000001
229,0,-1,1,1,0,-2,-2,1,1.145
230,1,2,0,0,0,0,1,-1,1.1500000000000001
231,0,-4,0,0,-1,-1,1,0,1.155
232,2,5,2,1,1,0,1,-2,1.16
233,-3,-4,0,-3,-3,0,-1,-2,1.165
234,-1,1,1,-2,-3,-1,0,-1,1.17
235,-4,-5,-6,-3,-1,-2,-2,-1,1.175
236,0,-2,-1,1,-2,0,0,0,1.18
237,-3,-5,-7,-3,-2,-2,-2,-1,1.185
238,1,2,1,0,1,-1,0,0,1.19
239,-3,-1,-1,-3,-3,-2,-1,-3,1.195
240,-3,-7,-3,-2,-1,-3,-4,0,1.2
241,-1,0,0,0,-1,1,0,-1,1.205
242,-3,-4,0,-1,-1,-2,-1,-1,1.21
243,-1,1,2,0,1,1,1,-1,1.215
244,-2,0,-1,-2,-1,-1,0,-2,1.22
245,0,-1,0,2,1,0,0,0,1.225
246,-1,1,-3,-3,-1,0,-1,-1,1.23
247,1,2,1,2,-1,0,0,1,1.235
248,-3,-3,-3,0,-1,-2,-1,-1,1.24
249,1,5,4,2,2,0,2,0,1.245
250,2,2,-3,-1,-1,-2,2,-1,1.25
251,-1,-5,-3,-1,-1,0,-2,0,1.2550000000000001
252,-2,-4,-5,-2,-1,-1,-2,0,1.26
253,0,0,-3,-1,0,-1,0,-2,1.2650000000000001
254,-1,-3,1,0,-1,-2,-2,-1,1.27
255,1,3,5,0,-1,-1,-1,-2,1.2750000000000001
256,1,-1,-4,-3,0,1,-1,-2,1.28
257,1,1,-1,0,-2,-2,-1,0,1.285
258,-1,-1,-3,-1,-2,0,1,1,1.29
259,-3,0,-1,0,-1,-1,-1,-1,1.295
260,1,2,3,0,-1,-2,0,-1,1.3
261,-3,-1,-1,1,1,0,-3,0,1.305
262,-3,-3,-3,-2,0,-1,-1,0,1.31
263,-1,1,-1,-1,-1,-1,0,-1,1.315
264,0,4,2,1,0,2,2,2,1.32
265,-2,-5,-3,-2,-4,-2,-2,0,1.325
266,3,1,2,2,0,1,-1,0,1.33
267,-1,-3,-3,-2,-1,-1,0,-2,1.335
268,1,2,2,-2,-2,-3,1,-2,1.34
269,1,-3,-1,-1,-1,1,-2,0,1.345
270,-1,-4,-2,0,-2,-1,1,0,1.35
271,0,1,-2,0,0,-1,-1,0,1.355
272,0,-1,-3,-1,-3,-1,-3,-1,1.36
273,-2,-1,-2,-3,0,-1,-2,-1,1.365
274,-1,2,0,-1,1,0,0,-1,1.37
275,-2,-2,1,-1,0,0,-3,0,1.375
276,-2,-3,-2,-3,-2,-1,1,1,1.3800000000000001
277,-1,1,3,0,-1,-2,-1,-1,1.385
278,3,4,-1,2,-1,-1,-1,0,1.3900000000000001
279,-1,-3,0,0,-1,-3,-1,0,1.395
280,-1,-3,0,1,0,-2,-2,0,1.4000000000000001
281,-1,1,-3,-3,-2,0,-2,0,1.405
282,0,0,1,-1,0,0,0,-1,1.41
283,-1,0,-2,-2,-1,0,1,-1,1.415
284,-1,-4,-3,0,1,1,-1,-2,1.42
285,1,0,-1,-2,-1,-2,1,0,1.425
286,-3,-6,-1,-1,-1,-3,-2,-2,1.43
287,2,1,-2,0,-2,-1,2,-1,1.435
288,1,3,1,-1,2,-1,-1,0,1.44
289,1,1,0,-1,0,-1,0,0,1.445
290,-2,-4,-6,-4,-4,-1,-3,-1,1.45
291,-4,-7,-5,-2,-2,0,-2,-3,1.455
292,1,4,1,1,2,0,0,1,1.46
293,-1,1,0,0,-2,0,-1,1,1.465
294,-2,0,1,1,-2,-2,-2,2,1.47
295,0,1,-2,0,1,0,1,1,1.475
296,-1,-1,-1,-1,-3,-1,-1,-1,1.48
297,0,-1,-1,-3,0,-1,1,-2,1.485
298,-1,-2,0,-3,-2,0,-1,-2,1.49
299,1,2,2,-2,-2,-2,-1,-1,1.495
300,0,-2,1,3,-2,0,0,-1,1.5
301,-1,-2,-1,1,1,0,1,-1,1.5050000000000001
302,-1,-2,-1,1,0,1,0,-3,1.51
303,0,1,2,0,1,0,-1,-1,1.5150000000000001
304,-3,0,0,0,-1,-1,-2,1,1.52
305,-4,-9,-5,-1,-4,-3,-2,-4,1.5250000000000001
306,0,-1,0,-1,1,-1,0,2,1.53
307,-1,-2,-1,-2,-2,-2,-3,0,1.5350000000000001
308,-4,-8,-5,-3,-1,-3,-1,-2,1.54
309,0,3,2,2,1,2,-1,-1,1.545
310,-1,1,-5,-1,-1,-2,-2,-1,1.55
311,0,-4,-1,-1,-2,2,-1,-2,1.555
312,1,3,3,3,0,0,-1,0,1.56
313,-1,0,-2,-1,-1,0,0,0,1.565
314,-1,-1,0,-1,-1,-1,0,-1,1.57
315,-1,0,-1,-2,-1,-1,-1,1,1.575
316,1,-2,-2,-2,-3,-1,0,-4,1.58
317,0,-1,0,1,0,0,-2,-1,1.585
318,-4,-6,-2,-2,-3,-2,0,-1,1.59
319,-1,0,-2,1,1,-1,0,-1,1.595
320,-2,-4,-2,-3,-1,0,-2,-3,1.6
321,-1,-3,-2,-4,-1,-1,0,-1,1.605
322,-2,-2,-3,-3,-1,-1,-2,-3,1.61
323,1,-1,0,0,1,0,-2,0,1.615
324,1,0,0,0,-1,-1,1,1,1.62
325,1,2,2,0,0,-1,-2,-1,1.625
326,-4,-4,-2,-1,-1,-2,-1,0,1.6300000000000001
327,0,-2,0,0,-1,-1,-1,-1,1.635
328,-1,-1,-2,-1,-2,-1,-2,0,1.6400000000000001
329,0,0,-1,-3,-1,-2,-1,-1,1.645
330,1,3,3,2,1,0,0,1,1.6500000000000001
331,-2,-2,-2,-2,-3,-2,-1,-1,1.655
332,-3,-3,-2,1,0,1,-2,-2,1.6600000000000001
333,-1,1,0,-1,-3,-1,0,-1,1.665
334,1,1,0,0,-1,0,-2,0,1.67
335,-1,-2,-2,-1,-2,0,-2,-2,1.675
336,2,5,0,-1,0,0,0,-1,1.68
337,-4,-11,-9,-5,-3,-2,-2,-1,1.685
338,0,-2,-1,0,0,-1,0,-1,1.69
339,-1,0,-2,2,-1,-1,-1,-1,1.695
340,-2,-2,0,0,-1,-1,-2,0,1.7
341,-2,1,0,2,-1,0,-2,0,1.705
342,1,2,0,-1,-1,-1,-1,0,1.71
343,-1,-5,-4,-4,-3,0,-1,0,1.715
344,1,1,0,0,-1,-3,0,0,1.72
345,0,1,3,1,1,1,-1,0,1.725
346,-3,-6,-5,-3,-3,0,-2,-3,1.73
347,3,6,3,0,0,-1,2,0,1.735
348,-2,-1,-1,-3,-1,0,-1,0,1.74
349,1,3,0,-2,-1,0,1,0,1.745
350,2,3,3,-1,-1,0,0,0,1.75
351,1,0,-1,-1,2,0,0,-1,1.7550000000000001
352,0,-1,-3,-2,-2,-1,1,1,1.76
353,-1,1,1,0,-2,-1,-1,-1,1.7650000000000001
354,-2,-3,-3,-2,-1,-1,0,-1,1.77
355,-2,-2,-2,0,-3,-1,-2,1,1.7750000000000001
356,-2,-2,0,0,1,-2,-2,-1,1.78
357,0,3,0,0,-1,1,0,-1,1.7850000000000001
358,-3,-5,-6,-5,-2,-1,-1,-1,1.79
359,0,-4,-1,-2,1,0,1,1,1.795
360,-1,3,1,0,-2,0,-1,-1,1.8
361,0,2,-2,-2,0,-1,-2,-1,1.805
362,2,3,2,3,1,0,1,-2,1.81
363,-4,-6,-1,0,-2,-3,-3,-2,1.815
364,1,-2,-1,-1,-1,-1,-1,1,1.82
365,-3,-4,-1,-1,-1,0,2,-2,1.825
366,-3,-1,-2,0,0,0,-1,0,1.83
367,-1,2,1,-1,0,-1,0,-2,1.835
368,-1,0,2,-1,1,-1,-1,-2,1.84
369,-2,-3,-1,-1,0,-1,-2,0,1.845
370,-1,0,2,1,-2,-1,-1,-1,1.85
371,2,-1,-2,-1,-2,-1,-2,2,1.855
372,-2,-3,-3,-3,-2,-2,1,-1,1.86
373,1,-1,-2,-2,-2,-1,-2,-1,1.865
374,-1,1,3,-2,0,-1,-1,0,1.87
375,-1,2,1,0,0,2,-1,-1,1.875
376,0,0,1,3,-1,0,-1,-1,1.8800000000000001
377,0,-3,1,1,1,-2,-1,-1,1.885
378,-1,-2,-1,0,0,-1,-2,-2,1.8900000000000001
379,1,1,-1,2,-1,-1,0,0,1.895
380,-2,-5,-3,-3,-1,-2,-2,-1,1.9000000000000001
381,-1,2,-2,-3,-1,-1,-2,-1,1.905
382,-1,-3,-2,3,-1,1,-1,0,1.9100000000000001
383,-4,-5,-5,-5,-2,-2,0,-1,1.915
384,3,2,0,0,-1,2,1,0,1.92
385,-1,-2,-1,0,0,-2,0,0,1.925
386,1,2,-1,-5,-2,-1,0,1,1.93
387,0,2,0,0,-2,-2,-3,-1,1.935
388,-2,-1,0,2,0,-1,-1,-3,1.94
389,0,2,0,1,1,2,1,-1,1.945
390,-3,-3,-2,0,-1,0,-1,-2,1.95
391,0,-3,-1,-1,-1,0,-1,-2,1.955
392,-2,0,0,-2,-2,-2,-2,-2,1.96
393,4,7,2,2,1,0,0,2,1.965
394,-3,-6,-3,-1,-3,-1,-3,-2,1.97
395,-3,-1,1,-1,0,1,-1,0,1.975
396,-2,-4,-4,-1,0,0,-1,0,1.98
397,-1,-2,-1,-2,-2,0,0,-2,1.985
398,2,1,-1,0,1,0,0,0,1.99
399,1,0,1,0,1,0,0,-1,1.995
400,1,3,0,-2,-1,0,0,0,2.0
401,-2,-7,-4,-1,-1,-2,-3,-2,2.005
402,0,0,-1,-2,0,-1,0,-1,2.0100000000000002
403,-1,-3,-1,-1,0,-3,-2,-1,2.015
404,-3,-1,-1,1,0,-3,-1,0,2.02
405,-2,-2,-1,1,-2,0,-1,-1,2.025
406,1,0,-2,-1,-1,-1,0,-1,2.0300000000000002
407,-2,-5,-2,0,1,0,0,-1,2.035
408,0,0,0,-1,-2,-1,1,-2,2.04
409,2,3,2,0,0,-1,-2,2,2.045
410,1,1,2,-1,1,-3,-1,0,2.05
411,-5,-11,-5,-2,-1,-3,0,-2,2.055
412,-1,-4,-2,-3,-3,0,-1,0,2.06
413,0,2,3,3,0,-1,1,1,2.065
414,-2,-4,1,0,0,-1,0,-1,2.07
415,1,4,-1,0,-2,0,-1,0,2.075
416,0,1,2,-1,-1,0,0,0,2.08
417,-2,-4,-2,-3,-2,0,0,-1,2.085
418,1,1,-2,-4,-2,-1,-1,0,2.09
419,1,2,3,2,-1,-1,-1,-2,2.095
420,-3,-3,-5,-2,0,1,0,-2,2.1
421,-3,-1,-1,0,-1,0,1,-2,2.105
422,0,1,-2,-2,0,-1,0,-1,2.11
423,0,1,1,1,-1,0,0,0,2.115
424,-1,-8,-6,-2,-1,-1,-2,-1,2.12
425,-2,-3,-2,-2,0,1,1,0,2.125
426,-1,0,0,1,1,0,-2,-1,2.13
427,2,5,2,0,-2,-1,0,2,2.1350000000000002
428,-2,-4,-1,-1,0,0,0,-1,2.14
429,-2,-3,-4,-3,-2,0,0,-1,2.145
430,-1,-1,0,-4,-3,-1,0,-2,2.15
431,0,2,0,2,3,0,-1,-1,2.1550000000000002
432,0,0,0,0,-1,-1,-1,0,2.16
433,0,0,0,-3,-1,-1,-2,-2,2.165
434,0,0,1,-1,0,-1,0,1,2.17
435,-1,-2,-4,-3,-1,-2,-1,1,2.1750000000000003
436,1,4,1,1,-1,-2,1,-1,2.18
437,-2,-6,-3,0,1,-2,-1,-1,2.185
438,-1,2,0,1,-1,-1,-3,-2,2.19
439,-1,-1,-1,-3,-3,-2,-2,-1,2.195
440,-2,3,0,0,1,1,-3,0,2.2
441,0,0,-3,-2,-2,-2,-2,0,2.205
442,-2,-2,-2,1,0,0,1,-1,2.21
443,-2,-7,-1,-4,-1,0,1,-1,2.215
444,-3,-2,-2,0,0,-1,-1,1,2.22
445,-1,0,2,0,0,-2,0,-1,2.225
446,-2,1,-2,1,-1,0,-2,1,2.23
447,-1,3,0,1,1,1,1,-1,2.235
448,0,0,-3,-2,-1,-1,1,-1,2.24
449,-1,-4,-1,0,-1,0,-1,-1,2.245
450,0,3,1,0,0,0,-3,0,2.25
451,-2,-7,-6,-4,-3,-2,-1,-1,2.255
452,-1,-2,-1,0,-1,-1,-1,-3,2.2600000000000002
453,1,2,1,0,0,-2,0,0,2.265
454,-1,2,2,1,0,0,2,0,2.27
455,-1,-1,-2,1,0,-1,-1,-1,2.275
456,2,5,0,-2,0,-1,-2,-2,2.2800000000000002
457,-3,-5,-3,-3,0,0,-2,-2,2.285
458,0,-1,-1,-2,-1,-1,0,-2,2.29
459,0,1,1,0,0,-1,0,0,2.295
460,-2,-4,1,0,-1,0,0,1,2.3000000000000003
461,-1,1,-2,-1,-1,0,-1,-1,2.305
462,-1,-2,-3,-3,-1,-2,-2,0,2.31
463,1,3,1,2,1,1,1,0,2.315
464,0,1,-2,-1,0,-2,0,0,2.32
465,-1,-3,-4,0,-3,-1,-2,-2,2.325
466,-2,-3,-2,-2,-1,-1,0,-1,2.33
467,-1,0,-2,-4,-2,-1,1,0,2.335
468,0,-2,0,-2,-2,-2,-1,-1,2.34
469,-2,1,0,-1,0,-1,-2,0,2.345
470,1,2,-1,-2,-1,0,0,0,2.35
471,-4,-5,-1,-1,-2,-2,-1,-3,2.355
472,-2,-1,0,0,-1,-2,-1,-3,2.36
473,1,-3,-2,-1,-1,-1,1,-1,2.365
474,-1,-4,-1,0,1,-1,0,0,2.37
475,3,3,-1,-1,-1,0,0,0,2.375
476,-3,-7,-1,0,-3,-1,-1,1,2.38
477,-2,1,2,-1,-2,0,0,0,2.3850000000000002
478,0,0,-1,-3,0,-2,-2,0,2.39
479,-1,-2,-1,-1,1,0,0,0,2.395
480,-1,0,1,-1,0,-2,-1,1,2.4
481,-1,-1,-1,1,0,-1,2,-1,2.4050000000000002
482,-2,-6,-2,-3,-3,-1,-1,-1,2.41
483,0,2,0,-3,-2,0,-3,-1,2.415
484,-1,-2,-1,0,-1,2,-1,-2,2.42
485,-1,1,1,-1,-1,-1,-1,0,2.4250000000000003
486,0,-2,-1,1,-2,0,-1,-1,2.43
487,2,1,-1,-1,-2,-2,2,-2,2.435
488,0,1,1,-1,1,1,3,1,2.44
489,0,0,-1,-2,-1,0,-1,0,2.445
490,-2,-5,-4,-1,-3,-1,0,0,2.45
491,-3,-4,-2,-1,-2,-2,-3,0,2.455
492,-1,2,-1,0,-1,-1,-2,0,2.46
493,1,2,2,-1,1,-3,0,-1,2.465
494,-1,1,1,-1,1,1,0,-2,2.47
495,-1,2,-2,2,0,-1,-1,-2,2.475
496,-1,0,-1,2,-2,1,-1,0,2.48
497,-1,-5,-1,0,0,0,-1,-1,2.485
498,-1,-7,-5,-5,-2,-2,0,-2,2.49
499,-2,0,0,-1,0,-1,-1,0,2.495
500,-1,0,0,0,0,0,-1,-1,2.5
501,-2,-1,0,2,-1,1,-1,-1,2.505
502,0,-2,-1,-2,-2,0,1,0,2.5100000000000002
503,-2,-1,2,1,0,1,-2,0,2.515
504,-1,0,0,2,0,1,-1,-1,2.52
505,1,2,1,-1,-1,0,-1,1,2.525
506,-1,-2,1,0,-2,-1,-1,-1,2.5300000000000002
507,-1,-2,-2,-2,-2,-1,0,0,2.535
508,-1,-3,-1,-1,1,-2,1,-3,2.54
509,0,3,0,-2,0,-1,1,1,2.545
510,1,2,-3,-1,-1,-1,-2,-1,2.5500000000000003
511,-1,-5,-1,-1,-1,0,-1,-2,2.555
512,0,-1,-3,-4,-4,-2,-1,0,2.56
513,1,-1,-5,-1,0,1,-1,0,2.565
514,0,2,0,1,0,0,0,1,2.57
515,-4,-2,-1,0,0,-1,-1,-1,2.575
516,0,0,1,-2,-2,-2,-1,0,2.58
517,-4,-3,-1,-1,0,-1,0,0,2.585
518,0,3,1,0,1,0,-1,-1,2.59
519,0,2,2,2,-1,0,0,0,2.595
520,-2,-7,-4,0,0,-2,-1,1,2.6
521,-2,-4,-2,-3,-1,-2,-2,-1,2.605
522,-2,1,0,-1,-2,-1,-1,0,2.61
523,1,-1,-2,-2,-1,-1,0,-1,2.615
524,-1,0,0,0,1,-1,0,-2,2.62
525,-1,1,1,0,-3,0,0,1,2.625
526,0,0,0,0,0,-1,-1,-1,2.63
527,0,-4,-2,-2,0,-1,0,0,2.6350000000000002
528,2,3,1,1,-1,-2,0,0,2.64
529,-6,-11,-8,-5,-4,-2,-2,-3,2.645
530,-1,-4,-2,1,0,0,-1,-1,2.65
531,1,2,-2,-2,-2,-1,-2,0,2.6550000000000002
532,2,5,6,3,0,1,0,0,2.66
533,0,3,3,-1,0,-2,0,-1,2.665
534,-1,-4,-5,-1,0,-2,-2,-3,2.67
535,-2,0,-4,-2,-2,-2,-1,-1,2.6750000000000003
536,1,2,0,-4,-2,-1,0,-1,2.68
537,0,-1,-1,0,-2,-1,0,-1,2.685
538,-2,0,0,1,0,0,0,-1,2.69
539,0,1,1,1,-1,0,-1,0,2.695
540,-2,-1,-2,-2,-1,1,-2,-1,2.7
541,2,2,2,0,2,1,-1,1,2.705
542,-1,1,-2,-1,0,-2,-2,0,2.71
543,-1,0,-1,-1,0,-2,-2,-1,2.715
544,0,-4,-4,-2,-1,-1,-1,-2,2.72
545,0,1,0,1,0,0,1,1,2.725
546,-2,2,3,-1,0,0,-1,0,2.73
547,2,0,-2,-1,-1,-2,0,0,2.735
548,-3,-1,-3,-2,-2,-1,-3,-1,2.74
549,-2,0,1,0,-2,-2,-1,-2,2.745
550,0,2,1,-1,1,-1,1,0,2.75
551,-3,0,4,2,-2,-1,-1,-2,2.755
552,-2,-2,-6,-4,-3,-2,-1,-1,2.7600000000000002
553,2,2,-1,1,1,0,0,2,2.765
554,1,-1,0,-2,-3,-1,1,-1,2.77
555,-1,-3,-4,-2,-1,-1,0,-1,2.775
556,1,2,2,1,-1,-2,0,1,2.7800000000000002
557,0,1,0,0,0,-2,-3,-2,2.785
558,-2,-6,-2,-2,-3,-1,-1,-2,2.79
559,1,2,3,-1,-1,2,0,-1,2.795
560,-1,-3,-2,-2,-1,1,0,-1,2.8000000000000003
561,-3,-3,-1,-3,-2,-1,-1,0,2.805
562,-1,-3,0,0,0,-1,-1,-1,2.81
563,-1,-1,2,1,1,0,0,1,2.815
564,-2,1,-2,-1,0,-1,1,-1,2.82
565,0,1,0,-1,-1,1,1,0,2.825
566,-4,-6,-3,-2,-4,-3,-2,-2,2.83
567,0,2,0,0,1,1,1,0,2.835
568,-2,-8,-6,-2,0,-2,-2,-2,2.84
569,-1,-3,-2,1,0,-1,-2,-2,2.845
570,0,4,2,3,0,-1,-1,0,2.85
571,-2,-4,-3,-1,-1,-1,-2,-3,2.855
572,-2,-1,1,0,-2,0,1,0,2.86
573,0,-2,-2,0,-2,-2,0,-1,2.865
574,1,-2,-1,2,2,1,-2,-1,2.87
575,-1,-4,-4,-3,-2,-1,-2,0,2.875
576,3,0,2,0,0,0,-1,-1,2.88
577,-2,0,-1,-3,-1,-1,-1,-2,2.8850000000000002
578,0,1,-2,-1,-1,-1,-2,-1,2.89
579,0,2,1,0,1,-1,1,-1,2.895
580,-1,-2,0,-1,0,-1,0,0,2.9
581,-1,-4,-2,0,-2,-2,-1,-2,2.9050000000000002
582,-1,-2,-1,-2,-1,-1,0,0,2.91
583,1,3,1,0,0,-1,0,0,2.915
584,0,3,1,0,-3,-1,-1,0,2.92
585,-2,-3,-5,0,-2,-1,-1,0,2.9250000000000003
586,1,0,-1,0,-1,0,0,-2,2.93
587,-2,-2,-1,-2,0,-1,-1,-1,2.935
588,-1,1,4,3,1,0,-1,-1,2.94
589,0,-4,-5,-3,-2,0,0,2,2.945
590,-2,-1,-2,0,0,-2,2,-1,2.95
591,0,1,-1,1,-1,-1,0,0,2.955
592,-3,-7,-3,-3,-1,-1,-2,-2,2.96
593,-2,0,2,1,0,-1,-1,-1,2.965
594,1,-2,-3,-2,-1,-1,-1,0,2.97
595,-2,-2,-1,-2,-1,-3,-1,-2,2.975
596,-3,1,-2,0,2,0,-1,-3,2.98
597,0,0,0,-1,1,-1,0,-2,2.985
598,-1,-2,0,0,-2,0,-2,2,2.99
599,-1,-2,-1,0,0,0,-2,0,2.995
600,-1,-2,-2,1,0,0,0,1,3.0
601,0,-1,-1,-1,-1,0,-2,1,3.005
602,-1,3,0,0,-1,-2,-1,-1,3.0100000000000002
603,-2,-4,-4,0,-3,-1,0,0,3.015
604,1,7,1,0,-1,0,0,-1,3.02
605,-4,-7,-5,0,-1,-1,-1,-2,3.025
606,-3,-4,-3,-3,-3,0,-3,-2,3.0300000000000002
607,-2,-3,-3,-2,-2,-1,-3,0,3.035
608,-1,-2,0,0,-2,-2,0,-1,3.04
609,0,3,3,4,2,1,-1,-1,3.045
610,1,-1,-4,-4,-2,-2,2,0,3.0500000000000003
611,-2,1,-4,-2,-1,-2,-1,0,3.055
612,-1,0,0,-2,-1,0,0,-1,3.06
613,0,0,-3,-2,-3,-1,-1,-2,3.065
614,-1,-1,2,0,1,-1,0,1,3.0700000000000003
615,0,-2,0,-1,-2,-2,0,-1,3.075
616,-1,-4,-3,-2,-1,-1,-1,-1,3.08
617,1,-2,0,-2,-1,-2,-1,-1,3.085
618,-1,-2,1,-3,-3,-1,-1,-1,3.09
619,0,-1,-1,-1,0,0,-1,0,3.095
620,-2,-1,-3,-3,-3,0,-1,1,3.1
621,0,2,2,2,-1,-1,0,-2,3.105
622,-1,-2,0,0,-1,0,-2,-3,3.11
623,-1,-1,-1,-2,-2,0,1,-2,3.115
624,0,-2,-4,-2,-1,-1,-1,0,3.12
625,0,-1,-1,-2,-1,0,-1,0,3.125
626,2,2,1,0,-1,-2,-2,0,3.13
627,-3,-8,-3,-1,0,-1,-1,-3,3.1350000000000002
628,-1,-5,-2,-1,-1,-1,0,-1,3.14
629,1,-2,1,0,0,-1,0,1,3.145
630,-4,-1,-4,-3,0,-1,-1,-2,3.15
631,1,3,2,1,2,1,-2,-1,3.1550000000000002
632,-1,2,-1,2,0,-1,-1,1,3.16
633,-2,-2,-5,-5,-1,-1,-1,1,3.165
634,2,3,2,1,0,1,1,0,3.17
635,-2,-1,-1,1,0,-1,-1,-1,3.1750000000000003
636,1,0,0,-1,-2,-1,1,-2,3.18
637,0,0,0,1,-1,0,-1,-2,3.185
638,-1,1,1,1,-2,0,-1,-1,3.19
639,1,6,1,-1,-2,-1,0,1,3.1950000000000003
640,-2,-5,-1,-1,2,-1,-1,-1,3.2
641,0,0,1,-1,1,0,-1,-1,3.205
642,-1,-2,-3,-2,-1,-3,0,-1,3.21
643,-2,0,1,1,-1,-2,-1,0,3.215
644,0,4,2,0,0,-1,-1,1,3.22
645,0,1,0,-3,-3,-2,0,-1,3.225
646,-4,-3,-1,-1,1,2,-2,-1,3.23
647,0,-4,1,-4,-1,-2,-1,-1,3.235
648,-1,0,-1,1,-2,-2,-2,-2,3.24
649,-2,-3,-3,-2,-2,-2,-2,-2,3.245
650,1,1,-1,2,-2,0,-2,0,3.25
651,1,1,-1,0,-2,1,-1,0,3.255
652,-1,-4,-5,-4,-3,-3,-2,0,3.2600000000000002
653,0,5,4,1,0,-1,0,-1,3.265
654,-3,-7,-5,-2,-1,-1,-1,0,3.27
655,0,-4,-2,-1,0,-2,-1,-3,3.275
656,1,2,2,0,0,-1,-1,-1,3.2800000000000002
657,-2,-2,-2,1,0,-3,-1,-2,3.285
658,-1,-1,-2,-2,-1,-1,-3,1,3.29
659,1,3,1,-1,0,0,0,0,3.295
660,-1,-1,-2,-1,0,0,-2,1,3.3000000000000003
661,0,1,2,-1,0,2,-2,1,3.305
662,-3,-2,1,-4,-1,-3,-1,-2,3.31
663,-2,-2,-2,0,-4,-2,-1,1,3.315
664,1,1,1,0,-2,0,-1,0,3.3200000000000003
665,-1,-2,0,-1,-1,-2,0,1,3.325
666,1,2,-1,-2,0,0,0,-2,3.33
667,-5,-7,-3,0,-1,-1,-2,0,3.335
668,0,-2,-2,-3,-2,-1,-1,-1,3.34
669,-3,-7,-4,-3,-3,0,-1,-1,3.345
670,0,1,2,-1,0,0,1,-1,3.35
671,-1,0,-3,-2,-1,-1,-1,0,3.355
672,1,2,0,1,2,0,0,0,3.36
673,1,1,3,1,-1,-2,-1,-1,3.365
674,-2,-3,-1,0,1,-1,-1,-1,3.37
675,-3,-6,-3,-1,-3,0,-2,0,3.375
676,0,0,1,0,1,-1,1,-1,3.38
677,0,-1,2,2,-1,1,0,-1,3.3850000000000002
678,-3,-4,-5,-3,-3,-2,-1,-3,3.39
679,3,4,1,-2,1,0,-1,-1,3.395
680,-2,-6,-3,-1,0,-1,-2,-1,3.4
681,-4,-6,-2,-1,1,-1,-1,-1,3.4050000000000002
682,1,5,2,0,-1,-1,-1,2,3.41
683,0,1,-1,-1,0,-3,-1,-1,3.415
684,2,3,2,3,-2,2,-1,-1,3.42
685,-1,-2,-2,-3,0,0,-1,-1,3.4250000000000003
686,2,3,1,-1,-2,-1,-1,0,3.43
687,-2,0,0,0,0,0,-1,0,3.435
688,-2,0,2,0,-1,-2,-3,0,3.44
689,1,5,0,0,-1,0,0,0,3.4450000000000003
690,1,-1,-4,-2,-1,-1,-1,-1,3.45
691,-3,-5,-3,-2,-3,-2,-1,-3,3.455
692,1,-1,-3,-3,0,-2,-1,-2,3.46
693,-2,-1,-1,-1,-2,-1,-2,-1,3.465
694,-2,-4,0,0,1,0,0,0,3.47
695,1,3,2,1,-1,0,0,1,3.475
696,-2,-1,0,0,-1,-1,0,-1,3.48
697,0,0,-3,-1,-1,-1,-1,-2,3.485
698,2,3,3,1,1,-1,-1,0,3.49
699,0,-1,1,1,0,-1,1,0,3.495
700,-2,0,-3,-3,-3,-1,-1,-2,3.5
701,0,-1,-2,-1,-2,0,-1,0,3.505
702,0,0,1,-1,-1,-2,0,-1,3.5100000000000002
703,-1,-1,-2,-2,0,2,-1,-3,3.515
704,0,-1,0,-1,-2,-1,0,0,3.52
705,1,-1,-2,-1,-1,0,-1,0,3.525
706,-1,-2,-3,0,-2,-3,-2,-1,3.5300000000000002
707,0,-1,0,-3,-1,-2,-1,0,3.535
708,-1,-2,-1,0,-1,-2,-1,-2,3.54
709,-1,2,0,-1,-1,0,0,0,3.545
710,-3,-4,-1,0,0,0,1,-2,3.5500000000000003
711,-2,-1,-1,0,-3,-1,-2,-2,3.555
712,-3,-3,-2,-2,1,1,1,1,3.56
713,0,0,2,0,0,-1,-1,0,3.565
714,-4,4,0,1,-1,-2,1,0,3.5700000000000003
715,-5,-4,-4,-1,0,-2,-1,-1,3.575
716,-3,-2,-1,-1,-2,-1,-2,-1,3.58
717,0,-4,-2,-3,-2,-1,-3,-1,3.585
718,3,-2,-1,-1,-1,-2,0,-1,3.59
719,3,0,-1,0,1,-1,0,1,3.595
720,1,1,-1,0,2,-1,0,0,3.6
721,-3,-4,-1,-1,-1,-1,-2,-2,3.605
722,0,-3,-2,-1,-2,0,-3,-3,3.61
723,3,1,-1,-1,-1,-1,-1,-1,3.615
724,-3,-4,-3,0,-1,-2,0,-1,3.62
725,0,1,-2,0,-1,-2,2,-1,3.625
726,-1,0,1,-2,-1,0,0,-1,3.63
727,-1,0,1,1,0,1,1,0,3.6350000000000002
728,0,-1,-2,1,-1,-1,-1,-3,3.64
729,-3,-2,-2,2,-1,-1,-1,0,3.645
730,2,3,0,-2,-1,0,-1,1,3.65
731,-2,-3,2,1,-2,-1,0,-2,3.6550000000000002
732,0,3,1,0,-1,-1,-2,0,3.66
733,-4,-6,-2,1,1,0,0,-2,3.665
734,-1,-2,-2,-1,-2,1,1,1,3.67
735,0,3,1,0,0,-1,0,-1,3.6750000000000003
736,-2,-6,-6,-3,-1,0,-2,-1,3.68
737,2,-1,-2,-1,-1,0,-1,0,3.685
738,2,1,1,0,1,0,-2,-1,3.69
739,-1,-5,-4,-3,-2,-3,-2,-1,3.6950000000000003
740,0,2,-2,-3,-2,0,0,-1,3.7
741,-2,1,0,-3,0,-1,-1,-1,3.705
742,-3,-5,-5,1,-2,-2,0,-3,3.71
743,-1,2,-1,-3,-1,0,0,0,3.715
744,0,1,0,2,1,0,0,-1,3.72
745,-1,-1,1,-3,-1,-1,-1,-1,3.725
746,0,-2,2,3,0,-2,2,-1,3.73
747,0,1,1,1,0,-2,0,1,3.735
748,-1,-1,0,-4,-1,-1,0,-1,3.74
749,0,1,-2,-1,-2,0,2,-1,3.745
750,-3,-2,-2,-4,-2,0,-1,-1,3.75
751,0,-1,-1,-1,1,1,0,1,3.755
752,-3,-3,0,-1,-2,0,0,0,3.7600000000000002
753,-1,-5,-2,-1,-1,-2,0,-2,3.765
754,-1,-1,-3,-2,-1,-1,0,-1,3.77
755,-2,2,2,1,0,0,-1,-2,3.775
756,-3,-8,-5,-3,-1,-2,-1,-1,3.7800000000000002
757,0,-1,0,0,1,-2,-2,0,3.785
758,-2,-1,-1,0,0,0,-3,0,3.79
759,0,1,1,-2,0,1,1,-1,3.795
760,2,3,1,0,-2,-2,-1,-1,3.8000000000000003
761,-1,1,-2,-2,-1,0,-2,-2,3.805
762,-1,-2,-1,-2,1,-4,-1,-1,3.81
763,0,-2,-4,-4,-3,-1,-1,0,3.815
764,-1,-2,-1,3,0,-3,-1,0,3.8200000000000003
765,-1,-3,-2,-1,-1,-1,0,-1,3.825
766,-1,0,0,0,-1,1,-1,-1,3.83
767,0,1,-2,0,-1,-1,0,-2,3.835
768,-1,3,2,-3,-1,1,-1,-1,3.84
769,1,0,0,2,-1,0,0,1,3.845
770,-2,-4,-2,-3,-1,-1,-1,0,3.85
771,-2,-1,1,2,-2,-1,-3,-2,3.855
772,-3,-3,-2,-2,-1,-2,0,-2,3.86
773,1,3,2,0,-1,0,0,-2,3.865
774,1,1,0,1,1,1,1,-1,3.87
775,-2,-6,-3,-4,-3,-1,-1,-2,3.875
776,0,1,5,1,-1,-2,-2,-1,3.88
777,-1,-2,-2,0,-1,-2,-2,-1,3.8850000000000002
778,-1,2,-1,0,-1,-1,0,1,3.89
779,-2,-3,-2,-1,-2,-1,-3,-2,3.895
780,-1,2,0,2,-1,-1,2,0,3.9
781,-1,2,-1,-1,-1,-1,-1,-3,3.9050000000000002
782,0,0,-1,-1,-2,-1,-2,0,3.91
783,1,5,1,3,1,0,2,0,3.915
784,-2,-3,-3,-1,-1,1,-1,0,3.92
785,-1,-1,-1,-2,-2,-2,0,0,3.9250000000000003
786,-1,-1,0,-1,-2,-1,-1,-3,3.93
787,-2,2,-1,-1,0,-1,-1,0,3.935
788,-1,-4,-1,-1,-1,-2,0,-1,3.94
789,0,0,0,-1,-1,-1,0,0,3.9450000000000003
790,-1,-5,-1,-1,-1,-3,0,0,3.95
791,0,-2,-3,-2,1,-2,-1,0,3.955
792,1,1,-1,-2,-2,1,-1,-1,3.96
793,-2,-2,-2,-3,0,-1,-2,-1,3.9650000000000003
794,0,-1,-1,0,-1,1,0,0,3.97
795,0,-2,1,0,-3,-1,-2,-1,3.975
796,-3,-4,-6,-4,-2,-2,-1,-2,3.98
797,-2,-4,0,2,-2,0,0,-2,3.985
798,0,1,-4,0,0,0,-1,-1,3.99
799,-1,0,2,1,0,0,0,0,3.995
800,1,1,-2,-3,-2,0,0,-1,4.0
801,-2,-1,0,-1,-2,-2,1,-1,4.005
802,-2,0,-3,-1,0,0,2,-3,4.01
803,-1,1,2,2,0,-1,-1,-1,4.015
804,-1,0,-1,-2,0,-1,-2,-1,4.0200000000000005
805,1,1,0,0,1,1,-2,-1,4.025
806,1,-1,0,0,-2,-1,-2,-1,4.03
807,1,-1,-2,-3,-2,-2,1,-1,4.035
808,0,2,0,2,0,0,-1,0,4.04
809,0,-2,-1,-2,-2,0,1,-1,4.045
810,-1,1,0,-2,0,0,-2,0,4.05
811,0,1,1,1,0,0,-2,0,4.055
812,0,-1,-3,-3,-2,-1,-3,1,4.0600000000000005
813,1,-2,-4,0,0,1,-1,1,4.065
814,-2,-2,1,-3,0,-1,-2,-2,4.07
815,-3,-8,-6,-3,0,-2,2,-2,4.075
816,-3,-4,-3,-1,-2,1,1,1,4.08
817,0,4,0,-2,-2,-1,-1,0,4.085
818,-3,-8,-2,-1,0,-1,0,0,4.09
819,0,-1,-1,0,-1,0,2,0,4.095
820,0,0,3,-1,0,0,-1,-2,4.1
821,-2,-1,-1,-2,-1,-1,-1,-2,4.105
822,-2,-1,-2,-1,-1,0,-1,-2,4.11
823,-1,1,-2,0,1,-1,-1,-1,4.115
824,0,1,-1,-2,0,0,-2,-1,4.12
825,-2,-1,-2,-1,-1,2,-1,1,4.125
826,0,2,0,-1,-1,-1,-1,-1,4.13
827,-1,1,-1,0,-1,2,1,-1,4.135
828,1,-1,2,1,0,0,2,-2,4.14
829,0,-1,-2,1,-2,-2,0,0,4.1450000000000005
830,-2,-1,0,-1,-1,0,-1,0,4.15
831,0,-2,-2,-1,-1,-3,-3,-1,4.155
832,-1,2,0,1,0,-1,-1,0,4.16
833,-2,-3,-6,-1,-1,-2,-1,-2,4.165
834,0,-4,-2,0,-2,-2,2,0,4.17
835,-1,1,3,-2,-2,-2,3,0,4.175
836,-6,-9,-6,-2,-1,-2,-1,-2,4.18
837,0,2,0,1,1,0,0,0,4.1850000000000005
838,0,-2,-2,-1,-1,0,-3,-1,4.19
839,0,1,0,-2,-3,0,-2,-1,4.195
840,0,0,0,1,-3,-2,2,1,4.2
841,-2,-4,-4,0,-1,-1,0,0,4.205
842,-1,0,-1,-1,0,-2,1,0,4.21
843,-2,-1,-1,1,1,-2,0,0,4.215
844,1,3,2,0,-1,-1,0,-1,4.22
845,1,5,1,-1,-1,1,-2,-1,4.225
846,-1,2,0,-1,0,1,-1,1,4.23
847,0,0,-1,1,-1,0,-3,-1,4.235
848,0,2,2,1,-1,-2,-4,0,4.24
849,0,1,1,2,0,0,3,0,4.245
850,-3,-3,-3,-1,-1,-1,-1,0,4.25
851,-1,-6,-3,-1,-2,0,-1,-2,4.255
852,0,1,-1,0,0,2,1,-1,4.26
853,-2,-3,-2,-5,-2,-1,-1,-2,4.265
854,0,0,0,-2,-1,-1,-1,-2,4.2700000000000005
855,-2,-3,-3,-2,-1,-2,-1,0,4.275
856,-1,-2,-2,-2,-2,1,-2,-2,4.28
857,1,1,0,1,1,0,-1,1,4.285
858,-3,-3,-2,-1,-3,-2,-1,-2,4.29
859,-3,-3,-4,-2,-1,0,2,-1,4.295
860,-2,-7,0,1,0,2,-1,0,4.3
861,-1,0,-1,-4,-2,0,-2,0,4.305
862,-1,-3,-1,1,0,-1,-3,-2,4.3100000000000005
863,1,1,1,1,-2,0,-2,1,4.315
864,-1,0,0,1,1,-2,-1,1,4.32
865,-3,-1,-1,0,-1,-3,-1,-1,4.325
866,1,6,2,0,1,0,-1,0,4.33
867,-3,-3,-4,-3,-2,-2,-1,0,4.335
868,0,1,0,-1,0,-3,0,-1,4.34
869,0,-4,0,2,-1,-2,-2,-1,4.345
870,-1,2,1,-1,-2,0,2,0,4.3500000000000005
871,-1,-1,0,-1,0,1,-1,2,4.355
872,0,2,2,2,1,0,1,1,4.36
873,-4,-4,-5,-2,-1,-2,-1,-2,4.365
874,0,1,-4,-3,-3,0,-1,-3,4.37
875,1,3,1,1,1,0,-1,0,4.375
876,-2,-4,-3,-1,-4,-3,-2,-2,4.38
877,0,3,3,-2,-2,-2,-2,-1,4.385
878,-2,-7,-3,0,0,-1,0,-4,4.39
879,0,0,2,-3,-1,-2,-4,-2,4.3950000000000005
880,0,1,2,0,0,0,-1,-1,4.4
881,-1,-4,-1,0,1,0,1,1,4.405
882,2,1,0,-1,0,-2,-2,-2,4.41
883,2,-1,-2,-1,-2,-1,1,0,4.415
884,-1,-4,-4,-3,0,0,0,2,4.42
885,-1,-2,-2,-1,-1,0,-2,-2,4.425
886,-2,1,1,0,0,0,1,0,4.43
887,-1,0,1,0,-2,-2,0,-1,4.4350000000000005
888,0,0,-1,-1,-3,0,-3,-1,4.44
889,1,1,-3,-1,-2,-1,-3,-2,4.445
890,-1,-1,-2,1,-1,-1,-1,2,4.45
891,0,-3,-1,-1,0,0,-1,-1,4.455
892,0,0,-1,0,0,1,-1,-1,4.46
893,-1,-3,-1,0,1,0,0,-1,4.465
894,-1,-1,-1,-1,-2,-2,0,1,4.47
895,0,-1,0,-1,-2,-1,0,0,4.4750000000000005
896,-2,1,-1,-1,0,-2,2,-1,4.48
897,0,-2,-2,-1,0,-1,0,-2,4.485
898,-4,-4,-1,-1,-1,1,-1,-3,4.49
899,-2,3,0,0,1,-1,-1,0,4.495
900,-1,-3,-2,-2,-1,-2,-1,0,4.5
901,-3,-4,-5,-1,-3,-3,-4,0,4.505
902,0,1,0,0,0,0,-1,1,4.51
903,-3,-4,-3,-3,-3,-2,-1,-1,4.515
904,-5,-9,-5,-4,-5,-3,-3,-4,4.5200000000000005
905,2,1,0,1,0,0,1,1,4.525
906,-1,-4,-2,-1,0,-2,1,0,4.53
907,1,-1,-1,0,-2,1,2,-1,4.535
908,0,9,6,1,0,0,1,1,4.54
909,0,2,-2,-2,-2,0,-1,1,4.545
910,0,1,-1,-1,0,0,-3,-1,4.55
911,1,3,0,0,0,-1,-1,-1,4.555
912,-1,-2,-1,0,-1,-1,0,-2,4.5600000000000005
913,-1,0,1,-2,-1,-1,1,-2,4.565
914,1,2,1,1,0,1,0,-2,4.57
915,-3,-4,-4,0,-1,0,-4,-4,4.575
916,2,3,2,0,-1,0,-1,0,4.58
917,-1,-1,1,2,-1,0,-2,-1,4.585
918,1,0,0,-2,-2,-2,2,-3,4.59
919,0,-4,-2,0,0,-4,1,-1,4.595
920,1,-2,-3,-1,-1,-1,-1,1,4.6000000000000005
921,-2,0,2,0,1,0,-1,0,4.605
922,-3,-4,-3,-4,-2,0,-3,-3,4.61
923,1,2,0,1,0,1,0,0,4.615
924,2,4,1,3,-1,0,-2,2,4.62
925,-1,-4,-2,-1,-2,-3,-3,-1,4.625
926,-2,-2,-2,0,-2,-3,-2,-1,4.63
927,-1,0,4,0,-1,0,-1,0,4.635
928,0,-4,-4,-4,0,0,1,0,4.64
929,-2,-2,-1,-2,-1,1,1,-1,4.6450000000000005
930,2,5,2,0,3,-1,1,2,4.65
931,-1,-1,-1,-1,-3,0,-4,0,4.655
932,-1,1,3,0,1,-1,-1,0,4.66
933,-2,-3,-2,0,-1,-2,-1,-4,4.665
934,0,3,-4,0,-1,0,-3,-1,4.67
935,0,0,0,-1,-1,0,-2,0,4.675
936,-2,0,0,-2,-1,-1,-1,0,4.68
937,0,2,0,0,1,0,0,-2,4.6850000000000005
938,-2,-2,0,-2,-2,-1,0,0,4.69
939,-2,-2,-2,-2,1,0,-1,-2,4.695
940,-1,-2,-2,-2,-2,-3,0,-2,4.7
941,-2,-1,-1,-1,1,-2,1,1,4.705
942,-1,-2,-5,-2,-3,-1,1,1,4.71
943,-1,1,-2,-1,0,-2,0,-1,4.715
944,0,1,1,0,0,0,-3,-2,4.72
945,2,5,1,-1,-2,1,-2,-1,4.7250000000000005
946,-1,-5,-3,-2,-2,-2,-2,-2,4.73
947,1,2,1,0,0,0,1,0,4.735
948,-2,-4,-4,-2,-1,-1,-1,-2,4.74
949,1,0,2,-2,0,0,0,1,4.745
950,-1,2,4,1,-2,-1,-2,0,4.75
951,-1,-5,-3,2,0,2,0,0,4.755
952,-1,-2,0,1,-1,0,-2,-1,4.76
953,-2,-1,0,-2,-1,-2,-2,1,4.765
954,1,0,1,-1,1,0,-2,-1,4.7700000000000005
955,-1,-2,-2,-3,-1,-1,-1,-3,4.775
956,-1,-2,-2,0,-1,0,-1,-3,4.78
957,-2,-4,-3,-2,-2,0,0,-2,4.785
958,-2,-1,-1,0,0,1,-1,-2,4.79
959,0,1,-1,0,0,-2,-2,-2,4.795
960,1,-2,0,2,-1,-1,0,-1,4.8
961,0,1,1,0,-1,-2,0,0,4.805
962,-2,-2,-2,-2,-2,-1,1,-1,4.8100000000000005
963,-1,-1,-3,-2,-1,-1,-1,-1,4.815
964,-1,-1,2,3,0,-1,1,1,4.82
965,3,0,-4,-3,-1,0,-3,-1,4.825
966,1,1,-2,2,1,-1,0,0,4.83
967,0,2,3,2,1,2,0,0,4.835
968,-1,-3,-5,-6,-2,0,-2,-1,4.84
969,-1,-1,3,1,-1,-1,-1,0,4.845
970,2,3,4,0,-2,2,-1,0,4.8500000000000005
971,1,1,0,-2,-3,-1,-1,1,4.855
972,2,4,-1,1,0,-2,-1,1,4.86
973,-4,-6,-3,-1,-4,-2,-1,-2,4.865
974,-2,-3,-3,-2,-1,-1,1,-1,4.87
975,-4,-5,-3,0,-2,-2,-2,-3,4.875
976,-1,-1,-1,-3,0,-2,1,-1,4.88
977,1,1,-2,0,0,2,-1,0,4.885
978,-2,-3,0,1,-2,-2,1,-2,4.89
979,-2,-2,-3,-2,-2,0,0,0,4.8950000000000005
980,-1,-1,-2,-2,-3,1,-2,-1,4.9
981,0,-1,-1,0,2,-1,-1,-1,4.905
982,0,-4,-2,-1,0,-1,-1,-1,4.91
983,2,3,0,-1,0,1,-1,2,4.915
984,1,0,0,-1,-1,-1,-2,1,4.92
985,-2,-2,0,0,2,-1,-2,-2,4.925
986,-2,-2,-1,-2,-1,-1,-4,-4,4.93
987,-1,0,1,-1,0,-3,0,-1,4.9350000000000005
988,1,4,-1,0,-1,0,3,-1,4.94
989,-3,-5,0,0,-2,0,0,1,4.945
990,-1,-1,0,2,-1,-1,1,-1,4.95
991,-1,-1,-2,-1,-1,-4,0,-2,4.955
992,-2,0,2,1,0,-2,-2,-1,4.96
993,-1,-3,-1,0,-3,-1,-3,-2,4.965
994,-1,0,1,-2,0,0,-1,1,4.97
995,-1,-2,-2,-2,-1,0,0,-2,4.9750000000000005
996,-2,-2,0,1,1,0,0,1,4.98
997,0,0,-3,0,0,0,1,-2,4.985
998,1,0,1,0,0,-1,2,2,4.99
999,0,0,0,0,-2,0,0,-1,4.995
1000,-1,-1,-6,0,-1,-2,-4,-1,5.0
1001,-4,-1,-3,-2,-3,0,-2,-2,5.005
1002,2,5,2,2,0,-1,-2,2,5.01
1003,-1,2,1,-1,-1,-1,0,1,5.015
1004,-2,-9,-2,1,-1,0,0,-2,5.0200000000000005
1005,0,-3,-1,0,0,-1,-1,-1,5.025
1006,0,-3,-4,-2,-2,0,-2,-1,5.03
1007,1,6,0,-1,0,-1,1,0,5.035
1008,-3,-1,0,-1,-3,0,-1,-3,5.04
1009,1,-1,-1,0,0,0,-1,-1,5.045
1010,-2,-5,-2,-2,-1,0,-3,-3,5.05
1011,0,-2,-2,0,-1,-1,-1,-1,5.055
1012,1,3,0,0,0,0,1,0,5.0600000000000005
1013,2,1,-2,-3,0,0,1,-1,5.065
1014,-3,0,0,-2,-1,-2,1,-2,5.07
1015,0,-2,-1,-1,0,0,-1,-1,5.075
1016,-1,0,-2,-2,-1,-2,0,0,5.08
1017,0,-1,0,0,-1,-1,0,1,5.085
1018,0,-1,-1,-1,-1,-1,1,-2,5.09
1019,0,-2,-2,-1,-1,0,-2,0,5.095
1020,-1,0,1,-1,0,-2,1,-2,5.1000000000000005
1021,-2,-1,-2,-1,-2,0,0,0,5.105
1022,-1,1,1,0,-1,-2,-1,-1,5.11
1023,-1,0,0,1,0,-1,-1,-1,5.115
1024,2,3,1,1,0,-1,-1,-1,5.12
1025,-4,-4,-1,-2,-1,-4,-2,-1,5.125
1026,-3,-9,-6,-2,-1,1,-3,-2,5.13
1027,-4,-5,1,0,-2,0,0,-2,5.135
1028,-1,-1,-2,-2,0,0,-2,0,5.14
1029,2,2,3,0,0,0,0,-1,5.1450000000000005
1030,1,-1,-2,-2,0,-1,0,1,5.15
1031,0,-1,0,2,1,1,-1,-1,5.155
1032,0,-2,-2,-4,-1,-2,0,-1,5.16
1033,1,0,0,0,0,-1,-2,0,5.165
1034,-1,0,2,0,0,-1,-2,0,5.17
1035,-1,0,-1,-1,-2,1,-1,1,5.175
1036,-4,-4,-2,-4,0,1,2,-2,5.18
1037,-4,0,-1,1,-1,0,0,0,5.1850000000000005
1038,-1,2,0,0,-1,-1,-1,0,5.19
1039,-1,-1,-1,-2,-2,-3,-1,0,5.195
1040,-1,-2,-1,-3,-2,-1,0,-3,5.2
1041,0,0,2,-1,-2,-1,0,-3,5.205
1042,0,3,-1,1,-1,1,1,-2,5.21
1043,-1,0,-1,-3,-1,-2,-2,-2,5.215
1044,0,0,0,0,1,0,-3,1,5.22
1045,0,-1,-3,-1,-1,0,0,1,5.2250000000000005
1046,2,4,4,2,-1,-1,0,1,5.23
1047,-2,-5,-4,-3,-1,-1,0,0,5.235
1048,0,1,0,1,1,0,-2,-1,5.24
1049,-3,-2,-2,-2,-4,-2,-1,-2,5.245
1050,-1,-3,0,-1,0,1,-2,-3,5.25
1051,0,-2,0,0,-2,0,0,-2,5.255
1052,0,0,-2,-1,-1,-3,1,-1,5.26
1053,-1,2,1,-1,2,-1,1,0,5.265
1054,-3,1,0,-1,-1,0,-1,-2,5.2700000000000005
1055,-2,-2,-1,-1,-1,-1,-2,-2,5.275
1056,-2,-3,-2,-2,-2,-1,-3,-1,5.28
1057,0,-1,0,0,0,-1,1,-1,5.285
1058,0,-4,-2,-2,-1,-2,-1,0,5.29
1059,1,0,-1,-1,0,0,0,-1,5.295
1060,1,2,1,1,-1,-1,0,1,5.3
1061,-1,-5,-3,-2,-1,0,-2,0,5.305
1062,-3,-5,-7,-4,-2,-1,-2,-1,5.3100000000000005
1063,0,-4,-3,-2,-1,0,-1,0,5.315
1064,1,3,2,1,0,1,0,1,5.32
1065,-4,-8,-3,-3,-2,-2,-1,-3,5.325
1066,-1,0,-1,-1,0,-2,-2,-2,5.33
1067,-4,-1,3,2,-2,-1,-1,-2,5.335
1068,0,-1,-3,-3,-2,-1,-1,-2,5.34
1069,-1,1,0,1,1,0,1,0,5.345
1070,0,0,-1,1,0,2,1,0,5.3500000000000005
1071,0,-1,-3,-3,-1,-2,-1,0,5.355
1072,-1,-1,0,0,-1,0,0,-1,5.36
1073,1,0,-1,-1,0,-1,-3,0,5.365
1074,-1,-1,-2,0,-2,0,1,-3,5.37
1075,0,1,-1,-2,0,-1,-3,-1,5.375
1076,-1,-5,-3,0,0,0,-2,0,5.38
1077,1,1,-2,-1,0,0,-1,-1,5.385
1078,2,3,1,0,0,0,0,0,5.39
1079,0,-2,-4,-2,-1,-1,0,0,5.3950000000000005
1080,-1,-1,-1,0,-3,0,0,1,5.4
1081,-2,1,1,0,-1,-2,-1,-1,5.405
1082,-1,0,-3,-2,-1,0,-1,-2,5.41
1083,-1,-6,-1,-1,-3,0,0,-2,5.415
1084,-2,-3,-1,0,-1,-2,0,0,5.42
1085,2,2,1,-1,-1,1,0,0,5.425
1086,-4,-4,-3,-2,-1,-2,-3,-3,5.43
1087,1,2,-1,0,-1,-2,-1,-2,5.4350000000000005
1088,-1,-3,-1,-2,-1,0,-2,-3,5.44
1089,-2,0,2,0,-1,-2,-3,0,5.445
1090,-1,1,3,-1,0,-1,0,-1,5.45
1091,-2,-1,-1,1,1,0,1,-1,5.455
1092,-1,2,0,1,0,-2,-2,-2,5.46
1093,-1,-2,-2,1,0,0,-1,-1,5.465
1094,-2,-3,-4,-2,-1,-1,-1,0,5.47
1095,1,0,-2,-1,0,0,-1,-1,5.4750000000000005
1096,-1,-3,-2,-1,0,1,-1,0,5.48
1097,1,1,1,1,-1,-1,0,-2,5.485
1098,0,-3,1,-2,0,-1,-3,0,5.49
1099,1,1,2,1,-2,-1,1,0,5.495
1100,-4,-5,-2,-3,-2,-3,-1,-1,5.5
1101,1,1,1,1,1,0,1,1,5.505
1102,-2,-3,-5,-1,-1,-2,-1,0,5.51
1103,2,5,0,2,1,0,1,0,5.515
1104,-3,-5,-2,-3,-2,1,-1,-1,5.5200000000000005
1105,-2,-2,-4,-3,-1,-1,0,0,5.525
1106,2,4,1,0,-1,-1,-1,0,5.53
1107,-2,2,2,1,-1,0,-1,-1,5.535
1108,-1,0,-2,1,-1,-1,-1,-1,5.54
1109,0,-1,0,0,-1,-1,0,-1,5.545
1110,-1,0,-2,0,0,-1,0,0,5.55
1111,-2,-5,-5,-4,-2,-1,0,0,5.555
1112,0,0,4,1,0,-1,-1,-1,5.5600000000000005
1113,0,-2,-1,-3,-1,1,-1,-2,5.565
1114,0,1,0,0,-2,-1,-1,-1,5.57
1115,-2,0,-2,0,0,-1,-1,-2,5.575
1116,-3,-4,0,-2,0,1,1,0,5.58
1117,2,1,0,-1,-2,-3,0,0,5.585
1118,-1,-5,-4,-1,-1,0,2,-2,5.59
1119,0,0,0,0,1,0,-1,-1,5.595
1120,1,2,0,-1,0,-2,-1,-1,5.6000000000000005
1121,-1,-1,-3,-2,-1,-1,-1,0,5.605
1122,1,4,8,2,-1,0,-1,0,5.61
1123,0,-5,-4,-4,-1,0,-2,-1,5.615
1124,1,4,-1,-1,1,-1,-1,0,5.62
1125,-2,-1,-3,-1,-1,1,0,-1,5.625
1126,-3,-1,2,0,0,-1,0,0,5.63
1127,-2,-1,0,-1,-1,-2,0,-1,5.635
1128,0,1,1,1,-1,0,-1,1,5.64
1129,0,-2,-2,-2,-1,0,-2,-1,5.6450000000000005
1130,0,-2,-3,-1,-1,-1,2,-1,5.65
1131,0,0,1,1,1,-2,-2,0,5.655
1132,0,-3,-4,1,-1,-1,-1,-1,5.66
1133,-1,2,5,2,-1,0,-1,1,5.665
1134,0,-1,-1,0,1,0,-1,-2,5.67
1135,-3,-2,-2,-3,-2,1,0,-2,5.675
1136,0,-3,-1,-1,1,0,-1,-1,5.68
1137,1,4,4,0,0,-2,-2,0,5.6850000000000005
1138,0,-4,-4,-2,2,-1,0,-1,5.69
1139,0,2,3,1,1,1,1,0,5.695
1140,1,1,-2,0,0,-1,-1,-1,5.7
1141,-2,-3,-3,0,-3,0,0,0,5.705
1142,1,0,-1,2,0,0,-1,0,5.71
1143,-2,-3,-5,-3,-2,0,-2,-1,5.715
1144,0,2,2,0,-1,-2,1,-2,5.72
1145,-2,-3,-4,0,2,-3,0,-3,5.7250000000000005
1146,-1,1,0,0,-2,-3,-1,0,5.73
1147,0,0,0,0,0,-2,-2,-2,5.735
1148,-1,-1,-2,-1,-2,-1,-1,0,5.74
1149,-1,-1,-2,-3,-2,-1,2,-1,5.745
1150,-2,-2,-3,-3,-3,0,-1,-1,5.75
1151,0,1,1,0,0,0,1,0,5.755
1152,-1,-1,-1,-3,0,-1,-1,-1,5.76
1153,-1,-4,-3,-2,0,-3,-3,-2,5.765
1154,0,0,0,-1,0,0,-2,3,5.7700000000000005
1155,-3,-3,1,-1,-4,-2,0,-1,5.775
1156,-3,-2,-1,1,-2,-2,0,-2,5.78
1157,0,0,2,1,0,0,-1,0,5.785
1158,-1,0,-2,-2,-1,-1,-2,-2,5.79
1159,-1,-3,0,-1,0,-1,0,-1,5.795
1160,2,3,3,0,-1,0,-1,0,5.8
1161,-3,-1,-1,-1,-4,-2,-2,-1,5.805
1162,-3,-3,-1,-1,-2,0,-2,0,5.8100000000000005
1163,-2,-3,-4,-3,-2,0,-2,-3,5.815
1164,0,-1,0,0,0,0,1,0,5.82
1165,0,-2,-1,0,0,1,-1,-1,5.825
1166,1,0,2,-1,0,0,3,-2,5.83
1167,1,4,2,1,0,1,0,0,5.835
1168,-2,-1,0,-2,-2,-2,-2,-1,5.84
1169,-3,-1,-3,-1,0,0,0,-1,5.845
1170,-1,0,0,0,-1,-2,-2,0,5.8500000000000005
1171,1,0,-1,-3,-2,-1,-1,-1,5.855
1172,-1,-2,-2,-2,1,1,-1,0,5.86
1173,-2,-2,-1,-1,-1,0,0,-1,5.865
1174,-3,-8,-4,-2,-2,-3,-2,0,5.87
1175,2,3,1,2,-1,0,0,2,5.875
1176,-2,-2,-2,-1,0,0,0,-1,5.88
1177,0,-1,-4,-1,-2,0,-1,-1,5.885
1178,0,3,2,0,0,1,-1,-2,5.89
1179,-1,3,2,1,0,-1,-1,0,5.8950000000000005
1180,-2,-4,-6,-4,-2,-2,-1,-1,5.9
1181,2,3,2,-1,1,2,0,0,5.905
1182,-3,-3,-3,1,-3,-2,-2,-3,5.91
1183,-3,-1,-2,-1,0,-2,-1,0,5.915
1184,1,2,0,1,-1,-1,-1,0,5.92
1185,1,-2,-1,0,0,-1,-1,-1,5.925
1186,0,1,-3,-2,-1,-1,0,-2,5.93
1187,-1,-2,0,-2,-2,0,0,0,5.9350000000000005
1188,-2,-1,-1,1,1,-1,0,0,5.94
1189,-1,-5,1,0,-2,-2,-2,-1,5.945
1190,1,2,0,-1,1,1,0,1,5.95
1191,0,-2,-2,0,-1,-2,-1,0,5.955
1192,2,2,2,1,-1,-1,0,0,5.96
1193,-4,-6,-3,-1,1,-1,0,-2,5.965
1194,1,5,4,-1,-2,-2,-1,-1,5.97
1195,-1,-4,-4,-1,1,0,-1,-2,5.9750000000000005
1196,0,4,1,0,-1,1,0,0,5.98
1197,0,0,-3,-2,-1,0,2,1,5.985
1198,-3,-4,-2,-3,-2,-2,0,-2,5.99
1199,-2,-6,-1,-2,-2,-1,-1,1,5.995
1200,-1,1,0,1,-1,0,-1,-2,6.0
1201,0,1,-1,0,-1,-2,-1,0,6.005
1202,1,-1,-2,0,-1,-2,-1,1,6.01
1203,1,3,0,1,-2,-2,0,-1,6.015000000000001
1204,-3,-1,-2,0,0,0,-2,-1,6.0200000000000005
1205,0,1,-2,-1,-1,-1,1,-1,6.025
1206,-1,-5,-3,-1,-1,-1,-1,-1,6.03
1207,0,0,-2,-1,0,-1,-1,-1,6.035
1208,-1,-3,1,-2,-2,-1,0,0,6.04
1209,-1,1,-2,-3,-1,-1,-1,-3,6.045
1210,-1,0,1,0,1,0,1,-2,6.05
1211,2,-1,-1,-1,-1,1,0,0,6.055
1212,-2,-3,-1,-2,0,-1,-1,0,6.0600000000000005
1213,-1,0,1,-1,-2,-1,-2,0,6.065
1214,0,-2,-2,0,-1,-1,1,0,6.07
1215,-2,-2,-1,-2,1,1,-1,0,6.075
1216,2,-1,0,-1,-1,-1,-1,0,6.08
1217,-1,0,0,0,1,0,-1,-1,6.085
1218,0,0,-1,1,0,1,-1,-1,6.09
1219,-1,0,0,-1,-1,0,-1,0,6.095
1220,0,0,-4,-1,-1,-1,-1,0,6.1000000000000005
1221,0,3,4,1,0,0,0,0,6.105
1222,3,3,4,2,-1,0,0,1,6.11
1223,-2,-4,-5,-3,-2,-3,-1,-2,6.115
1224,-1,-4,-3,-3,0,1,0,0,6.12
1225,0,-2,-3,-1,-2,0,-2,-1,6.125
1226,-3,0,-2,-1,-2,1,-1,-2,6.13
1227,-1,1,2,0,-2,-2,-1,-1,6.135
1228,-2,-1,-2,1,0,-4,0,-2,6.140000000000001
1229,0,-2,-1,-1,0,-1,0,0,6.1450000000000005
1230,-1,-4,-4,-3,-3,-2,-3,-2,6.15
1231,1,1,1,0,0,-1,0,-1,6.155
1232,-1,-2,-1,0,-1,-1,-1,-2,6.16
1233,-3,-8,-2,-2,-2,-3,-2,1,6.165
1234,-1,1,-1,2,-1,-1,0,-1,6.17
1235,1,1,-1,2,0,0,0,-3,6.175
1236,-1,-3,1,-1,-1,-1,2,-1,6.18
1237,0,1,-2,0,2,0,2,0,6.1850000000000005
1238,-2,-1,0,-2,0,1,0,0,6.19
1239,-2,-2,0,-1,-2,-1,-2,-1,6.195
1240,0,0,-1,0,-2,-2,-2,0,6.2
1241,0,0,-1,1,-1,0,-2,0,6.205
1242,0,-2,-3,-4,0,-1,0,-1,6.21
1243,0,3,2,-1,0,-1,-1,-3,6.215
1244,-3,-2,-2,-1,-1,0,-2,-1,6.22
1245,0,-2,-1,-3,0,0,-2,-1,6.2250000000000005
1246,-1,0,0,0,-1,-2,-1,-1,6.23
1247,0,0,-1,-1,-1,-1,-1,-1,6.235
1248,-2,-2,-4,-4,-1,0,-1,-2,6.24
1249,-1,1,1,0,0,-1,-1,-1,6.245
1250,-1,-1,0,0,1,0,-1,0,6.25
1251,-4,-6,-4,-2,-1,0,-2,0,6.255
1252,0,3,2,2,0,1,-1,-1,6.26
1253,-4,-6,-3,-2,-2,0,-2,-2,6.265000000000001
1254,-2,-3,-2,-1,-1,-1,-1,0,6.2700000000000005
1255,0,-1,-1,0,-1,-1,1,-1,6.275
1256,-1,-1,0,-2,0,0,1,-1,6.28
1257,-1,0,-1,0,-4,-4,-2,-2,6.285
1258,1,2,-1,-1,-1,0,-1,-1,6.29
1259,0,0,1,1,0,0,0,1,6.295
1260,2,1,-1,0,-1,-1,0,0,6.3
1261,1,3,3,2,1,0,1,2,6.305
1262,-2,-5,-5,-2,-1,-2,0,-2,6.3100000000000005
1263,0,0,-1,-2,-1,-1,-3,-1,6.315
1264,1,4,-1,0,-3,-1,-1,-1,6.32
1265,-1,-2,0,-4,-1,-2,0,-1,6.325
1266,-3,1,2,1,1,-2,1,0,6.33
1267,-1,0,1,2,1,1,0,-1,6.335
1268,-1,-1,-1,-1,-2,0,-1,1,6.34
1269,1,4,1,-2,0,-1,-1,-1,6.345
1270,0,-4,-1,0,-1,0,0,0,6.3500000000000005
1271,-2,-1,-3,-2,-2,0,2,-2,6.355
1272,-1,-3,-1,0,1,-1,0,-1,6.36
1273,0,1,0,0,-3,0,-2,-1,6.365
1274,0,-2,-2,-1,0,-1,-1,0,6.37
1275,-1,1,2,-1,0,-3,-2,0,6.375
1276,-1,-5,-4,-4,-2,-2,-1,0,6.38
1277,3,3,3,1,-1,-1,1,0,6.385
1278,-3,-5,-1,-1,-2,-1,-2,-1,6.390000000000001
1279,-1,-2,-1,-1,-1,-1,1,-1,6.3950000000000005
1280,-1,-2,-1,0,-2,-1,-2,-1,6.4
1281,1,1,-1,-1,0,-1,-2,-1,6.405
1282,0,3,2,-2,0,0,-1,0,6.41
1283,0,-1,0,1,-1,1,0,-1,6.415
1284,-2,-3,-1,-3,-1,0,0,-1,6.42
1285,0,-1,-3,-1,0,0,1,-1,6.425
1286,1,2,0,0,-2,-1,-1,-2,6.43
1287,-3,-7,-4,-1,0,-1,-2,-1,6.4350000000000005
1288,-2,-1,1,0,1,0,0,-1,6.44
1289,-3,-5,-2,1,0,0,-1,-2,6.445
1290,1,5,3,-1,0,2,-2,0,6.45
1291,1,3,4,1,1,-2,-1,1,6.455
1292,-1,2,1,-3,-2,0,-1,-1,6.46
1293,-3,-4,-7,-2,-1,-1,-2,-2,6.465
1294,1,2,-1,-1,-1,-1,-1,0,6.47
1295,-1,-4,-4,-2,-1,0,-2,-1,6.4750000000000005
1296,-2,-5,-1,0,-1,-1,-3,-1,6.48
1297,0,1,1,0,-1,1,2,0,6.485
1298,-2,0,0,2,-1,-1,-1,-2,6.49
1299,0,-2,-3,-1,-1,-1,0,-1,6.495
1300,-1,-1,1,-1,0,0,-1,-1,6.5
1301,-2,-2,-2,-1,-1,-1,-2,-1,6.505
1302,-2,-3,-3,0,-1,-2,-2,-1,6.51
1303,0,1,0,1,0,0,-2,-1,6.515000000000001
1304,-1,2,-1,-2,-1,0,0,0,6.5200000000000005
1305,0,-1,1,-1,-1,-1,0,0,6.525
1306,0,-1,-1,-1,-1,-1,1,-1,6.53
1307,-2,-1,-1,-2,-1,0,0,-1,6.535
1308,0,2,2,1,1,0,0,-2,6.54
1309,0,-1,1,1,-1,0,-1,-1,6.545
1310,-4,-7,-1,-4,-4,-2,-3,0,6.55
1311,3,4,0,0,-2,-1,1,0,6.555
1312,-4,-5,-4,0,-2,-1,0,-2,6.5600000000000005
1313,0,-2,-2,0,2,1,0,-1,6.565
1314,4,7,2,-1,0,2,0,0,6.57
1315,-6,-11,-3,-2,-2,-3,-3,-1,6.575
1316,0,1,1,2,0,-3,-1,-1,6.58
1317,-2,-4,-2,-2,-3,-2,0,-1,6.585
1318,0,1,1,2,0,-1,-1,-1,6.59
1319,3,4,1,-1,1,0,-1,0,6.595
1320,0,-1,1,1,1,1,-1,2,6.6000000000000005
1321,-2,-2,-2,-1,-1,-3,-1,-1,6.605
1322,-2,-2,0,1,0,-1,0,-1,6.61
1323,1,0,-1,-1,-1,-1,0,0,6.615
1324,-2,-1,-2,-2,0,0,1,0,6.62
1325,0,1,2,-1,-2,-1,-2,1,6.625
1326,-1,0,-2,-2,0,-2,0,0,6.63
1327,-3,1,1,-1,-1,-1,-2,0,6.635
1328,1,4,6,1,0,0,-1,-2,6.640000000000001
1329,-1,-4,-5,-3,1,0,-1,-1,6.6450000000000005
1330,3,6,4,3,1,-1,0,0,6.65
1331,-4,-7,-5,1,0,0,-2,-3,6.655
1332,-1,-2,-6,-3,0,-1,-1,-2,6.66
1333,2,5,3,0,-1,0,0,-1,6.665
1334,-1,-4,-3,-1,-1,-1,0,-3,6.67
1335,2,3,1,-2,-2,-1,0,-1,6.675
1336,0,-1,-3,1,0,0,0,1,6.68
1337,-2,-4,0,0,0,-2,-1,-1,6.6850000000000005
1338,-3,-8,-4,-3,0,0,0,0,6.69
1339,-1,2,1,0,-1,0,1,1,6.695
1340,0,-2,-2,-2,-2,-2,-1,-2,6.7
1341,-2,0,-3,-2,-2,-1,-1,0,6.705
1342,-1,1,3,1,0,-1,-1,0,6.71
1343,-1,-4,-2,-2,1,0,-1,-2,6.715
1344,3,4,2,0,0,1,0,1,6.72
1345,-3,-3,-1,0,1,-1,1,-1,6.7250000000000005
1346,0,0,1,-1,-1,0,-2,-1,6.73
1347,0,1,-2,-2,-1,-1,0,-1,6.735
1348,0,0,-2,-1,0,-2,-3,0,6.74
1349,1,3,2,-1,0,1,0,1,6.745
1350,-2,-4,-7,-3,-2,-1,0,0,6.75
1351,-3,-4,1,0,-1,-2,0,0,6.755
1352,-3,-2,-3,-3,-4,-1,-2,-2,6.76
1353,-2,0,-1,-2,-3,-1,0,-2,6.765000000000001
1354,-1,0,0,1,0,0,0,-3,6.7700000000000005
1355,-2,-4,-2,0,-1,0,-1,0,6.775
1356,-1,-3,-3,0,-2,-2,-1,0,6.78
1357,-2,-1,-2,-1,-1,-2,-1,-3,6.785
1358,0,-2,-2,-2,-2,-1,0,0,6.79
1359,0,2,2,0,0,-1,-1,-2,6.795
1360,-2,-3,-2,0,-1,0,1,0,6.8
1361,0,-3,-2,-1,0,-1,0,-1,6.805
1362,1,0,-1,1,-2,-1,0,1,6.8100000000000005
1363,0,1,-1,-1,-2,-1,-1,-1,6.815
1364,-3,-2,-2,-2,1,0,-1,-2,6.82
1365,0,1,0,0,-2,0,0,-2,6.825
1366,-3,-5,-3,-1,-1,-2,-2,-2,6.83
1367,0,4,0,-1,-2,-2,-1,1,6.835
1368,2,-1,-5,-2,1,-1,0,0,6.84
1369,1,1,0,1,0,0,-2,0,6.845
1370,-2,-7,-2,-4,-3,-2,0,0,6.8500000000000005
1371,0,-1,0,0,-2,-1,-1,-2,6.855
1372,0,1,2,-1,0,1,0,-1,6.86
1373,1,2,1,0,-1,0,-1,0,6.865
1374,-2,0,-1,0,-1,0,-1,0,6.87
1375,-1,-1,-1,0,1,0,1,1,6.875
1376,-1,1,1,0,0,0,-1,-1,6.88
1377,-1,-2,-1,-1,0,0,-1,0,6.885
1378,-1,2,0,0,-1,-1,-3,-1,6.890000000000001
1379,-2,-4,-1,0,0,-1,0,-2,6.8950000000000005
1380,-2,0,1,-1,0,0,-2,0,6.9
1381,0,-3,-3,0,-2,0,-2,-1,6.905
1382,2,1,1,-1,-1,-2,1,-1,6.91
1383,0,2,-1,-2,0,-1,-1,-2,6.915
1384,-1,-4,-4,-2,-3,-1,-1,-1,6.92
1385,-1,0,1,1,0,-1,0,0,6.925
1386,0,4,2,0,0,2,-1,-1,6.93
1387,0,1,-1,-1,-2,1,-1,-2,6.9350000000000005
1388,0,-1,1,2,0,-3,-2,0,6.94
1389,-1,-1,1,-1,-1,-1,1,0,6.945
1390,-2,-11,-9,-4,-1,-1,0,-1,6.95
1391,2,4,1,-2,1,1,0,2,6.955
1392,-1,0,-1,2,0,0,0,1,6.96
1393,-2,-5,-2,-2,-1,-3,-1,-1,6.965
1394,-2,0,3,2,-1,-1,0,-2,6.97
1395,-2,-4,-2,0,0,0,0,-1,6.9750000000000005
1396,-1,-1,0,-3,-3,-3,-1,-2,6.98
1397,0,0,-3,1,1,1,-2,-1,6.985
1398,0,0,3,0,0,0,-1,1,6.99
1399,-2,-3,-3,-4,-2,-1,-1,1,6.995
1400,1,0,3,1,-1,-1,0,-1,7.0
1401,0,-1,-1,-3,-1,-1,0,0,7.005
1402,-1,0,-4,0,1,-1,-1,-1,7.01
1403,-3,-3,-1,0,-1,0,-1,-1,7.015000000000001
1404,0,0,-2,-1,0,1,0,-1,7.0200000000000005
1405,-1,-2,-1,-1,1,0,-1,0,7.025
1406,0,0,0,0,-1,1,-1,-2,7.03
1407,2,3,0,1,1,-2,-2,-1,7.035
1408,0,-3,-4,-3,0,0,0,-1,7.04
1409,-1,2,-1,0,-2,-2,0,-1,7.045
1410,3,8,1,0,0,-1,0,0,7.05
1411,-4,-11,-2,0,-1,-2,-2,-4,7.055
1412,-1,-1,-4,-2,-3,0,-2,0,7.0600000000000005
1413,-1,-4,-3,-1,0,1,-1,0,7.065
1414,-2,0,0,-1,-1,0,-2,1,7.07
1415,-1,2,2,2,0,-1,-1,-1,7.075
1416,-1,1,-2,-1,-1,-1,0,-2,7.08
1417,-2,-1,0,1,-1,-1,-2,-3,7.085
1418,-2,-2,0,-1,0,0,1,0,7.09
1419,-1,-1,-2,0,0,0,0,-1,7.095
1420,0,-2,0,-1,-1,-1,-2,-1,7.1000000000000005
1421,2,2,-1,-1,-2,0,-2,0,7.105
1422,-2,-2,-3,-4,-1,-1,-1,-2,7.11
1423,-1,-3,-1,-3,-3,-3,-3,0,7.115
1424,3,7,5,1,1,-1,1,0,7.12
1425,-4,-12,-6,-3,0,1,0,-2,7.125
1426,-3,-7,-3,-1,-2,-2,-1,-3,7.13
1427,-3,-3,-3,0,1,-1,-3,-2,7.135
1428,-4,1,0,1,0,1,-2,-2,7.140000000000001
1429,-1,2,1,-2,-1,0,-2,0,7.1450000000000005
1430,2,-1,-2,0,0,-1,1,0,7.15
1431,1,2,-3,-3,-4,-2,0,0,7.155
1432,-3,-4,0,-1,-1,-2,0,-2,7.16
1433,-1,0,-1,-3,1,1,3,3,7.165
1434,6,-5,-3,-1,-4,-3,-3,1,7.17
1435,-2,-1,-1,-15,-9,-3,-2,-2,7.175
1436,-3,-6,1,21,13,2,0,-1,7.18
1437,-3,3,1,1,-2,-2,-1,-3,7.1850000000000005
1438,-2,3,1,1,3,0,3,-2,7.19
1439,-4,0,2,1,0,2,2,0,7.195
1440,1,3,3,-8,-5,-1,-2,-1,7.2
1441,-1,-5,-14,-2,0,-1,-3,-2,7.205
1442,-2,1,2,-6,-1,-2,0,-1,7.21
1443,4,-1,-8,8,1,-2,0,0,7.215
1444,-2,1,1,-2,-2,-2,-2,1,7.22
1445,1,2,6,8,6,3,0,1,7.2250000000000005
1446,5,-3,-3,-40,-20,-4,-4,0,7.23
1447,-10,-3,5,49,24,5,1,-1,7.235
1448,2,-4,-3,-1,-1,0,3,2,7.24
1449,4,-1,0,5,-2,-4,-5,-6,7.245
1450,-4,1,-3,-4,-2,-2,3,2,7.25
1451,17,2,2,-20,-11,-2,-1,2,7.255
1452,-10,2,-1,-1,-3,-5,-4,-2,7.26
1453,-6,-3,-1,-4,-1,-2,-3,-3,7.265000000000001
1454,0,2,-11,-16,-4,-1,-3,-3,7.2700000000000005
1455,-3,1,6,0,-2,-1,-1,0,7.275
1456,7,-5,-2,0,0,1,-1,1,7.28
1457,-13,2,2,-4,-4,-2,0,-3,7.285
1458,-3,-5,3,21,10,2,-3,-1,7.29
1459,0,0,-5,-11,-6,-1,-1,-2,7.295
1460,-1,1,1,-27,-9,-5,-9,-6,7.3
1461,-8,3,6,29,10,2,4,9,7.305
1462,37,1,-2,8,5,3,8,11,7.3100000000000005
1463,-33,-4,-3,-2,-3,-4,-8,-13,7.315
1464,-13,-8,-1,-4,-4,1,13,2,7.32
1465,-6,0,0,-11,-5,-1,-8,-7,7.325
1466,-19,-5,-3,4,-3,-2,0,-2,7.33
1467,9,7,-4,-13,-3,-2,2,4,7.335
1468,7,-3,0,15,3,1,-3,-3,7.34
1469,-2,-2,-6,-37,-14,-5,0,-2,7.345
1470,0,3,5,58,24,5,0,-1,7.3500000000000005
1471,14,-1,1,-6,-2,3,-1,1,7.355
1472,-15,-4,-7,-21,-7,-2,-4,-3,7.36
1473,2,5,9,34,11,1,2,1,7.365
1474,24,22,22,-16,-10,2,1,1,7.37
1475,-23,-14,-9,-11,5,-1,-1,-3,7.375
1476,-2,-19,-19,7,-5,-4,-6,-6,7.38
1477,10,-2,-3,-10,-2,1,5,2,7.385
1478,-8,-3,1,-5,0,-1,-2,-3,7.390000000000001
1479,-1,-2,-2,9,-1,0,-2,2,7.3950000000000005
1480,7,13,18,-25,-8,-3,1,4,7.4
1481,27,-8,-28,6,1,-1,-4,-4,7.405
1482,-22,-4,4,15,8,-1,-5,-7,7.41
1483,19,4,0,0,-4,1,6,8,7.415
1484,-12,0,3,15,5,-2,-5,-4,7.42
1485,-2,0,-1,-17,-1,0,5,-1,7.425
1486,-6,2,-2,0,1,3,-2,-3,7.43
1487,15,15,7,-7,-2,4,11,13,7.4350000000000005
1488,-3,-2,-1,10,2,2,5,-1,7.44
1489,-4,3,6,2,-2,-4,-21,0,7.445
1490,9,-6,-6,-26,-11,-4,-2,-1,7.45
1491,-23,-6,-10,-8,-2,-5,-11,-9,7.455
1492,17,12,8,16,4,3,5,1,7.46
1493,-8,-3,-5,-35,-16,-3,5,1,7.465
1494,-4,-11,-5,38,10,0,-3,-2,7.47
1495,4,-4,-1,-8,-6,-2,-1,-4,7.4750000000000005
1496,0,-2,1,10,7,0,3,0,7.48
1497,-3,-2,-11,-5,-3,-1,-1,-3,7.485
1498,-2,1,-3,-14,-10,-5,-5,-1,7.49
1499,9,7,5,-10,1,-1,3,-2,7.495
1500,0,-8,0,16,5,0,-7,3,7.5
1501,-15,-5,9,0,-2,-2,-4,-9,7.505
1502,-19,-7,-6,-25,-9,0,3,-1,7.51
1503,0,2,5,30,13,3,2,-3,7.515000000000001
1504,-5,-6,4,-5,-10,-4,-1,2,7.5200000000000005
1505,17,11,-5,-11,5,1,9,1,7.525
1506,14,6,9,26,13,6,8,7,7.53
1507,-6,-2,-2,4,-6,-8,-18,0,7.535
1508,1,-14,-44,6,-3,-2,0,-1,7.54
1509,-8,-6,1,8,0,-3,-2,-2,7.545
1510,-13,-16,-5,-26,-12,-8,-2,-7,7.55
1511,13,2,8,-6,1,4,8,1,7.555
1512,2,7,8,1,0,-2,-8,3,7.5600000000000005
1513,-3,-8,-3,0,-2,-3,2,4,7.565
1514,15,7,-10,-25,-7,-3,-5,0,7.57
1515,-18,-12,-3,18,-1,-1,1,-5,7.575
1516,4,13,-3,-4,8,6,13,4,7.58
1517,-4,-11,13,-15,-3,-1,-9,-8,7.585
1518,-6,4,5,41,17,3,-7,-2,7.59
1519,7,0,-10,-58,-17,-5,-4,2,7.595
1520,15,6,9,36,7,3,7,4,7.6000000000000005
1521,-16,-1,-8,4,-1,0,1,0,7.605
1522,3,8,3,-10,-3,1,8,7,7.61
1523,3,-6,-7,-12,-7,-3,-1,-6,7.615
1524,7,11,26,-10,-4,-3,-9,-6,7.62
1525,7,0,-23,15,12,5,6,8,7.625
1526,-16,-10,0,-6,-11,-5,5,-9,7.63
1527,-31,-6,-6,-21,-1,-3,-17,-12,7.635
1528,26,9,3,-10,-2,1,8,12,7.640000000000001
1529,-6,-4,14,18,2,-1,-2,-6,7.6450000000000005
1530,12,6,-12,14,9,5,-3,2,7.65
1531,6,12,4,-24,-4,1,1,3,7.655
1532,-33,-15,14,19,-2,-4,-6,-5,7.66
1533,25,5,0,-7,-4,-4,0,6,7.665
1534,1,-5,-19,-8,-1,-5,-8,-9,7.67
1535,12,6,25,46,17,5,9,10,7.675
1536,-26,-34,-64,-57,-14,-6,-10,-13,7.68
1537,-6,3,12,-2,-4,-3,0,-6,7.6850000000000005
1538,6,2,21,24,-4,1,5,9,7.69
1539,0,7,1,15,13,6,5,2,7.695
1540,3,5,13,1,0,0,1,-2,7.7
1541,-2,-7,-20,-29,-7,-1,-2,1,7.705
1542,-16,-12,-18,-7,-4,-4,-4,-6,7.71
1543,15,1,6,12,-5,-3,-2,-3,7.715
1544,-3,3,7,-9,0,2,3,7,7.72
1545,-7,0,0,1,-3,2,12,-9,7.7250000000000005
1546,-10,5,9,-5,2,1,-17,3,7.73
1547,16,-4,-6,-15,-16,-9,-3,4,7.735
1548,-13,-4,-8,-2,6,-2,-8,-8,7.74
1549,-1,1,22,16,-2,0,10,0,7.745
1550,-14,-1,-9,10,9,7,2,4,7.75
1551,30,8,14,-17,-9,-8,-3,4,7.755
1552,-20,-5,-6,21,-5,-5,-8,-9,7.76
1553,9,-14,-40,-18,-4,-3,-6,2,7.765000000000001
1554,-9,-11,-17,-26,-12,-4,8,-5,7.7700000000000005
1555,-16,2,11,68,24,6,0,-4,7.775
1556,0,14,15,-21,1,1,0,4,7.78
1557,12,10,4,7,5,4,-1,3,7.785
1558,-29,-10,5,-38,-13,-5,1,-5,7.79
1559,-8,-15,-2,7,-1,1,-1,-7,7.795
1560,14,-6,-5,31,1,-4,-6,-2,7.8
1561,-10,0,-11,-2,4,3,9,8,7.805000000000001
1562,20,1,-8,-19,-9,-10,-25,-11,7.8100000000000005
1563,7,10,9,1,-2,3,12,6,7.815
1564,-7,3,9,10,5,10,17,-3,7.82
1565,-18,-5,17,-13,-8,0,-17,-4,7.825
1566,13,4,0,12,2,-3,9,12,7.83
1567,15,-9,-34,19,6,-2,-1,0,7.835
1568,-10,11,1,-9,2,0,5,9,7.84
1569,1,3,18,-13,-5,1,-1,-8,7.845
1570,3,0,-18,6,4,2,7,-4,7.8500000000000005
1571,-28,-29,-9,-30,-17,-6,-17,-9,7.855
1572,18,5,-8,-10,-1,-3,-3,2,7.86
1573,15,18,20,32,7,0,6,8,7.865
1574,-6,0,14,-6,-2,2,3,1,7.87
1575,-5,-4,-30,-24,0,-1,6,0,7.875
1576,4,1,3,3,-3,-3,5,-5,7.88
1577,12,15,15,9,1,-3,-14,3,7.885
1578,-5,-14,0,-27,-13,-4,-2,-5,7.890000000000001
1579,-2,5,1,47,17,7,2,3,7.8950000000000005
1580,-19,-15,-4,-13,-8,-5,-10,-12,7.9
1581,1,-6,-2,-18,0,5,14,-1,7.905
1582,30,16,4,37,7,-2,-1,9,7.91
1583,-13,9,21,-34,-4,0,3,-4,7.915
1584,-2,5,-3,19,0,0,1,5,7.92
1585,-30,-33,-41,-5,0,-7,-8,-19,7.925
1586,14,0,4,-22,-5,4,1,10,7.930000000000001
1587,-15,-10,-8,-20,-10,-4,-5,-2,7.9350000000000005
1588,23,6,16,16,2,-3,-3,3,7.94
1589,-14,6,0,-28,-11,-10,-22,-6,7.945
1590,-5,-1,8,26,10,5,5,-5,7.95
1591,0,2,22,23,8,-1,-5,-2,7.955
1592,2,4,-29,-33,-3,2,7,-2,7.96
1593,-11,-17,-11,32,6,-1,1,0,7.965
1594,11,17,19,4,-4,-2,0,4,7.97
1595,6,5,16,-4,3,4,8,0,7.9750000000000005
1596,-5,-13,-13,-4,-5,-4,-10,-7,7.98
1597,10,4,-2,-5,-4,0,4,4,7.985
1598,-3,-3,2,-16,-10,-5,-7,-8,7.99
1599,-12,-1,-18,9,14,9,14,2,7.995
1600,4,2,25,5,0,-6,-14,-2,8.0
1601,5,10,-1,7,-3,-4,-3,0,8.005
1602,-13,-5,7,-24,-8,-5,-2,-1,8.01
1603,-15,-14,-13,17,0,-5,-8,-5,8.015
1604,-5,0,2,11,7,3,1,-5,8.02
1605,15,2,-4,-15,0,4,15,5,8.025
1606,-15,-8,5,23,1,-6,-21,-7,8.03
1607,2,15,10,-13,-11,-4,-5,1,8.035
1608,14,-6,-35,3,3,2,0,7,8.040000000000001
1609,-4,-1,22,4,-2,-1,2,-2,8.045
1610,-4,0,-3,-11,-2,0,4,-8,8.05
1611,1,-2,-19,-15,-7,-1,6,7,8.055
1612,7,7,16,1,-10,-2,0,2,8.06
1613,10,-4,-6,17,9,3,-1,1,8.065
1614,1,-4,-8,2,7,0,-2,-2,8.07
1615,-7,1,-5,-1,-3,0,1,-3,8.075
1616,3,4,16,-27,-13,-5,-5,1,8.08
1617,8,9,0,2,-1,3,6,11,8.085
1618,-7,-5,-8,16,13,3,2,-4,8.09
1619,-5,-7,-3,-5,-2,-1,1,-5,8.095
1620,8,0,0,-13,-1,1,1,5,8.1
1621,-13,7,26,5,-1,0,-4,-8,8.105
1622,7,-12,-42,-18,-10,-5,5,-2,8.11
1623,3,-3,13,2,2,-1,-17,-5,8.115
1624,-9,-11,-24,-20,-2,-2,0,-3,8.120000000000001
1625,5,10,24,26,2,-5,-8,-1,8.125
1626,-9,-2,-5,-26,-4,1,8,3,8.13
1627,7,-7,-6,12,0,1,-1,0,8.135
1628,2,1,-7,-3,-4,-6,-11,-2,8.14
1629,11,3,-9,-7,1,2,10,6,8.145
1630,-19,-1,5,1,-2,-2,-8,-9,8.15
1631,-1,7,9,6,2,3,2,1,8.155
1632,-3,-5,-3,-7,-1,3,17,3,8.16
1633,20,-6,-19,-22,-6,-7,-19,-2,8.165000000000001
1634,-11,0,11,29,3,-2,-2,3,8.17
1635,1,1,-3,22,5,-3,-9,-7,8.175
1636,-7,0,22,1,-5,3,2,-5,8.18
1637,4,-8,-38,-24,-9,-1,10,1,8.185
1638,14,9,15,7,4,-1,-5,12,8.19
1639,-12,-13,-12,-20,-10,-7,0,-8,8.195
1640,-4,3,4,-9,-1,1,0,1,8.2
1641,-10,-2,-2,5,-6,-2,1,-1,8.205
1642,0,-2,12,20,6,2,4,0,8.21
1643,5,2,-6,-4,0,1,2,3,8.215
1644,0,-6,-5,-13,-4,-5,-7,-3,8.22
1645,-12,-9,-3,-3,0,-2,-7,-4,8.225
1646,3,7,-1,3,1,2,8,-2,8.23
1647,6,1,-3,-6,-2,-3,0,4,8.235
1648,-6,-8,-4,2,4,1,-8,-8,8.24
1649,-2,6,11,3,1,1,3,1,8.245000000000001
1650,5,6,-2,-3,-2,2,0,1,8.25
1651,1,-8,-4,-10,-4,-2,-1,-2,8.255
1652,1,1,-1,13,2,0,1,-1,8.26
1653,-5,-2,2,10,3,-4,-3,2,8.265
1654,4,1,-2,-2,-1,-1,0,-4,8.27
1655,-4,0,-4,-25,-9,-6,-6,-2,8.275
1656,-6,4,3,2,0,3,27,2,8.28
1657,2,-1,7,43,21,8,-22,4,8.285
1658,4,-1,-5,-5,-2,-2,-5,-1,8.290000000000001
1659,-4,0,1,-6,-4,-1,-2,-3,8.295
1660,4,0,0,-7,-4,-4,-1,1,8.3
1661,-10,-1,0,-6,-5,-3,4,-4,8.305
1662,-1,-7,-4,-2,-1,0,1,0,8.31
1663,3,2,0,-2,-2,0,-3,-1,8.315
1664,0,1,0,6,5,2,-1,-2,8.32
1665,-2,10,4,0,-2,-1,0,-6,8.325
1666,0,-10,-5,1,-5,-17,-10,5,8.33
1667,-4,6,4,-2,-4,1,6,-12,8.335
1668,7,-11,-8,8,6,10,6,18,8.34
1669,12,3,17,-3,-2,12,8,3,8.345
1670,-4,-8,-18,-13,-2,17,6,-6,8.35
1671,10,5,8,7,3,4,1,2,8.355
1672,-3,4,-5,4,2,-3,-6,-5,8.36
1673,-11,-14,0,-11,-6,-10,-6,-3,8.365
1674,1,1,6,1,0,-4,-1,-1,8.370000000000001
1675,-5,-8,-11,3,0,-7,-1,3,8.375
1676,-3,0,3,0,-3,-4,-6,-4,8.38
1677,-3,0,-6,-6,-3,-7,1,0,8.385
1678,-3,2,3,-2,-1,-1,-1,-3,8.39
1679,0,0,-6,4,0,1,2,3,8.395
1680,-1,1,1,-3,-1,-1,-6,-1,8.4
1681,0,-1,-1,-1,0,-2,0,-1,8.405
1682,-1,1,-3,1,-1,-2,1,-1,8.41
1683,3,6,3,-1,-2,4,-1,3,8.415000000000001
1684,-5,-9,-2,-1,-1,-4,-5,-5,8.42
1685,-7,-7,-9,-2,-3,-3,-1,-3,8.425
1686,2,8,5,3,3,10,2,-1,8.43
1687,-7,-18,-8,-6,-5,-7,-2,-3,8.435
1688,-1,1,2,5,3,2,-2,-3,8.44
1689,1,3,-8,-15,-6,-5,-2,-1,8.445
1690,-4,1,4,17,8,-3,-2,-2,8.45
1691,5,6,6,1,-2,-1,-1,4,8.455
1692,1,-1,-7,-1,0,2,0,-3,8.46
1693,-1,-2,-2,-5,-1,-4,0,-1,8.465
1694,0,0,1,-6,-4,-2,2,0,8.47
1695,-1,-1,-3,2,1,8,3,1,8.475
1696,-1,1,2,-1,-2,1,-1,0,8.48
1697,1,5,-1,2,-2,0,1,0,8.485
1698,-1,-6,-3,-4,-1,-2,-3,-3,8.49
1699,0,-2,-3,0,-2,-4,-2,0,8.495000000000001
1700,-5,-5,-4,-2,-2,-9,-2,-2,8.5
1701,-3,1,2,6,4,9,3,-1,8.505
1702,0,4,4,1,0,-2,-4,0,8.51
1703,2,4,3,-1,1,2,0,0,8.515
1704,0,-5,-1,-1,-1,-6,-3,0,8.52
1705,-3,-1,-5,0,-1,-2,-2,0,8.525
1706,-2,-2,-3,-6,-2,1,4,-2,8.53
1707,0,-1,1,0,1,2,1,-1,8.535
1708,0,2,2,3,0,-2,-2,-1,8.540000000000001
1709,1,-1,1,1,1,1,-1,-1,8.545
1710,-1,-2,-4,-5,-5,-6,-2,-2,8.55
1711,-1,-6,-4,0,0,-7,0,-2,8.555
1712,0,1,-2,-3,-4,4,-1,-1,8.56
1713,-2,-6,-6,-9,-6,-3,0,1,8.565
1714,-1,-1,3,12,4,4,-1,0,8.57
1715,0,1,1,-3,-4,-4,-3,0,8.575000000000001
1716,0,-1,-1,2,6,-3,-1,-2,8.58
1717,0,8,13,3,1,1,-1,1,8.585
1718,2,3,-2,-3,-1,4,1,2,8.59
1719,-3,-6,-15,-1,-2,-6,-8,-1,8.595
1720,7,6,4,-1,-2,0,4,2,8.6
1721,-11,-8,-7,-4,-2,5,1,-2,8.605
1722,-1,-2,7,1,0,2,2,0,8.61
1723,0,2,5,0,0,1,-2,-2,8.615
1724,0,3,-2,-3,-3,-4,-5,1,8.620000000000001
1725,3,12,7,7,0,-6,-2,0,8.625
1726,3,-15,-35,-6,-2,-3,-3,1,8.63
1727,-2,-2,-1,-5,-1,0,1,0,8.635
1728,-4,-6,-4,-5,-2,-1,-3,-1,8.64
1729,-1,-3,4,3,1,-1,0,-2,8.645
1730,-1,5,6,-4,-1,-3,-3,-1,8.65
1731,-1,5,5,4,1,-2,1,0,8.655
1732,-1,3,7,3,0,-4,-6,0,8.66
1733,0,-5,-27,-3,2,2,5,0,8.665000000000001
1734,-1,0,20,0,-2,5,-1,0,8.67
1735,1,-2,-6,0,1,-1,2,0,8.675
1736,-1,2,3,1,-1,-1,0,0,8.68
1737,0,0,1,1,-2,-4,-6,-2,8.685
1738,-2,-6,-10,-5,-3,-1,-1,-1,8.69
1739,0,2,9,0,-1,-1,2,-1,8.695
1740,0,-3,-5,-8,-2,3,-1,-2,8.700000000000001
1741,-4,-5,-3,-6,2,0,-1,1,8.705
1742,-2,3,4,13,2,-1,2,0,8.71
1743,0,1,10,2,1,3,-2,-2,8.715
1744,0,-2,-16,-1,0,-2,1,0,8.72
1745,1,2,14,-2,-1,0,-4,-1,8.725
1746,-2,-9,-18,-12,-4,-4,-4,-2,8.73
1747,-1,1,0,3,0,-4,0,-2,8.735
1748,0,-8,-18,-3,-1,2,1,-4,8.74
1749,0,3,28,0,-2,0,1,1,8.745000000000001
1750,0,6,-4,1,1,-1,-4,1,8.75
1751,-1,-5,-13,-6,-4,-3,-4,0,8.755
1752,3,6,9,-1,-1,-1,-2,0,8.76
1753,0,-1,-3,0,-2,1,1,1,8.765
1754,-2,2,11,-1,-3,-14,-7,-1,8.77
1755,0,-1,-7,1,3,24,4,-2,8.775
1756,-5,0,11,0,-3,-4,-2,-1,8.78
1757,4,-5,-19,4,-1,-4,0,2,8.785
1758,-8,-2,4,-7,1,8,1,-5,8.790000000000001
1759,-3,-5,-7,-3,-2,-6,-3,0,8.795
1760,-1,-2,0,0,-1,3,-1,-1,8.8
1761,-1,1,5,2,2,-1,-1,-2,8.805
1762,-1,0,2,1,0,-2,2,0,8.81
1763,0,0,0,0,0,-6,0,-1,8.815
1764,-2,3,8,5,1,2,0,-1,8.82
1765,-3,-2,-4,-6,-3,-3,-3,-2,8.825000000000001
1766,2,3,-1,0,-2,3,1,0,8.83
1767,-1,1,-3,1,0,-3,-2,-1,8.835
1768,-1,0,4,5,1,-7,-2,-1,8.84
1769,-1,-1,-5,1,-1,8,0,-2,8.845
1770,-1,0,12,-3,-2,-1,-1,-1,8.85
1771,-1,-13,-29,-4,-2,-9,-7,-1,8.855
1772,-1,1,1,2,3,13,6,2,8.86
1773,-2,-6,-9,4,0,-3,2,-1,8.865
1774,0,-3,-13,-9,-1,3,4,0,8.870000000000001
1775,0,6,22,2,-1,-5,-3,-2,8.875
1776,-2,0,-6,-3,-2,-4,-1,-1,8.88
1777,-1,-6,3,-2,-1,3,-2,0,8.885
1778,2,3,1,6,2,0,0,1,8.89
1779,0,0,-1,-3,-1,1,2,-1,8.895
1780,0,-1,2,-1,-2,-3,-1,-3,8.9
1781,-2,-6,-2,0,-2,-3,-2,-3,8.905
1782,0,-1,-4,-1,-1,-6,-1,-1,8.91
1783,-2,0,-2,-5,0,0,1,0,8.915000000000001
1784,-8,-16,-9,-5,-3,2,1,-1,8.92
1785,-1,3,3,-1,-1,6,0,0,8.925
1786,0,-1,-2,1,0,0,-2,-1,8.93
1787,3,7,10,5,1,-2,0,0,8.935
1788,-1,2,0,-1,-2,-4,-2,-2,8.94
1789,-2,-6,-4,-3,0,-5,-2,-1,8.945
1790,-2,-5,-2,-1,-2,-1,1,0,8.950000000000001
1791,3,7,7,-1,0,2,1,1,8.955
1792,1,-1,-5,-1,0,-3,-2,-2,8.96
1793,3,2,-15,-2,2,0,-1,-1,8.965
1794,2,3,28,5,1,-1,-1,0,8.97
1795,-3,-1,9,-3,-4,-2,-2,-2,8.975
1796,-2,-4,-11,-9,-1,1,-1,1,8.98
1797,-2,-3,1,2,0,-4,0,-2,8.985
1798,1,4,-10,-3,-2,-1,-2,0,8.99
1799,1,-1,11,7,1,2,-1,0,8.995000000000001
1800,-2,-3,-2,-4,-1,-4,-1,-1,9.0
1801,2,7,5,-1,-1,-2,0,0,9.005
1802,-2,-6,-13,0,2,1,0,0,9.01
1803,0,1,-4,0,1,-1,0,-2,9.015
1804,1,5,2,5,1,0,-1,-1,9.02
1805,-1,-5,-1,-2,-2,1,0,-2,9.025
1806,-4,-12,-3,-2,0,0,0,-1,9.03
1807,-4,-6,-5,-3,-1,1,0,-2,9.035
1808,1,1,-2,1,1,0,1,1,9.040000000000001
1809,0,2,2,-1,-4,-4,-1,0,9.045
1810,-1,0,-1,0,-2,-3,-2,0,9.05
1811,1,-3,-9,-2,1,-1,0,-1,9.055
1812,0,1,6,-3,-2,1,-2,-1,9.06
1813,-3,-5,-4,-3,-2,-5,-3,-2,9.065
1814,1,5,-3,-1,0,1,0,1,9.07
1815,-1,-7,-6,-2,-2,-2,0,-1,9.075000000000001
1816,-4,-2,1,-2,-2,-4,-1,-3,9.08
1817,-1,1,-1,-2,1,3,2,-1,9.085
1818,-1,-2,-3,-2,-2,-1,-1,-2,9.09
1819,-1,0,-1,-1,-2,0,0,0,9.095
1820,0,1,-10,3,3,2,0,0,9.1
1821,-3,-8,5,-3,-1,-2,-3,-1,9.105
1822,-1,3,6,-3,-3,-9,-5,-1,9.11
1823,-2,-1,1,1,0,3,4,2,9.115
1824,3,1,2,1,1,6,-2,0,9.120000000000001
1825,2,3,-3,3,-2,-3,-1,1,9.125
1826,0,1,-3,-5,-2,-2,-4,-2,9.13
1827,-1,-4,-4,-2,-2,-5,-2,-2,9.135
1828,-1,5,4,3,-1,-2,0,-1,9.14
1829,0,3,3,2,2,2,0,-3,9.145
1830,-1,-3,-4,-3,-1,0,1,-2,9.15
1831,-2,4,0,-3,-2,-3,-3,-1,9.155
1832,-1,0,2,-1,-1,-1,0,-1,9.16
1833,1,3,3,0,0,-2,-3,1,9.165000000000001
1834,0,0,-11,-2,-2,0,2,0,9.17
1835,0,1,1,-4,-3,0,1,0,9.175
1836,0,-4,5,0,0,-1,-1,-1,9.18
1837,-4,-5,-7,-4,-1,-1,-1,-2,9.185
1838,0,3,3,1,0,1,2,-2,9.19
1839,-2,-5,-5,1,-1,-2,-3,0,9.195
1840,-2,-7,-4,0,2,-1,0,-1,9.200000000000001
1841,1,1,1,1,-1,-2,2,-1,9.205
1842,-3,-3,-4,0,-2,3,-2,-2,9.21
1843,2,2,2,0,-1,-4,-1,-3,9.215
1844,-3,0,4,1,-1,-2,-1,-3,9.22
1845,-1,-4,-12,-4,-3,-1,0,-1,9.225
1846,-2,-5,0,-1,-1,0,-2,0,9.23
1847,0,4,-1,2,-1,0,0,-1,9.235
1848,1,0,-10,-6,-4,-2,-3,-1,9.24
1849,2,4,9,1,1,-1,1,-2,9.245000000000001
1850,-3,-2,0,1,-1,4,0,-2,9.25
1851,-4,-7,-4,-1,-1,-6,-7,-2,9.255
1852,1,3,-2,-6,1,10,5,1,9.26
1853,-2,1,-8,0,1,0,0,-2,9.265
1854,0,-1,3,-1,0,0,2,0,9.27
1855,0,1,0,-1,-2,1,0,-1,9.275
1856,-4,-3,2,2,0,-4,0,-2,9.28
1857,0,0,0,-1,0,-2,-2,1,9.285
1858,-1,1,-1,1,-1,-1,0,-1,9.290000000000001
1859,-2,-4,-2,-1,1,0,2,0,9.295
1860,1,-2,-4,0,-2,-4,-1,1,9.3
1861,-3,-5,-1,-4,-1,-1,-1,-2,9.305
1862,-3,-5,-3,0,2,0,1,-4,9.31
1863,-1,-4,2,1,1,1,-2,-2,9.315
1864,-3,-3,0,0,-3,-1,-1,-1,9.32
1865,0,1,-3,3,0,-2,-3,0,9.325000000000001
1866,3,4,5,-3,-2,2,0,1,9.33
1867,-1,3,9,1,0,-2,-2,-1,9.335
1868,-2,-5,-9,0,-2,-3,0,-3,9.34
1869,1,-3,-2,0,1,2,1,0,9.345
1870,-2,0,-3,1,0,-2,1,-1,9.35
1871,0,1,-1,-1,-1,0,-1,-1,9.355
1872,2,3,6,-2,-1,-2,-2,2,9.36
1873,-2,-1,-2,1,-2,1,-3,-1,9.365
1874,-1,-2,1,-1,-1,-4,-2,-1,9.370000000000001
1875,0,2,-2,2,-1,-1,2,0,9.375
1876,0,2,0,-6,-1,0,-1,0,9.38
1877,-2,-2,1,2,1,0,0,0,9.385
1878,-1,0,-4,1,-1,-2,-2,0,9.39
1879,-1,-4,-1,0,-1,-4,-1,-1,9.395
1880,1,5,2,1,1,0,-1,-1,9.4
1881,-1,0,3,-2,-4,-2,-1,0,9.405
1882,-1,0,0,-1,-2,-2,2,2,9.41
1883,-1,-6,-8,-1,0,2,1,0,9.415000000000001
1884,-1,1,9,0,-1,-2,0,0,9.42
1885,-1,0,6,-1,1,1,1,0,9.425
1886,2,4,-5,3,0,-4,-2,0,9.43
1887,-3,-11,-10,-7,-3,1,-2,-2,9.435
1888,-3,-3,-3,-1,0,-1,-2,-2,9.44
1889,-3,-6,-3,-1,-1,-1,-1,-2,9.445
1890,1,0,4,1,0,1,-1,0,9.450000000000001
1891,1,6,3,-1,-1,-3,-1,0,9.455
1892,1,-1,-3,2,0,-5,-3,-1,9.46
1893,0,2,-3,-3,-2,3,1,0,9.465
1894,-2,-2,-3,-4,-1,-2,-1,-1,9.47
1895,-1,2,0,4,4,0,0,-1,9.475
1896,-1,-1,0,-1,-1,1,1,1,9.48
1897,0,0,-2,-1,-2,-2,1,-3,9.485
1898,-2,-3,-3,-3,-1,-2,-1,0,9.49
1899,1,1,1,0,-1,0,1,0,9.495000000000001
1900,0,2,2,-1,-2,-1,0,-1,9.5
1901,-1,-1,-9,-1,-2,-6,-2,0,9.505
1902,-2,1,10,-4,0,1,1,0,9.51
1903,-5,-9,-6,0,-1,-1,-1,-1,9.515
1904,3,2,0,-1,-3,0,0,-1,9.52
1905,3,8,2,0,-1,-3,-2,0,9.525
1906,-2,-8,-9,0,-2,0,-6,-3,9.53
1907,2,4,1,-3,0,-1,-1,-1,9.535
1908,-1,-1,-4,-1,-4,-2,-2,0,9.540000000000001
1909,-2,-2,-1,1,0,0,2,0,9.545
1910,0,3,2,1,-1,-2,-1,1,9.55
1911,1,-2,0,0,0,-1,0,-1,9.555
1912,-3,-6,-6,-3,-1,-1,-3,-2,9.56
1913,-1,-1,0,3,0,3,-1,0,9.565
1914,1,0,-2,-1,0,-2,-2,-3,9.57
1915,-1,-1,3,0,0,0,-1,-1,9.575000000000001
1916,-2,-2,-4,-1,0,-1,-1,0,9.58
1917,-3,-2,-1,-3,-1,-2,-3,0,9.585
1918,0,1,-1,1,-2,-1,0,-2,9.59
1919,0,5,2,-1,1,2,1,-1,9.595
1920,0,2,1,-2,1,0,-2,0,9.6
1921,-4,-7,-6,-3,-2,-2,-3,-1,9.605
1922,0,0,-4,0,-1,0,0,-2,9.61
1923,1,2,1,0,-3,0,-2,0,9.615
1924,-1,-5,1,-1,0,-1,0,-2,9.620000000000001
1925,0,-1,-3,-3,0,-3,-3,0,9.625
1926,-1,-3,-5,-5,-4,0,0,-1,9.63
1927,1,-2,-5,-2,0,-3,-2,1,9.635
1928,1,2,0,-1,-3,0,0,-1,9.64
1929,0,-1,1,-1,-1,1,-2,-3,9.645
1930,-1,-5,0,0,-1,-5,-3,-2,9.65
1931,0,1,-3,-1,-2,4,2,0,9.655
1932,-1,-1,3,1,-1,-1,-2,-2,9.66
1933,0,-2,5,-1,-2,-4,-1,0,9.665000000000001
1934,-2,-2,-1,-1,0,0,0,0,9.67
1935,-3,-2,-1,-3,-2,-3,-3,-1,9.675
1936,-2,-1,-6,-3,1,1,1,1,9.68
1937,0,5,2,4,1,3,1,0,9.685
1938,-1,-1,1,-1,0,-1,-1,0,9.69
1939,-2,-5,-6,-2,0,-1,-1,-2,9.695
1940,-2,-2,0,0,0,-4,-1,-3,9.700000000000001
1941,-2,-3,-3,-2,-1,1,1,-1,9.705
1942,3,9,5,2,2,1,-2,2,9.71
1943,-4,-7,-6,-1,-2,-3,-1,-1,9.715
1944,-1,0,0,2,-1,-1,-2,-1,9.72
1945,-2,-4,-2,-5,-1,-2,-1,-2,9.725
1946,-1,2,0,2,2,0,2,0,9.73
1947,-1,-3,1,-1,0,0,0,-2,9.735
1948,1,2,3,1,0,1,-1,-1,9.74
1949,1,2,-2,0,-3,-3,-1,1,9.745000000000001
1950,-5,-7,-3,-1,-3,-2,-1,-2,9.75
1951,1,2,2,-3,0,-2,-2,-1,9.755
1952,0,-3,-2,1,-2,-2,1,0,9.76
1953,-4,-3,-2,-2,0,0,-2,-1,9.765
1954,-1,2,-3,-3,-1,-1,-2,0,9.77
1955,2,6,4,1,-2,1,1,1,9.775
1956,-3,-5,-3,-2,0,-1,0,-2,9.78
1957,0,-2,-4,-1,1,0,-1,-1,9.785
1958,1,2,1,1,1,-1,1,0,9.790000000000001
1959,-2,-2,0,2,0,-1,-2,-3,9.795
1960,-3,-2,-7,-1,-1,1,-3,-2,9.8
1961,2,2,9,2,-1,-4,-2,-2,9.805
1962,-3,-9,-2,-1,-1,1,1,0,9.81
1963,0,2,-2,-1,-2,0,-1,-1,9.815
1964,-1,-1,1,-1,0,0,1,1,9.82
1965,-2,-3,-6,-4,-1,-4,-2,1,9.825000000000001
1966,1,-1,-4,-2,-1,-1,0,-2,9.83
1967,2,6,8,5,-2,0,0,1,9.835
1968,0,-1,-4,-5,-1,-3,-1,-1,9.84
1969,-1,-3,-1,0,0,4,2,-2,9.845
1970,0,-1,-1,-3,-1,0,-1,-1,9.85
1971,0,-3,-1,2,0,-3,-1,0,9.855
1972,-2,-4,-1,1,-1,-1,0,-2,9.86
1973,-2,0,-3,0,-4,0,-1,0,9.865
1974,-1,-1,0,-2,-1,0,0,0,9.870000000000001
1975,-1,0,-4,-2,-1,-1,-2,-2,9.875
1976,-3,-3,-1,-1,-1,-1,0,0,9.88
1977,-1,2,2,-1,-1,-1,-1,-1,9.885
1978,0,-3,-5,-4,-5,-2,-1,-2,9.89
1979,2,2,-1,-1,-1,0,-1,-1,9.895
1980,0,3,1,1,3,-1,0,1,9.9
1981,-2,-5,-2,1,-1,-1,0,-2,9.905
1982,0,4,1,1,0,0,0,0,9.91
1983,-3,-3,2,-3,1,-2,0,0,9.915000000000001
1984,2,2,1,2,-3,1,-1,-1,9.92
1985,-1,-2,0,1,0,-2,-2,-2,9.925
1986,1,1,2,5,-2,0,-1,0,9.93
1987,-4,-5,-6,-6,-1,-3,-1,-1,9.935
1988,0,1,2,-1,-1,0,1,-1,9.94
1989,1,1,-2,-4,-1,-1,-2,1,9.945
1990,-4,-1,1,2,0,-1,-2,-2,9.950000000000001
1991,3,0,0,-1,-1,1,-2,0,9.955
1992,-4,-6,-3,-1,-1,-6,-4,-2,9.96
1993,4,-4,-4,-3,-1,2,3,0,9.965
1994,-7,0,1,1,0,0,-1,0,9.97
1995,-1,-2,-3,-2,-3,-2,-1,0,9.975
1996,0,0,-1,-1,1,2,0,0,9.98
1997,2,5,2,-1,-1,-1,-3,-1,9.985
1998,0,-2,-3,-2,0,-2,-1,1,9.99
1999,1,5,1,-2,0,2,2,-2,9.995000000000001
2000,-2,-6,-3,-1,-3,-2,-2,-2,10.0
2001,0,-4,-1,0,-2,-1,-1,-1,10.005
2002,0,-2,0,-1,-3,-1,1,-2,10.01
2003,-2,2,2,-1,-1,-4,-2,-1,10.015
2004,1,-1,2,2,0,2,2,-1,10.02
2005,0,2,0,1,0,0,0,0,10.025
2006,-1,-4,-2,-1,1,1,-1,-2,10.03
2007,-1,-3,-1,1,0,0,0,-1,10.035
2008,1,3,0,0,0,-1,-2,0,10.040000000000001
2009,-6,-8,1,3,-1,-4,-2,-1,10.045
2010,1,0,0,-3,-2,0,-1,0,10.05
2011,0,-2,-2,-2,0,0,0,-1,10.055
2012,1,3,2,-1,-2,-1,-3,-2,10.06
2013,-1,1,-5,-2,2,0,-1,-1,10.065
2014,1,-1,-4,-2,-2,-7,-2,-2,10.07
2015,-1,-3,-2,-2,-1,3,-1,0,10.075000000000001
2016,1,2,0,-1,-2,0,-1,0,10.08
2017,-2,-5,-1,-3,-3,-2,0,0,10.085
2018,-3,-1,-2,-4,-1,-2,-2,0,10.09
2019,0,-2,-3,1,-1,0,-2,-2,10.095
2020,-2,-1,-2,-2,-2,0,-1,-2,10.1
2021,0,5,0,-1,-1,1,0,0,10.105
2022,-3,-5,-3,-2,-3,0,0,-2,10.11
2023,-1,0,-2,0,-1,-3,-2,-1,10.115
2024,2,3,2,-1,0,-1,1,1,10.120000000000001
2025,0,0,1,1,0,-4,-3,-2,10.125
2026,1,0,1,1,1,-2,1,0,10.13
2027,-1,0,1,0,-1,-3,-1,-1,10.135
2028,-2,0,-2,-2,-1,3,0,0,10.14
2029,-3,-4,-2,-3,-1,-1,0,-2,10.145
2030,-1,1,-1,2,2,1,-1,-1,10.15
2031,-1,-2,-1,-1,0,-2,0,-2,10.155
2032,0,-1,0,-1,0,-2,-4,-1,10.16
2033,0,4,1,0,0,-1,-2,0,10.165000000000001
2034,-3,-6,-4,-4,-3,3,3,-1,10.17
2035,-1,-2,-1,5,0,-1,0,-1,10.175
2036,-1,0,-4,-7,-1,-1,-1,-3,10.18
2037,-1,-2,-1,0,1,-1,-1,0,10.185
2038,1,-2,0,-2,-1,-1,-3,-1,10.19
2039,0,-2,-3,-2,0,1,1,1,10.195
2040,-1,-4,-2,0,-1,-2,1,-1,10.200000000000001
2041,1,-1,-3,-3,-1,-1,-1,-2,10.205
2042,2,3,2,-2,0,-1,-1,0,10.21
2043,-1,0,1,-2,0,2,1,0,10.215
2044,-1,-1,-2,0,-4,-3,-4,-1,10.22
2045,-6,-9,-4,-2,-1,-2,1,-1,10.225
2046,2,3,1,2,1,-1,-2,-1,10.23
2047,-1,-2,-6,-3,-1,1,0,0,10.235
2048,0,3,3,0,-1,-3,0,-1,10.24
2049,-1,-2,-3,-2,-2,-2,-1,-1,10.245000000000001
2050,-2,0,-2,-3,-2,2,-1,-2,10.25
2051,-2,-2,4,4,2,0,-1,-1,10.255
2052,-3,-5,-4,-1,0,0,-3,-1,10.26
2053,2,3,1,0,0,-1,0,0,10.265
2054,0,2,2,0,0,-1,3,0,10.27
2055,-1,-3,-3,-1,-3,-2,-3,-2,10.275
2056,-2,-2,-1,-1,0,-1,0,0,10.28
2057,0,1,1,1,1,2,1,-1,10.285
2058,-1,1,0,1,0,-1,-2,0,10.290000000000001
2059,-3,-6,-3,-3,-4,-4,-3,-1,10.295
2060,0,-2,-2,-2,0,-1,-1,-1,10.3
2061,-1,2,-2,-4,-3,-1,-1,1,10.305
2062,0,1,1,-1,-1,0,0,0,10.31
2063,1,4,2,-3,0,1,0,0,10.315
2064,0,0,-2,-2,-2,-6,-1,0,10.32
2065,-1,-2,-2,1,-1,7,1,-2,10.325000000000001
2066,-2,0,-4,-3,-1,0,-1,-2,10.33
2067,0,9,6,3,2,0,0,0,10.335
2068,-2,-8,-5,-2,-1,0,-2,-1,10.34
2069,-2,-4,-4,-1,-2,-2,-2,1,10.345
2070,-1,-4,-2,-3,-2,0,0,-1,10.35
2071,-2,-3,-2,-2,-2,-1,-1,-2,10.355
2072,1,5,5,3,0,2,0,-1,10.36
2073,1,3,-3,-2,-1,-2,-2,-3,10.365
2074,-3,-6,-1,0,0,-1,-1,-2,10.370000000000001
2075,-1,0,-1,-3,-2,-5,-3,-2,10.375
2076,-2,-3,-1,1,1,2,2,1,10.38
2077,0,-2,1,2,-3,-1,1,-2,10.385
2078,-2,1,1,-2,0,-1,-2,0,10.39
2079,1,-1,-1,-1,1,0,-2,0,10.395
2080,-1,-1,-3,-2,-2,0,-1,-1,10.4
2081,-1,-2,0,-1,0,-1,-2,-1,10.405
2082,2,2,-2,3,-2,-6,-4,1,10.41
2083,-2,-4,-3,-1,1,9,2,1,10.415000000000001
2084,-2,-2,-3,-3,-2,-2,-2,-1,10.42
2085,-3,-4,-4,-3,-2,-1,-2,-1,10.425
2086,-2,-6,-3,-3,-2,-2,-2,-2,10.43
2087,0,-2,-3,1,-1,-1,-2,0,10.435
2088,-1,-3,-1,-2,-3,1,2,1,10.44
2089,3,11,6,1,1,-1,-1,1,10.445
2090,-2,-3,-4,-2,1,-2,0,-3,10.450000000000001
2091,0,1,0,-3,-2,-4,-1,-3,10.455
2092,1,0,-2,-1,-1,0,0,-1,10.46
2093,-2,-1,1,2,-1,-1,-2,0,10.465
2094,-1,0,-2,1,-1,2,1,0,10.47
2095,-3,1,0,-3,-1,-1,-1,-1,10.475
2096,2,2,0,-1,0,1,-2,0,10.48
2097,-3,-6,-4,-3,-2,-1,0,-1,10.485
2098,1,0,0,1,-1,-3,-1,-2,10.49
2099,1,-3,-1,-1,-1,-3,-4,0,10.495000000000001
2100,-1,0,3,0,1,5,3,-2,10.5
2101,0,0,-1,1,-1,0,1,0,10.505
2102,-2,-2,0,-2,-2,1,0,1,10.51
2103,-2,0,1,2,-1,-2,0,1,10.515
2104,-2,-1,-2,0,-2,-2,-2,0,10.52
2105,-3,-1,0,-3,0,0,0,0,10.525
2106,4,7,2,3,1,1,1,0,10.53
2107,-1,1,-1,1,0,-3,-1,-1,10.535
2108,-3,-4,1,-3,0,2,-1,-1,10.540000000000001
2109,-1,-2,0,0,1,0,-1,-3,10.545
2110,-1,-4,-4,-1,-2,-2,-1,-3,10.55
2111,0,-3,-1,-3,-1,-3,-2,-2,10.555
2112,0,3,1,1,1,-5,-1,0,10.56
2113,-1,-4,-1,0,0,2,0,-1,10.565
2114,0,0,0,-1,-1,0,0,-1,10.57
2115,-1,0,-1,-2,-3,0,0,0,10.575000000000001
2116,-1,-2,-2,-3,-3,-2,-1,-1,10.58
2117,0,1,0,3,-2,-3,-1,-1,10.585
2118,0,1,2,2,4,2,-3,1,10.59
2119,0,-5,-3,-2,-2,2,4,-1,10.595
2120,0,1,-2,-3,-2,-2,0,-1,10.6
2121,-2,-5,-6,-1,-1,-1,-1,-2,10.605
2122,-1,-1,-1,-2,-2,-1,0,-1,10.61
2123,1,1,-1,1,1,0,-2,-1,10.615
2124,-1,-4,-1,-1,-2,-2,0,-2,10.620000000000001
2125,1,2,0,-4,1,-1,0,2,10.625
2126,-2,-3,-1,4,-2,0,0,1,10.63
2127,-2,-6,-5,-3,0,-2,-2,0,10.635
2128,0,2,0,1,-2,3,0,0,10.64
2129,-1,1,0,-1,-1,-2,-2,0,10.645
2130,-1,-1,0,-2,0,1,0,1,10.65
2131,-1,1,-3,-2,-2,0,-1,-2,10.655
2132,0,-2,1,2,-1,-3,-2,0,10.66
2133,2,2,5,-1,-1,-4,-1,0,10.665000000000001
2134,-1,-3,-5,-4,-2,1,0,-2,10.67
2135,-1,1,0,1,-3,-1,0,-1,10.675
2136,-1,-2,-4,1,0,-1,-1,-1,10.68
2137,0,1,-2,-4,-1,1,0,-1,10.685
2138,-5,-4,1,2,2,-1,0,-2,10.69
2139,-1,-1,0,-1,-2,-1,-2,-1,10.695
2140,-3,-5,-2,-3,0,-1,-1,0,10.700000000000001
2141,-2,-3,0,-1,-1,-4,-2,-2,10.705
2142,-2,-2,-3,-5,-1,1,1,-2,10.71
2143,-1,-1,-2,0,1,4,1,-1,10.715
2144,-1,-5,-2,0,-2,-3,-3,-1,10.72
2145,-3,-7,-2,-1,-1,-1,0,-2,10.725
2146,1,3,-1,-1,-3,-2,-2,0,10.73
2147,1,-1,-1,-3,-1,-1,-2,-1,10.735
2148,1,3,1,-1,-2,-4,0,0,10.74
2149,0,0,-2,1,1,0,0,-1,10.745000000000001
2150,-1,0,1,-2,-3,-2,-1,-1,10.75
2151,-1,-2,0,1,0,-2,-1,0,10.755
2152,-1,-1,-1,-2,0,-1,1,-1,10.76
2153,2,8,3,4,-1,1,0,0,10.765
2154,0,-2,-2,2,-2,2,0,0,10.77
2155,-1,-1,-1,-2,-2,-1,-2,-2,10.775
2156,-4,0,-1,-1,0,-4,-1,1,10.78
2157,-1,2,0,-2,-1,4,2,1,10.785
2158,-2,-4,-5,-4,-3,-4,-2,-4,10.790000000000001
2159,0,5,0,-3,-2,0,1,-1,10.795
2160,2,0,-3,1,-1,0,-1,0,10.8
2161,-3,-7,-8,-4,-3,-1,-1,-2,10.805
2162,0,-1,0,-2,0,0,1,1,10.81
2163,-4,-2,-1,-1,0,-3,0,-1,10.815
2164,-2,-6,-4,-3,-2,-1,-2,-3,10.82
2165,0,1,2,1,-1,0,0,-1,10.825000000000001
2166,1,4,1,0,-2,-6,-3,0,10.83
2167,0,-1,-3,-3,0,12,-1,-1,10.835
2168,0,3,4,6,3,1,0,-2,10.84
2169,-5,-3,-5,-7,0,-2,-2,0,10.845
2170,1,1,2,2,1,1,1,2,10.85
2171,0,-3,-1,-1,-2,-4,-2,-2,10.855
2172,2,3,-11,0,-2,-1,-3,0,10.86
2173,-1,-3,5,-3,-2,2,-1,-1,10.865
2174,-2,1,2,2,1,-2,-1,-1,10.870000000000001
2175,0,3,2,0,-1,-4,1,0,10.875
2176,-4,-9,-6,-3,-1,2,0,-2,10.88
2177,1,1,-3,0,0,-3,0,-1,10.885
2178,3,0,-1,-2,-2,0,0,0,10.89
2179,-3,-1,2,3,-2,-5,-1,-3,10.895
2180,-4,0,2,-2,1,1,3,-1,10.9
2181,0,-1,-1,-1,1,1,-2,0,10.905
2182,-1,-6,-1,-1,-2,-3,-2,-1,10.91
2183,-2,0,-3,0,-2,-1,0,-1,10.915000000000001
2184,0,2,2,-1,-1,2,0,0,10.92
2185,0,-2,-1,3,1,-1,2,-1,10.925
2186,0,-1,0,-1,2,3,0,-2,10.93
2187,1,-2,-2,-1,-1,-3,0,0,10.935
2188,1,2,4,0,0,0,-2,-1,10.94
2189,0,0,-2,-1,0,-2,-2,-1,10.945
2190,-2,-1,-5,-2,-3,-1,-1,-2,10.950000000000001
2191,-1,-5,-6,-1,-2,-1,-2,0,10.955
2192,-1,0,-2,0,-1,-1,1,2,10.96
2193,0,3,-2,1,-2,-2,-3,0,10.965
2194,-1,-1,6,-2,-2,-2,-1,-3,10.97
2195,0,0,5,-1,-1,1,0,-2,10.975
2196,1,2,-7,-2,-3,-3,-4,-1,10.98
2197,-3,-5,-6,-2,-2,0,4,-2,10.985
2198,0,3,-2,-2,-2,0,0,0,10.99
2199,0,-4,1,0,-2,-1,-1,-1,10.995000000000001
2200,-1,-2,2,2,-1,-1,-1,-1,11.0
2201,2,6,4,0,0,-3,0,1,11.005
2202,-3,-8,-6,-5,0,4,0,-1,11.01
2203,0,1,1,-3,-2,-3,0,2,11.015
2204,-1,1,3,3,2,0,-3,-3,11.02
2205,0,2,3,2,-1,-1,-2,-1,11.025
2206,-3,-1,-1,1,0,-1,1,0,11.03
2207,3,2,-1,-3,0,-4,-1,-1,11.035
2208,-4,-5,0,1,-3,1,-1,-1,11.040000000000001
2209,-2,-5,-1,0,1,1,-1,-1,11.045
2210,2,4,0,4,0,-2,-2,0,11.05
2211,-3,-3,-2,-1,0,-1,-2,-2,11.055
2212,0,-2,1,-3,-1,-4,-2,0,11.06
2213,-1,-2,-3,-1,-2,-2,-1,-1,11.065
2214,1,0,-1,-3,-1,-2,-1,-1,11.07
2215,0,-2,-2,2,0,1,-1,1,11.075000000000001
2216,2,1,0,-2,-1,0,0,-1,11.08
2217,1,2,5,1,-2,-2,-3,-1,11.085
2218,-2,-5,-7,-4,1,1,-2,0,11.09
2219,-1,-3,-2,0,1,0,0,-1,11.095
2220,-1,0,0,-2,-3,-3,-1,-1,11.1
2221,1,1,4,1,-2,-2,-2,1,11.105
2222,0,-2,-3,-1,-1,0,0,-1,11.11
2223,-5,-10,-9,-5,-2,0,0,-3,11.115
2224,2,-1,0,-2,2,1,0,1,11.120000000000001
2225,-2,-1,-1,1,-1,-2,-1,0,11.125
2226,-1,1,-1,0,0,-2,-2,0,11.13
2227,0,2,0,-1,0,-3,-1,-1,11.135
2228,-1,0,-1,0,-2,1,0,-1,11.14
2229,-2,-3,-4,-2,-2,0,-1,-1,11.145
2230,-2,-1,2,2,-1,0,-2,-3,11.15
2231,-1,2,1,-1,-1,0,-1,0,11.155
2232,-2,1,0,1,0,-5,-2,-2,11.16
2233,1,1,-1,-1,1,5,1,-2,11.165000000000001
2234,-1,-4,-1,-1,-2,-5,-2,-2,11.17
2235,1,1,1,1,0,3,2,0,11.175
2236,1,1,2,-3,-1,-2,0,2,11.18
2237,-1,0,-2,-4,-3,0,-2,-1,11.185
2238,-1,-7,-7,2,0,-1,-1,0,11.19
2239,-3,-3,-2,-2,-4,-2,-3,-1,11.195
2240,1,4,2,-2,-1,2,2,0,11.200000000000001
2241,0,-5,-2,0,-1,-2,1,-1,11.205
2242,1,4,0,-2,-1,1,-2,-1,11.21
2243,0,0,-1,1,1,-4,-2,1,11.215
2244,-3,-3,-3,-1,0,1,-1,-1,11.22
2245,-1,3,0,-1,-2,-2,-3,0,11.225
2246,1,3,1,0,-1,-4,1,0,11.23
2247,0,2,-3,-2,-1,0,-2,0,11.235
2248,-3,-3,0,-2,-2,0,-1,-1,11.24
2249,-1,-3,-2,1,0,-2,-2,0,11.245000000000001
2250,-1,0,-2,0,-1,-1,-1,-2,11.25
2251,-1,-1,2,-2,-1,-1,-1,0,11.255
2252,2,4,2,0,-1,-1,0,2,11.26
2253,-2,-7,-3,-3,-2,-1,0,-1,11.265
2254,0,0,-1,-3,-1,0,0,0,11.27
2255,0,-4,-5,-5,-4,-1,0,-1,11.275
2256,-1,0,-1,4,-1,-2,-2,-2,11.28
2257,4,6,2,-6,3,0,0,2,11.285
2258,-4,-9,-3,-2,-1,-1,-1,-1,11.290000000000001
2259,-2,1,-3,-1,-1,1,0,-1,11.295
2260,-2,-3,-2,0,-2,-1,2,0,11.3
2261,-2,1,-2,1,-1,0,-4,-3,11.305
2262,0,1,-1,1,0,1,2,-1,11.31
2263,-1,-1,0,0,1,-3,-2,-1,11.315
2264,-4,-7,-5,-4,-1,-5,-1,0,11.32
2265,0,0,0,3,2,3,0,1,11.325000000000001
2266,1,5,4,-3,-1,6,0,1,11.33
2267,-3,-6,-4,1,0,-1,0,-1,11.335
2268,2,1,1,-3,0,1,-2,-3,11.34
2269,-2,-1,-1,1,-1,-3,1,-1,11.345
2270,-2,-2,-2,-4,-4,-6,-2,-1,11.35
2271,0,1,2,4,1,4,3,1,11.355
2272,1,0,-2,0,2,-1,-1,-1,11.36
2273,-5,-9,-6,-3,-1,-2,-2,-4,11.365
2274,2,3,3,7,2,0,-1,1,11.370000000000001
2275,0,0,-1,0,-1,-2,-1,-1,11.375
2276,-1,-4,-2,-2,-1,-2,-2,-1,11.38
2277,-1,-4,-1,2,1,1,0,-1,11.385
2278,-2,0,-2,0,-2,-2,0,0,11.39
2279,2,5,1,-1,-1,0,0,0,11.395
2280,-2,-3,-1,1,0,1,1,-1,11.4
2281,-1,-2,-2,1,-1,-3,-2,1,11.405
2282,-1,-2,1,0,0,-1,-1,-1,11.41
2283,-1,0,2,2,1,-1,-1,0,11.415000000000001
2284,-2,-1,-3,-4,-2,-1,-1,-2,11.42
2285,1,3,0,0,-2,-1,0,-1,11.425
2286,-1,0,0,0,0,1,-1,0,11.43
2287,-2,-7,-5,-3,-1,-1,0,0,11.435
2288,0,2,0,0,-1,-2,0,0,11.44
2289,-3,-7,-4,-3,-2,-2,0,-2,11.445
2290,-1,0,1,-2,1,-3,-2,0,11.450000000000001
2291,-1,0,0,0,-1,1,-2,1,11.455
2292,0,-1,0,-5,-1,0,0,1,11.46
2293,-3,-9,-6,1,-1,-4,-3,-3,11.465
2294,2,0,-1,6,0,-1,1,0,11.47
2295,-7,-5,-3,-10,2,4,-1,-4,11.475
2296,-7,-6,-5,2,-4,-3,-3,-3,11.48
2297,1,6,3,1,-2,-1,0,-2,11.485
2298,-1,-1,-1,8,4,0,2,0,11.49
2299,8,2,0,-2,-3,-3,0,4,11.495000000000001
2300,0,1,3,2,1,0,-1,-1,11.5
2301,1,1,3,-10,-1,0,0,0,11.505
2302,-7,-2,-11,-1,-2,-5,-4,-3,11.51
2303,-1,5,2,1,0,0,0,-1,11.515
2304,0,-2,-3,-4,-3,-2,0,-1,11.52
2305,0,-1,4,9,0,0,0,2,11.525
2306,0,4,2,-12,-1,-1,-1,-3,11.53
2307,-2,1,-1,0,-2,-2,-1,-1,11.535
2308,-2,1,-2,1,3,-1,2,2,11.540000000000001
2309,5,9,0,-4,-2,2,0,2,11.545
2310,-7,-6,0,0,-2,-1,-3,-6,11.55
2311,3,0,-4,-4,-2,-1,2,0,11.555
2312,7,1,4,10,2,1,-2,-1,11.56
2313,-7,-1,1,4,5,0,-1,-1,11.565
2314,3,-4,9,-1,0,0,4,3,11.57
2315,2,0,-3,4,-4,-4,-3,-1,11.575000000000001
2316,1,-1,-1,-11,-3,0,1,3,11.58
2317,-2,-2,-1,-6,-7,-2,-2,-2,11.585
2318,-2,2,-3,-2,-1,0,-3,-1,11.59
2319,1,3,9,10,3,-2,1,0,11.595
2320,-4,-2,0,-7,-2,2,-5,-2,11.6
2321,-1,5,0,11,3,-2,0,1,11.605
2322,10,-4,-2,-8,-3,-2,0,0,11.61
2323,-12,-4,-3,-3,0,-1,-3,-3,11.615
2324,-3,-6,-3,1,-1,-2,-1,-2,11.620000000000001
2325,-6,-1,-2,-7,1,-1,-2,-3,11.625
2326,8,4,-1,0,-1,3,2,2,11.63
2327,-5,-2,11,1,-3,-4,-2,-3,11.635
2328,-1,1,-9,-5,0,-1,-3,-2,11.64
2329,24,-6,2,0,1,2,7,4,11.645
2330,-13,-4,-18,-13,-8,-3,2,0,11.65
2331,-13,-3,3,-4,2,0,-3,-4,11.655
2332,0,4,6,-7,-4,-1,-2,1,11.66
2333,8,2,14,43,16,2,-3,-2,11.665000000000001
2334,-1,0,-14,-6,0,0,-4,0,11.67
2335,22,6,-12,15,1,1,5,6,11.675
2336,-19,-5,-2,-18,-5,-5,-2,-5,11.68
2337,-24,-6,-7,-30,-13,-1,-4,-6,11.685
2338,-7,7,21,26,9,3,3,0,11.69
2339,-6,-6,-9,-12,-6,-4,-2,-2,11.695
2340,34,-2,-6,4,1,1,2,3,11.700000000000001
2341,-23,1,-9,-7,-4,-3,-3,-1,11.705
2342,-9,-6,-17,-21,-10,-3,-6,-8,11.71
2343,4,-6,10,38,16,5,3,4,11.715
2344,2,3,-1,7,0,-1,2,2,11.72
2345,-5,-6,5,-8,0,1,2,2,11.725
2346,6,13,30,-4,-5,0,-1,3,11.73
2347,0,16,1,14,-2,3,18,-4,11.735
2348,-28,-23,-15,2,0,-6,-27,-12,11.74
2349,-14,-2,-22,-13,0,-8,-19,-9,11.745000000000001
2350,15,-6,3,-12,-5,-1,-2,9,11.75
2351,-2,9,-2,-7,-3,1,8,-3,11.755
2352,3,9,24,31,12,8,0,-1,11.76
2353,17,2,-7,-23,-15,-4,6,10,11.765
2354,-4,5,26,26,16,0,-1,4,11.77
2355,-7,11,0,-25,-9,-5,-6,-6,11.775
2356,-21,-30,-38,-22,-8,1,6,-3,11.78
2357,4,-16,3,42,14,1,-4,-12,11.785
2358,6,6,0,-16,-4,9,39,20,11.790000000000001
2359,-18,4,-2,-6,-4,-3,-27,-18,11.795
2360,7,-8,-32,8,-3,-14,-36,-14,11.8
2361,-15,1,12,-2,-1,-1,12,13,11.805
2362,-8,-9,2,12,-8,-8,-5,-8,11.81
2363,8,8,-12,-42,0,1,17,9,11.815
2364,29,27,54,7,6,7,4,4,11.82
2365,-35,-13,-10,-15,-15,-5,-9,-9,11.825000000000001
2366,14,9,-12,-12,-1,1,-4,-3,11.83
2367,10,3,29,32,4,8,10,21,11.835
2368,9,-5,-43,-2,6,-2,2,-5,11.84
2369,11,6,-22,2,0,2,19,15,11.845
2370,-5,-34,-21,-38,-14,-8,-20,-29,11.85
2371,7,1,25,30,6,-2,-22,-2,11.855
2372,-35,1,4,-2,-13,-9,9,2,11.86
2373,26,3,40,-33,-6,7,6,6,11.865
2374,17,15,-21,26,14,-1,2,-9,11.870000000000001
2375,-13,-1,-17,-4,-1,-5,-13,-11,11.875
2376,9,9,17,-76,-15,-4,-1,7,11.88
2377,11,-6,9,83,22,3,7,5,11.885
2378,-35,0,-17,-9,-3,-2,-7,-9,11.89
2379,22,-11,2,9,-1,0,4,6,11.895
2380,-20,-13,-10,-22,-6,2,14,-5,11.9
2381,14,6,5,-16,-6,-1,-17,-11,11.905
2382,-23,-5,6,-2,-6,-2,-4,7,11.91
2383,-12,-6,7,3,2,-4,1,3,11.915000000000001
2384,1,-5,-18,-17,-7,1,8,3,11.92
2385,71,35,28,-18,5,7,21,16,11.925
2386,-50,-9,-27,21,6,-6,-28,-18,11.93
2387,-8,-30,-69,8,3,6,10,4,11.935
2388,-26,-12,27,17,2,-1,4,-6,11.94
2389,-17,-14,-22,-32,-12,-2,-1,-11,11.945
2390,25,29,28,9,9,3,0,10,11.950000000000001
2391,-6,12,44,-38,-18,-9,-10,-12,11.955
2392,11,11,18,34,11,5,6,18,11.96
2393,3,-6,-48,2,-8,-3,-10,-11,11.965
2394,-3,-6,-10,-37,-3,4,3,-1,11.97
2395,-15,-11,-30,-33,0,0,7,2,11.975
2396,25,7,33,70,13,-3,-5,-1,11.98
2397,-7,1,13,-12,-1,-4,-11,-6,11.985
2398,4,-7,-12,15,-2,-2,4,2,11.99
2399,7,-13,-3,-11,-2,3,3,4,11.995000000000001
2400,37,20,-5,2,0,-4,-1,6,12.0
2401,-59,-17,7,-7,-5,-3,-2,-7,12.005
2402,15,-7,2,-9,-8,-7,-7,0,12.01
2403,-1,15,15,14,-4,1,4,5,12.015
2404,-7,-26,-37,-19,-1,-4,-17,-12,12.02
2405,17,15,12,4,2,3,5,7,12.025
2406,-5,10,26,-15,-1,2,15,2,12.030000000000001
2407,17,-20,-37,8,-2,-2,-9,-10,12.035
2408,-4,9,18,-16,-16,-5,-2,-1,12.040000000000001
2409,-15,-15,-16,34,13,0,8,-2,12.045
2410,12,-1,12,4,4,7,12,3,12.05
2411,12,6,0,-33,-15,-10,-22,-8,12.055
2412,-13,-5,-13,1,-12,-5,-9,-8,12.06
2413,-11,12,5,56,27,7,10,4,12.065
2414,26,14,19,26,-6,-5,-3,4,12.07
2415,22,-16,-8,-37,4,4,7,9,12.075000000000001
2416,-35,3,17,30,4,0,5,-10,12.08
2417,-13,-6,-10,-46,-15,-5,-2,-3,12.085
2418,5,-5,-1,20,11,5,1,-7,12.09
2419,-18,5,1,-7,-6,0,0,0,12.095
2420,-10,7,35,-22,-2,-7,-16,-4,12.1
2421,1,-6,-34,1,-4,-5,-17,-2,12.105
2422,3,18,3,6,7,13,33,19,12.11
2423,40,4,17,-6,-8,-12,-18,-12,12.115
2424,23,-6,-31,-4,3,5,6,-2,12.120000000000001
2425,-1,-2,6,21,-2,-6,-12,-8,12.125
2426,-10,-7,-11,-9,-6,-2,-4,-4,12.13
2427,-18,0,5,9,0,-1,-2,-4,12.135
2428,18,17,33,20,9,6,14,14,12.14
2429,-12,-8,-34,-24,-6,-5,-8,-13,12.145
2430,-12,-17,16,-43,-12,-4,-12,-3,12.15
2431,16,5,-16,10,6,0,11,5,12.155000000000001
2432,-22,-18,-50,11,9,4,-6,-1,12.16
2433,23,2,-1,-12,-7,-1,3,2,12.165000000000001
2434,-8,-5,-7,-28,-18,-6,-7,4,12.17
2435,-39,-14,-9,14,2,-3,-9,-18,12.175
2436,16,10,5,-3,3,7,15,14,12.18
2437,36,16,18,-6,-3,-3,5,8,12.185
2438,-26,-4,-9,30,9,-4,-19,-15,12.19
2439,-27,6,-8,-1,0,2,-3,-3,12.195
2440,16,21,37,7,5,6,19,8,12.200000000000001
2441,16,-4,-23,-6,-3,1,-6,2,12.205
2442,5,-7,9,-4,-7,-4,-1,-1,12.21
2443,4,14,4,16,7,5,12,7,12.215
2444,-54,-16,-17,-20,-4,-4,-15,-6,12.22
2445,-5,9,29,40,5,-5,-11,-3,12.225
2446,0,2,-10,7,13,6,7,8,12.23
2447,24,-2,-16,-19,-9,-3,0,4,12.235
2448,3,5,-3,-22,-5,2,12,-7,12.24
2449,-3,-6,18,43,14,1,-4,-2,12.245000000000001
2450,-8,-13,-22,1,-8,-7,-14,-7,12.25
2451,1,8,11,27,5,4,13,5,12.255
2452,20,-11,-15,-42,-15,-6,-6,3,12.26
2453,-12,-2,-2,-14,1,3,4,-3,12.265
2454,14,3,9,35,7,4,22,2,12.27
2455,0,12,14,-14,3,-1,-19,-1,12.275
2456,-17,-11,-9,-26,-11,-2,6,-5,12.280000000000001
2457,-19,-16,-20,19,7,-6,-12,-4,12.285
2458,28,-2,-41,-39,-10,-2,5,7,12.290000000000001
2459,-17,-19,23,26,1,-2,-1,-6,12.295
2460,0,4,-13,31,14,-3,-1,-3,12.3
2461,11,12,14,-23,-6,5,-7,1,12.305
2462,8,2,14,-20,-8,-4,-3,-4,12.31
2463,-8,-5,-16,-4,7,0,2,1,12.315
2464,1,1,7,14,2,2,6,-1,12.32
2465,-1,11,9,-11,-2,6,10,9,12.325000000000001
2466,-22,-19,-15,-3,-8,-7,-22,-12,12.33
2467,-10,-2,0,-26,-14,-3,-1,1,12.335
2468,8,-2,-5,21,8,2,7,3,12.34
2469,5,-3,3,-9,-1,-3,-3,-5,12.345
2470,-10,8,24,36,4,3,7,0,12.35
2471,-16,-14,3,-36,-6,-6,-6,0,12.355
2472,11,-5,-36,24,10,3,-4,-2,12.36
2473,4,8,22,-21,-10,-3,5,5,12.365
2474,-7,-12,3,-5,6,2,0,1,12.370000000000001
2475,-2,-3,-4,0,-5,-2,11,-8,12.375
2476,11,7,13,-2,-5,-1,-19,2,12.38
2477,-8,8,-10,-26,-5,1,0,-6,12.385
2478,3,-9,1,24,5,1,10,2,12.39
2479,-5,10,-3,-1,0,-2,-11,2,12.395
2480,18,12,9,-18,-8,-3,-3,-5,12.4
2481,-16,-6,-8,-10,-1,-3,-2,-9,12.405000000000001
2482,10,17,3,-6,1,2,1,7,12.41
2483,-5,-15,-2,26,2,-3,4,-4,12.415000000000001
2484,-3,1,5,-1,0,-1,0,-4,12.42
2485,2,2,5,-7,-6,1,6,4,12.425
2486,-4,-7,-11,1,1,-5,-24,-10,12.43
2487,-2,-1,-33,1,3,3,5,2,12.435
2488,0,3,48,0,-6,-2,-5,6,12.44
2489,-5,-15,-34,-5,4,-2,1,-5,12.445
2490,-28,0,7,-4,-5,-4,-5,-7,12.450000000000001
2491,34,20,16,4,5,1,-3,4,12.455
2492,-26,-6,-10,-6,-2,-1,4,-8,12.46
2493,20,-8,6,7,-6,0,0,5,12.465
2494,2,5,-7,-23,-1,-2,-2,-4,12.47
2495,-7,-19,-25,14,7,4,-3,-2,12.475
2496,5,23,13,-20,-4,-2,4,6,12.48
2497,-8,-17,-12,13,3,2,19,2,12.485
2498,9,0,-13,-15,-8,-6,-19,-4,12.49
2499,-12,7,18,9,-3,1,2,-2,12.495000000000001
2500,15,6,-13,-6,3,-3,-15,0,12.5
2501,-22,-16,6,3,-6,-3,-7,0,12.505
2502,3,6,15,3,0,2,7,4,12.51
2503,-12,-3,-5,-14,-1,-1,2,-4,12.515
2504,1,-10,6,17,0,-1,3,-1,12.52
2505,0,8,-5,-20,-7,-2,-3,2,12.525
2506,4,-8,-7,1,1,3,5,-1,12.530000000000001
2507,-6,-3,14,-1,-4,3,-7,-6,12.535
2508,-4,-9,-7,4,4,1,3,4,12.540000000000001
2509,2,16,27,13,5,0,0,-1,12.545
2510,2,-2,-19,-4,5,6,13,4,12.55
2511,7,5,6,1,-12,-5,-6,1,12.555
2512,-6,-12,-15,11,8,0,3,-6,12.56
2513,-18,-3,0,8,1,0,-5,-10,12.565
2514,26,6,2,0,-5,-6,-8,12,12.57
2515,5,-2,15,-39,-11,-4,1,-1,12.575000000000001
2516,-6,1,-13,52,14,1,-1,-1,12.58
2517,2,3,20,-8,-2,1,4,-1,12.585
2518,-12,-6,4,7,-3,-7,-8,-11,12.59
2519,3,-1,-9,-9,0,0,-1,1,12.595
2520,-8,-16,-7,-16,-9,-1,-3,0,12.6
2521,8,7,-1,-2,0,0,2,3,12.605
2522,-5,2,2,1,0,0,2,-3,12.61
2523,5,6,5,25,9,5,2,-1,12.615
2524,-8,5,6,-23,-8,-2,-6,-2,12.620000000000001
2525,12,2,-15,-6,1,-1,-7,5,12.625
2526,0,2,14,11,2,3,5,1,12.63
2527,-9,-16,-32,10,10,-1,-5,-4,12.635
2528,3,-1,1,-15,-7,0,15,-2,12.64
2529,5,0,0,9,-1,-2,-6,3,12.645
2530,-6,7,13,10,6,-1,-3,-2,12.65
2531,0,-2,-1,-1,-3,-4,5,-2,12.655000000000001
2532,-4,2,-1,-9,-5,-2,-5,-2,12.66
2533,2,-5,-7,-14,-2,-3,0,-3,12.665000000000001
2534,0,-2,-7,-2,2,-5,-9,-5,12.67
2535,0,6,10,11,0,6,5,-5,12.675
2536,-6,-11,-21,-10,-3,5,4,9,12.68
2537,-3,2,2,-4,-1,7,-2,-1,12.685
2538,1,-3,-4,6,-2,-3,4,4,12.69
2539,3,1,8,0,0,-11,-3,0,12.695
2540,3,-2,-5,-1,-2,4,-4,-1,12.700000000000001
2541,-5,3,2,2,1,-2,-1,-3,12.705
2542,-8,-10,-10,-4,-1,7,2,-3,12.71
2543,3,1,3,1,1,-1,-1,3,12.715
2544,2,4,0,1,-1,-12,-5,-4,12.72
2545,-7,-7,-9,-1,-1,3,3,1,12.725
2546,4,1,1,-4,0,-2,-1,-3,12.73
2547,0,1,4,2,1,-2,-2,0,12.735
2548,-1,-1,2,1,-1,-6,-8,-2,12.74
2549,-4,-8,-5,-6,-1,0,2,-6,12.745000000000001
2550,-3,-2,-4,-2,-1,0,-4,-1,12.75
2551,-2,-1,3,0,-2,-3,0,2,12.755
2552,1,2,2,2,0,-1,4,1,12.76
2553,0,-2,-1,-4,-4,-3,0,-1,12.765
2554,0,-1,-2,1,1,9,1,-2,12.77
2555,0,2,1,2,-1,0,0,2,12.775
2556,5,6,3,-3,0,10,-2,-2,12.780000000000001
2557,0,1,-2,0,0,-8,-4,0,12.785
2558,3,3,1,-5,-2,-4,1,1,12.790000000000001
2559,-1,1,0,-1,1,3,1,1,12.795
2560,2,2,7,4,-2,-7,-2,0,12.8
2561,-1,-3,-7,-3,0,-2,-1,-1,12.805
2562,0,-2,0,-3,-1,-1,-1,1,12.81
2563,-1,3,3,2,1,1,1,1,12.815
2564,-5,-8,-6,-3,-2,-2,-3,-5,12.82
2565,-3,0,3,-1,-2,-1,-3,-1,12.825000000000001
2566,-3,-1,-3,0,-1,0,5,-1,12.83
2567,0,-5,-2,-3,-4,1,1,1,12.835
2568,-2,-3,-1,2,0,0,-1,-1,12.84
2569,-2,2,-4,-3,-2,-2,0,0,12.845
2570,0,0,3,7,2,-3,-2,-1,12.85
2571,3,5,0,-1,-2,-1,-1,-2,12.855
2572,-2,-4,-6,-3,-2,2,-1,-1,12.86
2573,-2,-4,-2,-2,-4,-2,-3,-3,12.865
2574,0,-3,-6,-16,-2,-2,-4,-3,12.870000000000001
2575,-2,-3,3,7,2,6,2,-1,12.875
2576,-2,-2,-4,-3,-3,-6,-3,-1,12.88
2577,1,5,3,6,4,-1,-2,-1,12.885
2578,-2,-5,1,1,-1,-11,0,-1,12.89
2579,0,2,1,-2,0,13,3,-1,12.895
2580,2,3,19,-5,-1,-4,1,0,12.9
2581,0,-4,-18,0,1,1,0,0,12.905000000000001
2582,-3,-7,-1,-2,-3,0,0,-1,12.91
2583,-1,-3,-5,-6,-6,-8,-3,-1,12.915000000000001
2584,-1,2,7,2,0,3,1,-2,12.92
2585,1,1,7,-2,-1,-6,-4,-1,12.925
2586,3,5,3,1,1,0,-1,1,12.93
2587,1,-3,-3,-2,2,3,-1,2,12.935
2588,-1,-2,-7,2,0,0,-4,-2,12.94
2589,-3,-5,2,-4,-3,-7,2,-4,12.945
2590,4,6,-7,2,4,6,2,0,12.950000000000001
2591,-1,-1,5,0,-2,-3,-2,-1,12.955
2592,1,-3,-18,-2,0,2,0,0,12.96
2593,-4,-2,13,-2,-1,-1,-2,-1,12.965
2594,2,-12,1,2,-3,3,-1,-4,12.97
2595,-2,-9,-28,-10,-1,-10,-5,-2,12.975
2596,2,6,28,0,-1,2,1,-1,12.98
2597,-4,-3,-22,1,2,5,4,0,12.985
2598,4,3,0,-2,-2,-1,0,1,12.99
2599,-2,-6,9,2,1,-1,-5,-1,12.995000000000001
2600,-3,-1,-6,0,-2,-3,-2,-2,13.0
2601,0,-5,-13,-6,-2,-4,-3,-1,13.005
2602,-2,1,5,0,0,2,0,-1,13.01
2603,-1,-4,-33,-4,-2,-5,-1,-1,13.015
2604,-1,-1,18,1,-2,-1,-1,1,13.02
2605,-1,5,23,6,0,1,-1,-1,13.025
2606,-4,-4,-5,1,-2,-3,-3,-2,13.030000000000001
2607,0,0,18,4,1,3,0,-1,13.035
2608,-2,-9,-27,-10,-2,-2,0,0,13.040000000000001
2609,2,6,2,-5,-1,-5,-4,1,13.045
2610,-4,-9,-7,5,-2,3,-2,-1,13.05
2611,-2,-5,-7,-3,0,-2,0,-2,13.055
2612,1,6,22,5,3,3,4,-1,13.06
2613,-1,0,-18,-1,-2,-7,-5,-1,13.065
2614,-2,-3,2,-5,-4,-6,-1,-1,13.07
2615,-1,-1,-6,-6,-1,13,4,0,13.075000000000001
2616,2,-1,-4,2,-1,-3,-3,0,13.08
2617,-11,-4,5,1,-1,2,0,-8,13.085
2618,2,8,11,-1,1,-3,1,0,13.09
2619,1,-2,-3,3,-1,-4,-3,-1,13.095
2620,-2,-2,-5,-4,-1,-7,-4,-1,13.1
2621,5,10,-17,3,2,1,0,1,13.105
2622,-3,-6,16,0,0,2,-2,0,13.11
2623,-2,6,33,5,0,-6,0,-1,13.115
2624,0,-10,-45,-5,0,3,2,0,13.120000000000001
2625,1,3,9,-2,-3,-2,2,2,13.125
2626,-1,-3,-20,-3,0,2,-1,-1,13.13
2627,5,13,18,-4,-3,-5,-3,1,13.135
2628,-5,-8,5,2,0,-2,-2,-2,13.14
2629,2,0,-12,-5,-1,3,2,0,13.145
2630,-2,-2,9,-1,1,-1,1,-2,13.15
2631,-1,3,4,-1,-4,-5,-1,0,13.155000000000001
2632,-1,-5,-3,0,-2,0,-1,-1,13.16
2633,-1,2,4,-1,0,0,0,2,13.165000000000001
2634,1,7,-15,-2,-1,1,3,-2,13.17
2635,-3,-8,7,1,1,-3,-1,-1,13.175
2636,0,-1,-4,2,-1,0,-1,-2,13.18
2637,-1,-7,6,-6,-1,2,-1,0,13.185
2638,-1,0,-1,0,1,-6,-2,-2,13.19
2639,-2,-5,-17,1,-1,-5,0,-2,13.195
2640,0,6,6,-1,2,2,1,0,13.200000000000001
2641,-1,-6,5,0,-5,-3,-1,-3,13.205
2642,1,2,-5,2,1,1,-2,0,13.21
2643,-1,-7,-7,-1,1,0,-1,0,13.215
2644,0,7,8,0,-1,-3,-2,-1,13.22
2645,-6,-9,0,-1,-1,0,-2,-3,13.225
2646,2,3,-2,-2,-2,-2,0,0,13.23
2647,-2,-7,-2,2,0,2,-4,-2,13.235
2648,-3,4,4,-1,0,2,3,-2,13.24
2649,-1,2,3,0,0,-2,0,0,13.245000000000001
2650,-1,0,-2,-4,-1,1,1,-1,13.25
2651,-1,0,2,3,-2,4,-2,0,13.255
2652,1,2,0,4,1,0,0,0,13.26
2653,1,-2,-1,-4,2,3,0,0,13.265
2654,0,3,4,1,-1,-3,-2,-1,13.27
2655,-1,-1,-6,0,-1,-3,-1,0,13.275
2656,-1,-1,-2,-9,-3,-5,0,-3,13.280000000000001
2657,-1,-8,0,3,1,2,-1,-5,13.285
2658,-3,-3,1,0,-1,-1,-1,-1,13.290000000000001
2659,2,6,2,5,1,1,0,-2,13.295
2660,5,8,6,5,3,0,0,1,13.3
2661,-2,-6,-8,-6,-4,-1,0,-1,13.305
2662,-1,0,-3,-1,-1,-1,-2,0,13.31
2663,0,1,-1,-7,-2,-1,0,-2,13.315
2664,-1,-3,-3,1,-3,0,-2,1,13.32
2665,3,3,7,-2,-2,0,-1,0,13.325000000000001
2666,-3,-4,-4,-2,-2,-1,0,-1,13.33
2667,-2,4,4,-4,-3,-4,-2,0,13.335
2668,-6,-9,-17,-1,2,3,1,-1,13.34
2669,-1,4,13,3,-1,3,-1,0,13.345
2670,-4,-5,-2,0,-1,-3,-1,-1,13.35
2671,0,-2,-2,-2,0,1,1,0,13.355
2672,4,4,0,-5,-2,-3,0,0,13.36
2673,0,0,-4,3,-1,-2,1,-1,13.365
2674,-1,-3,0,-7,-1,-1,-3,-1,13.370000000000001
2675,0,-3,-4,4,3,-1,1,-3,13.375
2676,3,3,2,0,0,-2,-2,0,13.38
2677,-2,-5,-3,0,-1,-3,-2,0,13.385
2678,3,4,4,-3,-3,0,-1,-2,13.39
2679,-4,-8,-8,-2,0,0,-1,-2,13.395
2680,0,-3,-1,-5,-2,0,-1,-1,13.4
2681,-1,-1,2,8,4,1,-1,0,13.405000000000001
2682,-2,-3,-3,0,-1,-1,-1,0,13.41
2683,-1,0,1,-3,-2,-3,-1,0,13.415000000000001
2684,-2,1,4,-1,-1,5,3,-1,13.42
2685,-1,1,1,1,0,0,0,2,13.425
2686,-5,-15,-5,-3,-3,-6,-7,-4,13.43
2687,1,-1,0,3,2,6,3,0,13.435
2688,-1,-4,1,-1,-1,-4,-4,-2,13.44
2689,-2,-2,-3,-3,0,0,1,-2,13.445
2690,0,4,2,3,3,-1,2,0,13.450000000000001
2691,1,1,-3,-8,-2,-1,-4,-2,13.455
2692,-1,-3,-2,4,-1,-1,-3,-1,13.46
2693,2,2,0,-1,-1,0,-1,-1,13.465
2694,-1,-1,-3,-1,0,2,1,-1,13.47
2695,-4,-4,0,5,0,-2,0,-1,13.475
2696,-2,-3,-5,-5,-1,-1,0,-1,13.48
2697,0,-4,-1,-3,0,3,0,-2,13.485
2698,-1,-2,-2,1,0,-2,-1,-2,13.49
2699,0,1,2,0,0,0,-2,1,13.495000000000001
2700,0,-4,1,0,-2,-3,-2,0,13.5
2701,1,0,-1,-2,-3,-3,-2,-2,13.505
2702,-1,2,-1,0,0,2,-1,0,13.51
2703,-1,-2,-2,-2,-2,-1,-2,-1,13.515
2704,-1,-1,0,-4,-1,-3,-2,1,13.52
2705,-4,-5,-2,2,0,-1,-1,0,13.525
2706,2,6,8,4,0,3,2,2,13.530000000000001
2707,1,2,-2,-2,-2,-2,1,1,13.535
2708,-1,-2,3,2,-2,-1,0,-2,13.540000000000001
2709,0,3,-2,-2,0,1,-4,-1,13.545
2710,-2,-3,-7,-4,-2,-4,-4,0,13.55
2711,3,10,12,3,1,4,4,-1,13.555
2712,0,-6,-9,-5,-1,0,-2,-1,13.56
2713,-1,-5,-5,-4,-3,-7,0,-3,13.565
2714,1,-2,-4,-2,-1,4,1,0,13.57
2715,2,7,1,1,3,-1,-2,2,13.575000000000001
2716,-3,4,4,2,-1,0,-1,-2,13.58
2717,-1,1,2,2,-1,-3,1,1,13.585
2718,-3,1,1,0,-1,-1,-1,0,13.59
2719,-2,-6,-8,-2,-4,-5,-1,-1,13.595
2720,-2,0,0,-1,0,0,1,0,13.6
2721,1,0,0,-3,-3,-1,-2,-1,13.605
2722,1,-6,-15,-8,-3,-2,-2,-2,13.61
2723,0,-2,7,3,-1,-1,-2,-1,13.615
2724,-2,1,-2,2,1,-3,-2,-1,13.620000000000001
2725,1,3,1,0,-5,1,-2,0,13.625
2726,0,0,3,1,4,0,3,1,13.63
2727,-3,-6,-15,-7,-3,-2,-2,-1,13.635
2728,-2,-6,0,1,-2,-3,-1,-1,13.64
2729,-1,-3,-1,1,0,1,-2,0,13.645
2730,1,2,0,-3,-2,-1,2,0,13.65
2731,-4,-5,-2,-2,1,0,1,1,13.655000000000001
2732,-3,0,-1,-1,0,-3,-1,-2,13.66
2733,-2,0,-3,-1,-1,-2,0,1,13.665000000000001
2734,-1,3,4,2,-1,-2,-2,-2,13.67
2735,0,-4,0,-2,-1,-1,0,-2,13.675
2736,-2,-2,-3,-1,-2,-4,-2,-1,13.68
2737,-1,4,-1,-1,0,-1,-1,0,13.685
2738,0,-1,-2,-2,-1,-2,2,-1,13.69
2739,-2,-5,-2,-5,-1,1,0,-2,13.695
2740,0,0,1,0,-1,0,-4,-2,13.700000000000001
2741,1,2,4,1,1,-2,1,0,13.705
2742,-2,-1,-7,1,0,2,0,0,13.71
2743,0,2,1,3,1,-1,-1,-1,13.715
2744,-2,-7,-5,-12,-3,-2,-1,-1,13.72
2745,-1,-4,3,1,0,-1,0,-1,13.725
2746,0,2,3,3,-1,1,-1,1,13.73
2747,1,3,2,-3,-3,-3,-3,1,13.735
2748,1,5,-3,0,2,1,-1,0,13.74
2749,-1,-2,-3,-5,-2,-3,-2,-2,13.745000000000001
2750,-1,-3,0,-3,-3,1,-1,-2,13.75
2751,-2,-2,-5,0,2,0,-1,-1,13.755
2752,2,5,4,0,1,2,1,1,13.76
2753,-2,-10,-9,-3,-2,-1,-1,-2,13.765
2754,-1,-2,-1,3,1,-3,-2,-2,13.77
2755,-1,-2,-3,-1,0,1,-4,0,13.775
2756,-1,-1,0,1,0,1,1,1,13.780000000000001
2757,-1,1,3,0,0,-2,0,0,13.785
2758,-5,-5,0,-1,0,3,0,0,13.790000000000001
2759,1,1,1,-7,-2,-2,0,-1,13.795
2760,-3,-3,-1,8,0,0,-3,-2,13.8
2761,-4,-3,-5,0,-2,-2,0,-1,13.805
2762,-2,0,2,-3,-3,-5,-1,-1,13.81
2763,-2,-1,0,0,-1,0,2,-1,13.815
2764,0,0,0,-4,-3,-3,-2,0,13.82
2765,0,0,1,-2,-1,2,0,-1,13.825000000000001
2766,0,1,2,4,-2,-2,0,-1,13.83
2767,0,1,-2,-8,-2,-1,-1,0,13.835
2768,1,4,2,1,1,1,2,1,13.84
2769,2,2,1,-2,0,1,-1,0,13.845
2770,0,-2,0,-2,0,0,1,-2,13.85
2771,-2,-1,-5,-1,-3,-4,-1,-2,13.855
2772,-3,-9,0,4,0,1,-1,-3,13.86
2773,-1,0,4,-4,-3,4,1,0,13.865
2774,-1,1,2,-2,1,-2,-2,0,13.870000000000001
2775,0,-3,-2,4,1,-2,-1,-2,13.875
2776,0,2,-3,-5,-3,2,-1,-1,13.88
2777,-1,-7,-13,-4,-1,-1,-1,-1,13.885
2778,2,2,2,-3,-2,-3,-2,0,13.89
2779,-2,1,1,1,0,3,3,-1,13.895
2780,-1,0,-2,-1,-1,-2,-1,1,13.9
2781,1,4,3,1,1,-2,-1,0,13.905000000000001
2782,0,2,-3,-3,-3,-3,-3,-2,13.91
2783,-2,0,2,2,1,1,-3,-1,13.915000000000001
2784,1,4,3,-2,-1,-3,0,1,13.92
2785,-1,-1,-2,-1,-1,0,0,-1,13.925
2786,-1,-2,-4,-3,-1,-3,-1,1,13.93
2787,1,4,3,-2,-1,2,2,-1,13.935
2788,-1,-2,5,2,1,1,1,0,13.94
2789,-4,-7,-6,2,0,-2,-2,-2,13.945
2790,0,-1,0,-6,-2,-2,-1,-1,13.950000000000001
2791,-1,-12,-13,9,2,0,0,-1,13.955
2792,-1,0,10,5,2,-5,-1,0,13.96
2793,0,3,5,-1,1,5,1,0,13.965
2794,0,-1,-6,-4,-4,0,0,-1,13.97
2795,-2,-3,0,-5,-5,0,-2,0,13.975
2796,2,3,-5,-3,0,-1,0,0,13.98
2797,0,0,-1,1,0,-3,-1,0,13.985
2798,1,3,6,2,2,2,1,-1,13.99
2799,-3,0,-7,-1,0,0,-2,-2,13.995000000000001
2800,-1,-2,-7,-3,-3,-1,-2,-1,14.0
2801,-1,3,3,0,1,4,1,0,14.005
2802,-4,-3,-1,-1,-1,0,-1,-2,14.01
2803,5,10,6,1,0,0,1,1,14.015
2804,-6,-8,-6,-6,-4,-1,0,-3,14.02
2805,0,0,-1,1,0,-5,-1,-2,14.025
2806,-1,-4,-4,-1,-1,2,-2,0,14.030000000000001
2807,2,1,4,2,-2,-3,-2,-1,14.035
2808,-2,-2,2,-1,-2,-1,-1,1,14.040000000000001
2809,2,2,-8,0,-2,-3,0,0,14.045
2810,0,7,12,3,1,0,0,0,14.05
2811,-3,-8,-6,-6,-2,-3,-4,-2,14.055
2812,0,-2,-2,2,-1,-3,0,-3,14.06
2813,-3,-5,-5,-2,0,3,0,-1,14.065
2814,-1,1,-5,-1,-1,1,-3,-3,14.07
2815,-2,3,4,-1,0,0,-1,1,14.075000000000001
2816,2,4,-1,-3,-2,-3,-2,1,14.08
2817,-3,-3,-6,-7,-4,-4,0,-1,14.085
2818,-5,-9,-2,10,3,0,-1,-2,14.09
2819,-1,-4,-2,0,1,1,-1,-1,14.095
2820,-1,0,-3,-2,-1,2,-2,1,14.1
2821,1,5,7,2,-1,-5,-2,1,14.105
2822,2,2,5,0,-2,1,0,0,14.11
2823,-1,1,-1,-4,-1,-3,1,-1,14.115
2824,-2,-3,0,-1,0,0,0,-2,14.120000000000001
2825,0,-1,0,-2,-2,1,-2,-1,14.125
2826,-1,-6,-14,-7,-4,-4,0,0,14.13
2827,2,4,5,5,0,-2,-1,1,14.135
2828,2,5,0,-2,-1,0,2,1,14.14
2829,-3,-1,0,0,0,-1,-2,-1,14.145
2830,-1,2,3,3,3,-4,-1,0,14.15
2831,-2,-2,0,-4,-3,-2,2,0,14.155000000000001
2832,-1,-3,-1,1,1,3,2,-1,14.16
2833,2,1,2,3,-2,-2,0,-1,14.165000000000001
2834,-3,-3,-4,-4,-2,0,0,-1,14.17
2835,0,3,-1,0,-2,-1,-3,-1,14.175
2836,-5,-6,-4,1,-2,-2,-1,-1,14.18
2837,0,-2,6,1,2,1,-1,0,14.185
2838,0,1,0,-3,-2,0,0,-2,14.19
2839,-1,-3,1,-8,-2,-1,0,-3,14.195
2840,-1,-2,-2,7,1,0,-1,0,14.200000000000001
2841,1,4,-2,2,-2,0,0,0,14.205
2842,0,1,-4,-3,3,-2,-2,0,14.21
2843,0,4,6,-1,-1,-1,-3,-1,14.215
2844,-5,-10,-6,-3,0,3,-1,-3,14.22
2845,-2,-1,0,-3,-1,-5,1,0,14.225
2846,-2,-9,-5,2,0,5,2,-2,14.23
2847,-1,-1,-1,-1,-2,-1,-2,1,14.235
2848,-1,1,-2,-3,-1,-4,-1,-2,14.24
2849,-1,-1,-1,1,2,0,-1,0,14.245000000000001
2850,-2,0,0,-4,-3,-3,-2,-1,14.25
2851,1,3,-2,-2,-1,1,-1,1,14.255
2852,4,4,5,1,-1,0,-1,2,14.26
2853,-2,-4,0,-5,-2,1,0,-2,14.265
2854,1,2,4,7,5,4,3,0,14.27
2855,-5,-7,-2,3,1,-1,0,-2,14.275
2856,0,4,0,-3,-1,-1,-1,-2,14.280000000000001
2857,-2,-4,-1,4,-1,-1,-2,-1,14.285
2858,1,3,8,-8,-2,-3,-1,1,14.290000000000001
2859,1,-2,-7,1,-1,1,2,1,14.295
2860,-1,-3,0,-5,-1,-2,-1,0,14.3
2861,2,9,1,3,-1,0,-1,1,14.305
2862,-4,-9,-7,-2,-2,1,-2,-3,14.31
2863,0,-1,-3,0,0,-4,-1,-1,14.315
2864,-2,-4,-8,2,-2,-1,-2,0,14.32
2865,0,-1,-1,-5,-2,-1,1,-1,14.325000000000001
2866,1,3,-1,2,1,-2,-1,0,14.33
2867,0,-1,-4,-5,-2,0,-1,0,14.335
2868,0,-3,-1,-2,0,-3,1,-1,14.34
2869,-3,-1,-3,2,1,0,-2,-3,14.345
2870,1,5,6,-2,-2,-2,-1,1,14.35
2871,-4,-8,-5,-1,-2,-1,-1,-3,14.355
2872,-1,1,2,3,-1,1,0,0,14.36
2873,-1,-3,-4,-6,2,0,0,0,14.365
2874,-2,-1,-4,-1,-2,-2,0,-1,14.370000000000001
2875,-1,2,3,0,1,1,1,0,14.375
2876,-2,0,2,-2,-1,0,-1,-1,14.38
2877,-1,-2,-1,-2,0,3,-1,-1,14.385
2878,0,2,-1,-1,-1,-2,-2,-1,14.39
2879,-1,-2,-1,-2,-2,-3,0,-1,14.395
2880,-4,-5,0,-4,-3,0,-1,-2,14.4
2881,-2,-3,-1,1,1,1,1,0,14.405000000000001
2882,-1,-5,-7,-6,-1,-4,0,1,14.41
2883,1,-1,1,-2,-2,1,0,-2,14.415000000000001
2884,0,6,0,2,-1,-2,-1,-2,14.42
2885,3,9,5,6,0,-4,-1,1,14.425
2886,-2,-11,-10,-3,-3,3,1,1,14.43
2887,-2,3,1,4,1,-1,0,-1,14.435
2888,1,3,1,2,0,0,0,-1,14.44
2889,2,2,0,-6,2,1,1,0,14.445
2890,0,2,3,3,0,-2,-1,-1,14.450000000000001
2891,-1,-6,-4,-3,-1,0,-3,-1,14.455
2892,-3,-5,-3,-3,0,1,1,0,14.46
2893,-3,-5,-1,3,-2,-1,-1,-3,14.465
2894,0,2,0,1,0,0,-1,0,14.47
2895,0,0,2,0,0,-1,1,0,14.475
2896,0,1,2,0,0,2,-2,-2,14.48
2897,-1,-3,-1,-1,-2,-2,0,-1,14.485
2898,0,-1,-2,0,-1,-1,2,-1,14.49
2899,0,1,2,1,-1,0,-1,1,14.495000000000001
2900,2,6,0,3,0,-3,-1,1,14.5
2901,-6,-13,-10,-6,-6,-4,-3,-3,14.505
2902,-4,1,-1,1,3,2,0,-1,14.51
2903,-2,0,0,0,0,-2,0,-1,14.515
2904,-1,-2,-2,-3,-2,-2,-1,1,14.52
2905,1,5,4,0,-2,0,-1,0,14.525
2906,2,5,0,-1,-3,-4,-3,-2,14.530000000000001
2907,-5,-10,-6,4,2,3,0,-1,14.535
2908,-4,-5,-3,-2,0,-3,-4,0,14.540000000000001
2909,1,1,1,0,1,0,0,0,14.545
2910,-1,-3,-2,-3,-1,-2,-1,1,14.55
2911,1,5,4,0,-2,0,-3,0,14.555
2912,1,-2,-3,0,-2,-2,0,-1,14.56
2913,0,-3,-2,-5,-2,0,-1,0,14.565
2914,-2,-3,0,4,1,1,0,-2,14.57
2915,1,3,-1,-3,-1,-2,0,-1,14.575000000000001
2916,-4,-3,-1,-3,-2,-3,0,-1,14.58
2917,-2,-2,0,-1,-2,-4,-3,-1,14.585
2918,0,1,-1,-2,0,5,2,-1,14.59
2919,-1,-2,-2,0,-2,-1,-1,0,14.595
2920,1,1,3,1,-1,0,-1,1,14.6
2921,-1,-2,-3,-1,-1,0,-1,-1,14.605
2922,-1,-3,-3,1,0,-1,-1,0,14.61
2923,1,1,0,-2,-1,-2,0,0,14.615
2924,1,3,0,-2,1,4,0,0,14.620000000000001
2925,0,-3,0,-1,-1,-2,-2,-1,14.625
2926,-1,-3,-3,-2,-2,-2,-2,-1,14.63
2927,1,4,2,2,1,-4,-2,0,14.635
2928,1,2,4,0,2,1,0,0,14.64
2929,-2,-1,-5,-3,-2,2,1,-1,14.645
2930,1,6,3,-6,-3,-1,0,0,14.65
2931,0,-2,-1,1,-4,-3,-4,-1,14.655000000000001
2932,0,-1,-2,2,5,3,1,0,14.66
2933,-1,-4,-2,-2,0,-3,-3,-1,14.665000000000001
2934,-2,0,1,4,0,0,-1,0,14.67
2935,0,-3,-3,-5,-2,-1,0,-3,14.675
2936,0,-1,2,-1,-5,-4,-4,-2,14.68
2937,-3,-1,-1,0,0,0,-1,0,14.685
2938,-1,-3,-5,-2,-1,-4,-1,0,14.69
2939,-1,2,1,1,-1,1,1,0,14.695
2940,0,0,-2,-4,-4,-3,0,-1,14.700000000000001
2941,0,1,-3,0,1,-1,1,-1,14.705
2942,1,1,0,-2,-1,-2,-2,0,14.71
2943,1,3,-2,2,1,4,1,1,14.715
2944,-2,-7,-6,-4,-2,-4,-3,-1,14.72
2945,1,4,1,3,-1,0,-1,-1,14.725
2946,-2,-1,-2,-3,-1,2,-1,0,14.73
2947,-1,-1,-2,-2,1,1,2,1,14.735
2948,1,2,0,-1,0,-2,-2,-1,14.74
2949,-3,-7,-1,1,-4,-2,0,-2,14.745000000000001
2950,-1,-3,1,1,1,-5,-2,-2,14.75
2951,-1,-2,-3,-9,-4,-1,-2,0,14.755
2952,0,1,2,13,6,4,1,1,14.76
2953,1,-1,0,-1,-1,-3,-1,2,14.765
2954,-2,-2,1,0,-2,0,-2,-2,14.77
2955,2,3,2,-2,-1,0,-1,-1,14.775
2956,-2,-2,-3,-6,-4,-3,-1,0,14.780000000000001
2957,1,5,2,-1,-2,0,-1,1,14.785
2958,1,1,-4,-4,0,-2,-1,0,14.790000000000001
2959,0,0,1,-1,-3,-1,0,-2,14.795
2960,-6,-11,-5,0,-1,-2,-1,-3,14.8
2961,-1,-1,-1,-1,-1,0,1,-1,14.805
2962,1,2,-1,-2,-3,0,-2,-1,14.81
2963,-2,2,-2,1,1,-2,1,-1,14.815
2964,-3,-4,-1,1,0,4,2,2,14.82
2965,0,0,-2,-4,0,1,0,1,14.825000000000001
2966,0,0,2,0,0,-4,-1,-1,14.83
2967,-2,-3,2,-2,-1,-1,-2,-1,14.835
2968,0,2,1,1,-2,0,0,-3,14.84
2969,-3,-4,-6,-5,-1,1,0,0,14.845
2970,1,3,0,5,0,0,2,0,14.85
2971,-5,-14,-6,1,-8,-10,-1,-2,14.855
2972,2,1,-1,-5,4,5,0,-1,14.86
2973,-2,0,2,-1,5,3,0,0,14.865
2974,-5,-10,-6,-3,-3,-3,-1,1,14.870000000000001
2975,0,-1,1,0,2,4,0,-2,14.875
2976,-1,-1,-1,-3,-6,-6,-1,-1,14.88
2977,2,3,1,6,0,-3,-2,-1,14.885
2978,1,1,0,-6,-2,2,0,-1,14.89
2979,1,2,0,7,5,0,-1,2,14.895
2980,2,1,1,-6,-2,0,0,1,14.9
2981,0,0,-1,-7,-4,0,0,-2,14.905000000000001
2982,1,5,4,13,4,3,1,-1,14.91
2983,-1,-2,-5,3,3,0,-3,-1,14.915000000000001
2984,-3,-3,4,0,-3,-4,-3,-2,14.92
2985,1,5,1,-2,-1,0,-1,0,14.925
2986,-5,-7,-4,-8,-4,-4,1,0,14.93
2987,0,-3,-3,-2,-4,-1,-1,-1,14.935
2988,0,3,0,1,4,-2,0,-2,14.94
2989,1,2,3,1,-1,0,-1,-1,14.945
2990,-3,-5,-5,-3,-2,-3,-2,-1,14.950000000000001
2991,1,6,1,0,1,3,1,0,14.955
2992,-1,-2,-4,-1,-1,-2,-2,1,14.96
2993,0,-1,-1,2,-1,-5,0,0,14.965
2994,0,-2,-2,2,0,3,-1,-1,14.97
2995,-3,-1,1,-4,-1,-2,0,0,14.975
2996,0,2,-1,-2,-2,4,-1,-1,14.98
2997,-3,-4,1,4,-1,-2,0,-1,14.985
2998,-4,-7,-1,-4,1,0,0,-1,14.99
2999,-2,-6,-4,-6,-3,-4,-3,-1,14.995000000000001
3000,-3,-2,-4,-4,-2,-4,-1,-1,15.0
3001,1,3,2,2,-4,-1,-2,0,15.005
3002,2,-1,1,1,1,-2,0,-1,15.01
3003,-1,-1,2,6,3,1,1,-2,15.015
3004,-2,-3,-5,0,-1,-1,0,-2,15.02
3005,-3,-4,-2,0,-1,-2,-3,-3,15.025
3006,1,3,1,0,-1,0,-1,0,15.030000000000001
3007,1,-1,-1,-3,-2,-2,-1,-2,15.035
3008,1,0,1,1,1,-1,-2,1,15.040000000000001
3009,-2,-2,-2,-1,0,-3,-1,-1,15.045
3010,-1,-4,-5,-3,-4,1,-2,0,15.05
3011,0,2,0,-3,-2,4,1,0,15.055
3012,-4,-4,-1,-2,-4,-6,-2,-3,15.06
3013,1,2,2,-3,0,6,2,0,15.065
3014,1,-1,0,5,-1,-2,0,-1,15.07
3015,-1,2,-2,-10,-2,-1,-3,-1,15.075000000000001
3016,0,-2,-1,2,-2,0,0,-1,15.08
3017,-1,-6,-6,-4,0,-2,-1,0,15.085
3018,-1,6,5,0,0,0,-2,-1,15.09
3019,0,-2,-2,1,-1,-1,0,1,15.095
3020,2,7,9,1,2,3,3,1,15.1
3021,-4,-12,-8,-5,-1,-4,-2,-1,15.105
3022,0,0,-3,-2,-1,-2,0,0,15.11
3023,-1,-4,-2,-2,-2,-3,-1,-2,15.115
3024,-1,-2,-2,0,0,-3,-2,0,15.120000000000001
3025,1,5,3,-1,-1,5,2,-1,15.125
3026,-3,-1,0,-2,-3,-4,-2,-1,15.13
3027,0,4,2,-3,-3,-2,-1,1,15.135
3028,-2,-6,-6,2,0,-2,0,0,15.14
3029,1,0,1,-3,0,4,0,0,15.145
3030,0,-4,-4,1,0,-1,-1,-2,15.15
3031,0,0,1,-2,-3,0,-3,0,15.155000000000001
3032,2,1,0,0,1,3,1,1,15.16
3033,-1,0,2,4,0,-1,-3,0,15.165000000000001
3034,-2,-4,-1,-4,0,-1,-1,-3,15.17
3035,-3,-3,-1,4,3,0,-1,-1,15.175
3036,-1,-2,-3,-3,-2,-1,-2,0,15.18
3037,-3,-3,-3,-2,-4,-6,-2,-3,15.185
3038,1,1,0,2,-1,5,0,-1,15.19
3039,-6,-4,-1,1,2,-1,-1,-4,15.195
3040,-1,-3,-2,-3,-3,-1,-1,-2,15.200000000000001
3041,1,1,1,4,1,-1,0,1,15.205
3042,-2,0,0,-2,-1,-1,0,-1,15.21
3043,2,2,0,-2,-1,0,-1,1,15.215
3044,-3,-4,-2,1,-1,1,-1,-1,15.22
3045,-2,1,-1,0,-5,-4,-1,-2,15.225
3046,0,5,-2,-8,0,-3,0,0,15.23
3047,0,-3,-3,4,3,4,2,1,15.235
3048,0,4,0,-4,-5,-3,-1,0,15.24
3049,-2,-2,-4,5,2,0,-1,-1,15.245000000000001
3050,2,3,3,1,0,-1,-2,-1,15.25
3051,-1,2,0,1,-1,0,-1,-3,15.255
3052,0,3,0,-1,0,1,0,0,15.26
3053,0,1,0,-5,0,-1,-1,-1,15.265
3054,-1,-2,0,3,-1,-2,0,0,15.27
3055,-1,-2,-1,-7,-2,-2,-2,-1,15.275
3056,-1,-2,0,2,0,-1,0,-3,15.280000000000001
3057,-1,-1,-1,2,2,0,0,0,15.285
3058,-2,-1,-2,1,-1,-2,0,-1,15.290000000000001
3059,1,-2,-2,-2,-2,-3,-1,0,15.295
3060,-1,0,1,-5,0,2,0,-1,15.3
3061,-1,-3,0,0,-3,0,0,-1,15.305
3062,-3,-5,-2,-4,0,0,-2,-1,15.31
3063,-1,3,0,2,0,-1,0,0,15.315
3064,-2,-2,-1,-3,-3,-2,-2,-1,15.32
3065,3,3,0,3,3,-2,-1,-1,15.325000000000001
3066,0,-4,-3,-2,-3,-4,-3,-1,15.33
3067,1,0,-1,1,0,0,2,-1,15.335
3068,1,4,4,2,-1,4,0,0,15.34
3069,-3,-9,-9,-7,-2,-4,-3,-2,15.345
3070,-1,-2,-4,4,3,-1,-1,0,15.35
3071,-1,-4,-3,-4,-4,-2,0,0,15.355
3072,2,2,-1,2,1,-2,-3,-2,15.36
3073,-3,-4,2,-2,-1,-1,-1,-2,15.365
3074,0,0,1,0,-2,0,-1,0,15.370000000000001
3075,-2,-2,-1,-2,-1,-4,0,-1,15.375
3076,-3,-3,-2,-1,0,0,-1,-1,15.38
3077,3,6,1,-3,-2,0,0,0,15.385
3078,0,-2,-3,-4,-1,-1,-2,-1,15.39
3079,1,2,4,4,1,1,-1,1,15.395
3080,-1,-5,-1,0,-2,-1,-3,-2,15.4
3081,-2,-1,-1,-5,-1,-1,-4,-1,15.405000000000001
3082,1,2,2,3,1,2,2,-1,15.41
3083,-4,-6,-4,-2,-2,-1,-1,-2,15.415000000000001
3084,3,5,2,5,3,-1,0,2,15.42
3085,-2,-2,2,-1,-4,-1,-2,-1,15.425
3086,-1,-5,-6,-5,-4,-1,-2,0,15.43
3087,1,2,3,-1,0,2,2,-1,15.435
3088,2,-2,-2,-2,0,1,1,1,15.44
3089,-1,-6,-3,0,0,0,0,-3,15.445
3090,-2,-3,1,3,1,0,0,-1,15.450000000000001
3091,1,1,1,-4,-1,-2,0,-1,15.455
3092,-2,-6,-3,0,-3,-4,-3,0,15.46
3093,1,0,-1,4,-1,3,1,2,15.465
3094,1,6,1,-5,0,1,-1,-2,15.47
3095,-3,-6,-4,-1,-2,-3,-1,-1,15.475
3096,0,3,2,0,1,-2,1,-1,15.48
3097,-4,-1,-3,0,-1,0,2,-1,15.485000000000001
3098,0,-1,1,2,1,-2,0,0,15.49
3099,-3,-3,-1,0,0,1,-2,-1,15.495000000000001
3100,-1,-5,-6,-5,-3,-2,-3,-2,15.5
3101,2,0,0,5,0,-2,-1,-1,15.505
3102,-2,-2,2,0,1,1,0,-1,15.51
3103,1,0,-4,-7,-2,-1,-1,0,15.515
3104,-1,2,3,2,2,-3,-2,-1,15.52
3105,-4,-3,-4,-3,0,0,0,-1,15.525
3106,-1,-2,-1,0,-2,3,1,0,15.530000000000001
3107,0,-1,0,7,1,-1,-1,-1,15.535
3108,-3,-5,-2,1,-2,-3,-5,-1,15.540000000000001
3109,3,7,0,-8,0,1,4,0,15.545
3110,0,-1,-3,-5,-3,-4,-2,0,15.55
3111,-1,-1,0,2,-1,0,-1,0,15.555
3112,-1,-3,-3,1,-3,-2,-1,-1,15.56
3113,-1,-1,-1,-1,0,-2,-3,1,15.565
3114,0,1,3,3,-1,0,-3,0,15.57
3115,1,-1,-2,-2,-1,-3,-2,-2,15.575000000000001
3116,0,1,-3,-6,-3,0,0,-1,15.58
3117,-1,-1,1,0,0,-2,-2,0,15.585
3118,-1,-1,0,-1,-2,1,0,1,15.59
3119,-1,-1,0,2,1,-2,-1,-1,15.595
3120,-2,0,-1,-2,-1,-1,0,-3,15.6
3121,0,-2,0,-4,-1,0,-1,0,15.605
3122,0,-1,0,6,2,0,-2,-1,15.610000000000001
3123,2,5,1,-4,-3,-1,-2,-1,15.615
3124,-4,-6,-5,-1,-1,-4,-1,-1,15.620000000000001
3125,-1,-5,-1,1,1,2,3,1,15.625
3126,-1,-2,-3,-2,1,-2,0,-1,15.63
3127,-2,3,1,-2,-2,-1,-1,-2,15.635
3128,1,-1,-2,2,3,2,0,0,15.64
3129,-2,-2,-3,-1,-1,-5,-1,-3,15.645
3130,1,1,1,0,-1,-2,0,1,15.65
3131,-1,-5,-6,-6,-2,-2,0,-1,15.655000000000001
3132,-3,-3,0,0,1,0,0,-1,15.66
3133,-1,-1,-3,-3,0,-1,-2,-3,15.665000000000001
3134,2,1,1,-2,-1,0,0,-1,15.67
3135,-2,-2,0,3,-1,0,-2,-1,15.675
3136,-1,2,0,-6,-3,-2,-1,1,15.68
3137,-1,-1,-2,0,-3,4,-2,-2,15.685
3138,-1,-2,-2,6,3,-1,0,-2,15.69
3139,0,-1,1,0,-1,2,-3,-2,15.695
3140,0,0,0,0,0,0,0,-1,15.700000000000001
3141,2,5,5,2,-1,-2,-1,0,15.705
3142,-3,-5,-2,-4,-2,-2,-1,-1,15.71
3143,-3,-3,1,-1,0,-5,-2,0,15.715
3144,2,-1,-1,0,1,3,3,0,15.72
3145,1,1,-2,-1,-1,-2,-2,-1,15.725
3146,-4,-3,-1,-1,-2,-3,-2,-3,15.73
3147,1,1,-3,-2,1,-3,0,0,15.735000000000001
3148,1,8,2,-1,-1,2,1,1,15.74
3149,1,-2,-2,2,0,-1,0,1,15.745000000000001
3150,0,1,-1,-3,-1,-1,0,-1,15.75
3151,-3,-7,-4,-3,-2,-3,-4,-2,15.755
3152,0,-3,0,-1,1,2,2,-2,15.76
3153,-3,2,2,8,1,-2,-2,-2,15.765
3154,-1,0,-6,-8,0,2,1,-1,15.77
3155,1,4,4,3,4,1,-1,1,15.775
3156,0,-3,-3,-8,-3,-2,-1,-2,15.780000000000001
3157,-4,0,0,-2,-1,-2,-1,-1,15.785
3158,-2,5,6,11,1,-2,1,1,15.790000000000001
3159,3,5,-4,-2,-1,2,6,1,15.795
3160,-7,-10,-4,-1,-2,-3,-3,-1,15.8
3161,2,-2,0,-1,0,-1,-1,0,15.805
3162,-2,-6,-2,-4,-4,-1,-2,-3,15.81
3163,-2,-3,-3,-1,-1,1,0,-2,15.815
3164,4,6,2,2,-3,-3,-3,0,15.82
3165,-1,-3,-3,-3,-2,-3,-1,-2,15.825000000000001
3166,-1,1,-1,-3,-2,0,-1,0,15.83
3167,-1,-4,-2,1,-1,-1,1,-1,15.835
3168,-2,-2,1,-2,-2,-4,-4,-2,15.84
3169,-2,-2,-3,-4,-2,1,0,-1,15.845
3170,4,8,3,-1,0,5,1,0,15.85
3171,-6,-14,-7,-2,-5,0,-1,-3,15.855
3172,-3,-1,0,3,0,-1,-2,0,15.860000000000001
3173,-3,-3,0,0,1,0,1,1,15.865
3174,0,-1,-3,-5,-2,-4,-4,0,15.870000000000001
3175,0,4,5,1,1,1,1,0,15.875
3176,-3,-4,-4,0,2,-1,-2,-1,15.88
3177,1,3,-1,-2,-4,-2,-4,0,15.885
3178,-2,-4,-2,0,0,0,1,-2,15.89
3179,-1,-2,2,3,0,1,-2,-2,15.895
3180,0,0,0,-3,-2,-3,-1,-3,15.9
3181,1,1,1,-1,-3,-1,0,-1,15.905000000000001
3182,-2,-3,-1,0,0,-3,-4,-1,15.91
3183,0,3,2,0,-1,2,0,0,15.915000000000001
3184,2,6,0,0,1,2,2,1,15.92
3185,-4,-9,-5,-5,-2,-2,-5,-2,15.925
3186,-1,-4,-2,5,-2,-5,-1,-2,15.93
3187,2,4,4,3,3,2,-2,-4,15.935
3188,-6,-1,-1,6,6,3,1,0,15.94
3189,-5,1,0,-2,-1,-1,0,-2,15.945
3190,-4,-5,-4,-13,-5,-1,13,2,15.950000000000001
3191,-2,4,-5,3,-3,1,-7,4,15.955
3192,43,1,12,8,0,-3,1,4,15.96
3193,-28,-4,-3,-6,-2,-1,-5,-8,15.965
3194,-11,-8,-27,-4,-1,0,-4,-7,15.97
3195,-3,-4,4,-14,-7,-3,2,-1,15.975
3196,-1,8,14,-4,-3,1,-1,-2,15.98
3197,-5,-2,-16,24,8,1,1,2,15.985000000000001
3198,3,-1,6,-3,-1,0,-1,-1,15.99
3199,-3,1,-2,4,2,0,2,2,15.995000000000001
3200,-14,0,-12,-15,-4,2,-2,-1,16.0
3201,19,18,15,3,3,-1,1,0,16.005
3202,-6,-11,1,-5,-3,3,-1,-2,16.01
3203,6,1,12,-4,-4,-4,-3,-1,16.015
3204,-5,-10,-1,5,3,-1,-6,-10,16.02
3205,-2,-5,-4,-10,-22,-9,-2,-1,16.025
3206,14,8,-12,-11,7,2,3,5,16.03
3207,-17,-7,-2,24,15,4,7,3,16.035
3208,-17,5,20,2,-3,-1,16,1,16.04
3209,-4,-7,-27,-31,-4,-4,-14,1,16.045
3210,3,2,27,35,-3,-6,-12,2,16.05
3211,9,-8,-11,-17,-12,-8,-6,-9,16.055
3212,-23,-12,-38,6,3,2,-5,-6,16.06
3213,9,0,7,-1,2,0,8,0,16.065
3214,-10,11,15,-21,-10,-1,-2,-6,16.07
3215,15,6,6,16,4,6,4,8,16.075
3216,-10,-22,-48,-19,-3,-6,-8,-8,16.080000000000002
3217,24,12,12,-23,-7,-3,1,3,16.085
3218,-16,-11,-18,13,11,-1,-16,-4,16.09
3219,6,20,42,18,12,15,38,4,16.095
3220,46,0,-27,-1,-8,1,-27,7,16.1
3221,-25,-25,-23,-4,-6,-10,-2,-15,16.105
3222,-15,-7,18,-1,-4,-2,7,-5,16.11
3223,0,-18,-32,-36,-16,-10,-25,-11,16.115000000000002
3224,-15,9,39,28,10,5,16,10,16.12
3225,75,36,3,-20,-3,1,3,9,16.125
3226,-25,-13,1,50,17,5,-3,-2,16.13
3227,7,-8,-9,4,-1,-5,-5,-4,16.135
3228,-22,-6,19,-32,-17,-5,8,2,16.14
3229,1,1,-17,30,9,7,8,17,16.145
3230,67,10,-9,-38,-12,1,11,7,16.15
3231,-18,-11,-23,25,11,-2,-7,-14,16.155
3232,9,-7,1,-14,-11,-11,-7,-4,16.16
3233,-36,-7,10,-2,-6,-5,-15,-13,16.165
3234,5,17,9,3,8,3,2,7,16.17
3235,6,19,24,-32,-17,0,17,17,16.175
3236,-4,12,-5,-2,5,0,8,0,16.18
3237,25,-7,11,36,10,7,3,7,16.185
3238,9,20,-1,-6,-4,-3,-13,-4,16.19
3239,-39,-27,-7,-17,-11,-12,-25,-14,16.195
3240,-10,-13,-38,21,7,7,15,9,16.2
3241,-5,-14,2,3,4,1,2,-4,16.205000000000002
3242,28,4,-8,-9,-4,2,8,-3,16.21
3243,-24,10,6,-15,-3,-4,1,-6,16.215
3244,19,15,50,10,1,4,-2,6,16.22
3245,0,-5,-33,5,5,4,8,14,16.225
3246,-24,-21,-14,-24,-18,-14,-19,-18,16.23
3247,16,19,30,22,11,8,24,11,16.235
3248,25,3,-27,-18,-5,-8,-13,0,16.240000000000002
3249,-57,-21,3,15,9,2,-2,-4,16.245
3250,-23,2,0,4,-4,2,0,-2,16.25
3251,0,-24,-31,-12,-13,-10,-3,-5,16.255
3252,6,18,38,45,19,11,9,4,16.26
3253,3,1,-2,-13,-6,-4,-7,-5,16.265
3254,0,5,3,0,4,-2,4,8,16.27
3255,28,4,9,-2,2,6,5,5,16.275
3256,-15,26,20,-44,-9,-8,-15,-14,16.28
3257,0,-24,-45,22,-2,-4,-4,-1,16.285
3258,-23,-7,-4,13,2,1,1,-6,16.29
3259,-5,-12,-8,-23,-4,-4,-6,1,16.295
3260,22,-2,13,46,8,2,0,4,16.3
3261,5,19,12,-12,-2,1,-2,-6,16.305
3262,-8,-1,-7,-17,-8,-5,-4,-2,16.31
3263,8,15,-7,11,4,2,3,5,16.315
3264,-29,-14,-9,-21,-10,-5,0,-5,16.32
3265,0,15,24,-12,2,3,-5,-1,16.325
3266,7,-7,19,29,10,2,4,6,16.330000000000002
3267,-1,0,-1,-5,-5,-5,-10,-8,16.335
3268,-18,-16,-29,-16,1,3,2,-1,16.34
3269,18,15,19,30,1,0,10,3,16.345
3270,17,-10,-6,-21,-4,-6,-6,-1,16.35
3271,-19,-26,-3,-27,-6,-2,-13,-4,16.355
3272,4,8,11,48,11,-2,-4,-11,16.36
3273,27,-5,-14,-35,-9,2,8,6,16.365000000000002
3274,-28,-6,-27,-15,-7,0,-4,-8,16.37
3275,5,11,4,43,19,4,9,3,16.375
3276,0,-6,1,-19,-4,-2,-4,-2,16.38
3277,-19,10,37,-2,0,-2,-9,-4,16.385
3278,31,-12,-31,-44,-19,-8,-3,5,16.39
3279,-15,-12,-20,1,4,-2,-6,-7,16.395
3280,-1,-3,-9,-14,-2,7,19,7,16.4
3281,0,7,37,7,3,-4,-11,-11,16.405
3282,29,4,-1,17,12,3,14,4,16.41
3283,-72,-11,-14,7,-4,-2,-4,-3,16.415
3284,-13,14,55,-3,1,-2,-11,-5,16.42
3285,-30,-32,-56,-41,-15,-2,7,0,16.425
3286,10,-11,-29,35,15,2,-19,-1,16.43
3287,17,28,6,-38,-4,0,8,4,16.435
3288,2,-10,10,0,-3,-6,-13,-12,16.44
3289,6,3,10,-11,-11,6,18,16,16.445
3290,-45,-11,7,45,12,-5,1,-25,16.45
3291,48,17,1,-57,-22,-5,0,15,16.455000000000002
3292,-25,-3,-14,5,3,-1,1,-6,16.46
3293,6,25,27,35,21,2,-9,-2,16.465
3294,-1,-14,11,1,-6,3,4,9,16.47
3295,28,-7,-41,4,2,-1,-6,4,16.475
3296,26,18,0,-32,-16,-5,4,7,16.48
3297,-31,-19,-19,5,8,1,-4,-17,16.485
3298,22,39,40,-18,-3,4,11,5,16.490000000000002
3299,-14,6,22,17,-4,-5,-17,-13,16.495
3300,12,-18,-39,10,1,1,-5,9,16.5
3301,20,-1,-5,3,-3,1,6,6,16.505
3302,-15,19,26,-18,-10,-6,-7,-5,16.51
3303,45,-5,-30,39,13,6,13,11,16.515
3304,-25,5,1,5,-13,-4,-2,4,16.52
3305,-12,-1,19,-18,3,-4,-4,-7,16.525
3306,-7,-11,-26,-13,1,6,5,2,16.53
3307,32,6,5,2,-7,-3,15,7,16.535
3308,-26,-27,-17,-37,-2,-8,-17,-16,16.54
3309,13,3,11,37,6,-1,-2,5,16.545
3310,2,8,28,11,6,-2,-14,2,16.55
3311,13,1,-33,13,4,6,5,0,16.555
3312,9,-5,-10,-8,1,-1,4,1,16.56
3313,16,12,33,-19,-6,3,6,-3,16.565
3314,-19,-5,-42,5,-1,5,20,8,16.57
3315,-12,-13,18,-6,-8,-9,-31,-7,16.575
3316,9,8,16,1,1,2,6,2,16.580000000000002
3317,-23,-13,-12,-9,-9,-4,-13,-8,16.585
3318,-1,-9,-7,0,1,4,4,-1,16.59
3319,10,5,10,3,-3,-3,3,0,16.595
3320,-33,-14,-21,-23,-1,1,-3,-1,16.6
3321,0,1,-5,34,10,1,6,1,16.605
3322,9,11,11,-1,-2,-2,-8,-3,16.61
3323,-14,-13,12,-20,-6,-5,7,-7,16.615000000000002
3324,9,3,16,-11,-4,-1,-2,-1,16.62
3325,8,3,-32,-17,-8,-3,-6,3,16.625
3326,-30,-17,5,1,6,1,-8,-2,16.63
3327,-11,-1,2,20,8,-2,-9,-2,16.635
3328,-2,-1,-11,15,-3,4,15,4,16.64
3329,40,10,7,-25,-7,-2,5,1,16.645
3330,-14,-8,-1,-16,-10,-4,-11,2,16.65
3331,-15,10,25,13,12,2,-1,-5,16.655
3332,-3,-22,-22,8,0,-1,-1,-2,16.66
3333,23,14,21,-2,-2,2,8,5,16.665
3334,1,-7,-44,-1,1,1,-11,-5,16.67
3335,-3,3,18,0,-1,2,6,1,16.675
3336,13,12,-1,27,12,1,-13,-2,16.68
3337,-16,-9,-3,-27,-16,-4,5,1,16.685
3338,26,6,-1,6,4,0,-4,-3,16.69
3339,-18,-4,14,14,4,-3,-5,-6,16.695
3340,16,9,-8,-16,-8,-1,2,4,16.7
3341,-19,-4,1,41,17,2,2,-3,16.705000000000002
3342,-10,3,42,-10,-10,-4,6,-2,16.71
3343,2,-20,-56,-14,-5,-2,3,1,16.715
3344,19,3,10,-2,-1,-5,-8,-2,16.72
3345,-7,-4,-2,-11,-1,-1,-5,0,16.725
3346,-16,-6,6,-10,-3,-2,5,-3,16.73
3347,-5,9,30,0,-8,-3,-2,-9,16.735
3348,1,-4,-17,18,13,8,-2,-1,16.740000000000002
3349,-7,-20,-28,-36,-13,-2,-5,-6,16.745
3350,16,20,33,27,-2,-7,-6,8,16.75
3351,-5,-11,-11,-4,4,4,-12,-2,16.755
3352,13,12,3,4,3,3,11,8,16.76
3353,-30,-31,-15,8,7,1,-3,-8,16.765
3354,2,-1,-6,-35,-8,0,3,2,16.77
3355,-9,3,9,19,1,-2,4,-9,16.775
3356,17,7,23,-3,-5,-2,3,9,16.78
3357,8,-4,-7,20,14,0,-6,-2,16.785
3358,-8,-11,-36,-27,-8,-2,9,0,16.79
3359,34,22,0,-2,1,3,3,12,16.795
3360,-32,-16,4,20,3,-4,-5,-13,16.8
3361,2,-7,-3,-11,-10,-1,12,1,16.805
3362,5,3,7,-24,-10,-5,-27,-6,16.81
3363,1,0,-2,8,5,4,1,9,16.815
3364,6,12,2,-3,-6,-3,0,-8,16.82
3365,11,7,2,-6,-7,-4,-4,2,16.825
3366,1,10,13,5,0,4,12,-3,16.830000000000002
3367,-6,-13,-23,-11,3,1,3,5,16.835
3368,0,4,5,14,4,3,4,-4,16.84
3369,-9,-5,5,-15,-14,-9,-12,0,16.845
3370,17,7,10,68,19,8,15,7,16.85
3371,-19,12,10,-29,-7,-1,-19,-12,16.855
3372,-21,-43,-62,-9,-5,-10,-13,-1,16.86
3373,5,16,17,21,13,3,-1,-2,16.865000000000002
3374,20,-1,-4,-21,-8,-1,5,5,16.87
3375,-9,-6,10,6,0,-1,0,-7,16.875
3376,-3,13,9,-26,-8,4,5,2,16.88
3377,-1,17,2,-8,-3,-1,3,0,16.885
3378,27,-21,-21,2,7,0,4,10,16.89
3379,-15,-5,-14,19,0,-3,-3,-6,16.895
3380,6,15,19,23,15,8,12,2,16.9
3381,18,-12,-48,-39,-14,-7,-17,-4,16.905
3382,-24,-1,8,-19,-3,-2,-1,-10,16.91
3383,-21,-5,8,26,5,-1,-10,-2,16.915
3384,15,22,36,-2,-2,-6,-3,4,16.92
3385,-3,-18,-38,19,4,5,13,5,16.925
3386,0,6,3,-1,-3,-2,1,0,16.93
3387,-9,-9,-24,-29,-10,2,9,-6,16.935
3388,8,4,26,-21,-5,-7,-2,8,16.94
3389,0,19,33,50,12,1,2,1,16.945
3390,-7,-10,-8,-12,-5,-3,-9,-5,16.95
3391,15,-4,4,-6,-7,-1,0,5,16.955000000000002
3392,-20,-21,-52,-23,-2,3,16,-11,16.96
3393,-4,1,24,-18,-10,-7,-26,-5,16.965
3394,1,-6,-46,-14,-7,-3,-1,-2,16.97
3395,0,7,39,50,15,7,20,4,16.975
3396,2,-4,-11,-7,-3,-2,-14,0,16.98
3397,-36,-9,17,-10,-3,-2,-11,-13,16.985
3398,-4,-2,-17,29,5,-6,3,3,16.990000000000002
3399,17,21,45,-18,-8,-4,-3,8,16.995
3400,-13,-17,-43,15,3,2,-3,-5,17.0
3401,4,-4,-2,-15,-10,1,12,2,17.005
3402,-12,-1,12,0,-2,-2,-3,-6,17.01
3403,-7,-25,-44,-19,-5,-6,-1,-5,17.015
3404,0,3,21,-2,-5,-2,-8,-6,17.02
3405,0,10,-1,-5,3,3,-4,0,17.025
3406,0,1,12,14,6,5,7,1,17.03
3407,4,3,-9,-17,-5,-3,-10,-2,17.035
3408,25,9,11,19,5,1,1,6,17.04
3409,-2,0,-2,10,4,1,10,3,17.045
3410,-4,-10,-3,-11,-1,0,-6,-3,17.05
3411,-7,-11,-32,-23,-8,-3,0,-5,17.055
3412,1,-6,4,-2,-1,0,0,0,17.06
3413,5,3,-1,-11,-4,-1,-2,0,17.065
3414,-2,5,17,12,1,0,0,-1,17.07
3415,2,-2,10,17,7,-1,-5,-4,17.075
3416,-2,0,5,-2,-4,-11,-1,5,17.080000000000002
3417,-14,-10,-17,-2,0,8,-2,-15,17.085
3418,8,4,5,-8,-4,-5,-5,10,17.09
3419,2,1,0,9,3,-1,3,1,17.095
3420,-9,0,5,-10,-8,0,-5,-6,17.1
3421,5,8,14,-57,-18,-4,10,4,17.105
3422,-4,-2,2,87,45,13,3,-1,17.11
3423,10,13,22,-7,-6,-6,-8,4,17.115000000000002
3424,8,1,5,-4,-2,-2,9,4,17.12
3425,-9,-8,-32,2,-3,-5,-11,-2,17.125
3426,-1,3,8,-24,-12,-2,2,-6,17.13
3427,-6,0,7,1,4,-5,-4,0,17.135
3428,-6,13,10,-6,-1,-6,1,-3,17.14
3429,3,-3,1,11,6,3,3,-3,17.145
3430,-3,-2,-10,-11,-8,-9,-16,-1,17.150000000000002
3431,-4,-3,-16,7,4,10,6,-21,17.155
3432,7,-5,13,-5,-6,3,-1,18,17.16
3433,-3,-4,-11,17,6,-2,8,4,17.165
3434,1,8,9,-1,-1,13,7,3,17.17
3435,0,2,-2,-14,-5,4,-4,4,17.175
3436,-8,-5,-17,5,2,-1,-2,-11,17.18
3437,1,4,14,16,4,-6,-6,1,17.185
3438,-2,0,9,-15,-7,-8,-5,-1,17.19
3439,-3,-2,-9,-6,-3,-3,0,-1,17.195
3440,-4,-4,-5,4,4,3,-1,-5,17.2
3441,-2,0,7,11,4,-3,-2,3,17.205000000000002
3442,1,-4,-13,-17,-12,-5,1,-6,17.21
3443,1,0,3,3,2,2,4,5,17.215
3444,-3,-1,4,5,0,1,-1,-4,17.22
3445,3,1,14,-2,-1,0,-4,-1,17.225
3446,2,2,3,-5,-2,3,9,-3,17.23
3447,-4,-6,-10,3,-1,-6,-1,3,17.235
3448,-3,-1,-5,-3,-1,3,-1,-2,17.240000000000002
3449,-2,-10,-3,1,-1,-5,-8,-3,17.245
3450,3,2,4,2,2,14,7,3,17.25
3451,3,-4,-1,-1,-2,10,4,1,17.255
3452,-1,0,-9,-2,-3,1,4,-3,17.26
3453,1,0,-3,0,-1,-1,1,-1,17.265
3454,-1,0,1,-1,-2,-8,-5,-2,17.27
3455,1,4,5,-4,-1,-5,-4,0,17.275000000000002
3456,-4,-6,0,-3,-3,-4,-4,-4,17.28
3457,2,7,22,8,4,1,1,1,17.285
3458,-2,-7,-25,-3,0,-4,-3,0,17.29
3459,-3,0,12,2,-2,-1,0,0,17.295
3460,1,5,-23,-2,1,-3,0,0,17.3
3461,-4,-5,1,-7,-2,-5,0,-3,17.305
3462,-6,-6,14,7,0,3,-1,-5,17.31
3463,-1,0,2,0,2,0,0,-1,17.315
3464,-2,-2,3,2,0,-2,-2,1,17.32
3465,-1,1,-7,-2,0,5,3,-1,17.325
3466,-1,4,1,-2,0,-12,-7,-2,17.330000000000002
3467,1,3,3,0,2,5,4,0,17.335
3468,0,-5,-11,-1,-3,-1,-1,-1,17.34
3469,1,-1,-9,-2,-1,-1,2,-2,17.345
3470,-4,0,4,-4,-4,2,0,-2,17.35
3471,3,1,-6,-2,-4,-9,-6,1,17.355
3472,-1,2,5,2,2,5,0,-3,17.36
3473,0,2,-3,4,1,1,1,-1,17.365000000000002
3474,2,0,-1,-3,-6,-7,-1,-1,17.37
3475,-2,-2,-6,-4,-2,0,-7,-1,17.375
3476,-3,-7,4,2,-2,1,-1,-3,17.38
3477,-3,-4,-8,2,3,-1,-1,-3,17.385
3478,1,-1,-2,-6,-3,-4,-1,-1,17.39
3479,-1,7,5,1,-3,0,1,-1,17.395
3480,-4,-8,-2,-5,-2,0,-1,0,17.400000000000002
3481,-4,-9,-7,10,2,-2,-2,-1,17.405
3482,1,-4,-3,-5,-1,0,-3,-1,17.41
3483,-2,0,4,7,3,-7,-5,-1,17.415
3484,-3,1,0,-6,-5,2,4,-1,17.42
3485,-3,-2,-5,-5,-3,-3,-2,-1,17.425
3486,0,0,-3,-3,-1,6,2,-1,17.43
3487,-3,-8,-4,0,-2,-5,-4,-2,17.435
3488,6,6,4,2,-1,-7,-4,1,17.44
3489,-3,-1,8,-1,0,-1,1,-2,17.445
3490,-2,-3,-4,-1,-2,8,2,0,17.45
3491,2,1,-3,-4,-2,1,5,0,17.455000000000002
3492,-1,1,3,2,0,-2,-1,-1,17.46
3493,2,6,1,4,-4,-2,1,1,17.465
3494,-2,-2,0,1,2,1,-2,-1,17.47
3495,0,0,-2,-1,-2,1,2,1,17.475
3496,0,0,0,2,1,3,0,-1,17.48
3497,-4,0,4,-3,-2,-3,-1,1,17.485
