slno,emg1,emg2,emg3,emg4,emg5,emg6,emg7,emg8,Time
0,2,4,0,1,0,-4,-1,0,0.0
1,-3,-4,-6,-1,-2,-6,-2,-2,0.005
2,0,-2,-2,-1,-3,-1,0,-1,0.01
3,0,1,-1,-1,1,1,0,0,0.015
4,-3,-2,-5,-3,-3,-1,0,0,0.02
5,-5,-1,3,1,-1,-2,-2,-6,0.025
6,5,0,-2,-2,-2,0,0,-2,0.03
7,0,-3,-3,0,1,0,-1,-2,0.035
8,-3,-1,1,-1,-2,8,2,-1,0.04
9,0,1,1,0,-1,-1,0,0,0.045
10,-4,-4,-2,-1,0,-1,0,1,0.05
11,0,1,-1,-1,-3,-6,-6,0,0.055
12,2,3,0,2,2,1,4,0,0.06
13,0,-1,-4,-1,0,-2,-1,3,0.065
14,-1,3,-1,-2,-1,3,-1,-1,0.07
15,-1,-1,5,1,-2,-2,-1,2,0.075
16,-1,1,10,0,-1,-2,-3,-3,0.08
17,0,-2,-11,-2,1,5,3,-1,0.085
18,0,2,1,1,0,-2,0,1,0.09
19,-3,-6,-8,-5,-2,-2,-2,-3,0.095
20,-2,-2,4,-1,-1,-3,-3,0,0.1
21,2,0,2,-3,-2,-3,-2,-2,0.105
22,-7,-3,-2,0,1,3,2,-2,0.11
23,0,2,0,-2,0,-1,-1,0,0.115
24,1,-1,-3,0,0,-1,0,-2,0.12
25,-2,-3,4,-2,0,-2,-2,-2,0.125
26,-3,-3,-3,0,-1,-3,-1,0,0.13
27,0,-5,0,-3,-1,6,-1,0,0.135
28,-1,2,-1,-2,0,3,4,0,0.14
29,0,1,1,1,2,4,-2,-1,0.145
30,1,0,-1,-2,-2,-2,-2,-1,0.15
31,-1,-2,-4,-1,-1,4,-5,-1,0.155
32,1,1,7,1,-1,-3,1,1,0.16
33,2,3,-2,-1,-2,-1,2,1,0.165
34,-1,-4,-4,-1,-4,-5,3,-1,0.17
35,-2,-1,-4,0,-2,-3,-5,-5,0.17500000000000002
36,0,2,-2,-1,-2,-3,-2,5,0.18
37,-2,-5,0,-1,-2,-3,1,-2,0.185
38,-1,-1,-2,0,2,5,-3,-1,0.19
39,4,0,0,-1,-1,-6,2,2,0.195
40,-8,1,0,0,-2,-2,-4,-7,0.2
41,-1,-4,-2,-2,-3,-4,-4,0,0.20500000000000002
42,-2,-3,-8,-5,1,4,1,0,0.21
43,-2,4,6,0,-1,-4,0,-2,0.215
44,3,-5,-6,-3,-1,0,-3,0,0.22
45,1,1,-3,-1,-1,-3,0,0,0.225
46,0,0,-1,-1,-2,-3,-2,-4,0.23
47,-2,0,-5,-1,-1,2,1,-2,0.23500000000000001
48,0,5,7,2,-1,-3,1,-2,0.24
49,-2,-2,-3,-2,-3,4,0,-2,0.245
50,3,1,-6,2,1,-2,-3,0,0.25
51,-3,-5,-5,-3,0,-2,-2,-2,0.255
52,-3,-3,-3,-1,0,-4,-3,-7,0.26
53,6,0,0,0,0,4,3,2,0.265
54,-1,1,8,2,1,1,-1,1,0.27
55,-1,0,0,0,0,-3,2,1,0.275
56,-2,-6,-3,-2,0,1,-2,-3,0.28
57,1,2,-1,-3,1,-5,-4,0,0.28500000000000003
58,-8,-2,0,0,0,4,2,-3,0.29
59,0,-2,4,1,-3,-6,-7,-2,0.295
60,0,-2,-2,-2,-2,2,1,2,0.3
61,-2,-3,-3,-1,-1,1,-2,0,0.305
62,2,1,-1,-1,0,-2,-2,1,0.31
63,-1,-1,-6,-1,1,0,2,-2,0.315
64,-1,-2,4,1,3,0,-1,1,0.32
65,-1,0,1,-2,-2,-6,-3,-1,0.325
66,0,0,-1,-3,-2,0,1,-1,0.33
67,-2,-1,-3,-3,0,-6,-1,-2,0.335
68,-3,0,-3,-1,-3,-3,-4,-3,0.34
69,0,-5,-2,1,1,4,2,1,0.34500000000000003
70,0,-2,1,0,0,2,0,0,0.35000000000000003
71,1,-1,-1,0,0,-4,-2,4,0.355
72,0,2,-1,0,0,-1,1,-1,0.36
73,-2,2,1,0,-2,-3,0,-2,0.365
74,0,0,-1,-2,-3,-8,-4,0,0.37
75,5,0,0,-1,1,6,3,-1,0.375
76,1,-1,-1,0,-2,-1,1,2,0.38
77,0,0,-11,-2,-2,-2,0,-3,0.385
78,-1,1,8,-1,1,1,1,-2,0.39
79,2,0,1,-4,0,2,0,0,0.395
80,0,-1,-2,1,1,2,-1,0,0.4
81,-1,2,7,2,0,-3,-3,-1,0.405
82,-1,1,-3,-2,0,4,1,-8,0.41000000000000003
83,1,-6,7,2,-1,-6,-3,6,0.41500000000000004
84,2,1,-4,-2,0,7,3,1,0.42
85,-1,1,-3,0,-1,-2,-1,-3,0.425
86,-2,0,1,0,-1,-3,0,-1,0.43
87,-3,1,4,-1,-1,0,-2,-4,0.435
88,0,-5,-7,-2,-1,0,4,0,0.44
89,-1,0,1,2,1,4,-1,0,0.445
90,-1,-1,3,-1,-2,-7,-6,-1,0.45
91,0,1,-2,0,1,0,2,1,0.455
92,-4,0,-1,-3,-4,-6,-3,-4,0.46
93,-1,0,-1,-2,0,-1,1,0,0.465
94,1,-2,-8,-1,0,1,-2,1,0.47000000000000003
95,-3,5,7,3,0,1,-1,-3,0.47500000000000003
96,1,1,4,1,0,-1,-1,-7,0.48
97,3,-8,1,0,0,-1,-1,6,0.485
98,-2,0,-1,-3,1,0,0,0,0.49
99,-2,-4,-9,-2,-4,-2,0,-1,0.495
100,0,3,-4,-1,0,-8,-5,0,0.5
101,-5,0,6,0,-2,5,3,-3,0.505
102,-1,1,8,2,-1,-3,-2,1,0.51
103,-2,2,-1,1,1,6,1,1,0.515
104,-2,-5,0,1,0,-4,-3,2,0.52
105,-2,2,-8,-3,-1,-4,-2,0,0.525
106,-2,-6,-7,-2,-4,-10,-3,0,0.53
107,3,2,2,-1,1,18,9,2,0.535
108,-7,-1,-1,0,0,1,-4,-3,0.54
109,-2,-1,-2,-2,0,0,0,-1,0.545
110,4,-2,7,1,-1,0,1,0,0.55
111,-1,1,-2,-1,-2,-8,-2,-2,0.555
112,2,-4,-3,-1,-2,2,0,4,0.56
113,-3,-1,1,0,-1,-3,0,-4,0.5650000000000001
114,-2,0,-3,-1,1,0,-3,0,0.5700000000000001
115,-2,0,-4,-2,-2,-6,-1,0,0.5750000000000001
116,1,-1,1,2,2,9,1,0,0.58
117,1,0,-3,-2,-1,-4,-1,-2,0.585
118,1,-1,-4,-2,-1,0,1,-1,0.59
119,-1,-2,3,-1,-1,-7,0,-2,0.595
120,2,-2,-6,-1,0,9,5,-1,0.6
121,-1,-5,-5,-1,-1,-4,-3,0,0.605
122,2,5,10,6,0,6,0,3,0.61
123,-12,-7,-6,-1,0,2,-1,-8,0.615
124,-1,3,-2,-4,-2,-2,-2,-1,0.62
125,4,-1,-4,-2,-3,-2,0,0,0.625
126,-2,1,0,0,-1,-3,-1,-1,0.63
127,1,6,8,1,-1,7,-1,0,0.635
128,-2,-5,-9,-2,-2,-4,0,-1,0.64
129,-3,-1,-2,1,1,3,1,-1,0.645
130,1,-2,-3,-3,-4,-6,0,-1,0.65
131,0,-2,0,-2,0,-5,-1,-2,0.655
132,1,-3,2,-1,-1,-4,-3,0,0.66
133,0,2,-1,-2,1,1,1,-1,0.665
134,-3,-2,-3,-2,-1,-2,0,0,0.67
135,-2,-7,-9,-1,0,-8,-7,0,0.675
136,0,2,4,2,-1,10,3,2,0.68
137,0,-2,0,0,0,0,-1,-1,0.685
138,-2,1,-1,1,-2,1,0,-2,0.6900000000000001
139,2,1,-3,-1,-1,-3,0,1,0.6950000000000001
140,-5,0,4,2,-2,-7,-4,-2,0.7000000000000001
141,-1,-2,-3,-2,-5,-7,-9,-4,0.705
142,1,-7,-15,-3,1,9,3,0,0.71
143,0,3,17,0,-1,-6,-4,1,0.715
144,2,2,2,2,0,-4,5,-1,0.72
145,-5,-5,2,-2,-3,4,-1,-3,0.725
146,-1,-2,-5,-3,-2,-6,-3,0,0.73
147,0,-1,-10,-2,0,1,1,-2,0.735
148,0,1,2,-2,0,-8,-5,2,0.74
149,0,1,1,1,0,4,1,0,0.745
150,0,0,0,-3,0,-6,0,1,0.75
151,0,-2,-8,-3,-1,9,0,1,0.755
152,1,2,10,-1,1,-1,0,0,0.76
153,-1,-1,-4,-2,0,-7,-1,0,0.765
154,-2,3,4,1,0,6,-3,-4,0.77
155,-1,-2,-3,-1,-3,-4,0,6,0.775
156,5,-2,-5,-4,-5,-8,-4,-2,0.78
157,0,-2,0,-2,0,7,2,-2,0.785
158,0,0,-4,-1,-1,-6,1,-1,0.79
159,-1,-5,-3,0,-1,1,-2,-6,0.795
160,2,-1,-1,-1,-3,-3,-1,1,0.8
161,-1,2,6,2,1,3,0,1,0.805
162,-2,-1,-2,-2,0,0,-1,-1,0.81
163,0,3,-4,-1,1,1,0,-1,0.8150000000000001
164,-2,-3,-5,-3,-1,1,0,-1,0.8200000000000001
165,0,2,3,1,0,1,2,-2,0.8250000000000001
166,-2,-2,-1,-1,-1,-5,-3,-1,0.8300000000000001
167,-1,-1,1,-1,1,7,1,-1,0.835
168,-2,-1,0,1,1,2,0,-2,0.84
169,-3,-4,-7,-2,-2,-5,-1,-7,0.845
170,1,-1,0,-2,-2,3,4,8,0.85
171,1,-6,-7,-3,-1,-8,-4,-1,0.855
172,-2,5,7,1,2,4,0,-4,0.86
173,2,1,1,-1,0,-4,1,1,0.865
174,-1,0,-2,1,0,4,0,-3,0.87
175,-4,0,-4,-1,-3,-1,-2,-2,0.875
176,1,-2,1,-3,-1,1,1,2,0.88
177,-2,1,2,0,0,-3,-4,0,0.885
178,-2,0,0,0,-3,-1,-1,-2,0.89
179,2,-1,0,-1,0,3,3,0,0.895
180,0,-2,-10,-2,-3,-5,-4,-1,0.9
181,0,0,3,0,-1,1,1,0,0.905
182,-2,0,5,0,2,6,3,-2,0.91
183,-1,2,9,2,0,-3,-1,-1,0.915
184,-5,-7,-9,-1,-3,-4,-1,-2,0.92
185,2,-5,1,-3,-2,-1,1,4,0.925
186,0,-4,-2,0,0,-4,-2,-2,0.93
187,-1,0,-1,0,-2,-9,-2,-2,0.935
188,-2,2,-1,0,1,13,3,-3,0.9400000000000001
189,0,3,-3,0,-2,-5,-5,-1,0.9450000000000001
190,4,-3,-2,-2,1,1,0,0,0.9500000000000001
191,-2,3,-4,-3,-1,0,1,-3,0.9550000000000001
192,0,-5,5,0,-2,-5,-4,1,0.96
193,-1,-7,-6,1,1,-5,-1,0,0.965
194,2,0,0,2,2,12,6,1,0.97
195,0,-1,-4,0,-1,-5,-1,-1,0.975
196,1,2,-2,-3,-2,-7,-3,2,0.98
197,1,1,1,-1,-1,7,-2,1,0.985
198,-2,0,0,0,-1,-9,-6,-2,0.99
199,0,-1,0,-3,-2,-3,-1,-2,0.995
200,0,0,1,-1,-1,1,0,6,1.0
201,-2,-2,-4,0,-2,-5,-1,-2,1.0050000000000001
202,-3,-2,0,-2,-1,-2,-3,-3,1.01
203,0,2,4,1,-1,2,-1,0,1.0150000000000001
204,2,1,1,2,1,-8,-3,-2,1.02
205,-2,1,-1,0,2,14,3,0,1.025
206,1,-2,-12,-1,-2,-2,0,1,1.03
207,0,-2,10,1,-1,0,-1,-2,1.035
208,-2,0,-7,-2,-1,3,-1,-2,1.04
209,3,3,13,2,-2,-7,0,-1,1.045
210,-2,-2,-3,-3,-4,-3,-4,-3,1.05
211,-1,-1,-4,1,0,0,-1,0,1.055
212,-2,-3,-2,0,1,4,3,-4,1.06
213,-1,2,-2,0,1,0,-4,-5,1.065
214,-1,1,2,1,-1,1,-3,7,1.07
215,0,-2,-1,-1,-1,-1,1,-1,1.075
216,-4,-3,0,-2,0,-4,0,-1,1.08
217,-2,0,-4,-2,-2,-2,0,-1,1.085
218,-4,1,4,0,-1,-2,-2,-4,1.09
219,-3,-2,-5,-1,-1,-2,-2,0,1.095
220,2,3,3,-2,0,-2,-3,0,1.1
221,-3,-5,-2,-2,-1,-1,-1,0,1.105
222,2,-2,-3,-1,-1,-7,-3,-3,1.11
223,0,-1,4,0,3,10,2,2,1.115
224,0,-2,-5,-3,-4,-5,1,-1,1.12
225,0,0,-1,0,-2,1,-3,-1,1.125
226,2,3,0,0,-1,-7,-2,0,1.1300000000000001
227,-5,-11,-12,-1,1,3,2,-2,1.135
228,1,5,10,2,2,0,4,0,1.1400000000000001
229,0,-1,-9,-3,-1,2,-1,-5,1.145
230,5,-4,-6,-2,2,1,4,6,1.1500000000000001
231,-1,3,19,2,-2,-8,-7,-3,1.155
232,-1,0,-4,1,0,6,1,-1,1.16
233,0,1,5,1,-1,-5,-2,-2,1.165
234,-4,1,-6,-2,-3,-2,-1,-5,1.17
235,1,-1,-4,-2,-2,-2,-1,-2,1.175
236,-1,-1,4,-1,-4,-8,-3,-3,1.18
237,-2,-3,-3,-1,2,7,2,3,1.185
238,-2,0,9,-2,0,-2,-1,-1,1.19
239,-6,-1,-8,-1,0,-3,1,-3,1.195
240,0,-2,-1,0,-1,6,-3,-2,1.2
241,-2,1,-1,-3,-4,-14,-2,0,1.205
242,-6,-6,1,1,-1,7,0,-4,1.21
243,2,-1,0,-1,-2,-6,2,1,1.215
244,-1,-1,-7,-1,0,16,2,0,1.22
245,-6,-3,0,-2,-1,-9,-2,0,1.225
246,5,4,10,0,-2,0,1,0,1.23
247,1,0,-3,0,-1,-2,-3,-1,1.235
248,-4,-4,-5,0,-3,-7,-4,-1,1.24
249,2,0,-2,-1,-2,-1,0,-2,1.245
250,-4,1,0,0,0,2,-2,-3,1.25
251,1,-1,-4,-1,-2,-1,-2,1,1.2550000000000001
252,-2,-2,-1,0,-1,1,0,0,1.26
253,0,-2,3,-1,0,2,0,1,1.2650000000000001
254,-1,-1,-4,0,1,-2,-2,-2,1.27
255,4,0,-7,-2,-2,-9,-6,1,1.2750000000000001
256,-1,-2,9,-1,-1,1,1,-2,1.28
257,-1,-7,-7,-3,0,1,-1,1,1.285
258,-3,1,-1,1,1,8,4,-1,1.29
259,0,2,4,1,-2,1,0,-2,1.295
260,-5,-4,-7,-3,-3,-10,-5,-9,1.3
261,6,0,0,-1,0,2,0,7,1.305
262,1,0,-6,0,-1,6,1,1,1.31
263,-3,-4,7,-1,-1,1,-2,-1,1.315
264,-2,0,-2,-2,-3,-5,-2,0,1.32
265,-5,0,-3,0,-2,-6,-1,-3,1.325
266,-1,-1,-1,-1,2,2,-4,0,1.33
267,-1,1,-3,-1,0,-4,-3,0,1.335
268,-1,1,2,-2,1,4,3,0,1.34
269,-1,-2,-5,-1,0,-2,1,-2,1.345
270,-1,-2,-2,0,-3,-1,-1,1,1.35
271,0,1,2,-1,0,2,0,0,1.355
272,0,-1,-4,0,-1,-6,-1,-1,1.36
273,0,1,1,1,0,-6,-4,-2,1.365
274,-1,-3,-3,-2,0,7,8,-2,1.37
275,-1,1,-3,-2,-3,0,-2,-1,1.375
276,0,-1,0,1,-1,-2,0,-2,1.3800000000000001
277,3,-1,0,-1,-2,0,-1,7,1.385
278,-5,-4,1,-1,0,-14,-6,-3,1.3900000000000001
279,2,-2,-3,0,2,12,2,0,1.395
280,-1,-3,-3,-2,-1,1,2,3,1.4000000000000001
281,-3,-1,3,1,0,3,0,-5,1.405
282,0,2,2,-1,-2,-5,-3,-3,1.41
283,0,0,-2,0,-1,-6,-1,1,1.415
284,-1,-2,-1,0,0,0,1,0,1.42
285,-2,-5,-3,-2,-1,-1,2,-2,1.425
286,-1,2,-2,0,2,11,0,2,1.43
287,-2,3,-7,0,-1,-3,0,-3,1.435
288,0,-3,-1,-3,0,0,-7,0,1.44
289,3,1,-1,0,0,0,3,2,1.445
290,-9,-2,-1,-2,0,-5,-3,-6,1.45
291,-2,-1,-3,-2,0,1,2,-2,1.455
292,2,1,-3,0,-2,-3,-2,1,1.46
293,-4,-1,5,-2,-1,-6,-4,-6,1.465
294,7,-2,-2,-2,-1,2,3,4,1.47
295,-2,-2,-1,-2,-1,0,0,0,1.475
296,-1,0,-5,-2,0,-1,0,1,1.48
297,-2,3,2,-1,-1,0,-4,-3,1.485
298,-1,1,-1,1,-2,-12,-2,-4,1.49
299,-1,1,9,2,-1,0,4,-1,1.495
300,2,3,2,0,0,8,1,0,1.5
301,0,1,-4,0,-1,-2,2,-1,1.5050000000000001
302,0,-4,-3,0,-1,-5,-3,1,1.51
303,0,-4,-5,-3,-4,-10,-6,-1,1.5150000000000001
304,3,0,-2,-1,3,8,5,2,1.52
305,-13,-6,-6,-2,-2,3,-1,-6,1.5250000000000001
306,0,-3,-3,-1,-1,-1,0,0,1.53
307,-2,3,7,-1,-1,3,-5,-2,1.5350000000000001
308,-3,-1,2,1,-2,-15,-5,4,1.54
309,2,-2,-2,1,-1,3,2,0,1.545
310,1,1,4,0,-1,-5,-3,-2,1.55
311,-2,-9,-5,-2,1,6,2,1,1.555
312,-3,-1,-2,-1,-3,-2,-4,-3,1.56
313,1,1,-2,-1,0,-6,-5,1,1.565
314,-2,-1,2,-1,-2,0,-4,-1,1.57
315,-2,-7,-7,-3,-2,-2,-2,-3,1.575
316,1,1,1,-1,0,2,3,-3,1.58
317,3,1,7,0,0,8,2,0,1.585
318,0,1,-1,-2,-2,-7,-4,-2,1.59
319,0,4,-1,1,2,-2,1,1,1.595
320,-3,-2,-3,-2,-1,-2,0,-1,1.6
321,3,1,0,0,-1,-1,-1,4,1.605
322,-10,-4,0,-2,-1,-5,-1,-5,1.61
323,-1,0,-1,0,1,5,1,0,1.615
324,0,-1,-1,0,-1,-6,-4,-1,1.62
325,-3,-1,1,0,1,-4,-2,-2,1.625
326,6,2,0,2,1,9,6,3,1.6300000000000001
327,0,-2,-1,-2,-4,-11,-3,-2,1.635
328,1,0,-2,-1,1,3,-3,0,1.6400000000000001
329,-2,0,-1,-4,-3,-3,-2,-3,1.645
330,3,-3,-5,-1,-2,-4,-2,1,1.6500000000000001
331,-4,0,-1,-1,0,2,2,-1,1.655
332,1,-2,0,0,0,4,-1,-2,1.6600000000000001
333,0,-2,-4,-3,-2,-4,-1,0,1.665
334,0,2,-5,-2,-2,-1,1,-1,1.67
335,4,1,12,2,-1,1,1,0,1.675
336,0,-2,-6,2,-1,-2,1,1,1.68
337,-6,-8,-5,-1,1,-3,-6,-7,1.685
338,1,-3,-4,-1,-1,1,2,2,1.69
339,2,-1,-6,-1,-2,-2,-2,0,1.695
340,-2,1,0,0,1,-8,-5,-1,1.7
341,2,-1,3,1,0,13,8,0,1.705
342,-4,-1,2,-1,-3,-7,-4,4,1.71
343,1,0,-3,-2,0,5,2,-2,1.715
344,1,1,0,-3,-3,-6,0,-1,1.72
345,3,3,-4,1,-2,-6,0,2,1.725
346,-1,0,0,-1,0,6,-1,-5,1.73
347,0,2,-1,-2,-2,-2,-2,1,1.735
348,-4,-5,-3,-2,0,3,2,-1,1.74
349,-1,4,0,-3,-1,-3,-3,-4,1.745
350,0,3,-7,-2,-1,4,1,2,1.75
351,-5,-3,14,3,-1,-4,-3,-1,1.7550000000000001
352,1,1,-3,0,0,2,-2,1,1.76
353,3,0,-1,-2,-3,-11,-3,1,1.7650000000000001
354,-3,-4,-3,-2,0,6,-1,-2,1.77
355,-1,0,-7,-1,0,13,3,-6,1.7750000000000001
356,4,2,-1,3,0,3,0,6,1.78
357,1,-1,4,1,-3,-6,0,1,1.7850000000000001
358,-3,-6,5,-2,-1,2,-2,-3,1.79
359,-1,-2,-4,-1,0,-6,1,-3,1.795
360,0,2,5,-1,0,1,0,-2,1.8
361,-2,0,-3,0,-1,2,1,1,1.805
362,1,2,2,1,-1,-2,-7,-2,1.81
363,-3,-2,-1,-2,-2,-5,-4,-1,1.815
364,0,0,-7,-2,-2,-2,-3,-2,1.82
365,1,4,8,2,0,4,0,0,1.825
366,-1,0,1,2,0,-5,0,-2,1.83
367,1,-1,-6,-1,-1,-3,-3,1,1.835
368,-1,-1,1,-1,0,1,2,1,1.84
369,-1,1,-4,0,-1,3,-1,-4,1.845
370,3,3,2,-2,0,-3,-1,2,1.85
371,-12,-4,-6,-1,-3,-3,-1,1,1.855
372,1,-1,0,-3,-3,-5,0,-1,1.86
373,-1,1,2,0,1,3,-1,-1,1.865
374,2,-3,-3,0,3,17,6,0,1.87
375,2,1,-1,-2,-2,-7,-2,0,1.875
376,-4,-2,8,1,-1,-5,-2,-3,1.8800000000000001
377,-1,-3,-4,-3,-1,-3,0,1,1.885
378,0,0,-3,-1,-3,-5,-3,-1,1.8900000000000001
379,0,-4,0,1,0,5,1,-2,1.895
380,-3,0,2,1,1,0,0,-3,1.9000000000000001
381,0,-1,-3,1,-1,-2,-4,-1,1.905
382,-2,-1,-2,0,-3,-6,-2,-2,1.9100000000000001
383,0,-4,-3,-2,0,2,3,1,1.915
384,1,3,0,-1,0,-2,-1,-3,1.92
385,-4,-4,-4,0,0,0,2,2,1.925
386,-2,-2,-3,-2,-2,-2,0,-1,1.93
387,1,2,4,2,0,-1,-2,1,1.935
388,-3,-6,-3,-2,-1,-6,-1,-2,1.94
389,-1,-2,-2,-1,3,12,5,-1,1.945
390,-1,-1,2,2,0,-1,2,-2,1.95
391,1,0,-2,-3,2,0,-3,-1,1.955
392,-2,1,-1,-1,-2,-2,0,-1,1.96
393,-2,-4,-13,-3,-2,-3,-2,-2,1.965
394,1,-1,9,0,-1,-7,-3,2,1.97
395,2,0,1,1,0,1,0,-1,1.975
396,0,-1,5,0,2,1,-2,-1,1.98
397,-2,-6,-2,-1,-2,-5,-2,0,1.985
398,-2,-3,-11,-2,0,-2,-1,-3,1.99
399,1,3,1,1,0,0,0,0,1.995
400,-3,-5,-2,-1,-2,0,-1,-1,2.0
401,1,0,1,-3,-1,-1,-2,1,2.005
402,1,3,4,0,1,-2,1,-1,2.0100000000000002
403,-3,-4,-5,-2,-1,-2,-2,-7,2.015
404,6,0,-4,1,0,10,6,6,2.02
405,-2,-5,3,-2,-2,-9,-3,-2,2.025
406,1,-1,-3,-1,1,13,2,1,2.0300000000000002
407,-1,1,1,-2,-1,-7,-1,-1,2.035
408,-3,-1,-5,0,0,3,4,-2,2.04
409,2,-1,-2,-1,-1,-2,0,1,2.045
410,-1,2,2,-1,-3,-1,1,-2,2.05
411,0,-2,-2,-2,-2,-1,-3,1,2.055
412,-2,-3,-6,-3,-2,-4,-4,0,2.06
413,0,3,10,2,0,4,2,-1,2.065
414,-2,0,-3,-2,0,-12,-2,-2,2.07
415,1,4,-1,1,2,12,-1,2,2.075
416,0,-2,-2,-1,-2,-7,-1,-1,2.08
417,-2,-1,-5,-2,-3,-3,-6,-2,2.085
418,1,0,4,1,-1,4,5,0,2.09
419,1,-3,-3,-1,-1,-3,0,-4,2.095
420,3,3,0,0,-1,0,0,1,2.1
421,1,2,0,-1,-2,-3,-4,-3,2.105
422,-4,-7,-2,0,0,-1,-3,1,2.11
423,0,1,-3,-1,-1,-6,1,0,2.115
424,-4,2,3,1,0,4,-2,-2,2.12
425,-1,-1,1,0,-3,-4,-4,1,2.125
426,1,-3,-3,-1,-2,-3,0,0,2.13
427,-2,-3,0,-1,0,-1,-3,1,2.1350000000000002
428,-1,-4,-4,-1,-1,-9,-2,-1,2.14
429,-2,0,-2,0,0,-1,2,-2,2.145
430,-1,0,0,3,0,-1,-1,0,2.15
431,-3,-1,4,0,-1,-1,0,1,2.1550000000000002
432,-3,0,14,2,-2,0,0,-2,2.16
433,-1,-1,-7,-1,1,-1,-4,-1,2.165
434,-2,-1,4,1,-1,-2,-1,-2,2.17
435,0,-1,-3,0,0,3,1,0,2.1750000000000003
436,-2,-3,-4,-1,0,-1,-3,-2,2.18
437,4,1,-2,-3,-1,2,-1,3,2.185
438,-10,-1,-4,-4,-3,-6,-8,-6,2.19
439,4,0,-1,-1,-1,-8,-2,3,2.195
440,-1,-1,-3,-1,1,7,7,0,2.2
441,1,-2,-2,-2,-2,-2,-2,-1,2.205
442,-2,-2,-4,-3,-2,-2,-1,-1,2.21
443,-1,-1,-1,-1,-2,-2,1,-1,2.215
444,-1,-2,-1,-1,-1,-3,1,-3,2.22
445,-1,-2,-5,-1,0,5,3,-2,2.225
446,1,-1,3,-1,-1,-6,-3,1,2.23
447,-3,0,6,1,-2,-2,0,0,2.235
448,2,0,-1,-1,0,4,-2,1,2.24
449,-4,-2,1,1,-2,2,0,-2,2.245
450,1,1,-3,-3,0,6,1,-1,2.25
451,1,-2,-2,0,-1,-1,2,0,2.255
452,-3,-1,-2,-3,-1,-2,-3,-2,2.2600000000000002
453,-2,1,2,-1,-4,-2,0,-3,2.265
454,-4,0,-2,0,2,0,-1,-1,2.27
455,-2,-3,-6,0,0,0,-2,-1,2.275
456,-1,-3,-2,0,-1,-3,-3,-1,2.2800000000000002
457,-4,0,0,-1,-1,-3,2,-1,2.285
458,0,-1,-8,-3,-2,-4,-1,1,2.29
459,0,3,2,0,-2,3,1,0,2.295
460,-3,-7,-4,1,-3,-2,-4,-2,2.3000000000000003
461,2,-1,3,-1,1,-1,-1,3,2.305
462,0,-2,4,0,-3,-10,-2,-1,2.31
463,-2,-2,1,0,1,15,-3,-1,2.315
464,1,0,0,-2,-1,-5,1,0,2.32
465,2,3,2,1,0,3,2,0,2.325
466,-1,-5,-8,-1,-1,4,0,0,2.33
467,-3,-1,1,-2,-2,-7,-2,-4,2.335
468,-1,-1,-1,0,1,1,-3,0,2.34
469,-1,-1,2,1,0,-6,-5,0,2.345
470,1,3,1,-1,-1,4,3,1,2.35
471,-3,-4,-3,-2,-1,-5,0,-5,2.355
472,8,0,-3,-3,-1,3,-1,8,2.36
473,-1,-3,-4,1,0,0,-2,-2,2.365
474,-1,0,3,1,-3,-4,-6,-2,2.37
475,-1,-1,0,-1,-2,-8,-2,-1,2.375
476,-4,2,0,-1,1,4,1,-4,2.38
477,-1,0,-4,0,0,1,-1,-1,2.3850000000000002
478,-1,-2,7,1,-2,-2,0,0,2.39
479,1,-1,-6,-3,-3,-5,0,0,2.395
480,0,4,6,0,-2,-6,-3,-2,2.4
481,0,0,-1,-1,1,3,0,2,2.4050000000000002
482,-1,0,0,2,0,-3,-1,-1,2.41
483,-3,-1,-4,-1,-1,-1,3,-1,2.415
484,-2,-1,-4,0,-1,3,2,1,2.42
485,-3,-3,-6,0,-2,-1,-1,-3,2.4250000000000003
486,3,0,4,-1,1,-2,-2,-1,2.43
487,-2,-4,0,0,-3,-2,-6,-1,2.435
488,-2,2,-2,1,1,-4,2,-4,2.44
489,3,1,-2,-1,0,10,1,8,2.445
490,-3,-1,-4,-1,1,0,-1,-2,2.45
491,0,2,1,-1,2,0,-2,2,2.455
492,-1,-2,-2,-3,-1,-3,-2,-3,2.46
493,-1,0,0,-2,-1,1,1,-1,2.465
494,1,1,0,-1,1,3,1,0,2.47
495,-2,-3,0,0,0,0,-5,-2,2.475
496,-3,-3,1,0,1,2,-2,-2,2.48
497,0,-2,-1,-2,-3,-9,-2,-1,2.485
498,2,-3,-11,-3,-2,-2,-1,0,2.49
499,-1,5,-1,-1,2,9,2,1,2.495
500,-3,1,14,-2,-4,-3,-4,-2,2.5
501,-4,1,6,0,2,-1,0,-3,2.505
502,-3,-3,1,0,-1,-3,0,-2,2.5100000000000002
503,0,-7,-10,-2,-1,-1,-2,-1,2.515
504,-1,-2,-7,-1,0,0,1,-1,2.52
505,0,0,2,1,0,-1,-1,-1,2.525
506,-1,1,-3,-1,-3,-1,-1,-6,2.5300000000000002
507,2,-1,0,0,0,0,-1,8,2.535
508,2,1,-4,-1,-1,-1,0,2,2.54
509,-8,0,-1,-3,-2,-7,-5,-5,2.545
510,2,1,-1,-2,2,5,7,4,2.5500000000000003
511,-3,-1,2,-1,0,4,0,-2,2.555
512,1,-1,0,-2,-1,3,2,0,2.56
513,3,2,3,1,2,-1,1,-1,2.565
514,-1,-1,-1,-1,-2,1,-6,-1,2.57
515,0,2,-3,-1,-2,-8,0,-3,2.575
516,-3,-2,6,-1,-3,-4,-3,-1,2.58
517,-2,-4,-9,-2,-2,6,2,-4,2.585
518,-3,-1,1,2,-1,-2,-2,-1,2.59
519,-1,-6,2,-2,-3,-5,0,-3,2.595
520,-2,1,-6,-1,-1,-1,-5,2,2.6
521,0,-2,-5,-2,0,-2,1,-2,2.605
522,-1,-2,2,2,1,3,2,0,2.61
523,4,2,2,0,0,1,1,3,2.615
524,-13,-3,-5,0,-2,-2,-4,-11,2.62
525,-2,-2,0,-1,-3,-1,-1,0,2.625
526,1,0,-4,-3,-2,-5,-5,2,2.63
527,-1,5,1,-2,0,1,1,-3,2.6350000000000002
528,2,-4,-4,0,-1,-3,0,0,2.64
529,0,-1,-2,-2,-1,4,0,1,2.645
530,-1,1,-1,-3,1,-2,2,-2,2.65
531,-1,1,1,0,0,1,3,-2,2.6550000000000002
532,4,1,-1,0,0,-3,-1,0,2.66
533,-1,2,1,0,0,0,-2,0,2.665
534,0,-5,-3,0,-3,-6,-5,0,2.67
535,-4,-2,-8,-2,-3,-4,-3,-8,2.6750000000000003
536,4,-1,1,0,1,6,2,9,2.68
537,-3,-5,-1,-1,-2,-5,0,-1,2.685
538,-2,0,2,-1,0,3,1,1,2.69
539,-1,-2,0,1,1,-3,-2,-1,2.695
540,0,2,-1,-1,0,1,-1,-3,2.7
541,2,-2,1,1,-1,-1,-2,1,2.705
542,-8,0,-2,-4,-3,-2,-2,-5,2.71
543,-3,-2,-2,-1,-1,4,0,3,2.715
544,-1,-2,-2,-1,-2,-3,-1,-2,2.72
545,2,2,2,-1,-1,-3,-2,1,2.725
546,1,-4,-5,-1,-1,-7,-3,-2,2.73
547,1,1,1,0,1,8,-2,0,2.735
548,-5,0,0,-3,-1,2,0,-2,2.74
549,2,-2,-1,0,-4,-5,-4,-1,2.745
550,1,-1,0,1,-2,-2,2,-1,2.75
551,-1,0,1,0,-2,0,-4,-3,2.755
552,-2,-7,-1,-1,-1,-1,-1,6,2.7600000000000002
553,-2,2,-1,-1,-1,-2,1,-2,2.765
554,-2,-2,1,-1,0,6,-3,1,2.77
555,2,-2,-3,-1,-1,-4,1,2,2.775
556,-2,1,1,-1,-1,-1,0,-6,2.7800000000000002
557,-3,-2,-7,-1,-1,-2,0,-1,2.785
558,4,3,3,1,-2,1,1,4,2.79
559,-12,-5,-3,0,-2,-5,-3,-8,2.795
560,3,4,0,3,2,3,1,-2,2.8000000000000003
561,-1,-4,2,-2,0,1,2,-2,2.805
562,0,-3,-3,-1,3,6,1,-1,2.81
563,0,-2,-3,-1,-2,-3,-2,2,2.815
564,0,0,-3,-1,-2,-8,-3,-2,2.82
565,-1,2,1,0,-1,-4,-3,1,2.825
566,0,2,3,3,1,7,-2,-1,2.83
567,0,3,3,-2,0,-2,-1,5,2.835
568,-2,-2,-4,-1,-3,-9,1,-3,2.84
569,-1,-2,-2,-1,1,4,-1,-1,2.845
570,2,2,-5,-2,-4,-5,-4,0,2.85
571,0,1,7,2,-1,2,-3,-2,2.855
572,0,0,-6,1,-1,-2,-4,0,2.86
573,-1,0,1,-1,0,-2,-2,0,2.865
574,1,0,1,-1,-1,-1,3,0,2.87
575,-5,-6,-7,-4,-1,-5,0,-4,2.875
576,0,0,1,-1,-3,-5,-2,0,2.88
577,0,-3,0,-1,-3,11,2,-1,2.8850000000000002
578,1,1,2,0,1,4,2,2,2.89
579,5,3,-3,-1,0,-4,1,0,2.895
580,-1,-4,0,-2,-1,0,-2,1,2.9
581,-5,0,0,1,-1,-6,-3,-2,2.9050000000000002
582,-2,-1,-3,-2,-2,2,-4,-7,2.91
583,4,-6,3,0,-1,0,2,8,2.915
584,0,1,7,1,-2,4,-1,-2,2.92
585,1,1,-2,0,-2,-2,0,0,2.9250000000000003
586,2,3,-3,0,-1,-1,0,0,2.93
587,-3,-4,-4,-2,-2,-6,-2,-3,2.935
588,0,0,-5,-1,0,3,0,-1,2.94
589,-1,-1,2,2,1,2,4,0,2.945
590,-2,0,6,1,-1,-5,-3,0,2.95
591,0,2,0,1,0,4,1,-1,2.955
592,3,1,-1,-1,0,-6,-3,4,2.96
593,-11,-1,-2,-1,-1,2,2,-6,2.965
594,-2,-8,-6,-4,-1,0,-2,0,2.97
595,1,1,4,-2,-1,-3,-1,-2,2.975
596,-1,1,2,3,-1,3,4,-3,2.98
597,0,-3,-1,-3,-2,-8,-3,-6,2.985
598,4,-3,-2,-2,-2,-2,2,9,2.99
599,-3,0,-2,0,0,3,-2,-1,2.995
600,1,0,-9,-5,-1,-2,0,1,3.0
601,1,-1,3,1,0,-4,-2,0,3.005
602,-5,3,7,3,-1,-4,-3,-3,3.0100000000000002
603,0,-5,-5,-1,2,2,1,0,3.015
604,-1,1,-4,-2,0,4,5,-3,3.02
605,0,1,0,-1,-1,-1,-1,1,3.025
606,-1,-2,-2,-2,-3,-6,0,-1,3.0300000000000002
607,1,3,0,2,-3,-1,-4,0,3.035
608,-4,-9,-1,0,-3,-2,-3,-4,3.04
609,1,-1,-2,-1,-1,-4,-1,1,3.045
610,4,1,0,0,-1,-2,-2,0,3.0500000000000003
611,-6,-1,0,-1,0,-3,1,-5,3.055
612,0,0,-2,-2,1,1,0,1,3.06
613,1,2,0,-1,-2,0,-1,2,3.065
614,-1,-3,-11,-3,2,2,0,-1,3.0700000000000003
615,-4,-1,9,-1,-1,0,0,1,3.075
616,1,0,-2,0,-1,0,1,-1,3.08
617,-2,-2,-6,-1,-2,-3,-1,0,3.085
618,-2,1,11,-1,0,0,3,-1,3.09
619,1,-1,-6,-2,-1,-1,-5,-2,3.095
620,-4,-2,0,0,-1,-2,-2,-2,3.1
621,-3,-4,-5,0,1,2,-5,0,3.105
622,-3,1,-2,1,0,-4,2,-5,3.11
623,3,-1,0,-1,1,9,4,1,3.115
624,3,1,-1,0,1,1,2,0,3.12
625,0,-3,-3,-4,-2,2,-1,-1,3.125
626,1,-4,0,2,0,-8,-6,1,3.13
627,-7,1,-1,1,-2,-1,-3,-3,3.1350000000000002
628,0,0,2,1,-1,-1,-1,0,3.14
629,1,1,0,1,3,13,3,-1,3.145
630,-1,-1,-5,-3,-3,-1,-1,0,3.15
631,-1,0,-1,-1,-1,-5,-1,2,3.1550000000000002
632,0,-2,-3,0,-1,-2,-1,0,3.16
633,-1,1,-2,-2,-1,-6,-2,-1,3.165
634,0,1,6,0,-2,0,0,0,3.17
635,0,-5,-4,-2,-1,1,0,-4,3.1750000000000003
636,-5,-4,-3,-3,-3,1,-4,-1,3.18
637,1,-1,0,0,-2,-8,0,0,3.185
638,-2,-3,-5,0,1,7,1,-4,3.19
639,1,0,-1,-1,-2,-5,-1,-1,3.1950000000000003
640,1,0,1,0,-2,-4,1,-1,3.2
641,1,3,3,-2,-3,2,-1,-1,3.205
642,-2,-1,-1,-2,-1,0,-1,-3,3.21
643,0,-4,-1,0,-1,-2,1,0,3.215
644,0,-3,-6,-3,-1,-6,-3,0,3.22
645,-3,-6,-3,-3,-2,2,1,-3,3.225
646,0,1,-3,-1,0,-5,-1,-1,3.23
647,6,0,1,2,0,3,1,1,3.235
648,-3,2,2,-2,-1,2,0,-2,3.24
649,0,-3,-4,-2,1,-1,0,1,3.245
650,-2,-1,7,1,-1,-1,-2,-3,3.25
651,2,1,-1,-1,1,-2,2,2,3.255
652,-1,0,2,-1,-1,-3,-1,-8,3.2600000000000002
653,5,-4,-2,0,-1,2,-1,7,3.265
654,-1,-2,-5,-3,0,4,1,-1,3.27
655,-1,2,-5,-1,-3,-6,0,-2,3.275
656,0,2,8,-1,-4,1,-5,0,3.2800000000000002
657,0,5,3,1,0,-7,-1,-1,3.285
658,-5,-4,-5,0,-2,2,0,0,3.29
659,-3,-5,-2,1,0,-1,1,-2,3.295
660,0,-1,-1,-1,-1,0,-1,2,3.3000000000000003
661,0,0,-5,-1,-2,-3,-4,-2,3.305
662,-1,1,5,-1,0,5,0,0,3.31
663,0,-6,-8,-2,-1,-3,-3,-1,3.315
664,-1,-3,3,0,-1,-1,-2,-3,3.3200000000000003
665,-1,1,5,1,1,2,0,-1,3.325
666,3,0,-3,-2,1,-4,-2,-1,3.33
667,1,2,-4,-2,-1,1,-1,-1,3.335
668,0,-1,-11,-1,1,-2,-2,1,3.34
669,-4,2,11,1,-1,2,1,-10,3.345
670,1,-8,-9,-2,-2,-1,-1,7,3.35
671,1,3,4,-1,-1,0,0,1,3.355
672,-1,-7,-7,1,2,15,5,0,3.36
673,-1,0,5,1,1,-2,-1,-1,3.365
674,-5,-1,-1,-3,-3,-5,2,-3,3.37
675,0,-4,0,-1,0,3,-5,1,3.375
676,0,-2,-2,0,0,-6,0,1,3.38
677,-4,-4,-6,-1,0,-1,-1,0,3.3850000000000002
678,-2,0,2,3,-1,-7,-5,-1,3.39
679,-1,0,-4,-4,-2,0,1,1,3.395
680,0,1,7,0,-1,-1,4,-1,3.4
681,2,-1,1,1,0,8,1,1,3.4050000000000002
682,-1,1,-1,-3,-3,-7,-5,-3,3.41
683,0,-2,0,1,-1,0,2,0,3.415
684,-3,0,-2,-2,-2,-1,-4,-4,3.42
685,1,1,-2,-2,0,-2,1,2,3.4250000000000003
686,-2,-8,-3,0,-1,2,-1,-1,3.43
687,-4,0,-3,-2,-1,-3,-3,-2,3.435
688,-1,0,6,2,-3,-7,-4,1,3.44
689,0,2,-2,-1,-1,-12,-1,1,3.4450000000000003
690,-2,3,7,1,2,11,6,-3,3.45
691,1,1,1,0,-1,-4,2,1,3.455
692,-2,-2,-2,-4,-1,-5,-4,-5,3.46
693,1,-1,-2,-2,-1,1,1,7,3.465
694,0,1,-4,-4,-3,-6,-5,-1,3.47
695,-1,-3,5,0,1,6,1,-3,3.475
696,1,1,-1,1,0,-4,-2,1,3.48
697,-3,-1,-1,2,-2,-2,-3,-5,3.485
698,1,3,2,3,1,2,1,-1,3.49
699,-3,-2,-1,-1,-2,-7,-3,0,3.495
700,-1,2,2,2,0,6,1,-1,3.5
701,-1,-8,-3,-3,-2,-1,0,-3,3.505
702,0,5,-2,-1,1,0,0,0,3.5100000000000002
703,0,-2,2,2,-1,-6,-3,-1,3.515
704,-5,-2,-4,1,0,2,1,-4,3.52
705,1,0,-4,-1,-3,2,2,-1,3.525
706,0,-2,1,-2,-2,-2,-1,0,3.5300000000000002
707,1,7,9,1,1,-2,-1,1,3.535
708,-2,-7,-10,-3,-1,-5,1,1,3.54
709,0,1,-1,-1,2,7,0,2,3.545
710,-2,-3,-3,1,-2,-3,0,-2,3.5500000000000003
711,-1,2,-2,-2,-1,-6,-3,-6,3.555
712,8,0,-1,-1,1,10,5,9,3.56
713,-3,2,-2,-4,-1,-4,1,-2,3.565
714,1,-4,-1,0,1,0,1,1,3.5700000000000003
715,-2,0,2,0,0,-4,-1,-2,3.575
716,-2,-1,-5,-3,-2,-1,-1,-1,3.58
717,-4,-1,1,0,-1,1,-1,1,3.585
718,0,-2,-3,-1,0,-3,-2,0,3.59
719,-3,-3,-9,-2,-3,3,0,1,3.595
720,0,4,14,5,-1,2,0,-1,3.6
721,4,1,-3,0,-1,-4,-4,1,3.605
722,-6,2,2,0,-1,1,2,-3,3.61
723,-1,-4,-5,-1,-1,1,-3,-1,3.615
724,-3,-5,-6,-2,-1,-1,-1,-1,3.62
725,-2,-4,-6,-2,-1,-7,-3,-3,3.625
726,2,-1,2,-2,0,1,-2,0,3.63
727,2,2,-2,0,0,0,2,1,3.6350000000000002
728,-1,1,-5,-1,0,7,-2,-5,3.64
729,2,-5,8,0,-3,-7,-7,6,3.645
730,-1,-3,-4,-2,-2,-1,6,-1,3.65
731,2,-1,-1,1,1,3,0,0,3.6550000000000002
732,0,0,6,1,-1,-8,-6,0,3.66
733,-2,0,-7,-2,0,3,2,-2,3.665
734,-2,-1,1,0,-1,1,-3,0,3.67
735,1,-1,3,0,-2,-2,0,-1,3.6750000000000003
736,-1,-1,-6,-3,-1,-5,0,-3,3.68
737,-3,-3,-1,-2,1,4,2,-3,3.685
738,3,0,2,2,0,-2,1,2,3.69
739,-10,0,-2,-1,-1,-1,-2,-6,3.6950000000000003
740,-1,-4,-2,0,0,-4,-2,0,3.7
741,2,-1,1,2,1,5,-1,-2,3.705
742,-1,-4,-5,1,-2,-3,-2,-2,3.71
743,1,-2,1,-2,-1,0,1,2,3.715
744,3,2,-2,-2,1,1,1,2,3.72
745,-3,2,10,1,-2,-7,0,-2,3.725
746,-2,0,-8,0,0,1,-3,-3,3.73
747,-1,1,1,-1,-1,2,0,-5,3.735
748,0,2,2,1,-1,1,-2,5,3.74
749,0,0,-2,-1,-1,2,-2,-1,3.745
750,0,4,0,0,-1,-4,1,0,3.75
751,0,-4,-2,-1,-3,-7,-1,2,3.755
752,-3,-1,-1,-1,0,-2,0,-4,3.7600000000000002
753,-3,-1,-1,-2,-2,1,1,-2,3.765
754,1,1,3,-2,-1,-3,-3,2,3.77
755,0,0,-7,-2,-2,1,-2,-2,3.775
756,2,-1,7,3,0,-3,4,0,3.7800000000000002
757,-5,-5,-4,-2,1,12,2,-5,3.785
758,-1,-2,-4,-2,-2,0,-2,-2,3.79
759,0,1,1,0,0,1,-3,0,3.795
760,-1,0,-4,-1,0,-4,-1,-3,3.8000000000000003
761,1,-1,-2,1,2,-3,1,1,3.805
762,1,0,8,1,0,1,-1,1,3.81
763,0,-2,1,0,-1,2,1,1,3.815
764,-2,-4,-5,-2,-3,-4,-1,-2,3.8200000000000003
765,-1,3,0,1,-1,-6,0,4,3.825
766,-3,-10,-5,-3,-1,3,1,-4,3.83
767,1,-1,1,-3,-1,0,-1,2,3.835
768,-2,0,-1,0,0,5,1,2,3.84
769,-1,1,-1,0,0,1,-1,-4,3.845
770,-2,2,0,0,0,-5,-3,-1,3.85
771,0,0,-1,0,0,-6,3,1,3.855
772,2,-1,-1,-2,-1,7,0,1,3.86
773,-8,-2,-4,0,-3,-5,-1,-5,3.865
774,3,5,0,-1,-1,-3,-4,2,3.87
775,-1,-6,-8,-2,2,7,6,-2,3.875
776,-2,0,5,0,0,-5,-3,-2,3.88
777,4,-1,4,0,-1,-2,3,2,3.8850000000000002
778,-1,-1,-2,-1,0,4,-3,-2,3.89
779,-3,-2,-1,1,-1,-3,-2,-1,3.895
780,-3,-3,-5,-1,-2,-2,-1,-2,3.9
781,-4,-4,-3,-2,-2,-5,-3,3,3.9050000000000002
782,0,-1,3,-2,-1,-4,0,-2,3.91
783,2,1,1,-1,2,7,1,1,3.915
784,-1,-2,-4,-2,0,-3,0,0,3.92
785,-1,-5,-1,1,0,-2,-1,-4,3.9250000000000003
786,0,-1,-5,-2,-3,-1,-1,1,3.93
787,0,5,8,2,1,0,-1,-1,3.935
788,-2,-2,-3,-2,-3,-2,-1,-1,3.94
789,6,4,1,-1,-1,-9,-7,3,3.9450000000000003
790,-11,-3,-3,0,-1,1,-1,-6,3.95
791,-1,-4,0,-3,-1,3,4,-2,3.955
792,-1,-2,-2,0,-3,-3,1,0,3.96
793,0,-2,-3,-1,-1,-3,-4,0,3.9650000000000003
794,1,0,-3,-2,-2,-2,-1,1,3.97
795,-3,-5,1,-1,-1,-3,-2,-2,3.975
796,0,-1,1,-1,-3,-4,0,-1,3.98
797,0,-2,-3,-1,-1,2,-2,-1,3.985
798,0,2,-2,-1,1,3,-2,-8,3.99
799,4,-1,-3,0,-2,-1,1,7,3.995
800,1,0,-3,0,0,-1,-3,-1,4.0
801,-1,-4,3,0,-2,-4,0,-4,4.005
802,0,-4,-1,1,3,12,2,1,4.01
803,-4,1,-3,-2,-2,-4,-2,-1,4.015
804,0,-1,1,-1,-1,2,-1,-1,4.0200000000000005
805,-2,0,0,-1,0,2,1,1,4.025
806,3,1,1,-1,-2,-4,0,3,4.03
807,-10,-5,-4,0,-2,-3,-5,-6,4.035
808,-1,-1,4,-1,-2,-1,1,-2,4.04
809,0,1,-3,-2,0,10,5,0,4.045
810,0,-1,2,-1,0,-2,1,3,4.05
811,0,1,-16,-1,0,4,-3,-1,4.055
812,-1,0,4,0,0,-7,-2,-3,4.0600000000000005
813,-2,-2,-3,-1,-2,-5,-3,-2,4.065
814,0,1,1,2,0,4,3,2,4.07
815,-3,0,4,0,-1,2,-2,-3,4.075
816,2,-1,-6,1,0,-2,-2,1,4.08
817,1,-1,1,1,-1,5,4,-1,4.085
818,1,-2,-3,-1,0,-5,-4,0,4.09
819,0,1,4,-1,-1,1,2,-3,4.095
820,-3,-3,-4,-2,-2,2,-1,-3,4.1
821,0,2,-4,-1,1,-1,-1,1,4.105
822,-3,-2,3,1,-3,-3,0,-4,4.11
823,5,0,2,1,-2,1,-1,1,4.115
824,-2,-1,-2,-2,0,0,1,0,4.12
825,0,0,-2,-2,-2,-3,-1,1,4.125
826,-3,-1,-1,-2,1,-2,-3,-2,4.13
827,5,-2,-12,-3,-4,-11,-4,1,4.135
828,0,2,8,-1,0,8,1,-2,4.14
829,-3,-3,-2,-1,-1,2,1,-3,4.1450000000000005
830,0,-1,-1,-1,-2,-3,-1,1,4.15
831,-6,-2,-1,0,0,-3,-2,-1,4.155
832,3,4,-1,0,-2,3,-4,0,4.16
833,0,-2,2,0,-1,-2,0,-1,4.165
834,1,-1,-4,-2,0,3,2,1,4.17
835,0,-2,1,-1,-2,-7,-5,-4,4.175
836,-1,-1,-6,-1,-1,-2,2,-1,4.18
837,0,0,4,2,-1,2,-2,1,4.1850000000000005
838,-2,-3,2,-1,-2,-5,-1,-1,4.19
839,3,3,1,0,2,3,2,0,4.195
840,-2,-8,-3,-3,-2,-2,-1,-1,4.2
841,-2,-1,-7,-3,-2,-5,-4,-3,4.205
842,-2,-5,2,-2,-1,5,1,0,4.21
843,1,2,8,3,1,4,1,1,4.215
844,1,3,0,2,2,-1,3,3,4.22
845,-2,-4,-5,-2,-1,-4,-4,-2,4.225
846,-2,-2,-9,-4,-3,-7,-2,-2,4.23
847,1,1,6,0,6,18,7,2,4.235
848,-2,1,0,0,-2,-4,0,3,4.24
849,0,0,-1,1,-1,1,0,-2,4.245
850,1,0,-2,1,-2,-4,-2,1,4.25
851,-2,-1,3,1,-2,-10,-7,-1,4.255
852,-2,-1,-3,-1,-1,7,3,-5,4.26
853,-3,0,2,0,2,-2,-4,-1,4.265
854,1,1,0,1,-3,4,2,1,4.2700000000000005
855,-2,-2,-5,-2,0,-4,-1,-3,4.275
856,-4,-4,0,0,-1,-2,-6,-2,4.28
857,4,2,-1,0,-1,-1,-2,1,4.285
858,4,4,8,1,0,3,1,1,4.29
859,-8,1,-4,-3,1,-3,-2,-2,4.295
860,0,-3,-4,-3,-1,1,-1,-1,4.3
861,2,-1,2,0,0,-3,3,0,4.305
862,0,2,4,-1,-2,-8,-9,-1,4.3100000000000005
863,3,0,2,0,3,9,4,0,4.315
864,-1,-2,-5,-2,0,2,1,0,4.32
865,-3,1,-3,0,1,6,4,-4,4.325
866,-2,1,-5,-1,2,-3,-2,-5,4.33
867,-2,-7,-1,-1,-4,-8,-1,5,4.335
868,1,-1,-1,-3,-1,-3,0,-2,4.34
869,-1,-5,0,0,-2,-1,0,-1,4.345
870,0,0,0,0,1,7,2,-1,4.3500000000000005
871,-1,-1,-4,-3,-2,-3,-1,-1,4.355
872,-1,-1,-1,0,1,0,-5,0,4.36
873,2,2,-1,-3,-1,-4,1,2,4.365
874,-1,0,2,0,-1,0,1,-1,4.37
875,0,0,9,-1,-3,-3,-2,-4,4.375
876,2,0,-2,-1,-3,-4,0,1,4.38
877,-3,1,-1,0,-1,-3,-5,-2,4.385
878,-3,-5,-5,1,0,1,1,0,4.39
879,3,-1,-4,0,-1,-1,0,1,4.3950000000000005
880,-10,-1,5,1,-1,-8,-5,-5,4.4
881,-1,-4,-5,0,3,9,1,-2,4.405
882,1,-1,1,-3,-3,-4,0,0,4.41
883,-1,-2,0,0,-2,0,-1,1,4.415
884,0,0,-4,0,-1,-6,1,1,4.42
885,0,-2,-1,-3,-4,-8,-4,0,4.425
886,-4,-2,-6,-1,2,5,-5,-5,4.43
887,-5,-4,-5,-1,-4,-7,3,1,4.4350000000000005
888,2,0,0,-1,-2,2,0,-1,4.44
889,-2,1,3,2,0,-1,0,-1,4.445
890,2,1,-8,-1,-1,-4,-3,1,4.45
891,-2,-2,6,0,-1,0,-1,-4,4.455
892,2,0,-3,1,0,2,1,1,4.46
893,1,2,3,-3,-4,-1,1,1,4.465
894,-3,-3,-5,-1,-1,-1,-1,-3,4.47
895,0,0,-5,-2,-1,0,-1,-1,4.4750000000000005
896,-1,-4,1,0,0,-8,0,0,4.48
897,-1,3,3,-2,-1,3,1,-1,4.485
898,-1,-3,-2,-2,-1,-2,2,2,4.49
899,2,3,-4,0,0,-1,-1,0,4.495
900,1,-3,4,0,-2,-3,-5,-2,4.5
901,0,-4,-4,0,0,-6,-5,0,4.505
902,-11,-6,0,-1,-2,-1,-1,-4,4.51
903,0,0,-5,-1,0,5,0,0,4.515
904,0,1,-17,-3,0,2,-1,0,4.5200000000000005
905,0,-3,12,-1,0,-1,-3,1,4.525
906,3,1,5,1,-1,1,5,0,4.53
907,-1,-2,1,-2,-2,-8,-6,-4,4.535
908,1,2,1,-1,0,4,1,-2,4.54
909,-1,1,-11,1,3,8,5,-1,4.545
910,1,-1,-2,-1,-3,-5,-3,2,4.55
911,0,2,1,0,-3,-1,-2,-1,4.555
912,-1,-1,0,-1,1,3,-1,1,4.5600000000000005
913,2,0,0,-1,-2,-6,-1,-2,4.565
914,-2,1,4,0,0,-9,-3,6,4.57
915,-2,-2,-3,-1,0,12,1,-2,4.575
916,-2,-1,2,-2,-2,-1,1,0,4.58
917,0,0,-1,0,0,0,-1,-1,4.585
918,-2,-4,-8,0,-2,-3,-4,-4,4.59
919,-3,-4,12,0,0,-3,0,-2,4.595
920,-2,-6,-2,-4,-1,-1,0,1,4.6000000000000005
921,3,0,0,1,-3,-3,-3,0,4.605
922,1,2,-2,-2,0,0,4,-2,4.61
923,1,3,-1,-1,-1,0,-2,0,4.615
924,-3,-4,-2,1,2,-1,-2,-3,4.62
925,1,1,-6,-3,-1,-1,0,2,4.625
926,3,4,2,2,0,0,-3,1,4.63
927,-1,2,3,0,-2,-5,0,-1,4.635
928,-2,-4,-7,1,0,0,0,-1,4.64
929,-2,1,1,-2,0,8,4,0,4.6450000000000005
930,1,1,2,-2,-3,-2,-2,0,4.65
931,-5,-2,-3,-2,0,6,0,-3,4.655
932,-4,-3,1,-1,0,4,2,0,4.66
933,2,-1,2,1,-1,-7,0,-1,4.665
934,1,-3,-1,-1,-2,1,-2,-4,4.67
935,2,-1,-5,-2,-1,-8,-4,2,4.675
936,0,4,-3,-2,-2,-2,-2,-3,4.68
937,-3,-2,-1,0,-1,1,0,-2,4.6850000000000005
938,0,0,1,0,-1,-1,0,-1,4.69
939,0,2,1,1,0,-4,-6,-2,4.695
940,0,-1,2,0,0,-3,2,-1,4.7
941,0,0,-1,-1,1,2,-2,-2,4.705
942,2,-1,2,0,-2,0,-1,2,4.71
943,1,-4,-15,-5,-5,-2,1,1,4.715
944,0,3,15,1,-1,1,-1,0,4.72
945,-2,-3,-1,-2,-2,-3,-3,1,4.7250000000000005
946,-2,6,4,-1,2,6,5,-2,4.73
947,-1,-3,-6,-1,1,2,2,-1,4.735
948,3,0,-9,-1,-1,0,-5,0,4.74
949,-3,-5,5,1,0,-6,0,-4,4.745
950,-2,-2,-5,-1,0,3,1,0,4.75
951,-2,-1,1,1,1,0,2,0,4.755
952,-2,2,-1,0,-1,-5,-2,-6,4.76
953,3,1,-3,-2,-2,-4,-1,4,4.765
954,-1,0,-4,-3,1,4,1,-1,4.7700000000000005
955,0,0,1,0,0,0,0,2,4.775
956,-2,1,4,0,-1,-5,-6,-3,4.78
957,-5,-3,-7,-1,-2,2,3,-1,4.785
958,1,-2,8,0,-1,-4,0,1,4.79
959,0,2,-1,1,-2,0,0,-1,4.795
960,2,-2,-5,-4,-3,2,1,4,4.8
961,-11,1,-1,-1,0,-1,-5,-9,4.805
962,0,-1,0,0,1,0,-2,-1,4.8100000000000005
963,-1,-2,-8,-3,-2,-8,-5,0,4.815
964,-1,1,6,-1,-1,9,3,2,4.82
965,3,-2,0,-1,-3,2,-3,0,4.825
966,-1,-1,-3,0,0,-7,-2,-2,4.83
967,-3,-3,-4,-3,-3,3,0,-4,4.835
968,1,2,0,1,2,-3,4,1,4.84
969,-1,-5,-9,-3,0,0,-1,1,4.845
970,0,0,-2,0,-1,-1,-3,-3,4.8500000000000005
971,2,-1,-1,-2,-2,-2,-3,0,4.855
972,-1,3,-2,0,0,-4,-2,-6,4.86
973,6,-1,1,1,1,3,1,4,4.865
974,-3,-2,13,-1,-2,-9,0,-1,4.87
975,-2,-1,-1,1,1,2,-2,0,4.875
976,-2,-3,-1,-5,-1,2,0,-1,4.88
977,-2,1,-1,0,1,1,-2,-1,4.885
978,-1,-3,-11,-2,1,3,-1,0,4.89
979,2,-1,2,0,-3,-4,2,-2,4.8950000000000005
980,-2,-2,4,5,0,-2,-2,1,4.9
981,0,-8,-6,-4,-5,-7,-4,1,4.905
982,-6,2,-5,-3,-2,3,-1,-2,4.91
983,-3,-4,4,-2,1,2,1,-4,4.915
984,-1,0,-3,1,0,-3,-3,-1,4.92
985,-1,-1,1,1,-2,7,3,1,4.925
986,2,-2,0,0,0,-6,-3,1,4.93
987,0,-3,-4,0,1,-2,1,0,4.9350000000000005
988,0,-1,0,-3,-2,5,3,1,4.94
989,-2,0,-1,2,0,-4,0,-3,4.945
990,0,1,-3,-1,-1,1,2,-1,4.95
991,-1,2,-1,0,-2,-4,-4,-6,4.955
992,8,-3,-1,-1,-1,-6,-1,8,4.96
993,-2,0,1,-1,-1,-1,-1,-3,4.965
994,0,1,-3,1,0,7,3,1,4.97
995,-1,-1,1,0,-1,-4,-4,-1,4.9750000000000005
996,-3,-1,3,-1,-1,-2,-1,-3,4.98
997,-1,-3,-4,-2,0,-1,-4,-2,4.985
998,1,-1,9,-1,-5,-6,-3,1,4.99
999,0,3,-1,0,2,6,2,-1,4.995
1000,-2,-6,-10,0,1,8,0,-2,5.0
1001,1,5,9,1,-1,-3,-1,2,5.005
1002,-4,-5,-4,0,-1,-3,-2,-1,5.01
1003,1,-3,0,0,1,-4,-2,2,5.015
1004,-1,2,-4,-1,0,7,0,-3,5.0200000000000005
1005,-1,1,-4,-2,-1,-2,-1,-2,5.025
1006,1,-4,-4,0,-1,-9,-1,-1,5.03
1007,0,2,2,1,-2,9,2,2,5.035
1008,-3,-3,-5,0,0,-5,-1,-2,5.04
1009,-1,-1,0,0,0,3,-2,0,5.045
1010,-2,1,0,0,-1,-1,3,-1,5.05
1011,-4,-5,-7,-3,-3,-7,-7,-6,5.055
1012,5,1,9,0,0,-3,2,6,5.0600000000000005
1013,-2,0,4,0,0,0,3,-1,5.065
1014,0,2,2,0,-3,1,-5,-1,5.07
1015,0,-1,-2,-2,0,2,2,0,5.075
1016,-1,-1,-6,-1,-2,-4,-1,-2,5.08
1017,-5,-5,-5,-3,-5,-11,-9,-1,5.085
1018,2,0,0,-2,1,13,3,-1,5.09
1019,-2,3,3,1,1,-1,0,1,5.095
1020,2,-3,-3,-1,-2,-5,-3,0,5.1000000000000005
1021,-5,0,-4,-1,-3,-3,-1,-3,5.105
1022,-3,-2,0,1,-1,0,-2,-4,5.11
1023,-2,-2,6,1,-2,-2,0,1,5.115
1024,2,-1,-1,-2,-2,-2,-2,-1,5.12
1025,4,0,-2,0,1,1,2,-1,5.125
1026,0,-1,-7,-2,0,-2,0,1,5.13
1027,-3,-3,-2,-3,-2,-2,-2,-1,5.135
1028,-2,0,-1,-2,2,7,2,-1,5.14
1029,-1,0,-4,-2,-1,0,1,-2,5.1450000000000005
1030,0,-4,7,-1,0,-2,-1,-2,5.15
1031,2,3,1,1,-1,-1,-2,-1,5.155
1032,-6,0,4,1,-2,-7,0,-1,5.16
1033,3,0,-3,-2,-2,4,1,2,5.165
1034,-2,-3,-5,0,2,-3,-1,0,5.17
1035,0,2,1,0,1,4,4,1,5.175
1036,-5,-2,-6,-3,-3,-9,-6,-3,5.18
1037,1,1,1,-2,1,6,4,-1,5.1850000000000005
1038,-1,0,-3,0,0,-4,0,1,5.19
1039,-3,0,-6,-1,1,-1,0,-1,5.195
1040,-1,0,4,2,-1,-3,-2,-1,5.2
1041,-1,1,4,2,1,1,0,0,5.205
1042,1,-4,-3,-4,-2,2,-1,0,5.21
1043,-6,-3,-3,1,-1,-3,-1,-3,5.215
1044,1,3,-1,-2,-3,-6,-2,-2,5.22
1045,1,-3,0,0,0,1,0,2,5.2250000000000005
1046,-2,3,-10,-2,-1,-3,-3,0,5.23
1047,0,-8,8,-1,-2,6,1,2,5.235
1048,-1,-1,-9,-2,-2,-3,-5,-1,5.24
1049,-2,1,17,-2,-1,-6,-2,-3,5.245
1050,-1,1,-1,0,2,10,2,-1,5.25
1051,1,1,-1,0,1,-1,-1,1,5.255
1052,-4,-4,-7,0,0,-3,2,-3,5.26
1053,4,-2,-8,-1,0,2,-1,2,5.265
1054,-2,0,-1,-2,0,-3,0,-2,5.2700000000000005
1055,3,4,2,-2,-4,-9,-6,1,5.275
1056,-2,1,4,1,4,12,5,-2,5.28
1057,-1,3,-1,-1,-2,-6,-4,-3,5.285
1058,-2,-3,3,-2,-2,-1,1,0,5.29
1059,-2,-2,-3,-2,0,-4,-1,-4,5.295
1060,3,0,-3,-1,-3,0,1,4,5.3
1061,-10,-5,-4,-1,-2,1,3,-6,5.305
1062,1,3,8,1,-1,0,-2,0,5.3100000000000005
1063,1,2,-3,-1,-1,-2,1,-1,5.315
1064,0,-3,4,1,-2,1,-2,1,5.32
1065,1,-2,-3,0,1,0,-1,0,5.325
1066,-3,-7,-4,1,-3,-6,-4,-2,5.33
1067,-3,-1,-4,-1,-1,-5,1,1,5.335
1068,2,-1,0,-1,1,10,1,1,5.34
1069,0,-2,-4,-2,0,2,2,0,5.345
1070,-2,-1,7,-1,-3,-4,-1,-2,5.3500000000000005
1071,2,0,-4,-3,-2,2,-3,-1,5.355
1072,-2,2,3,1,-1,-4,-6,-9,5.36
1073,7,1,-2,-2,-1,-1,1,6,5.365
1074,1,4,0,-1,1,-1,-1,0,5.37
1075,0,-2,-3,-1,-1,-5,1,1,5.375
1076,-1,0,0,-1,1,3,4,-3,5.38
1077,-2,0,2,1,-4,0,-3,-2,5.385
1078,1,0,-4,0,0,-2,-1,-1,5.39
1079,0,1,-1,-1,-1,0,0,0,5.3950000000000005
1080,-3,-1,0,-1,-2,-6,-5,2,5.4
1081,4,3,9,5,1,0,-2,-1,5.405
1082,0,-6,-9,-4,-1,4,3,0,5.41
1083,-1,-1,5,3,2,2,0,-1,5.415
1084,-3,-7,-7,-2,-3,-7,0,0,5.42
1085,2,-2,-2,-2,0,6,1,0,5.425
1086,0,0,0,2,0,-8,-4,-3,5.43
1087,-1,-2,-3,-2,-1,-4,-1,-1,5.4350000000000005
1088,3,5,3,0,0,6,1,2,5.44
1089,-6,-7,-2,-2,-1,5,-2,-6,5.445
1090,-4,2,-2,-1,-1,5,1,3,5.45
1091,-2,-5,-4,-2,-2,-5,-5,-1,5.455
1092,-2,1,1,-1,-3,-6,-3,-1,5.46
1093,-2,1,-1,-1,-3,-7,-7,-1,5.465
1094,-1,1,-7,-1,1,5,5,0,5.47
1095,-1,2,8,1,0,2,1,0,5.4750000000000005
1096,-2,-7,-7,-3,-2,-1,-3,-2,5.48
1097,-2,-1,-3,0,0,-1,0,-3,5.485
1098,1,-2,-1,-2,-2,-3,-2,1,5.49
1099,-8,1,5,0,-2,3,2,-4,5.495
1100,0,1,4,1,0,0,-1,1,5.5
1101,-2,-4,-6,-2,-1,-7,-1,1,5.505
1102,-1,-5,1,0,-1,2,0,-2,5.51
1103,1,-1,-6,-1,0,-4,-2,1,5.515
1104,-2,0,-1,-2,-1,2,2,0,5.5200000000000005
1105,0,1,-1,-2,0,-3,-1,-1,5.525
1106,0,0,3,-1,0,9,3,-1,5.53
1107,-4,-6,-2,-1,-2,-3,-5,0,5.535
1108,0,1,1,1,2,0,0,-2,5.54
1109,1,0,-1,-1,-1,-5,0,0,5.545
1110,-2,-3,2,0,-2,-11,-8,-3,5.55
1111,2,2,-1,0,-1,7,8,-2,5.555
1112,-2,-4,-7,-3,-1,-2,-1,-1,5.5600000000000005
1113,0,0,3,0,-3,-1,-1,1,5.565
1114,0,3,-1,1,-1,-6,-3,-2,5.57
1115,2,-2,1,-3,1,-1,-1,3,5.575
1116,-5,0,1,0,-2,1,1,-3,5.58
1117,0,2,-3,0,0,-3,0,-1,5.585
1118,-2,-6,-5,-2,-2,-2,-1,-1,5.59
1119,1,1,1,1,-1,3,1,1,5.595
1120,1,-1,-2,0,1,1,1,1,5.6000000000000005
1121,0,1,3,0,0,-5,-3,-1,5.605
1122,-3,1,-1,-2,-2,3,-7,-3,5.61
1123,-4,-5,-6,-3,-2,0,3,4,5.615
1124,0,-1,1,-3,-1,-5,-1,0,5.62
1125,-4,-3,0,0,-3,4,-1,-3,5.625
1126,3,1,4,3,0,-8,0,3,5.63
1127,-1,-5,-9,-2,1,4,-3,-3,5.635
1128,0,4,6,1,-2,-6,-3,0,5.64
1129,-1,-3,-5,-2,-1,1,0,2,5.6450000000000005
1130,-1,-1,-1,-2,-4,-3,2,-1,5.65
1131,-1,1,-3,-1,-2,-13,-10,-3,5.655
1132,4,4,0,1,2,13,7,2,5.66
1133,-8,-1,-1,-1,1,1,2,-7,5.665
1134,1,-2,-4,-1,-2,1,1,-1,5.67
1135,-1,-3,6,-1,-1,-1,0,-1,5.675
1136,1,-2,-2,-2,-2,-6,-3,-1,5.68
1137,2,2,3,1,-1,-2,-1,0,5.6850000000000005
1138,-2,1,0,0,0,6,1,-6,5.69
1139,2,-4,-7,1,-3,-4,-3,4,5.695
1140,-2,1,1,-1,1,-2,2,0,5.7
1141,-3,-4,-2,-1,-2,2,3,0,5.705
1142,2,2,-4,-1,0,-3,-2,1,5.71
1143,0,1,-2,-2,1,4,0,-2,5.715
1144,0,-3,6,1,0,-4,-1,0,5.72
1145,1,0,-4,0,-1,-3,-2,3,5.7250000000000005
1146,-3,0,3,-2,0,-1,0,0,5.73
1147,-3,0,-2,-1,-2,1,1,-3,5.735
1148,-2,0,-6,-2,-3,-6,-2,-1,5.74
1149,-1,-2,1,-1,1,-6,-4,-1,5.745
1150,0,-4,-1,-3,-1,-1,2,-1,5.75
1151,4,0,0,-1,1,4,4,0,5.755
1152,-2,-3,-5,-1,-3,-3,-2,-3,5.76
1153,2,3,2,0,0,2,-1,0,5.765
1154,-2,-1,-3,0,-1,-2,-3,-1,5.7700000000000005
1155,0,-1,3,1,-1,-2,-3,-1,5.775
1156,0,-1,-2,-2,0,4,2,1,5.78
1157,-3,0,-5,0,-1,0,1,-1,5.785
1158,1,0,-5,-1,-2,0,3,0,5.79
1159,-2,1,6,1,0,-1,-2,-2,5.795
1160,-1,-4,1,1,-1,3,0,-1,5.8
1161,-2,-3,-7,-6,-3,-2,1,-2,5.805
1162,0,0,6,-1,1,-1,-3,-1,5.8100000000000005
1163,2,1,-2,0,1,3,3,1,5.815
1164,0,4,-2,0,0,-2,-3,-3,5.82
1165,3,-1,1,0,-1,2,-2,-1,5.825
1166,1,1,1,1,0,-4,0,1,5.83
1167,-1,-2,-1,0,-1,3,2,-2,5.835
1168,0,-2,-1,-1,-1,2,-2,0,5.84
1169,1,2,-3,-1,-1,2,-1,3,5.845
1170,-3,-4,3,0,-3,-6,-3,-2,5.8500000000000005
1171,3,4,2,-2,1,-3,-3,-1,5.855
1172,-1,-3,-6,-1,0,3,1,0,5.86
1173,-2,-4,-3,0,-2,-5,-1,-1,5.865
1174,4,4,22,1,-1,-2,-4,-2,5.87
1175,-1,-1,-3,0,-1,3,3,-1,5.875
1176,1,1,2,1,-2,-1,-1,-1,5.88
1177,-2,-1,-6,-1,0,0,0,-1,5.885
1178,-4,-2,-11,-2,-1,1,1,0,5.89
1179,-1,0,1,0,-1,-7,-5,-3,5.8950000000000005
1180,-1,2,4,-3,-2,-7,-1,-2,5.9
1181,-1,-2,0,0,1,7,1,1,5.905
1182,-2,-5,-3,-2,-1,1,0,-2,5.91
1183,-2,1,-1,0,-1,-2,0,0,5.915
1184,-3,-5,-8,-2,-2,-3,-3,0,5.92
1185,-1,-1,1,-3,-3,-6,-2,-1,5.925
1186,-1,-1,-3,0,2,3,0,2,5.93
1187,2,-4,-4,-1,-1,2,0,1,5.9350000000000005
1188,-10,0,2,-2,-1,-3,-3,-6,5.94
1189,1,1,-3,0,0,1,-1,-1,5.945
1190,-2,-3,0,-1,-3,-3,-1,-2,5.95
1191,0,0,1,0,-1,6,0,-3,5.955
1192,0,-3,-1,1,3,1,-2,6,5.96
1193,-1,-2,0,0,-1,-11,-4,-2,5.965
1194,-1,1,-7,-2,1,14,10,-1,5.97
1195,-1,-1,-4,-3,-1,6,-3,-2,5.9750000000000005
1196,-1,-5,0,0,-2,-3,1,-2,5.98
1197,-2,-1,-1,-2,0,-2,-1,-4,5.985
1198,1,-2,-5,-2,-2,-7,-5,2,5.99
1199,-5,1,5,-1,0,-6,-1,-1,5.995
1200,2,3,-1,-2,1,2,1,-2,6.0
1201,0,-1,1,-1,0,-1,0,2,6.005
1202,0,-1,-2,-1,-3,-3,-3,-2,6.01
1203,1,0,-5,-2,-4,-8,-2,0,6.015000000000001
1204,0,-3,-1,-2,-2,1,-2,-3,6.0200000000000005
1205,3,-4,0,1,1,0,-2,1,6.025
1206,-3,-1,0,0,0,2,0,-2,6.03
1207,-3,-1,-3,-1,-2,-3,1,0,6.035
1208,1,2,-4,-2,0,-2,-3,-1,6.04
1209,4,-2,5,0,-1,-1,1,2,6.045
1210,2,2,7,2,0,4,0,0,6.05
1211,-2,-3,-2,-1,-1,-5,-2,-1,6.055
1212,-1,-1,0,0,-1,0,-1,-2,6.0600000000000005
1213,-3,1,-6,-2,-2,2,-1,-2,6.065
1214,-1,-4,-4,-3,-2,-3,-3,0,6.07
1215,-3,-1,0,0,1,-1,-3,-2,6.075
1216,-1,-1,-2,0,2,9,4,0,6.08
1217,0,-1,2,0,-2,-2,-1,1,6.085
1218,-1,-2,-3,0,2,3,1,0,6.09
1219,1,1,1,1,-1,-3,-2,1,6.095
1220,-1,-6,-5,-2,-4,-6,-1,-1,6.1000000000000005
1221,-1,-2,1,-2,0,-2,-4,-2,6.105
1222,-3,-2,-2,-3,-2,-2,-2,-3,6.11
1223,-2,-6,-7,0,2,-1,0,-2,6.115
1224,1,4,1,-2,0,-5,-5,0,6.12
1225,2,-1,1,0,2,5,5,1,6.125
1226,-10,1,-8,-1,-1,-2,-3,-11,6.13
1227,6,0,7,-1,-1,9,1,8,6.135
1228,-1,0,0,-1,0,5,0,-1,6.140000000000001
1229,-1,-2,-4,-3,-2,0,-3,-2,6.1450000000000005
1230,2,1,2,-1,-1,-4,-4,-1,6.15
1231,-4,-2,-5,-1,-3,-10,-1,-3,6.155
1232,2,-1,-2,1,-1,-4,3,0,6.16
1233,0,5,5,1,-1,8,5,1,6.165
1234,0,-6,-7,0,-2,0,0,1,6.17
1235,-4,-5,-2,-1,-2,-3,-2,-3,6.175
1236,1,0,0,-1,-1,-8,-2,2,6.18
1237,-4,4,1,0,0,-5,-1,-5,6.1850000000000005
1238,3,-2,0,-2,-2,1,-1,2,6.19
1239,0,3,0,-1,0,2,-1,-1,6.195
1240,0,-2,-2,0,-1,1,0,-2,6.2
1241,0,-1,1,-1,-2,1,0,-2,6.205
1242,-1,0,0,-1,1,0,-1,0,6.21
1243,4,5,0,-1,0,-6,-3,-1,6.215
1244,2,1,-7,-1,0,7,-1,-3,6.22
1245,-1,-4,1,-3,-2,-5,-1,2,6.2250000000000005
1246,1,1,7,0,0,-2,-1,2,6.23
1247,-2,-1,-1,-1,0,2,2,1,6.235
1248,2,1,3,1,-1,0,2,0,6.24
1249,0,-1,-7,0,-1,-3,-4,-1,6.245
1250,-1,0,-2,2,-1,1,-2,0,6.25
1251,0,-4,0,1,-1,9,4,-2,6.255
1252,-3,-2,0,0,-1,-8,-1,-1,6.26
1253,-1,0,-2,-2,-1,4,1,-2,6.265000000000001
1254,0,1,2,0,0,-6,-1,-2,6.2700000000000005
1255,-3,-5,-4,-2,1,-3,-3,-1,6.275
1256,-1,-3,0,-2,-1,7,3,0,6.28
1257,-2,-4,-3,-2,-2,-2,-3,-2,6.285
1258,0,1,-5,0,1,2,3,1,6.29
1259,-2,-3,-7,-3,-2,-2,-2,-2,6.295
1260,0,5,29,7,0,-4,-1,-1,6.3
1261,4,-2,-2,0,-1,-6,-4,-2,6.305
1262,-4,-7,-2,-3,0,-2,-2,5,6.3100000000000005
1263,1,0,-7,-3,0,6,3,-1,6.315
1264,-2,-4,-10,-4,-3,-3,-7,-1,6.32
1265,-1,1,-1,1,1,3,2,-1,6.325
1266,-1,1,5,0,-5,-13,-5,-2,6.33
1267,-2,-1,1,0,0,7,-3,-1,6.335
1268,-3,-7,-9,-1,0,1,1,1,6.34
1269,-5,-3,-1,0,0,-6,-5,-3,6.345
1270,1,-1,-7,-1,1,0,3,0,6.3500000000000005
1271,-2,0,2,2,-1,-6,-1,-1,6.355
1272,1,2,0,-2,-2,-2,-3,-1,6.36
1273,-3,-3,-3,1,-1,1,3,-1,6.365
1274,1,1,2,1,-1,-1,-4,-1,6.37
1275,-1,-1,1,-2,-3,-4,-1,-2,6.375
1276,-1,0,-2,-1,0,1,2,1,6.38
1277,-3,-2,0,-1,0,0,-1,-1,6.385
1278,1,3,7,0,-1,1,0,0,6.390000000000001
1279,-3,-2,-1,-2,-1,0,1,-3,6.3950000000000005
1280,-5,-2,-5,-2,2,13,-2,-3,6.4
1281,0,3,1,-1,1,-3,2,-1,6.405
1282,-2,-6,-4,0,1,5,0,0,6.41
1283,0,1,-1,-2,-2,-5,-1,-1,6.415
1284,3,3,-6,-2,-2,-13,-10,-1,6.42
1285,3,6,12,0,-4,-1,0,0,6.425
1286,-2,-5,-6,-2,2,8,7,-2,6.43
1287,0,-6,-1,0,-1,-1,0,1,6.4350000000000005
1288,-1,-1,-3,0,-2,-2,-2,-1,6.44
1289,-3,-5,-5,-3,-2,-3,-6,0,6.445
1290,1,-3,-5,-1,-1,-6,-1,-1,6.45
1291,-1,-1,1,-1,0,1,-2,0,6.455
1292,-1,-2,-1,0,-3,-2,3,0,6.46
1293,-2,0,-2,0,2,1,2,-2,6.465
1294,-2,0,0,-2,-3,-4,-2,-1,6.47
1295,-1,-5,-8,-2,-1,0,0,0,6.4750000000000005
1296,-3,-2,3,-1,0,0,-1,-1,6.48
1297,1,-1,1,0,1,2,1,0,6.485
1298,1,2,-1,-1,0,0,0,-3,6.49
1299,-7,2,0,-1,-1,-7,-2,3,6.495
1300,1,1,1,-2,0,1,2,-1,6.5
1301,-3,-7,-2,0,-3,-2,-5,-1,6.505
1302,0,-1,1,-1,1,9,0,-1,6.51
1303,1,4,-2,2,-1,-6,-3,0,6.515000000000001
1304,0,-1,1,-3,-3,-3,-1,0,6.5200000000000005
1305,1,3,2,-1,1,8,4,2,6.525
1306,-3,-3,-2,-3,-4,-7,-2,-5,6.53
1307,2,0,2,1,1,7,2,0,6.535
1308,3,0,-5,0,0,-5,1,2,6.54
1309,1,2,-2,-1,-2,-2,-3,-1,6.545
1310,-1,0,-5,-2,-1,-3,-2,2,6.55
1311,-2,-2,7,-1,-1,-2,-2,-2,6.555
1312,-2,0,4,1,-1,-1,0,-1,6.5600000000000005
1313,0,1,7,2,2,-3,0,1,6.565
1314,-1,0,-5,0,-1,2,0,0,6.57
1315,0,-2,-6,0,-2,-7,-5,0,6.575
1316,-1,0,-1,-1,0,4,3,-1,6.58
1317,0,2,-1,-2,-1,-1,1,-4,6.585
1318,-1,-4,1,-1,-1,2,2,1,6.59
1319,0,-3,-3,-3,0,-1,-4,0,6.595
1320,2,4,5,3,0,5,0,0,6.6000000000000005
1321,-2,-3,-4,-1,-1,-4,-2,-2,6.605
1322,0,-1,1,-1,-1,-6,-5,0,6.61
1323,-1,0,-2,0,-1,-2,3,-3,6.615
1324,-1,-3,-3,0,-1,5,2,-1,6.62
1325,-2,-5,-6,0,-1,-3,-4,0,6.625
1326,0,1,4,0,1,-1,-1,-1,6.63
1327,0,-1,1,-1,0,1,4,1,6.635
1328,-1,-1,-1,-2,0,-4,-1,-1,6.640000000000001
1329,0,-1,-3,-1,-2,1,1,0,6.6450000000000005
1330,-1,-3,-2,-1,-4,-4,-5,0,6.65
1331,-1,-1,0,0,-1,2,0,-1,6.655
1332,0,0,-4,-1,-3,-7,0,0,6.66
1333,2,3,8,3,-1,-2,-3,0,6.665
1334,0,0,0,-1,1,5,-3,-3,6.67
1335,-2,-3,4,2,-1,1,2,2,6.675
1336,2,-4,-8,-4,-3,-11,-6,0,6.68
1337,-3,0,-2,-3,0,5,3,-2,6.6850000000000005
1338,0,-4,-7,-2,0,-9,-1,-4,6.69
1339,-1,1,-1,0,0,3,-3,4,6.695
1340,-1,-1,2,1,-1,-3,-7,-2,6.7
1341,0,-2,-4,-1,0,-1,1,0,6.705
1342,1,5,2,0,-3,4,3,0,6.71
1343,0,-2,-6,-1,-3,-3,0,-3,6.715
1344,-3,0,-1,-1,-1,1,-1,-2,6.72
1345,-3,-2,-2,0,0,-1,-3,0,6.7250000000000005
1346,-3,-4,0,0,-1,-5,-1,-2,6.73
1347,1,1,1,-2,0,2,2,-2,6.735
1348,-2,-7,-2,-2,-1,3,4,1,6.74
1349,-1,-1,-2,-1,-2,-3,-1,-1,6.745
1350,-3,-5,-4,-1,1,4,-2,0,6.75
1351,0,2,0,0,-3,-8,-8,-2,6.755
1352,3,1,3,-1,3,7,3,0,6.76
1353,-12,-5,-6,-6,-4,-5,-2,-9,6.765000000000001
1354,-2,-2,0,1,4,2,2,-7,6.7700000000000005
1355,7,0,3,0,0,-3,0,6,6.775
1356,-2,-5,2,-2,-3,-3,-3,0,6.78
1357,2,1,-1,-1,0,3,-1,4,6.785
1358,1,4,2,-1,-2,-6,0,2,6.79
1359,-5,-5,-3,1,-2,1,-1,-5,6.795
1360,1,1,-1,-1,1,0,-2,-2,6.8
1361,4,-3,-2,-1,0,-4,-1,2,6.805
1362,-1,0,-3,-1,-3,-3,-1,-1,6.8100000000000005
1363,1,-1,3,-1,2,1,1,-2,6.815
1364,-3,-4,-5,-1,-2,-2,-1,-1,6.82
1365,1,-2,-2,0,-1,-1,-3,-1,6.825
1366,-2,-1,0,-3,-1,2,-1,0,6.83
1367,-2,0,-6,-3,-4,-7,-2,0,6.835
1368,1,3,1,-1,0,3,-1,-2,6.84
1369,-5,0,-2,0,0,-3,-1,-9,6.845
1370,7,1,2,1,0,3,1,9,6.8500000000000005
1371,-1,-3,-2,-2,0,-7,-4,-3,6.855
1372,-2,0,-1,-1,-2,-1,1,-2,6.86
1373,1,-3,-1,1,1,-2,1,2,6.865
1374,0,1,-5,-1,-1,7,4,1,6.87
1375,-2,3,6,-1,2,8,-1,-2,6.875
1376,-1,1,0,-1,-5,-10,-3,-1,6.88
1377,1,2,0,0,1,4,2,3,6.885
1378,-1,1,-1,0,-2,-3,-3,-2,6.890000000000001
1379,-1,-2,-2,-3,-2,0,0,-1,6.8950000000000005
1380,-3,-1,-1,0,2,-4,0,-3,6.9
1381,-1,-1,1,-1,1,2,0,0,6.905
1382,-3,-1,-3,-1,-1,-5,-5,0,6.91
1383,-1,1,4,3,0,2,0,-1,6.915
1384,1,1,0,-1,-2,-1,1,-1,6.92
1385,3,-3,-3,0,-3,-3,-1,2,6.925
1386,-9,-3,-5,-3,1,3,0,-3,6.93
1387,-2,-1,2,0,0,-3,-2,-1,6.9350000000000005
1388,-4,-4,-5,-1,-2,-6,-2,-6,6.94
1389,9,5,2,1,1,4,2,7,6.945
1390,1,-3,0,2,-1,-2,2,0,6.95
1391,-2,-2,-6,-3,0,12,2,0,6.955
1392,-3,0,0,0,0,-6,-3,-1,6.96
1393,-3,-1,-5,-2,1,11,3,-3,6.965
1394,-2,-3,10,-1,-3,-7,-4,-1,6.97
1395,1,0,-1,-1,0,1,0,0,6.9750000000000005
1396,1,-2,1,-1,-1,2,1,2,6.98
1397,-2,-5,-2,-2,-4,-9,-2,-1,6.985
1398,0,0,-1,-1,-2,3,0,-1,6.99
1399,-2,-2,-4,0,-3,-4,-1,-2,6.995
1400,-1,-2,-5,-4,-1,2,-2,2,7.0
1401,1,3,-2,-1,-4,-4,-1,2,7.005
1402,-1,1,2,2,1,-1,-3,-2,7.01
1403,0,-1,-2,0,-1,-3,1,0,7.015000000000001
1404,0,-3,-6,-1,0,-2,-1,2,7.0200000000000005
1405,-12,-1,4,-3,-2,-1,-6,-9,7.025
1406,2,3,1,1,0,-3,-1,-7,7.03
1407,0,-7,-3,2,0,-1,-4,6,7.035
1408,-1,0,-2,1,0,3,7,0,7.04
1409,-3,-4,1,-1,1,0,0,0,7.045
1410,-1,-3,-1,-1,0,-3,0,0,7.05
1411,0,-1,-3,-2,-2,-1,-4,-2,7.055
1412,2,1,0,1,0,2,-3,-1,7.0600000000000005
1413,2,1,-1,1,-2,-3,-1,1,7.065
1414,-4,-2,-1,-2,-2,-2,0,-2,7.07
1415,-1,2,-8,0,0,-1,3,-2,7.075
1416,0,0,11,1,-1,-4,-2,0,7.08
1417,1,-1,-3,1,-1,-1,1,-1,7.085
1418,0,3,2,0,2,5,4,2,7.09
1419,-2,1,-1,-2,-2,1,-3,-3,7.095
1420,-2,1,0,-1,0,-3,-1,-2,7.1000000000000005
1421,-3,-7,-1,-1,1,2,-1,0,7.105
1422,2,-2,-3,-1,-2,-5,0,-1,7.11
1423,0,1,3,-2,-3,-1,-2,1,7.115
1424,-12,-2,1,1,1,3,-1,-8,7.12
1425,1,2,2,-1,-2,-3,-5,1,7.125
1426,0,-4,-1,1,-2,1,-1,2,7.13
1427,1,1,-1,-2,1,-2,2,-1,7.135
1428,6,-3,-5,-2,-1,1,-1,2,7.140000000000001
1429,4,2,1,1,-1,-3,0,0,7.1450000000000005
1430,-8,-5,-7,-2,-1,-2,-5,-2,7.15
1431,-4,2,6,1,0,-1,-4,-5,7.155
1432,-7,0,-1,-5,-2,3,0,-5,7.16
1433,0,-5,-3,0,0,1,3,0,7.165
1434,11,5,-3,8,6,3,4,8,7.17
1435,7,-7,2,-2,-4,-6,0,1,7.175
1436,-5,2,-2,-1,0,-5,-4,-1,7.18
1437,-4,-2,-1,-3,3,1,-1,-4,7.1850000000000005
1438,-5,-5,-2,-8,-6,0,-2,-4,7.19
1439,-6,0,-3,-1,0,-3,-3,2,7.195
1440,5,1,-4,-1,-2,-1,0,-1,7.2
1441,-1,5,7,0,2,8,2,0,7.205
1442,-4,-4,0,-3,-2,3,-3,-2,7.21
1443,4,3,2,0,-2,-7,-1,-1,7.215
1444,-1,-2,-2,-1,-2,7,4,0,7.22
1445,1,-1,-4,1,-1,-1,-1,1,7.2250000000000005
1446,0,4,-16,-5,0,0,-1,-2,7.23
1447,-1,2,8,-1,-2,-1,2,-2,7.235
1448,-2,-5,0,2,-2,-10,-4,0,7.24
1449,2,2,3,2,-1,6,5,0,7.245
1450,3,0,6,-1,1,1,0,0,7.25
1451,-5,-5,-11,-3,-3,-4,-2,-3,7.255
1452,2,0,-2,1,0,-5,-2,2,7.26
1453,-3,-3,2,-1,-2,-5,-3,-2,7.265000000000001
1454,-5,-6,-1,-2,-3,-6,-3,-9,7.2700000000000005
1455,2,-5,-6,-1,-1,-4,-4,5,7.275
1456,2,1,5,3,2,16,2,2,7.28
1457,-2,-1,-5,-2,-5,-4,1,-1,7.285
1458,-1,1,2,-1,-1,0,0,1,7.29
1459,-8,-4,-1,0,-2,-2,-1,-5,7.295
1460,2,2,1,0,0,3,18,0,7.3
1461,14,10,2,-14,-6,-2,-13,10,7.305
1462,8,1,1,14,7,-2,-15,4,7.3100000000000005
1463,-31,-13,-6,-8,-11,-9,-10,-10,7.315
1464,-3,2,-3,-12,-1,5,2,0,7.32
1465,6,-1,0,-11,-3,0,-8,-1,7.325
1466,-5,-5,-7,26,4,-5,13,11,7.33
1467,41,7,-7,9,3,-1,-9,7,7.335
1468,-33,-7,10,3,-3,-5,4,-7,7.34
1469,-12,1,3,-5,1,1,4,-9,7.345
1470,-4,-2,2,-10,-2,3,-4,-4,7.3500000000000005
1471,0,-5,-16,1,1,3,7,-1,7.355
1472,15,7,11,0,-1,-3,-5,2,7.36
1473,-2,-7,-9,-2,-3,-9,-3,-5,7.365
1474,-13,0,5,-9,-4,2,-9,-12,7.37
1475,1,3,1,3,4,7,26,6,7.375
1476,48,14,0,-3,-4,4,-8,22,7.38
1477,-40,1,9,9,0,-2,7,0,7.385
1478,6,-11,-11,-8,-3,-2,-13,-18,7.390000000000001
1479,-13,11,8,-8,-1,2,-6,-6,7.3950000000000005
1480,-11,-9,-2,3,5,-6,-18,4,7.4
1481,-15,-20,-25,-7,-5,-8,4,1,7.405
1482,106,31,7,-54,-29,-10,4,15,7.41
1483,-9,1,28,72,30,8,9,4,7.415
1484,-72,-31,-33,-17,-13,-5,-7,-23,7.42
1485,26,-1,0,16,4,1,4,18,7.425
1486,-24,-6,4,-4,4,3,6,-7,7.43
1487,4,-8,-7,-25,-15,-4,-13,-4,7.4350000000000005
1488,29,0,3,11,5,-1,0,6,7.44
1489,3,-7,-4,-7,-2,-3,-3,-11,7.445
1490,-19,3,4,-7,-9,3,7,-2,7.45
1491,-5,6,5,3,7,1,-6,-6,7.455
1492,44,12,6,1,0,-1,12,12,7.46
1493,4,13,1,3,-1,-1,1,15,7.465
1494,67,-1,10,9,3,0,0,11,7.47
1495,-100,-33,-5,11,11,3,-12,-31,7.4750000000000005
1496,-10,2,1,-5,-1,-5,1,-9,7.48
1497,-23,-25,-14,-70,-33,-15,-11,-15,7.485
1498,-7,7,5,87,33,5,6,11,7.49
1499,31,6,-12,-3,-2,1,0,4,7.495
1500,-23,-1,17,0,-6,-6,1,-9,7.5
1501,32,12,3,10,11,9,12,-1,7.505
1502,-43,2,2,-11,-6,-5,-1,12,7.51
1503,23,-9,-27,-25,-8,0,-11,3,7.515000000000001
1504,-1,-2,10,9,4,-2,-6,0,7.5200000000000005
1505,-3,1,5,-6,-4,-3,-4,-5,7.525
1506,-45,-19,-17,-20,-7,0,0,-15,7.53
1507,11,11,9,6,-2,0,16,13,7.535
1508,14,4,-3,-9,-5,-1,-7,-4,7.54
1509,15,2,3,7,4,-1,-8,-1,7.545
1510,-14,0,2,7,5,-2,-5,-6,7.55
1511,0,6,-7,-7,-3,3,4,4,7.555
1512,35,2,-9,-10,-3,7,7,10,7.5600000000000005
1513,-16,-3,10,20,1,-8,-2,3,7.565
1514,1,7,11,-8,3,4,-6,-3,7.57
1515,30,11,-2,-5,-6,0,6,2,7.575
1516,-34,-10,-11,-24,-2,-1,0,-11,7.58
1517,-30,-6,-12,-1,1,9,19,-3,7.585
1518,9,-8,10,-7,-23,-16,-19,3,7.59
1519,-29,1,-1,41,33,-1,-6,-5,7.595
1520,42,-6,-7,26,6,4,1,5,7.6000000000000005
1521,11,20,21,14,6,0,-7,3,7.605
1522,-25,-10,-9,-32,-9,-7,-1,-3,7.61
1523,-32,-16,2,-37,-20,-6,2,-16,7.615
1524,28,-4,-21,9,-3,-3,-9,11,7.62
1525,12,3,-5,8,10,3,-4,-2,7.625
1526,-7,8,-19,-3,-7,3,8,1,7.63
1527,50,18,21,-16,-10,-6,-7,6,7.635
1528,-59,-33,-20,6,4,1,9,-2,7.640000000000001
1529,12,3,23,-3,-6,-5,-5,-7,7.6450000000000005
1530,-27,-21,-19,4,8,11,2,-12,7.65
1531,9,7,-6,-9,-5,-7,10,4,7.655
1532,-20,15,38,-6,-7,7,-13,-6,7.66
1533,15,7,-19,6,-3,-8,-3,6,7.665
1534,36,8,22,20,11,-6,-5,3,7.67
1535,-21,-3,-16,-15,-13,7,-2,-6,7.675
1536,-23,-20,-10,-49,-9,-10,-1,-1,7.68
1537,-3,17,23,58,28,7,-2,2,7.6850000000000005
1538,7,-16,-19,-6,-5,-3,15,-21,7.69
1539,36,-20,-21,13,8,2,1,12,7.695
1540,17,42,3,8,6,-4,-8,21,7.7
1541,-51,-15,21,-33,-21,-4,12,-13,7.705
1542,32,-1,-22,5,3,-3,-10,2,7.71
1543,1,-9,-1,-19,-4,5,8,-6,7.715
1544,-48,-21,7,10,-3,-3,-10,-1,7.72
1545,3,14,0,-12,-1,-5,-12,-9,7.7250000000000005
1546,23,7,-21,-5,-3,3,18,13,7.73
1547,-45,-2,21,-5,-4,-3,-29,-16,7.735
1548,5,19,9,-2,-3,-2,6,2,7.74
1549,1,-23,-5,31,5,4,5,2,7.745
1550,-32,-10,17,-15,3,3,1,2,7.75
1551,21,13,0,32,6,-2,7,13,7.755
1552,21,22,35,-14,-10,-8,-2,-15,7.76
1553,9,-8,-44,-7,5,10,-6,3,7.765000000000001
1554,-40,-34,-33,-11,-11,-8,-4,-6,7.7700000000000005
1555,6,5,10,-7,-3,5,1,7,7.775
1556,-71,3,27,12,2,2,15,-8,7.78
1557,37,-18,-42,-2,2,-13,-29,-20,7.785
1558,45,26,23,12,6,9,9,22,7.79
1559,-46,-12,2,-13,-13,-15,0,-9,7.795
1560,65,26,3,-3,4,3,-11,-9,7.8
1561,-1,-11,21,-7,-8,3,15,12,7.805000000000001
1562,-18,0,-12,15,2,2,0,-4,7.8100000000000005
1563,16,9,0,5,5,-4,-6,5,7.815
1564,-4,-14,-18,-11,-5,0,6,3,7.82
1565,-36,-18,2,-17,1,3,4,-4,7.825
1566,-22,18,11,18,-2,-5,-15,-1,7.83
1567,-14,-33,-29,-9,-14,-9,-6,-18,7.835
1568,-13,-4,-14,8,7,3,-6,-11,7.84
1569,29,18,17,-25,-7,4,13,15,7.845
1570,-7,20,31,15,0,-1,15,0,7.8500000000000005
1571,8,18,1,12,12,5,-11,7,7.855
1572,9,-28,-55,-2,2,-5,-8,-2,7.86
1573,-9,-10,-14,-15,-14,-8,-7,-6,7.865
1574,59,7,5,-12,-1,6,4,5,7.87
1575,-19,26,58,10,8,2,7,2,7.875
1576,28,-22,-41,-6,-7,0,7,5,7.88
1577,-8,-3,-7,-3,1,2,5,-6,7.885
1578,36,14,5,-3,0,2,-11,-8,7.890000000000001
1579,-10,30,30,0,-1,1,21,17,7.8950000000000005
1580,2,1,-4,-4,2,-1,-16,-8,7.9
1581,-12,-25,-20,14,8,3,12,-4,7.905
1582,-51,11,18,1,3,-8,-25,8,7.91
1583,-11,-54,-48,-3,2,15,-5,-22,7.915
1584,36,19,32,-32,-16,-3,6,15,7.92
1585,-36,14,6,34,2,-9,-7,-10,7.925
1586,49,-9,-14,-1,0,0,12,9,7.930000000000001
1587,33,-7,6,-5,-8,-7,3,-1,7.9350000000000005
1588,29,17,-17,-10,9,5,13,26,7.94
1589,-39,-4,32,8,-1,2,-14,-24,7.945
1590,-47,-70,-50,-19,-14,-8,-16,-14,7.95
1591,29,12,0,-41,-4,-6,-3,6,7.955
1592,-41,-2,21,26,-4,3,25,-21,7.96
1593,50,19,-7,74,29,7,-16,19,7.965
1594,-24,14,25,-1,-4,-7,4,3,7.97
1595,-16,6,-4,-8,-3,4,-1,-2,7.9750000000000005
1596,32,-1,16,17,13,2,-6,-6,7.98
1597,-35,0,-40,-47,-19,-2,5,3,7.985
1598,-36,9,22,14,12,9,5,-3,7.99
1599,3,-22,-33,3,-9,-9,1,-3,7.995
1600,29,7,-8,-21,0,5,8,-3,8.0
1601,60,9,21,45,13,0,-11,12,8.005
1602,-28,44,27,-17,-10,-1,16,43,8.01
1603,-41,-59,-47,-16,-9,-1,-14,-40,8.015
1604,4,-1,17,25,3,-7,-5,-5,8.02
1605,10,24,23,-84,-15,5,10,2,8.025
1606,50,2,-18,71,22,5,6,2,8.03
1607,37,57,93,-3,6,4,12,25,8.035
1608,-54,-52,-97,40,4,-5,-7,-11,8.040000000000001
1609,18,-7,-23,-29,-10,-3,-3,6,8.045
1610,-3,23,43,-6,1,2,-7,-6,8.05
1611,31,19,5,2,-8,-4,5,-9,8.055
1612,4,-29,-17,-40,-13,-4,-31,-5,8.06
1613,58,35,17,19,6,3,22,26,8.065
1614,-99,-64,5,-20,-6,-8,-20,-49,8.07
1615,-12,-23,-47,6,6,2,14,8,8.075
1616,16,28,12,-15,-3,0,6,17,8.08
1617,-35,-14,19,3,-4,2,-14,-18,8.085
1618,27,17,-31,-33,1,8,17,13,8.09
1619,41,15,0,9,-8,-18,-11,10,8.095
1620,-14,2,29,29,11,3,7,12,8.1
1621,-57,-40,-27,7,-5,-8,-7,-30,8.105
1622,58,17,9,1,2,4,-3,9,8.11
1623,-63,-13,-20,-11,-12,-9,-19,-25,8.115
1624,8,25,19,64,21,10,22,3,8.120000000000001
1625,-10,-3,13,-35,-12,-5,-24,-8,8.125
1626,-1,-65,-80,-2,-5,-7,-2,-9,8.13
1627,14,23,26,18,9,6,5,16,8.135
1628,-9,-55,-30,6,-1,-4,-16,-11,8.14
1629,11,21,4,-11,-2,2,10,2,8.145
1630,33,16,6,-31,-12,-11,-18,-17,8.15
1631,46,45,39,2,5,12,22,31,8.155
1632,-17,-6,39,-6,-6,-11,-15,-22,8.16
1633,21,-10,-49,11,12,5,7,5,8.165000000000001
1634,0,-18,-1,-9,-16,-16,-22,-5,8.17
1635,-18,-14,-23,19,11,4,-2,-15,8.175
1636,72,44,32,-20,-9,3,20,35,8.18
1637,-35,2,14,10,5,0,10,6,8.185
1638,-5,16,20,-13,-13,0,8,-2,8.19
1639,-18,-34,-24,0,9,3,-14,-11,8.195
1640,-5,20,32,-4,-9,-4,-4,-4,8.2
1641,-3,-19,-38,32,15,0,1,3,8.205
1642,6,32,19,-26,4,7,23,-4,8.21
1643,-26,-27,-3,9,-22,-7,-26,5,8.215
1644,-55,-1,23,24,6,1,-9,-13,8.22
1645,59,8,-24,6,-2,-4,4,11,8.225
1646,-11,-1,12,-8,-1,-4,3,-13,8.23
1647,-1,-17,-24,-17,1,2,3,2,8.235
1648,2,13,6,-12,-1,-4,6,-6,8.24
1649,-25,-15,2,-11,-12,-2,-13,-16,8.245000000000001
1650,0,-9,-26,11,0,-2,9,11,8.25
1651,-6,40,64,-44,-12,3,-2,-3,8.255
1652,-4,-25,-45,29,17,14,13,13,8.26
1653,-5,6,13,13,6,-13,-8,-3,8.265
1654,7,-23,-11,6,3,9,-4,-11,8.27
1655,28,3,-38,-11,-6,-4,10,16,8.275
1656,-23,-13,10,-23,-11,-9,-6,-10,8.28
1657,-36,4,-4,-13,-9,-4,-4,-12,8.285
1658,-10,-10,17,7,1,-1,2,4,8.290000000000001
1659,14,4,4,3,2,-5,9,-6,8.295
1660,-1,3,-13,-7,0,-8,-34,-9,8.3
1661,10,13,30,2,2,8,6,11,8.305
1662,-15,-11,-15,5,-4,-21,-22,-17,8.31
1663,9,-4,-9,7,13,32,34,45,8.315
1664,2,0,-13,-12,-3,13,14,-11,8.32
1665,15,-2,14,-1,-3,2,1,46,8.325
1666,-17,4,8,3,4,16,9,-20,8.33
1667,6,4,-2,12,4,1,-9,-11,8.335
1668,-7,0,15,-7,-6,-13,-11,0,8.34
1669,-1,-1,-15,-12,-6,2,-2,-32,8.345
1670,5,3,9,4,1,-10,1,-3,8.35
1671,-1,-7,-14,3,-3,-13,-11,15,8.355
1672,0,-8,-2,-5,-2,0,5,7,8.36
1673,-7,3,14,-2,-1,-8,1,-8,8.365
1674,5,7,3,4,3,4,-2,16,8.370000000000001
1675,-3,-6,2,9,3,-1,-4,-12,8.375
1676,0,6,-8,-7,-2,1,-1,-9,8.38
1677,8,-3,4,-2,-1,-1,5,3,8.385
1678,1,4,-16,2,-2,-14,-11,8,8.39
1679,1,7,19,4,-2,-41,-25,-18,8.395
1680,-10,-4,-18,1,12,55,45,6,8.4
1681,-3,-1,-10,-9,-1,25,-5,-15,8.405
1682,-4,6,7,5,6,23,8,18,8.41
1683,-1,4,12,1,0,-8,4,5,8.415000000000001
1684,0,-1,-41,-4,-6,-31,-15,-2,8.42
1685,0,-9,41,-3,-3,-3,0,7,8.425
1686,-3,6,-11,-4,2,0,-7,-14,8.43
1687,-2,-11,-28,-4,-2,-3,-5,-7,8.435
1688,4,9,15,-4,-2,-9,-6,9,8.44
1689,-1,3,23,3,2,4,3,-13,8.445
1690,4,0,4,4,0,-8,-2,8,8.45
1691,-2,-2,-45,-11,1,12,3,-3,8.455
1692,2,23,23,3,5,5,0,-3,8.46
1693,0,1,20,8,-4,-20,-7,8,8.465
1694,-5,-13,-10,-23,-10,-13,-3,-8,8.47
1695,1,-9,2,1,3,22,8,9,8.475
1696,-4,-1,-18,-4,-4,-15,-20,-6,8.48
1697,-2,-15,-30,-4,3,-22,-3,-9,8.485
1698,9,4,9,10,5,32,14,12,8.49
1699,-5,-12,25,3,0,2,0,-7,8.495000000000001
1700,-5,11,13,0,-5,-6,0,-12,8.5
1701,3,-16,-46,-5,-5,-5,-10,14,8.505
1702,0,-4,-17,-3,2,1,-3,-6,8.51
1703,-4,5,5,-1,-1,1,2,-6,8.515
1704,-3,-4,3,-3,-2,-10,-9,1,8.52
1705,-1,12,36,5,-2,-1,3,-6,8.525
1706,3,0,-12,-2,2,3,1,2,8.53
1707,-2,5,-14,-6,-4,-1,-6,-8,8.535
1708,2,-3,-2,6,-1,-3,2,3,8.540000000000001
1709,-1,-5,-8,-10,-7,5,3,-3,8.545
1710,-4,-6,18,10,5,-2,-3,0,8.55
1711,5,10,14,2,2,1,3,2,8.555
1712,-3,-8,-12,-6,-3,5,-1,-2,8.56
1713,2,17,-15,1,2,1,9,-6,8.565
1714,3,24,21,-1,-2,-6,-8,13,8.57
1715,-1,3,56,13,2,-1,-2,-8,8.575000000000001
1716,4,-15,-24,-1,-4,-6,-1,-4,8.58
1717,1,-42,-23,-3,2,2,6,13,8.585
1718,-8,13,20,-1,-2,-3,-4,-10,8.59
1719,-6,-14,-24,-10,-3,-4,-1,-1,8.595
1720,-5,24,13,1,-1,-3,-5,-6,8.6
1721,3,1,8,7,2,10,9,1,8.605
1722,-6,-21,-2,-1,-2,-3,-1,-2,8.61
1723,3,9,4,4,1,-1,0,2,8.615
1724,-8,-17,2,-6,-2,-5,-8,-2,8.620000000000001
1725,3,18,-1,3,2,2,4,0,8.625
1726,-1,-8,-14,-3,0,4,2,3,8.63
1727,-5,-2,-1,0,-1,-1,-5,-8,8.635
1728,-2,-4,-11,1,0,-2,1,6,8.64
1729,-3,11,20,-3,-3,-7,-9,-3,8.645
1730,5,-2,-5,3,2,8,2,-1,8.65
1731,-3,-4,3,-3,-4,-10,-6,-2,8.655
1732,-3,-8,2,2,-2,0,2,-2,8.66
1733,-1,-10,-23,-8,-5,-4,-2,1,8.665000000000001
1734,0,7,5,1,1,1,1,-3,8.67
1735,-2,-1,-16,-1,-2,-6,1,-7,8.675
1736,4,-11,-2,-4,5,13,10,14,8.68
1737,3,18,43,5,1,-3,-6,-4,8.685
1738,-3,-4,-12,4,1,-3,-2,-2,8.69
1739,1,-4,2,0,-1,4,2,0,8.695
1740,1,-3,-5,1,-2,-2,-4,-3,8.700000000000001
1741,0,2,-23,-3,-1,0,0,-2,8.705
1742,2,2,12,-2,-3,-13,-5,1,8.71
1743,-3,-3,17,8,1,6,5,0,8.715
1744,-3,-1,9,-3,-6,0,-1,-3,8.72
1745,-1,0,-11,-2,0,-1,-6,0,8.725
1746,1,-3,0,1,0,7,6,0,8.73
1747,-1,2,-27,-3,0,1,-2,-1,8.735
1748,1,2,17,4,0,1,-1,1,8.74
1749,-3,-6,-12,-6,-4,-4,-2,-4,8.745000000000001
1750,0,-1,-15,-4,-4,-10,-5,-1,8.75
1751,2,4,18,7,0,-3,-1,1,8.755
1752,-1,-3,-3,-3,0,1,3,-3,8.76
1753,8,8,2,-2,0,5,0,2,8.765
1754,0,-4,-7,-1,0,0,-1,-1,8.77
1755,1,0,-12,-3,-2,-10,-9,1,8.775
1756,-7,-2,28,1,1,1,8,-5,8.78
1757,0,-1,-14,1,-1,10,2,-1,8.785
1758,6,1,-18,1,-1,-11,-3,1,8.790000000000001
1759,-5,-4,8,4,1,-2,-2,-4,8.795
1760,1,0,-4,-8,2,7,2,1,8.8
1761,1,-4,-17,-10,-1,-4,-3,3,8.805
1762,1,7,6,4,3,5,5,2,8.81
1763,-4,-7,4,1,-4,-11,-9,-3,8.815
1764,2,5,-5,-1,-2,-3,2,1,8.82
1765,-7,0,8,-2,0,0,1,-2,8.825000000000001
1766,-3,-5,-12,-7,-5,-5,-4,-5,8.83
1767,2,2,-4,-2,0,6,4,1,8.835
1768,1,-1,-1,0,-2,-3,-2,-1,8.84
1769,-3,4,4,1,0,-4,-2,-9,8.845
1770,8,-4,-12,-1,-2,-6,-1,9,8.85
1771,-7,6,19,-2,0,8,3,-6,8.855
1772,-1,5,-2,2,-2,-13,-4,-1,8.86
1773,-3,-15,-15,-1,0,4,3,-1,8.865
1774,-10,2,20,4,1,7,-1,-4,8.870000000000001
1775,20,2,-4,-1,2,10,2,4,8.875
1776,2,-7,-11,-2,0,-1,-2,1,8.88
1777,-4,5,20,6,-2,-7,-12,-4,8.885
1778,-4,-12,-6,-6,-2,-3,-2,-16,8.89
1779,-3,-2,5,1,1,-2,0,13,8.895
1780,0,3,-17,-5,-3,-1,-3,-1,8.9
1781,-3,-6,0,-1,-1,-5,1,2,8.905
1782,1,5,3,-1,-2,3,1,0,8.91
1783,-2,4,-14,-2,-2,-5,2,-5,8.915000000000001
1784,-1,-2,18,5,1,1,-5,0,8.92
1785,-6,-3,3,3,1,2,1,-2,8.925
1786,1,-3,-17,-5,-1,-7,4,-3,8.93
1787,3,-1,-6,0,1,6,3,2,8.935
1788,-1,-9,-28,-12,-5,-5,-5,1,8.94
1789,2,7,14,0,0,3,4,-2,8.945
1790,0,4,10,2,1,10,0,0,8.950000000000001
1791,-3,3,-7,-1,-3,-14,-9,-2,8.955
1792,-1,-9,-11,-3,0,5,5,-3,8.96
1793,-5,-3,18,3,-1,-5,-3,-4,8.965
1794,2,-9,-22,-4,-1,-2,1,7,8.97
1795,-3,-1,8,-1,2,6,3,-2,8.975
1796,1,9,2,2,-2,-4,-2,0,8.98
1797,-1,6,1,-1,-2,-2,-2,0,8.985
1798,-2,-3,-14,-1,0,1,0,2,8.99
1799,-3,-6,1,-3,-2,1,-4,-2,8.995000000000001
1800,0,-7,0,1,-1,-1,-1,-2,9.0
1801,3,7,3,0,1,3,5,1,9.005
1802,-5,-10,-8,-1,0,1,-2,-4,9.01
1803,-4,-4,-4,-3,-6,-8,1,4,9.015
1804,1,3,19,3,1,8,1,-3,9.02
1805,1,-3,-12,-5,-1,7,0,1,9.025
1806,2,10,13,4,1,0,-3,1,9.03
1807,-5,-9,-25,-8,-3,-17,-7,-5,9.035
1808,3,3,11,5,6,22,4,2,9.040000000000001
1809,-2,-2,-1,3,-1,-2,-4,0,9.045
1810,0,5,-7,-12,-3,-3,-1,-2,9.05
1811,-2,6,10,0,-2,5,-3,-4,9.055
1812,-2,-10,-14,-6,-4,-23,-4,-3,9.06
1813,-1,-2,-13,-3,-1,1,2,1,9.065
1814,-1,2,14,6,0,6,0,2,9.07
1815,-2,-1,6,-1,2,1,4,0,9.075000000000001
1816,3,6,-3,-5,-2,-1,2,7,9.08
1817,-10,-5,-3,0,0,-6,-3,-3,9.085
1818,-6,1,7,-2,-2,-2,-1,-4,9.09
1819,8,4,5,1,4,13,3,-1,9.095
1820,1,6,-7,4,3,-1,-1,-1,9.1
1821,3,1,3,-3,-2,-4,3,3,9.105
1822,-2,-3,18,5,0,-3,-2,-7,9.11
1823,0,-2,-36,-4,1,0,-2,9,9.115
1824,-1,2,4,1,2,3,3,-3,9.120000000000001
1825,2,0,26,5,1,-4,-3,-1,9.125
1826,-1,-1,-9,-8,-2,-9,-3,2,9.13
1827,-1,4,13,4,3,15,0,-4,9.135
1828,0,1,-19,-7,0,5,5,0,9.14
1829,3,4,17,0,1,1,1,5,9.145
1830,1,-1,0,2,-1,1,-3,-2,9.15
1831,2,-2,14,-4,-1,-11,-1,-1,9.155
1832,-2,3,-5,0,0,6,1,0,9.16
1833,4,1,-1,-1,2,1,0,-1,9.165000000000001
1834,-3,2,10,4,0,-4,1,1,9.17
1835,-4,1,0,3,0,3,1,-9,9.175
1836,6,-6,-5,-1,-1,-3,-1,7,9.18
1837,3,0,-14,-2,-1,2,4,2,9.185
1838,0,-6,-2,-2,-1,-4,-1,2,9.19
1839,-4,-1,-10,-7,-2,-7,0,0,9.195
1840,-3,0,8,1,0,4,-3,-4,9.200000000000001
1841,-5,-4,-9,-2,-2,0,-2,-4,9.205
1842,5,1,-8,-2,3,6,1,5,9.21
1843,-1,5,26,4,1,13,2,3,9.215
1844,0,0,-3,-1,1,-3,0,0,9.22
1845,-3,-8,-5,2,0,-5,-3,-1,9.225
1846,1,2,-10,-7,-2,3,0,-1,9.23
1847,3,4,8,1,-1,-7,4,-1,9.235
1848,-1,2,16,3,-3,2,-1,-2,9.24
1849,-5,-10,-11,-4,-3,-1,-5,-2,9.245000000000001
1850,-5,-7,-14,-4,-2,2,2,-3,9.25
1851,-3,-5,-12,0,-2,-5,-2,0,9.255
1852,-1,3,4,4,1,-5,-4,-1,9.26
1853,-10,1,0,1,-2,-4,-3,-7,9.265
1854,-5,-1,-9,0,-2,0,-2,1,9.27
1855,2,-1,25,4,-3,-4,-2,2,9.275
1856,-3,1,-9,-5,0,3,-1,-2,9.28
1857,2,-3,-3,-1,2,4,0,-1,9.285
1858,1,9,14,2,0,2,2,-1,9.290000000000001
1859,-4,0,-6,-1,-1,-3,0,-4,9.295
1860,-4,-10,-15,-5,-5,-3,-5,-2,9.3
1861,2,3,4,-1,-2,-6,2,0,9.305
1862,-2,-4,5,6,1,6,-9,-3,9.31
1863,-1,-10,-16,-7,-3,-1,4,-1,9.315
1864,-1,2,1,1,-1,-1,-2,-1,9.32
1865,-4,0,-4,-5,-5,-4,-5,-2,9.325000000000001
1866,3,1,11,2,1,-2,1,1,9.33
1867,1,-3,-6,-1,-1,4,-2,0,9.335
1868,-3,-5,-6,0,-1,-3,-3,-5,9.34
1869,0,2,-3,-1,1,4,5,1,9.345
1870,-1,2,15,1,-3,-4,-2,-9,9.35
1871,5,-4,-17,-2,-1,-1,-3,4,9.355
1872,-1,0,3,-1,-4,-10,1,-1,9.36
1873,2,0,-7,1,1,4,-3,1,9.365
1874,-3,-2,0,-8,-3,-5,0,-1,9.370000000000001
1875,0,-3,-5,-3,0,1,1,-2,9.375
1876,0,0,15,5,-1,-5,0,0,9.38
1877,2,3,-23,-8,0,10,2,1,9.385
1878,-1,-4,0,1,0,-4,1,0,9.39
1879,1,1,-5,0,0,-4,-4,-3,9.395
1880,-4,-5,3,0,-2,-2,0,-1,9.4
1881,1,3,22,0,-3,-9,1,-1,9.405
1882,1,0,-20,-4,0,7,2,1,9.41
1883,0,2,18,2,-1,-1,-2,-1,9.415000000000001
1884,1,-2,-6,-3,-2,-6,-1,0,9.42
1885,-9,-5,-3,0,-1,-4,-3,-5,9.425
1886,-1,1,-2,-2,-2,6,1,1,9.43
1887,-5,3,19,7,1,-1,-4,-5,9.435
1888,6,-5,-27,-10,2,17,4,6,9.44
1889,1,1,6,1,-1,-3,0,-1,9.445
1890,-1,-6,-1,-1,-1,-7,-2,1,9.450000000000001
1891,-6,1,-6,-3,-2,-3,-4,-7,9.455
1892,-3,4,13,2,1,-2,1,-1,9.46
1893,2,-3,-23,-2,-2,0,0,1,9.465
1894,0,3,17,2,0,-3,0,-2,9.47
1895,1,-1,-17,-3,-1,0,-2,0,9.475
1896,-4,-2,-19,-4,0,-9,-4,-3,9.48
1897,5,2,13,0,0,0,4,4,9.485
1898,-1,-1,9,3,1,-2,-4,2,9.49
1899,-10,-11,-14,-4,-3,-8,-2,-6,9.495000000000001
1900,1,6,2,2,-1,-1,0,-1,9.5
1901,0,-1,-13,0,3,11,2,0,9.505
1902,0,5,6,2,-1,-4,-2,1,9.51
1903,1,-3,-8,-3,-1,3,1,1,9.515
1904,-5,-4,4,0,-1,-5,-5,-9,9.52
1905,3,-5,2,1,-1,-6,1,4,9.525
1906,1,-4,5,-1,0,10,2,3,9.53
1907,1,0,-15,-5,0,6,0,2,9.535
1908,-1,2,7,0,-1,-1,-1,-2,9.540000000000001
1909,0,0,4,2,-2,-1,-4,-2,9.545
1910,0,1,-5,0,-2,-7,-1,1,9.55
1911,1,1,2,1,-1,3,0,-1,9.555
1912,-4,-5,35,7,-1,1,-3,0,9.56
1913,-1,1,-21,-9,-1,0,-3,0,9.565
1914,4,5,5,-2,0,-3,-2,2,9.57
1915,-13,-4,-13,-2,-1,-9,0,-5,9.575000000000001
1916,-1,0,14,3,0,4,3,-1,9.58
1917,-2,-4,4,4,-2,2,-2,-2,9.585
1918,-3,-2,-3,-2,-1,-7,-2,-7,9.59
1919,9,3,3,-2,0,1,4,8,9.595
1920,-3,0,-8,-2,-1,-8,-2,-1,9.6
1921,3,4,2,1,2,5,-4,-1,9.605
1922,-1,2,-6,-4,-3,-4,-2,-2,9.61
1923,-1,-3,8,1,-1,6,-1,0,9.615
1924,-2,-4,-17,-5,-6,-9,-6,-4,9.620000000000001
1925,-1,3,18,4,-1,-1,0,-3,9.625
1926,-5,-10,-18,-6,-5,-1,-1,-3,9.63
1927,0,2,3,2,-2,-4,-2,-2,9.635
1928,0,4,5,3,0,2,2,1,9.64
1929,-3,-5,-3,-1,-5,-8,-6,-4,9.645
1930,2,-4,3,1,-1,0,-1,-1,9.65
1931,-4,-4,-13,-1,0,-2,-2,-4,9.655
1932,4,-1,-4,-3,-1,0,2,2,9.66
1933,-4,-4,-7,0,-1,-1,-4,-3,9.665000000000001
1934,-1,8,11,2,-1,-10,-3,-1,9.67
1935,-2,-7,-8,1,0,11,1,-2,9.675
1936,-1,-2,-4,-1,-3,-9,-4,-1,9.68
1937,-2,0,-8,-3,0,8,5,2,9.685
1938,0,-2,-4,-1,-2,0,1,-3,9.69
1939,-3,-1,3,-1,-2,-7,-5,1,9.695
1940,-2,-1,8,2,1,4,-1,2,9.700000000000001
1941,-1,-5,-17,-9,-1,-8,-2,1,9.705
1942,1,4,-12,2,5,6,3,1,9.71
1943,0,4,17,2,2,2,2,-1,9.715
1944,-2,-1,3,0,2,-1,-1,-1,9.72
1945,8,5,16,3,-1,-5,0,2,9.725
1946,-9,-3,-11,3,1,0,1,-6,9.73
1947,0,-4,-5,-4,-2,2,0,8,9.735
1948,3,0,3,-1,-2,-3,-2,-2,9.74
1949,-1,1,-2,-7,-1,-2,2,1,9.745000000000001
1950,1,-1,6,0,0,7,4,0,9.75
1951,0,1,0,0,-2,-4,-1,-2,9.755
1952,-3,-4,-5,-2,0,-1,-4,-2,9.76
1953,0,-2,5,2,-1,-4,1,0,9.765
1954,0,-3,-3,-2,-1,-3,-3,-1,9.77
1955,2,2,4,-1,1,2,2,-1,9.775
1956,2,0,-4,-2,1,10,3,1,9.78
1957,-1,-2,-3,0,-2,-6,-4,-1,9.785
1958,0,0,-3,-1,-3,-1,1,1,9.790000000000001
1959,1,-1,-12,1,4,-2,1,-1,9.795
1960,3,7,19,2,-1,-4,2,5,9.8
1961,-12,-5,-1,2,0,1,-2,-6,9.805
1962,-5,-7,-17,-6,-2,-8,-2,-6,9.81
1963,9,1,5,0,2,14,2,6,9.815
1964,-3,-3,-14,-3,-2,-3,-1,-3,9.82
1965,2,4,10,3,1,-2,-3,2,9.825000000000001
1966,-1,-3,-5,-3,-3,-2,1,0,9.83
1967,-3,-2,17,4,1,-1,1,-2,9.835
1968,0,-1,-21,-5,-2,-2,-2,-2,9.84
1969,1,2,6,0,1,3,0,-1,9.845
1970,3,2,7,0,-1,-7,-9,2,9.85
1971,-3,0,-6,-7,-2,-1,-1,-1,9.855
1972,0,4,8,3,1,-2,-2,0,9.86
1973,-6,-8,-7,-6,-2,-4,-1,-3,9.865
1974,1,-3,-15,-2,3,10,6,3,9.870000000000001
1975,0,3,22,5,0,-8,1,3,9.875
1976,-10,3,0,3,0,-1,0,-7,9.88
1977,0,-3,-8,-2,1,-1,1,6,9.885
1978,-2,-5,6,-2,-2,0,-2,0,9.89
1979,0,0,-1,1,0,-3,-4,-2,9.895
1980,1,-5,-17,-4,0,1,3,0,9.9
1981,1,4,8,1,-1,-1,0,-2,9.905
1982,0,0,-4,2,2,8,3,2,9.91
1983,-1,0,1,-5,-3,-7,-3,1,9.915000000000001
1984,-1,-4,13,5,-3,-2,-3,-3,9.92
1985,1,1,-13,-10,-7,-7,-8,-2,9.925
1986,-1,1,14,-1,1,4,9,3,9.93
1987,1,0,-9,-3,-1,-4,-1,-3,9.935
1988,2,3,3,0,1,11,7,3,9.94
1989,2,-1,-15,1,3,3,1,1,9.945
1990,4,0,12,-1,-4,-7,-6,-2,9.950000000000001
1991,-6,0,-2,0,0,4,-1,3,9.955
1992,2,2,-4,-3,1,-3,-2,1,9.96
1993,-1,3,5,1,0,0,-1,-1,9.965
1994,-1,-1,4,2,-2,-4,-1,3,9.97
1995,-1,-6,-17,0,3,-1,1,-3,9.975
1996,2,-2,-10,-4,0,-3,-6,0,9.98
1997,2,3,18,3,0,4,1,-1,9.985
1998,-3,-2,-5,-2,-3,-1,-5,-3,9.99
1999,-2,-2,3,-2,-6,-7,-3,-4,9.995000000000001
2000,-5,-11,-13,-1,-2,0,-3,0,10.0
2001,-1,-2,-1,1,-2,3,3,-3,10.005
2002,-3,1,-3,-2,0,-1,0,1,10.01
2003,1,3,8,2,-4,-9,-3,-2,10.015
2004,-2,-2,-13,-11,-3,-2,-8,1,10.02
2005,-7,-8,3,3,0,9,7,-11,10.025
2006,7,-5,-17,-9,-5,-6,-4,5,10.03
2007,-2,-3,-1,2,0,4,0,-2,10.035
2008,1,5,10,1,-1,-4,-1,-2,10.040000000000001
2009,-4,-4,-2,-1,-3,-8,-6,-2,10.045
2010,-1,5,4,2,0,-1,0,-2,10.05
2011,0,1,-6,-2,-2,-5,-1,-1,10.055
2012,0,0,7,1,-2,2,2,-1,10.06
2013,-1,-3,-5,1,1,-2,-2,2,10.065
2014,-2,-1,14,2,0,0,0,-3,10.07
2015,0,3,-2,-4,-1,-3,-3,0,10.075000000000001
2016,-4,-3,2,3,-1,-2,-1,-1,10.08
2017,0,-6,-19,-5,-2,-1,-1,1,10.085
2018,-1,4,19,1,1,-1,-2,-1,10.09
2019,-4,0,-2,1,0,-2,-2,-2,10.095
2020,-2,0,0,-2,-2,-3,0,-1,10.1
2021,-1,-1,4,-1,0,-2,-2,-2,10.105
2022,-3,-15,-27,-2,-1,5,-1,4,10.11
2023,-5,3,-2,-1,-2,-5,-3,-5,10.115
2024,0,-1,4,-1,1,11,8,1,10.120000000000001
2025,2,7,7,1,-3,-6,0,1,10.125
2026,-1,0,3,1,-1,3,-1,-4,10.13
2027,0,-6,-5,-1,-2,1,0,-2,10.135
2028,1,0,-9,1,-2,-11,-3,2,10.14
2029,-1,6,8,-3,-1,0,-1,-2,10.145
2030,-2,-2,5,8,2,1,-2,-2,10.15
2031,2,-2,-11,-12,-6,1,-1,1,10.155
2032,-1,2,10,0,-1,-3,1,-3,10.16
2033,0,-7,-10,-2,-1,3,-2,-1,10.165000000000001
2034,0,2,-1,0,-1,-5,-4,-2,10.17
2035,0,0,6,2,2,1,0,1,10.175
2036,-1,-3,-8,-4,-1,0,-3,-1,10.18
2037,0,2,2,-2,-2,-3,-3,0,10.185
2038,-6,0,0,-4,-1,6,1,1,10.19
2039,9,0,9,3,1,-2,1,4,10.195
2040,-6,0,-2,-1,-1,-5,0,-3,10.200000000000001
2041,0,1,5,1,3,10,2,2,10.205
2042,-2,-1,-2,-1,-1,-11,-3,-6,10.21
2043,0,-3,-23,-1,2,20,9,3,10.215
2044,2,1,8,-2,1,5,-4,0,10.22
2045,0,-1,-4,0,-1,-7,-1,-1,10.225
2046,-3,-3,-2,-3,-1,-2,-2,1,10.23
2047,-3,-1,6,0,-1,0,-4,-3,10.235
2048,4,6,-2,0,-2,-4,-1,2,10.24
2049,-2,3,3,-1,0,3,0,-1,10.245000000000001
2050,1,-7,-7,-3,-1,0,-2,-2,10.25
2051,0,-2,-1,0,-1,-7,0,-1,10.255
2052,1,3,17,5,1,1,1,-1,10.26
2053,0,-6,-11,-1,0,-1,-1,1,10.265
2054,-2,7,7,0,0,-5,-2,1,10.27
2055,2,1,-9,-2,-1,-2,2,-1,10.275
2056,-5,-7,1,-2,0,2,1,0,10.28
2057,1,0,2,1,1,1,0,3,10.285
2058,1,0,-1,-1,-1,-2,-1,-5,10.290000000000001
2059,0,-1,1,0,-3,-5,-4,1,10.295
2060,1,3,-3,-5,-3,-4,-2,2,10.3
2061,-2,-6,-1,-2,-2,-3,-4,-3,10.305
2062,2,3,-11,1,2,9,8,3,10.31
2063,-4,-5,10,1,-1,-1,1,-1,10.315
2064,0,-6,-7,-3,-2,-2,-1,-3,10.32
2065,2,2,3,-2,-1,1,0,2,10.325000000000001
2066,1,3,-5,-1,-1,6,1,0,10.33
2067,-1,1,-5,-1,3,-2,-2,0,10.335
2068,-3,-3,11,1,-2,-2,-4,-2,10.34
2069,-2,0,-4,-3,-3,-7,-1,1,10.345
2070,0,3,4,1,1,-3,-3,-2,10.35
2071,-6,-5,-20,-4,-1,-2,0,4,10.355
2072,0,-3,-1,-4,-3,-8,-2,-3,10.36
2073,-1,0,-2,-5,-1,14,2,0,10.365
2074,-2,-5,0,-3,-3,-1,-1,-4,10.370000000000001
2075,-4,-4,-3,-1,-4,-2,-1,-4,10.375
2076,1,-5,-4,2,1,-2,-2,0,10.38
2077,-2,-1,1,2,-2,-7,-3,-1,10.385
2078,2,8,9,1,-1,-4,-4,0,10.39
2079,-4,-10,-9,-6,-3,2,-1,-3,10.395
2080,-2,-4,-3,4,1,3,-2,0,10.4
2081,2,-1,4,2,0,-9,-1,-1,10.405
2082,-1,-2,-5,-2,-2,1,1,1,10.41
2083,1,5,7,-1,-3,-12,-10,-3,10.415000000000001
2084,-1,-5,-22,-3,2,12,10,2,10.42
2085,0,2,14,1,0,0,-3,-2,10.425
2086,0,2,0,-1,-1,-3,-2,-1,10.43
2087,-3,-3,9,0,0,-1,-1,-2,10.435
2088,-2,1,-7,-2,-1,-3,-4,-2,10.44
2089,3,-5,-5,1,-2,-1,2,0,10.445
2090,0,-2,-7,-7,-3,-2,0,1,10.450000000000001
2091,6,3,6,3,0,3,1,0,10.455
2092,-2,0,-6,0,1,-1,-1,-4,10.46
2093,-2,-6,-4,0,-2,-4,0,0,10.465
2094,0,-4,3,-1,-1,-3,-1,0,10.47
2095,2,5,-1,0,-1,2,1,0,10.475
2096,1,5,6,0,-3,-5,-1,0,10.48
2097,-4,-1,-1,-3,0,3,1,-1,10.485
2098,-1,-14,-37,-3,0,-1,-2,-1,10.49
2099,-4,2,13,2,0,1,-1,-4,10.495000000000001
2100,2,2,6,2,1,-12,3,2,10.5
2101,-5,2,12,-1,-1,7,-1,-7,10.505
2102,2,3,8,4,0,0,-1,8,10.51
2103,-2,-5,-10,-5,-2,0,1,-3,10.515
2104,-2,-2,-8,0,-2,-8,-4,0,10.52
2105,0,0,0,1,-1,2,1,-1,10.525
2106,-3,-3,-5,-1,-2,0,0,-2,10.53
2107,-1,-1,2,1,0,-8,-3,0,10.535
2108,4,1,3,-2,0,15,1,3,10.540000000000001
2109,-9,-2,-11,-3,-1,-4,-3,-6,10.545
2110,1,3,10,4,1,4,1,-2,10.55
2111,-1,2,-2,-3,-2,-2,-2,0,10.555
2112,-1,1,-6,-2,-3,0,-2,-2,10.56
2113,3,5,12,1,0,-3,-2,4,10.565
2114,-3,-5,-8,-4,-2,-3,1,0,10.57
2115,3,5,15,5,2,-1,0,0,10.575000000000001
2116,0,-4,-5,-2,-2,-3,-2,-1,10.58
2117,3,-1,-6,0,0,10,-2,0,10.585
2118,-4,5,15,3,0,-8,-4,-6,10.59
2119,2,-3,-4,-2,1,13,3,9,10.595
2120,-3,-3,-3,-2,2,2,1,-3,10.6
2121,0,-2,-4,-3,-4,-9,-2,0,10.605
2122,-1,0,3,-1,0,1,0,-4,10.61
2123,-1,2,-1,3,1,-5,-4,-2,10.615
2124,-2,-3,1,0,1,1,-1,-1,10.620000000000001
2125,-1,-2,-11,-3,-1,-3,-1,0,10.625
2126,0,1,2,0,-3,-3,-1,0,10.63
2127,-1,2,4,1,-1,-1,1,-2,10.635
2128,2,-1,-8,-5,-2,-5,-1,-1,10.64
2129,0,1,9,2,1,-3,-1,-1,10.645
2130,1,-4,-8,-3,-2,4,0,1,10.65
2131,-4,-6,-2,0,-1,-2,-2,-2,10.655
2132,3,3,6,2,0,3,-1,1,10.66
2133,2,-3,-7,0,-1,-4,-2,2,10.665000000000001
2134,-1,5,10,-1,-2,-1,0,-4,10.67
2135,2,-2,-5,-4,2,2,2,0,10.675
2136,-4,-2,-8,1,0,-3,-1,-5,10.68
2137,-2,-3,10,1,-1,2,-1,6,10.685
2138,-1,1,-6,-2,-2,-2,0,-1,10.69
2139,-2,-2,-12,-5,-1,-3,-2,-3,10.695
2140,-1,0,6,-2,-3,-5,-1,-1,10.700000000000001
2141,0,-1,-12,-3,0,0,2,-2,10.705
2142,0,0,11,1,0,8,0,-1,10.71
2143,-2,1,-2,-2,-1,-2,-5,1,10.715
2144,-3,-6,-17,-4,0,1,0,0,10.72
2145,-1,0,14,-3,1,-6,-2,-2,10.725
2146,1,-5,-6,-3,1,-4,-2,1,10.73
2147,3,8,12,0,1,2,0,-3,10.735
2148,-1,-2,-9,1,-1,0,-2,-1,10.74
2149,0,-3,-7,0,-3,-3,0,0,10.745000000000001
2150,-3,-6,-2,-2,0,2,0,-4,10.75
2151,0,-4,-5,-1,-2,-1,-1,0,10.755
2152,1,2,5,-2,0,0,-1,1,10.76
2153,2,2,-7,0,1,0,-1,-2,10.765
2154,-4,-2,6,0,-3,1,-1,-2,10.77
2155,-1,-1,8,4,2,4,2,-4,10.775
2156,4,2,-24,-7,-1,0,-1,3,10.78
2157,-1,5,15,4,0,1,-1,-1,10.785
2158,1,2,2,0,-2,-9,-3,1,10.790000000000001
2159,-5,-7,-2,-3,-3,-8,-5,-3,10.795
2160,-3,-3,-5,-2,-1,6,4,-2,10.8
2161,-2,2,12,1,1,4,1,-2,10.805
2162,-1,-4,-5,0,-1,-3,-2,-2,10.81
2163,2,0,-3,2,-2,0,-1,0,10.815
2164,-8,-7,6,-1,0,-4,-2,-4,10.82
2165,1,-1,-18,-2,-2,-3,-2,-1,10.825000000000001
2166,3,7,12,2,2,2,5,0,10.83
2167,-1,-3,-14,-4,-2,1,1,0,10.835
2168,1,-3,1,1,-3,-9,-6,1,10.84
2169,-4,-3,2,-1,0,13,6,-2,10.845
2170,-1,0,-1,0,0,1,-2,0,10.85
2171,-2,-3,-2,0,0,-3,-2,-1,10.855
2172,0,2,8,-10,-3,2,-3,-2,10.86
2173,3,0,-2,9,6,-1,2,2,10.865
2174,-3,-1,-8,14,5,-3,-1,4,10.870000000000001
2175,2,1,3,0,-3,-1,2,2,10.875
2176,1,0,7,1,-1,4,2,1,10.88
2177,-3,-3,-10,-9,-3,-4,-4,-3,10.885
2178,-8,-2,2,-6,-3,-5,-4,-9,10.89
2179,1,2,10,-1,-2,2,4,3,10.895
2180,0,-4,-5,3,0,2,-1,-2,10.9
2181,0,-1,7,-2,-3,-8,-6,0,10.905
2182,1,-11,-27,-8,-1,-5,-1,-3,10.91
2183,-2,4,5,0,-1,0,-5,-2,10.915000000000001
2184,2,2,4,-3,-1,-4,1,0,10.92
2185,0,-4,-4,2,0,-2,4,0,10.925
2186,0,-7,-1,-4,-2,0,-1,-1,10.93
2187,-2,-2,2,-2,-1,0,-2,-1,10.935
2188,1,3,8,4,0,-5,-6,1,10.94
2189,-1,-2,-10,-2,-1,-1,0,-1,10.945
2190,0,3,9,1,2,8,4,3,10.950000000000001
2191,-3,-2,-14,-4,-1,-1,2,0,10.955
2192,-2,-1,8,1,1,-2,-1,-1,10.96
2193,-4,0,-1,-1,-2,-2,-5,-7,10.965
2194,9,3,-1,-2,-3,4,4,6,10.97
2195,1,1,1,-9,3,2,1,3,10.975
2196,-1,-5,-3,0,-7,-2,-3,-2,10.98
2197,5,-3,-6,8,2,-1,0,5,10.985
2198,0,-2,2,17,5,-1,-3,-2,10.99
2199,0,-3,-9,4,-5,-7,1,-2,10.995000000000001
2200,-6,8,15,-4,1,3,-2,0,11.0
2201,-6,-5,-9,-18,-6,-4,-2,-11,11.005
2202,9,2,-9,-2,0,-1,-2,5,11.01
2203,-1,-2,18,-1,-2,-1,-2,-2,11.015
2204,-3,-3,-12,-8,-3,7,3,0,11.02
2205,-2,-6,-9,1,-2,1,2,-1,11.025
2206,-6,4,1,-2,2,1,-2,-2,11.03
2207,-4,-1,-11,1,-1,-4,-2,-5,11.035
2208,7,-1,5,4,0,-1,1,3,11.040000000000001
2209,0,6,10,6,0,-4,-2,3,11.045
2210,-3,-2,-4,-8,-2,-4,-2,-1,11.05
2211,2,2,-15,0,1,0,1,1,11.055
2212,-2,-4,14,5,2,1,1,-1,11.06
2213,-2,1,0,-4,-3,-1,0,0,11.065
2214,-2,-4,0,-5,-2,-8,-3,0,11.07
2215,0,3,6,2,3,21,6,-1,11.075000000000001
2216,-4,2,-8,1,3,1,-4,-3,11.08
2217,-2,3,-1,-4,-1,1,2,-1,11.085
2218,4,1,3,-2,2,-1,4,8,11.09
2219,5,2,-1,0,-3,-14,-6,0,11.095
2220,-8,-2,-2,-3,-2,-6,4,0,11.1
2221,0,3,-1,2,0,-2,-5,-1,11.105
2222,-5,-3,-3,-2,-3,6,-3,-6,11.11
2223,-2,-6,-4,1,0,-3,-1,-2,11.115
2224,6,0,5,-2,-1,0,-1,5,11.120000000000001
2225,-3,0,2,-3,-1,-10,-9,-2,11.125
2226,-3,-4,-5,-2,0,9,5,-2,11.13
2227,-3,-3,0,0,1,1,0,0,11.135
2228,3,1,2,3,1,1,-2,-2,11.14
2229,-1,-6,-10,0,-1,1,1,2,11.145
2230,0,1,11,-1,-2,-7,-2,0,11.15
2231,-2,1,-4,-1,-4,-5,-2,-2,11.155
2232,-1,-3,-6,1,3,7,2,-2,11.16
2233,-1,-3,7,0,0,1,-1,3,11.165000000000001
2234,-2,5,1,0,-1,-2,-3,-1,11.17
2235,-5,-3,7,2,-1,-6,-3,-2,11.175
2236,-6,-7,-7,-5,-2,-3,-4,-1,11.18
2237,3,2,-2,2,4,15,8,0,11.185
2238,-4,-8,-3,0,-2,0,-1,-1,11.19
2239,0,4,2,0,0,-4,1,2,11.195
2240,0,-2,-3,1,-3,-6,-6,0,11.200000000000001
2241,-7,-5,-4,-4,-2,-1,7,-3,11.205
2242,2,4,1,-2,3,17,7,3,11.21
2243,-1,-1,-1,-3,-2,2,0,1,11.215
2244,1,3,3,-2,-3,-1,0,-4,11.22
2245,0,-1,1,10,4,-8,-1,-1,11.225
2246,0,-1,-3,-10,-4,-8,-4,-3,11.23
2247,-2,-3,-1,5,0,3,-2,-3,11.235
2248,1,-1,3,1,-1,-2,1,0,11.24
2249,-2,-3,-2,-5,-4,-4,-4,0,11.245000000000001
2250,0,-1,-2,2,-2,-7,-7,-4,11.25
2251,1,1,-7,-4,2,5,3,0,11.255
2252,-1,2,2,-2,-2,-6,-2,0,11.26
2253,1,-1,1,-2,-1,-1,-8,2,11.265
2254,-2,-3,1,0,-2,5,5,-1,11.27
2255,-1,0,0,-1,-3,-2,2,-1,11.275
2256,0,2,-8,-1,-2,-7,-1,0,11.28
2257,-3,-6,-8,-6,-3,1,2,-1,11.285
2258,-1,0,4,-1,-1,-8,-6,-1,11.290000000000001
2259,-1,-4,-3,-1,2,2,1,-1,11.295
2260,0,-2,-1,1,1,5,1,0,11.3
2261,3,3,8,-2,-1,-3,-2,0,11.305
2262,1,2,-2,3,-2,-10,-4,-2,11.31
2263,-2,1,-2,-3,-2,-7,-2,-2,11.315
2264,-4,-2,-5,1,3,9,4,-1,11.32
2265,1,3,5,-2,-1,2,-1,0,11.325000000000001
2266,-2,-5,-4,1,0,-2,5,1,11.33
2267,-1,2,3,-2,-2,-3,-4,-1,11.335
2268,-2,0,-2,-1,-1,-5,-2,-2,11.34
2269,2,2,-3,0,-1,-2,1,0,11.345
2270,-3,-1,0,-1,-2,-5,-5,-4,11.35
2271,-1,-3,0,-1,-2,3,2,1,11.355
2272,-1,0,1,-1,-3,-1,-4,-1,11.36
2273,-2,-2,-6,-2,-1,-5,-4,1,11.365
2274,1,5,2,-1,0,7,1,0,11.370000000000001
2275,-4,-11,-3,-5,-2,-2,-5,-3,11.375
2276,1,0,-4,-1,-2,2,2,-1,11.38
2277,-2,-4,-4,-6,-2,-3,0,-1,11.385
2278,2,-2,-2,3,-1,-3,-1,-1,11.39
2279,1,2,5,5,-1,3,2,2,11.395
2280,-1,3,3,1,0,0,1,-2,11.4
2281,-2,-7,-3,-1,-3,-5,-5,-1,11.405
2282,1,1,1,-2,0,3,5,3,11.41
2283,-1,3,1,-6,-2,2,-3,-2,11.415000000000001
2284,2,-1,0,9,3,-4,-1,0,11.42
2285,6,2,-2,0,1,6,1,2,11.425
2286,-3,-3,-2,-9,-4,-6,-2,0,11.43
2287,2,-1,-1,4,-3,-9,-1,-2,11.435
2288,-5,-4,1,-3,0,13,0,-4,11.44
2289,2,2,1,3,1,3,3,6,11.445
2290,-2,-3,0,1,0,-6,-4,-2,11.450000000000001
2291,-2,-5,-5,-6,-3,-2,1,-2,11.455
2292,2,-3,-3,-5,0,1,0,1,11.46
2293,-5,-8,-5,-1,-1,-4,-1,-3,11.465
2294,3,2,0,1,1,3,-3,-1,11.47
2295,-13,4,0,4,-1,-3,-3,2,11.475
2296,9,-4,-3,-19,-6,-7,-4,-1,11.48
2297,-4,4,0,0,-1,3,0,-4,11.485
2298,-2,-3,-4,9,6,1,1,0,11.49
2299,-8,-5,-3,3,0,3,-2,-4,11.495000000000001
2300,3,-2,-2,0,-1,-2,2,3,11.5
2301,1,0,-1,-5,-4,-1,2,0,11.505
2302,1,1,2,-2,-1,0,-2,-2,11.51
2303,1,1,-5,3,2,4,0,0,11.515
2304,-6,2,2,1,-1,-2,-3,-1,11.52
2305,2,-4,-1,-5,-4,-5,1,-1,11.525
2306,-3,-3,1,4,0,4,2,0,11.53
2307,2,-2,-3,-3,1,0,-1,1,11.535
2308,-4,0,-1,2,-3,-11,-3,-1,11.540000000000001
2309,1,0,0,5,1,10,1,-2,11.545
2310,2,4,2,0,-4,-7,-5,2,11.55
2311,8,2,4,-3,0,-3,2,1,11.555
2312,-7,-3,-3,2,1,-1,-4,-3,11.56
2313,-3,3,4,4,1,1,1,-1,11.565
2314,-2,-5,-4,-4,-1,2,7,-1,11.57
2315,4,4,2,-3,-2,-11,-10,-2,11.575000000000001
2316,-3,-1,0,2,-2,3,8,-1,11.58
2317,-3,-2,0,3,1,5,-4,1,11.585
2318,3,-5,-6,-7,-1,-3,1,-2,11.59
2319,-7,0,1,-1,-3,3,18,-4,11.595
2320,12,-2,-3,1,1,-4,-19,7,11.6
2321,-3,3,1,-1,-2,-5,-8,-4,11.605
2322,2,4,10,-1,-5,4,11,8,11.61
2323,11,-6,-13,-3,3,0,1,1,11.615
2324,-28,-5,5,7,-4,-3,0,-6,11.620000000000001
2325,9,8,6,-25,-9,-3,-1,0,11.625
2326,-14,-6,-11,44,17,3,-7,-7,11.63
2327,1,-2,6,1,-2,3,0,0,11.635
2328,8,7,-9,-4,2,3,3,0,11.64
2329,-9,-10,-4,-8,-1,-2,-4,-2,11.645
2330,4,6,11,-9,-5,-1,-1,-2,11.65
2331,2,-4,-6,-4,-1,3,-4,0,11.655
2332,3,5,4,2,0,-3,1,0,11.66
2333,-5,2,0,5,0,-1,3,1,11.665000000000001
2334,-1,0,-7,-13,-2,-3,-2,-3,11.67
2335,14,5,14,13,4,2,0,1,11.675
2336,-9,2,-10,-12,-3,5,3,-1,11.68
2337,-1,-12,-12,4,0,-3,0,1,11.685
2338,31,-3,-6,-3,-1,-3,0,6,11.69
2339,-41,-10,-5,-9,-4,1,-6,-5,11.695
2340,24,9,14,9,5,-6,4,-3,11.700000000000001
2341,-15,-1,0,1,1,2,5,-2,11.705
2342,1,-3,-4,-8,-5,1,-7,-1,11.71
2343,3,3,6,-3,-7,-7,-6,-3,11.715
2344,5,0,-1,7,5,2,2,2,11.72
2345,5,3,2,1,1,-5,0,-1,11.725
2346,-22,-1,0,1,2,-1,-2,-3,11.73
2347,14,5,4,-3,1,4,2,2,11.735
2348,-22,-17,1,-12,-10,0,-3,0,11.74
2349,9,8,-11,5,3,-5,-6,-5,11.745000000000001
2350,-11,-13,-14,-16,-4,3,1,-2,11.75
2351,22,6,11,20,7,4,-1,3,11.755
2352,-1,-11,-15,-10,0,-3,-2,-1,11.76
2353,4,10,20,-3,-5,-3,6,0,11.765
2354,-54,0,10,6,2,0,-8,-2,11.77
2355,31,-8,-12,1,2,-3,-1,0,11.775
2356,3,1,5,-5,-8,-7,-2,3,11.78
2357,-34,-2,0,3,2,-4,-5,-8,11.785
2358,6,0,0,-10,-1,-3,2,-2,11.790000000000001
2359,-8,3,3,-3,0,10,3,2,11.795
2360,6,10,15,16,3,1,5,2,11.8
2361,2,-9,-28,-5,0,9,10,1,11.805
2362,7,4,7,-3,-6,-10,-17,-3,11.81
2363,2,4,-5,-17,-7,9,1,0,11.815
2364,1,2,7,8,10,4,-12,-5,11.82
2365,-8,4,5,-4,0,-4,7,9,11.825000000000001
2366,-8,5,1,17,-4,-1,8,1,11.83
2367,-13,-29,-17,41,16,-5,7,2,11.835
2368,3,10,-10,-2,-4,-1,-15,-9,11.84
2369,22,2,16,7,-1,-1,-2,2,11.845
2370,32,21,-14,-26,-7,3,0,-5,11.85
2371,-12,3,10,-21,-8,-1,1,6,11.855
2372,32,16,-22,-3,0,-4,8,2,11.86
2373,-51,-58,-41,-6,-14,-6,7,-23,11.865
2374,-13,5,11,-27,-8,1,-13,5,11.870000000000001
2375,41,11,-1,48,17,-6,-11,-6,11.875
2376,2,10,20,0,-1,-1,-16,-1,11.88
2377,10,5,13,-5,-5,7,27,12,11.885
2378,30,-1,-7,-28,-7,-4,-16,6,11.89
2379,-44,5,2,27,9,-4,3,7,11.895
2380,74,-10,23,-27,-15,-11,-13,-11,11.9
2381,32,19,-2,11,6,4,-3,3,11.905
2382,-83,-24,13,63,36,12,15,-20,11.91
2383,3,37,20,-18,-8,2,17,26,11.915000000000001
2384,-61,-45,-24,-6,-4,0,-9,-21,11.92
2385,-1,18,3,-21,4,4,39,18,11.925
2386,-29,-45,-58,-85,-35,-16,-57,-18,11.93
2387,-27,-17,23,70,22,1,-16,-11,11.935
2388,-22,-3,-9,21,16,12,41,-2,11.94
2389,51,3,4,-43,-11,-6,-39,-2,11.945
2390,78,62,42,59,23,12,48,36,11.950000000000001
2391,-62,-5,26,-29,-12,7,89,2,11.955
2392,-75,-29,-56,-67,-32,-8,-83,3,11.96
2393,76,53,-11,104,31,7,-3,17,11.965
2394,98,0,34,-55,-2,-2,-7,11,11.97
2395,-75,-79,-54,-33,-22,-15,-22,-35,11.975
2396,35,7,13,47,12,0,27,4,11.98
2397,-37,-3,34,-19,-6,9,11,-2,11.985
2398,15,14,-26,19,0,-1,1,18,11.99
2399,38,20,-7,9,5,-2,-36,0,11.995000000000001
2400,-15,13,42,-55,-26,-5,27,12,12.0
2401,-27,-23,-36,76,19,-7,-33,-38,12.005
2402,3,11,3,-54,-14,6,34,9,12.01
2403,11,-15,-12,34,5,-6,-43,-11,12.015
2404,-96,-25,-27,-2,-1,1,21,-12,12.02
2405,22,44,47,-51,-19,2,6,22,12.025
2406,-57,-23,7,57,10,-2,-11,-28,12.030000000000001
2407,114,6,-31,-59,-22,-10,-2,35,12.035
2408,-30,-24,-30,17,17,3,-14,-21,12.040000000000001
2409,38,-23,-15,-30,-2,0,3,-20,12.045
2410,-31,2,7,-22,-14,-1,-4,0,12.05
2411,21,-5,-27,-64,-19,4,96,13,12.055
2412,74,14,15,67,16,-13,-86,12,12.06
2413,33,8,16,-49,-18,-10,-8,-10,12.065
2414,-100,-11,-19,9,-7,-8,-13,-24,12.07
2415,75,73,23,42,26,9,-2,4,12.075000000000001
2416,-52,-84,-26,-23,-8,3,36,-8,12.08
2417,-2,-6,15,7,-19,-3,-4,3,12.085
2418,8,18,29,75,37,11,14,-1,12.09
2419,23,20,-22,-25,-7,-5,-34,-9,12.095
2420,-30,-1,-17,-22,-13,-8,17,27,12.1
2421,-7,33,8,-103,-10,2,-33,-3,12.105
2422,-17,-107,2,73,12,-12,-24,-59,12.11
2423,-36,8,-4,-63,-14,-4,-10,-6,12.115
2424,81,57,58,107,43,11,-12,31,12.120000000000001
2425,-1,-41,-64,-25,-9,-16,14,4,12.125
2426,-19,34,2,7,-7,4,8,17,12.13
2427,-55,-37,-12,-62,-19,-11,-42,-37,12.135
2428,12,31,46,49,21,13,43,36,12.14
2429,38,33,24,16,3,-6,-1,-12,12.145
2430,-20,-20,-23,-67,-24,1,20,-34,12.15
2431,54,45,71,101,33,8,-33,47,12.155000000000001
2432,89,4,-30,-81,-23,2,59,-16,12.16
2433,40,-16,21,52,10,11,-41,11,12.165000000000001
2434,-89,-46,-61,-39,-16,-17,-16,-15,12.17
2435,60,2,-11,23,10,6,-10,9,12.175
2436,19,35,4,-18,-5,-2,10,-2,12.18
2437,17,-32,-1,31,15,4,17,16,12.185
2438,58,18,13,-38,-12,-3,-8,-16,12.19
2439,-65,-73,-22,-29,-10,9,8,-18,12.195
2440,101,27,8,91,2,-8,-42,21,12.200000000000001
2441,-106,-16,-44,-37,-5,-2,34,10,12.205
2442,-3,66,47,-21,-7,3,7,23,12.21
2443,-98,-63,-10,-4,-9,-19,-13,-48,12.215
2444,23,-3,-17,-13,-7,5,2,12,12.22
2445,-22,27,6,27,14,13,13,9,12.225
2446,-10,3,9,31,8,0,15,24,12.23
2447,24,41,9,-33,-5,-2,-7,-18,12.235
2448,-45,-10,18,-43,-6,2,22,-37,12.24
2449,44,36,52,56,8,-4,-10,33,12.245000000000001
2450,43,-52,-34,-42,-5,-6,14,-27,12.25
2451,5,-31,-46,11,-9,-19,-38,-2,12.255
2452,-39,-25,-44,-60,-6,-2,-4,4,12.26
2453,-21,-21,-17,73,15,9,30,-20,12.265
2454,46,11,17,0,-11,-7,-30,19,12.27
2455,-14,13,46,-34,-8,9,14,-2,12.275
2456,-37,4,5,-11,-7,-1,57,-6,12.280000000000001
2457,-40,-23,-5,22,16,-12,-68,-13,12.285
2458,31,4,-48,-45,-7,1,3,28,12.290000000000001
2459,-10,30,18,-18,-30,-11,8,-28,12.295
2460,16,-20,-16,86,34,19,20,11,12.3
2461,-20,27,-4,-62,-16,2,-1,17,12.305
2462,-65,-37,15,7,15,2,-14,-14,12.31
2463,-6,7,0,75,20,11,27,13,12.315
2464,-26,16,44,-52,-28,-32,-65,-8,12.32
2465,-40,-57,-114,-19,-10,-10,-15,-31,12.325000000000001
2466,42,29,45,35,14,4,20,41,12.33
2467,34,-3,-38,-19,-8,-8,-19,-15,12.335
2468,109,74,46,38,8,11,28,29,12.34
2469,-18,-33,-8,-31,-6,-1,3,-19,12.345
2470,28,21,-29,-9,-5,2,48,-30,12.35
2471,-53,7,71,32,18,12,-5,68,12.355
2472,-38,-37,-97,-56,-17,-25,-40,-22,12.36
2473,32,-4,21,-49,-13,6,44,11,12.365
2474,5,-8,27,28,-26,-9,-48,-37,12.370000000000001
2475,73,60,6,64,78,36,19,22,12.375
2476,22,-39,-8,-72,-15,-2,-7,0,12.38
2477,-18,-15,-3,42,11,-3,-15,-9,12.385
2478,0,68,17,-36,-13,1,26,5,12.39
2479,11,-59,-34,-13,-18,-14,2,-3,12.395
2480,-54,11,19,18,11,6,-12,-20,12.4
2481,-16,-4,13,-16,-11,-10,-52,-39,12.405000000000001
2482,97,26,-3,20,-3,9,55,95,12.41
2483,23,53,30,-4,10,-3,-29,13,12.415000000000001
2484,-70,-28,-36,-121,-27,1,94,-24,12.42
2485,53,-14,7,78,22,-1,-68,27,12.425
2486,-27,-27,-1,49,26,-1,-41,6,12.43
2487,-49,-17,-25,-60,-22,-6,12,-1,12.435
2488,-17,27,22,10,5,3,-9,-31,12.44
2489,-18,38,45,17,4,32,47,14,12.445
2490,0,12,-27,18,10,-3,15,-10,12.450000000000001
2491,31,8,-11,-107,-29,-7,-15,2,12.455
2492,-64,-30,17,59,13,-4,-43,-14,12.46
2493,43,46,-14,-1,8,2,31,11,12.465
2494,-18,-91,-66,-12,13,-3,13,-6,12.47
2495,-20,-26,5,59,-7,6,19,-13,12.475
2496,-36,11,39,-14,-4,-8,-50,1,12.48
2497,-18,13,13,-46,-12,-2,16,-14,12.485
2498,-44,-18,17,-31,-5,-14,-63,-59,12.49
2499,46,53,37,-1,0,29,103,63,12.495000000000001
2500,-87,-29,-36,27,-4,-19,-106,-17,12.5
2501,59,4,39,15,7,15,50,24,12.505
2502,-12,12,-33,-29,-13,-5,-42,-2,12.51
2503,48,-36,-17,-71,2,8,1,-33,12.515
2504,-4,2,37,66,6,-7,5,-13,12.52
2505,-93,-29,-41,17,17,-3,-19,-40,12.525
2506,88,33,21,13,-4,-10,6,67,12.530000000000001
2507,-31,25,27,-26,-19,-17,-4,-5,12.535
2508,50,29,-56,53,26,37,54,39,12.540000000000001
2509,-27,-97,-15,-41,-24,-23,-32,-37,12.545
2510,7,23,31,12,9,9,17,1,12.55
2511,-48,-25,-15,21,-1,-7,-41,-24,12.555
2512,29,25,18,-55,-16,-14,3,15,12.56
2513,-29,14,7,16,7,18,42,0,12.565
2514,-17,5,14,11,-2,-22,-28,3,12.57
2515,54,7,-5,-8,-6,15,5,19,12.575000000000001
2516,-57,-49,-40,-23,-7,-4,-10,-63,12.58
2517,12,25,16,-5,-1,-14,4,5,12.585
2518,-34,-21,-7,-8,3,6,37,33,12.59
2519,5,7,-7,-13,3,9,-3,-27,12.595
2520,93,41,27,25,-1,0,0,54,12.6
2521,-41,-28,0,30,-5,-11,-9,-17,12.605
2522,-18,-18,-49,-59,-12,-4,-11,-23,12.61
2523,-56,-31,-25,81,20,-23,-17,-9,12.615
2524,22,11,24,-23,-4,7,7,-9,12.620000000000001
2525,3,21,27,-29,-17,-14,-1,12,12.625
2526,-7,5,-1,-6,0,-1,-5,-19,12.63
2527,-25,-7,-1,4,1,1,-8,-2,12.635
2528,11,-5,2,4,7,10,15,8,12.64
2529,2,10,-17,-25,-7,-31,-33,-1,12.645
2530,13,4,15,19,3,7,11,-4,12.65
2531,-27,-12,-15,1,-2,11,3,-27,12.655000000000001
2532,29,4,6,4,1,21,21,68,12.66
2533,-16,-16,-8,-19,-1,14,-4,-6,12.665000000000001
2534,6,-5,1,9,1,8,0,6,12.67
2535,-16,-4,8,7,-5,-28,-3,-9,12.675
2536,-10,-1,-4,-10,-4,-4,-12,-26,12.68
2537,8,9,-4,-6,-2,-11,-10,13,12.685
2538,-4,-8,-5,10,3,18,14,-2,12.69
2539,-5,3,4,0,-4,-22,-1,7,12.695
2540,2,0,0,0,3,16,1,-8,12.700000000000001
2541,3,6,-8,-2,-2,9,2,12,12.705
2542,2,6,15,10,1,-3,-2,-12,12.71
2543,-4,5,1,-7,-4,-2,-7,1,12.715
2544,-1,-18,-31,-8,-4,-19,-3,-2,12.72
2545,1,6,8,-5,-5,-2,2,-3,12.725
2546,-3,6,1,3,1,6,-1,-4,12.73
2547,-7,-4,12,5,-1,1,-2,6,12.735
2548,-2,1,10,7,5,1,-1,-9,12.74
2549,8,5,1,-8,-3,1,-2,3,12.745000000000001
2550,-1,-2,-16,-6,-1,-2,0,0,12.75
2551,-8,-13,-23,-8,0,0,-2,-1,12.755
2552,-6,1,5,0,-2,-4,0,-12,12.76
2553,10,5,33,8,1,11,5,8,12.765
2554,-3,-8,-32,-3,-1,-6,-9,5,12.77
2555,-4,-9,2,1,-1,0,2,2,12.775
2556,4,0,10,-5,0,-4,-4,-4,12.780000000000001
2557,1,3,14,3,-4,-18,-10,10,12.785
2558,0,7,3,7,2,22,5,-11,12.790000000000001
2559,-6,-6,-29,-10,0,6,2,-1,12.795
2560,10,-1,15,0,0,-3,4,6,12.8
2561,-13,-9,-22,-4,1,4,-1,-9,12.805
2562,-5,-8,6,0,-2,-18,-4,-3,12.81
2563,-1,16,10,2,0,1,-5,-5,12.815
2564,3,-12,-5,-4,-1,-3,4,10,12.82
2565,0,3,-14,-2,-1,-4,1,-3,12.825000000000001
2566,1,3,16,2,-2,-3,-2,1,12.83
2567,-1,-4,-7,1,-1,-2,1,-1,12.835
2568,-2,14,10,4,1,1,2,-12,12.84
2569,8,-7,-45,-7,0,-1,0,5,12.845
2570,-2,-2,51,10,4,8,2,-1,12.85
2571,0,13,-3,4,-2,-7,-4,0,12.855
2572,-2,-9,-35,-8,-2,-8,-10,-20,12.86
2573,0,0,30,2,-2,2,-2,17,12.865
2574,3,7,-5,4,2,2,11,1,12.870000000000001
2575,-1,-4,-4,-6,-2,3,-8,1,12.875
2576,-2,0,-1,1,0,7,10,6,12.88
2577,0,-17,-4,1,2,17,2,-10,12.885
2578,-3,6,19,4,-3,-17,-4,-3,12.89
2579,-4,-6,-4,-6,-2,2,-1,0,12.895
2580,-8,-11,-30,-12,-4,-12,-3,-3,12.9
2581,4,4,4,-6,-3,-7,0,-1,12.905000000000001
2582,-7,1,8,2,0,-4,-6,-6,12.91
2583,2,-13,-8,7,2,11,1,-2,12.915000000000001
2584,-2,5,5,-1,-4,-3,1,3,12.92
2585,-2,6,3,-1,0,2,8,0,12.925
2586,3,0,-16,-5,-1,4,-1,0,12.93
2587,-2,0,6,0,1,1,-6,-4,12.935
2588,2,15,22,6,1,-3,-1,2,12.94
2589,-9,-29,-41,-5,-1,4,-4,-6,12.945
2590,0,0,8,-8,-3,-4,-5,-2,12.950000000000001
2591,-1,0,12,2,-3,-13,-1,1,12.955
2592,0,3,-15,-3,1,8,-1,1,12.96
2593,-3,4,1,-3,-5,-10,-1,-19,12.965
2594,5,-1,34,7,0,8,2,23,12.97
2595,2,-3,-22,0,-2,-6,-4,0,12.975
2596,2,4,7,4,2,6,1,3,12.98
2597,-13,-11,-30,-16,-6,-4,0,-5,12.985
2598,-1,13,-12,-3,1,3,-2,-7,12.99
2599,0,7,29,5,-2,-13,-2,0,12.995000000000001
2600,-3,2,-19,1,3,18,3,6,13.0
2601,0,-29,-1,4,3,3,-1,1,13.005
2602,7,18,37,2,-1,2,7,0,13.01
2603,-19,5,-32,-2,-1,-3,-3,-4,13.015
2604,-8,-16,6,-8,-2,1,0,-5,13.02
2605,19,4,3,1,-3,-10,-7,1,13.025
2606,-1,-10,-29,-4,0,9,0,-3,13.030000000000001
2607,8,6,22,-1,0,-1,2,1,13.035
2608,-4,-7,-2,3,-3,-11,-3,-2,13.040000000000001
2609,2,18,18,0,1,-3,0,1,13.045
2610,-14,-26,-34,-5,-3,-5,-4,9,13.05
2611,6,7,17,5,-1,6,8,-1,13.055
2612,2,0,13,-2,0,2,-2,-2,13.06
2613,4,18,11,0,-2,2,0,7,13.065
2614,3,-3,-57,-3,1,-10,-5,-6,13.07
2615,-9,-22,27,-2,-2,-6,-3,-5,13.075000000000001
2616,-1,10,47,11,1,8,5,9,13.08
2617,-1,-6,-23,-7,-1,1,1,-1,13.085
2618,-6,3,-7,-7,-2,1,2,-5,13.09
2619,2,-5,-13,-2,-3,-1,-2,2,13.095
2620,0,13,-6,-1,-1,-11,-7,-3,13.1
2621,-5,-12,19,5,1,3,3,-2,13.105
2622,-3,-9,-5,1,0,5,2,-3,13.11
2623,1,-4,-27,-7,-3,-3,2,3,13.115
2624,0,-8,-10,-5,-2,-2,-10,2,13.120000000000001
2625,0,19,11,-2,0,4,1,-1,13.125
2626,0,-5,-19,-3,-2,-7,-5,-3,13.13
2627,5,5,31,7,1,8,-4,-1,13.135
2628,-1,1,16,5,0,1,3,-1,13.14
2629,-1,-2,-16,-3,-1,3,-1,6,13.145
2630,0,-8,1,-3,-1,-8,-6,-9,13.15
2631,-1,7,-6,3,1,2,1,0,13.155000000000001
2632,1,-5,-11,-9,-2,-9,-4,-3,13.16
2633,0,4,-14,1,-1,-2,0,-2,13.165000000000001
2634,-2,6,39,5,-1,2,3,-4,13.17
2635,-5,-14,-31,-8,-3,-7,-9,5,13.175
2636,1,-4,0,1,0,3,1,-3,13.18
2637,1,3,-10,-4,0,4,3,1,13.185
2638,1,2,10,-8,-5,-18,-11,0,13.19
2639,1,-5,-34,-3,3,20,13,3,13.195
2640,-9,0,31,5,-3,-9,-7,-10,13.200000000000001
2641,0,7,-13,-1,-2,-7,-4,-1,13.205
2642,0,-3,-2,-3,1,13,2,5,13.21
2643,5,13,20,5,4,19,10,0,13.215
2644,-1,-15,3,2,-1,-3,1,0,13.22
2645,-1,-3,-27,-1,0,-1,0,2,13.225
2646,0,8,18,2,-1,-11,-6,-3,13.23
2647,-3,-3,-15,-2,-1,-7,-4,-4,13.235
2648,3,-8,-25,-3,-1,2,3,4,13.24
2649,-1,4,30,4,-1,-1,1,-1,13.245000000000001
2650,-1,-10,-10,-1,0,3,2,-2,13.25
2651,2,5,22,1,0,4,1,0,13.255
2652,-3,0,-18,0,-3,-4,-1,-5,13.26
2653,-5,-3,-6,1,-1,-3,-4,-1,13.265
2654,-1,-6,0,-4,0,-1,2,0,13.27
2655,-2,1,25,4,-1,-7,1,-2,13.275
2656,-3,-4,1,1,-2,-7,-5,3,13.280000000000001
2657,4,0,-8,-8,1,16,5,0,13.285
2658,-11,-8,-20,-2,-1,4,-1,-4,13.290000000000001
2659,-1,-8,-16,-5,-5,-9,-3,-1,13.295
2660,-4,-8,8,-2,-3,-7,-3,-7,13.3
2661,1,3,10,4,3,6,5,3,13.305
2662,5,7,13,3,-2,7,2,1,13.31
2663,-1,-4,-13,-3,-2,-7,-4,-2,13.315
2664,1,4,-17,0,0,-4,-6,-2,13.32
2665,0,4,41,7,1,-5,-3,-1,13.325000000000001
2666,0,-1,-1,-5,-1,-7,-3,3,13.33
2667,-2,0,-1,-5,0,4,1,-3,13.335
2668,4,-5,-7,-2,-2,-3,-4,2,13.34
2669,-1,2,8,3,-1,0,-1,-1,13.345
2670,-1,-2,-6,2,2,0,0,1,13.35
2671,-3,-6,1,-1,-3,-6,-1,0,13.355
2672,0,-2,3,-3,-3,-2,-1,0,13.36
2673,-2,-4,-5,-2,-3,-1,-2,-1,13.365
2674,-2,-3,-7,-2,-4,-4,-5,-3,13.370000000000001
2675,-2,3,-4,1,-1,-7,2,-3,13.375
2676,9,3,3,2,2,7,5,6,13.38
2677,-3,-2,2,-2,1,2,1,-4,13.385
2678,2,1,-16,0,2,9,-2,-1,13.39
2679,-1,1,3,-3,-3,-7,-3,0,13.395
2680,-4,0,21,-1,-2,-3,-3,-20,13.4
2681,0,1,-13,-4,-1,-3,2,22,13.405000000000001
2682,1,1,-6,-2,2,-2,-1,-2,13.41
2683,1,4,-3,0,0,2,-2,0,13.415000000000001
2684,-2,-8,-10,-6,-2,0,2,1,13.42
2685,-1,2,16,1,1,2,-5,-6,13.425
2686,-2,-2,6,1,-5,-10,-4,-2,13.43
2687,0,0,0,1,2,3,1,1,13.435
2688,-1,3,-14,-4,-1,-1,-3,7,13.44
2689,-4,-8,-2,-3,-4,3,3,-7,13.445
2690,1,-2,-15,1,2,1,3,2,13.450000000000001
2691,0,-10,5,-2,-3,-6,-4,-2,13.455
2692,0,5,1,1,1,1,-3,2,13.46
2693,-9,-7,-2,-2,-1,7,-7,-7,13.465
2694,0,-2,-6,-2,-1,2,4,-1,13.47
2695,-1,3,27,5,2,10,3,-1,13.475
2696,-1,0,-36,-9,-1,-5,-1,1,13.48
2697,-1,-4,2,1,-3,-10,-6,-2,13.485
2698,-1,1,-1,-3,-2,-2,0,-2,13.49
2699,-2,-3,-12,-5,-3,-6,-6,0,13.495000000000001
2700,1,4,22,6,3,6,4,1,13.5
2701,5,3,-18,-1,1,2,1,2,13.505
2702,-3,-4,-3,-3,-3,-3,1,-2,13.51
2703,-1,-4,0,-1,-2,-2,0,-4,13.515
2704,2,-4,1,0,1,1,3,4,13.52
2705,-1,0,-13,-3,-1,-5,-4,-2,13.525
2706,2,10,24,5,0,-8,-1,-16,13.530000000000001
2707,0,3,-5,2,0,9,3,20,13.535
2708,-4,-8,1,0,-6,-13,-7,-5,13.540000000000001
2709,1,3,1,0,3,14,6,-2,13.545
2710,2,-1,-4,-3,0,-2,1,1,13.55
2711,1,1,11,-1,1,1,-2,-4,13.555
2712,-3,1,-1,-3,0,5,2,-2,13.56
2713,3,-3,-6,1,-2,-13,-3,1,13.565
2714,-3,-2,11,2,1,0,0,1,13.57
2715,-1,-1,-13,-7,-3,-6,-1,-3,13.575000000000001
2716,-2,-8,-11,0,-1,7,-2,3,13.58
2717,-3,-2,13,1,-2,-3,-2,-5,13.585
2718,0,1,2,-2,-1,4,-5,2,13.59
2719,-1,-3,-6,0,-2,-8,-5,-2,13.595
2720,0,3,0,2,-1,2,0,-4,13.6
2721,-4,5,-2,-5,-2,-1,3,1,13.605
2722,0,2,7,1,-2,-5,0,2,13.61
2723,2,2,-14,-2,0,7,0,1,13.615
2724,-3,1,2,-1,0,2,5,-2,13.620000000000001
2725,-1,0,2,2,1,0,-1,-2,13.625
2726,0,-4,-3,-3,-1,0,0,5,13.63
2727,1,5,23,6,0,-5,-3,-4,13.635
2728,2,-3,-52,-11,1,4,-1,-1,13.64
2729,1,-9,13,-2,-4,-13,-1,0,13.645
2730,1,1,1,1,1,13,7,3,13.65
2731,-1,-3,2,0,-2,-5,-1,-3,13.655000000000001
2732,5,5,15,4,2,3,-1,1,13.66
2733,2,2,-14,-3,0,-3,0,-1,13.665000000000001
2734,-4,-5,-15,-2,-1,0,-5,-10,13.67
2735,-2,-2,18,1,-1,-6,-4,13,13.675
2736,1,-2,-18,-4,1,-4,2,-1,13.68
2737,2,2,4,0,-2,-2,-3,-1,13.685
2738,-3,1,5,2,1,-2,2,0,13.69
2739,1,-2,-11,-4,-3,-5,-4,-5,13.695
2740,-1,3,26,1,-2,2,4,-1,13.700000000000001
2741,-10,-10,-22,-5,-3,-5,-5,-5,13.705
2742,2,5,9,3,-1,-1,-2,0,13.71
2743,-2,-6,-23,-5,1,5,5,-4,13.715
2744,-2,2,8,0,-1,2,-1,3,13.72
2745,0,3,16,4,1,-2,1,-4,13.725
2746,-2,-10,-19,-2,-1,4,0,3,13.73
2747,-2,-5,2,-5,-5,-9,-4,-4,13.735
2748,-2,-4,5,2,1,7,3,-2,13.74
2749,0,1,-4,0,0,1,-2,0,13.745000000000001
2750,-2,-4,-6,3,-1,-7,-3,1,13.75
2751,2,5,8,0,0,10,3,-2,13.755
2752,-9,-11,-10,-2,-6,-14,-11,0,13.76
2753,4,3,5,1,0,2,3,3,13.765
2754,0,0,10,-3,-1,-6,-2,2,13.77
2755,0,3,-1,3,5,12,5,-4,13.775
2756,-3,-4,-4,0,-3,-11,-5,-4,13.780000000000001
2757,2,5,-14,0,1,3,2,0,13.785
2758,2,-7,-11,-7,-2,-1,-1,2,13.790000000000001
2759,-1,3,5,0,0,-2,0,-2,13.795
2760,1,-3,-3,-1,0,-2,1,-1,13.8
2761,-2,0,20,7,0,-2,-2,2,13.805
2762,-2,-4,14,1,-2,-5,-1,-2,13.81
2763,-4,-7,-14,0,0,8,-1,-1,13.815
2764,1,3,4,1,0,6,1,-2,13.82
2765,0,-4,-13,-8,-4,-4,-2,1,13.825000000000001
2766,-1,3,1,-1,1,0,-3,-3,13.83
2767,-7,-2,-9,2,-2,-7,-4,-5,13.835
2768,6,7,36,1,1,3,2,1,13.84
2769,-1,-2,-27,-1,0,1,0,-1,13.845
2770,0,0,-6,-8,-3,-9,-4,0,13.85
2771,-4,-4,12,2,-1,3,5,-3,13.855
2772,-2,2,-8,-2,1,-1,0,-2,13.86
2773,0,4,15,1,0,2,-2,-2,13.865
2774,0,0,-18,2,0,3,-1,0,13.870000000000001
2775,6,7,16,-2,-1,-8,-3,3,13.875
2776,-6,-1,-5,-1,-1,2,-2,-6,13.88
2777,1,0,5,-2,-2,-4,1,1,13.885
2778,-4,-1,-1,-2,-2,1,-2,0,13.89
2779,0,-3,-14,-3,1,-5,-3,-1,13.895
2780,-1,-1,-8,-1,-3,-5,-2,1,13.9
2781,-1,-1,0,0,1,9,-4,-2,13.905000000000001
2782,-1,1,7,4,2,1,1,-2,13.91
2783,-3,-2,-8,-7,-2,1,-2,-4,13.915000000000001
2784,7,0,13,1,0,-3,-2,2,13.92
2785,-2,-6,-12,-2,-1,-8,-2,-2,13.925
2786,-1,0,21,3,-2,1,3,1,13.93
2787,-1,-5,-28,-8,-2,-1,0,0,13.935
2788,-3,1,-7,-1,0,-10,-4,-1,13.94
2789,0,13,40,5,-1,15,-3,1,13.945
2790,-2,-2,1,-3,-2,2,4,-3,13.950000000000001
2791,-2,-5,5,3,2,1,-2,0,13.955
2792,5,-2,-29,-5,-3,-2,1,3,13.96
2793,-3,-3,-1,-1,0,-3,1,0,13.965
2794,0,3,-7,-2,1,-5,-9,-1,13.97
2795,-1,-3,4,1,-1,1,3,-1,13.975
2796,-2,-2,-1,3,-2,-4,1,0,13.98
2797,-4,-4,-8,-8,-6,-8,-4,-10,13.985
2798,-2,-6,-12,-4,0,3,-2,8,13.99
2799,-3,-3,3,0,0,-3,-1,0,13.995000000000001
2800,-1,1,12,4,3,2,1,-2,14.0
2801,-4,-11,-11,-1,-3,-12,-4,-3,14.005
2802,-1,0,-11,-3,-1,-5,0,-4,14.01
2803,5,6,14,4,1,9,3,2,14.015
2804,-4,-5,3,-2,-3,-7,-4,-1,14.02
2805,-1,2,3,-2,1,8,5,1,14.025
2806,1,0,7,2,1,4,3,0,14.030000000000001
2807,-2,-1,-13,-2,-3,-12,-6,-1,14.035
2808,1,-2,-11,-4,-1,5,0,0,14.040000000000001
2809,1,2,-5,-2,-3,-4,3,1,14.045
2810,-2,-5,-4,-4,0,1,-2,-2,14.05
2811,5,12,-1,5,0,-3,-2,2,14.055
2812,-6,-7,20,-1,-2,-1,3,-2,14.06
2813,3,-1,7,5,1,-6,-6,2,14.065
2814,0,1,-5,2,1,7,3,-1,14.07
2815,-5,-6,-13,-2,-1,2,-3,-8,14.075000000000001
2816,1,3,0,-1,-1,-2,-2,7,14.08
2817,-1,2,9,0,-1,0,-1,-2,14.085
2818,-1,-2,-4,3,-1,-2,-1,-3,14.09
2819,1,-1,3,-3,-2,-7,-3,1,14.095
2820,-2,-5,-9,-4,-1,14,1,-4,14.1
2821,-4,-5,-4,-4,-5,-13,-2,-4,14.105
2822,-2,-1,9,1,-4,0,-1,1,14.11
2823,-2,0,5,0,-1,4,-1,0,14.115
2824,-4,-5,-8,-1,-1,-7,-7,-4,14.120000000000001
2825,-1,-1,-9,-2,1,3,0,1,14.125
2826,5,-1,-2,-1,-2,-1,3,1,14.13
2827,-7,11,-3,-4,-2,-1,3,-3,14.135
2828,-1,-7,8,2,-1,3,-1,-1,14.14
2829,2,-1,-5,1,-1,-3,0,1,14.145
2830,0,1,6,1,2,8,-1,-1,14.15
2831,-1,-6,-15,-4,-2,-3,-1,-5,14.155000000000001
2832,4,10,-3,3,0,-1,0,5,14.16
2833,1,-1,-2,-1,0,-3,-3,1,14.165000000000001
2834,-2,-4,-1,2,-1,-1,-1,-2,14.17
2835,0,-4,2,-7,1,7,0,0,14.175
2836,-5,-2,-8,0,0,-6,-2,-2,14.18
2837,2,0,5,0,1,11,2,1,14.185
2838,0,2,-4,-1,-1,-10,-5,-3,14.19
2839,2,1,20,8,2,9,3,2,14.195
2840,-2,-2,-20,-10,-2,-10,0,-1,14.200000000000001
2841,1,7,7,4,0,4,2,1,14.205
2842,1,-3,-12,-4,-4,-5,-4,-1,14.21
2843,-1,-3,18,2,-4,-5,-3,0,14.215
2844,2,10,4,2,1,2,-4,-5,14.22
2845,3,-2,-1,1,2,4,10,3,14.225
2846,2,1,0,-2,-3,-7,-1,0,14.23
2847,0,-4,-9,-1,1,9,0,2,14.235
2848,-1,2,-8,-3,1,3,1,-5,14.24
2849,-1,-6,27,6,2,0,-4,1,14.245000000000001
2850,-2,0,-33,-10,-1,0,0,0,14.25
2851,0,0,6,2,0,-10,-3,0,14.255
2852,-1,-1,-2,2,-1,11,2,0,14.26
2853,-5,-6,-11,-4,-2,-7,-5,-4,14.265
2854,0,1,12,3,-1,6,-3,2,14.27
2855,0,0,-6,-2,0,-1,2,1,14.275
2856,-2,-4,-12,-4,-2,-4,-2,-1,14.280000000000001
2857,-1,1,0,-1,-2,-8,-1,0,14.285
2858,2,-3,7,0,-3,-2,1,-1,14.290000000000001
2859,-9,0,-6,-3,-3,-7,-2,-6,14.295
2860,-1,-3,6,6,1,8,2,-6,14.3
2861,2,-6,-25,-4,-3,-7,-6,7,14.305
2862,-6,-3,8,-1,2,3,6,1,14.31
2863,4,-1,-5,0,-2,0,0,2,14.315
2864,0,6,7,0,-1,-5,-1,1,14.32
2865,-5,-1,-5,2,0,-3,-5,-6,14.325000000000001
2866,0,3,-1,-6,-1,2,0,-1,14.33
2867,1,-4,-3,1,0,0,-1,3,14.335
2868,-4,-2,-1,2,-2,-3,-2,1,14.34
2869,-2,2,17,4,-3,-2,-1,-4,14.345
2870,1,-4,-5,-4,1,2,0,3,14.35
2871,1,0,-3,-2,0,-1,3,1,14.355
2872,1,-1,0,-1,1,0,0,2,14.36
2873,-3,-2,-3,-3,-3,-5,1,-4,14.365
2874,3,5,1,4,-1,-5,-1,-2,14.370000000000001
2875,-10,-3,-2,-2,-2,-8,0,-1,14.375
2876,1,-2,-5,1,0,3,-1,0,14.38
2877,-2,2,20,3,1,7,0,0,14.385
2878,4,4,9,1,0,0,1,3,14.39
2879,2,0,-13,0,0,1,-3,0,14.395
2880,-1,-4,-5,-4,-4,-8,-5,-1,14.4
2881,0,3,-12,-3,-2,-8,4,-1,14.405000000000001
2882,-5,-2,-2,2,2,20,1,-3,14.41
2883,0,-3,2,1,0,-5,-6,0,14.415000000000001
2884,-1,-1,15,0,0,0,4,0,14.42
2885,-1,0,-12,-3,0,1,-2,-3,14.425
2886,-4,-5,13,2,-1,-9,-4,-2,14.43
2887,2,0,-6,0,-3,-2,-3,-2,14.435
2888,0,-3,1,-2,0,3,0,1,14.44
2889,0,0,-14,-3,-2,3,-1,-1,14.445
2890,0,3,-2,1,-2,-5,-1,-7,14.450000000000001
2891,-3,3,8,0,-3,-9,-4,-1,14.455
2892,1,-7,-7,-4,-2,4,2,4,14.46
2893,1,1,0,-4,3,3,0,-2,14.465
2894,-2,-3,-7,0,-1,-10,0,-1,14.47
2895,-1,-2,7,3,3,6,1,-2,14.475
2896,1,7,18,4,-1,-3,-1,-2,14.48
2897,1,-5,-9,-4,-1,-1,2,0,14.485
2898,0,-6,-11,-6,-2,-5,-2,0,14.49
2899,-1,-5,-3,-1,1,7,1,-2,14.495000000000001
2900,-3,-1,-8,-1,-1,-1,-1,-2,14.5
2901,-1,-1,3,1,-2,0,-4,-1,14.505
2902,-2,-2,-16,-4,-3,-11,-1,-3,14.51
2903,1,-1,16,-1,-2,-3,2,-1,14.515
2904,2,7,1,2,2,7,6,0,14.52
2905,-2,1,-7,-1,-1,-6,-1,-4,14.525
2906,-1,-3,5,-1,-5,6,-2,6,14.530000000000001
2907,1,-3,-5,3,2,1,-2,1,14.535
2908,2,-4,-6,-7,-5,-4,-5,0,14.540000000000001
2909,-2,5,-5,2,2,6,1,1,14.545
2910,-2,-3,15,5,0,-5,-4,-3,14.55
2911,0,1,-15,-8,-3,4,1,-1,14.555
2912,-1,-2,-1,1,2,-1,-4,0,14.56
2913,-1,-4,11,1,-3,-6,-3,-1,14.565
2914,-2,0,-5,0,0,7,0,-2,14.57
2915,-1,-4,-5,-2,0,-9,-2,1,14.575000000000001
2916,0,3,5,0,-2,-3,0,-3,14.58
2917,1,-3,-9,-3,0,6,3,2,14.585
2918,0,6,5,3,1,0,-1,-2,14.59
2919,-3,-9,11,3,-2,-7,3,-1,14.595
2920,-4,-2,-1,-2,-1,0,1,-6,14.6
2921,6,-4,3,1,0,4,-2,5,14.605
2922,0,4,6,0,-1,-3,-3,-1,14.61
2923,0,5,-11,-1,-2,1,-2,0,14.615
2924,-3,-8,-14,-6,-4,-8,-1,-1,14.620000000000001
2925,1,-3,-1,-2,-2,-8,-7,-1,14.625
2926,-3,-7,-3,-3,-1,4,0,-2,14.63
2927,1,4,4,2,0,-3,-3,-2,14.635
2928,-3,-5,4,4,1,0,0,-2,14.64
2929,5,5,-5,-5,-1,-7,0,2,14.645
2930,-3,-3,-1,-1,0,4,2,0,14.65
2931,-4,-1,5,1,0,-2,-2,-2,14.655000000000001
2932,2,1,-2,0,-2,0,-2,2,14.66
2933,-5,-6,-8,0,-1,-3,-1,-2,14.665000000000001
2934,-1,3,6,2,-3,-13,-5,-3,14.67
2935,0,0,16,3,1,13,7,1,14.675
2936,0,-1,-6,-8,0,-1,0,-7,14.68
2937,6,0,-3,2,0,2,1,4,14.685
2938,-2,-5,-11,-3,0,-2,1,-1,14.69
2939,1,2,0,-1,0,-3,-3,1,14.695
2940,3,6,6,5,0,-4,-3,0,14.700000000000001
2941,-1,6,8,-1,-2,-4,3,-2,14.705
2942,-5,-5,3,-2,2,20,6,-3,14.71
2943,0,-8,-17,-4,-1,-4,-6,0,14.715
2944,-2,-3,-3,-8,-2,3,3,0,14.72
2945,1,5,-1,3,2,-3,-1,1,14.725
2946,1,-2,4,-1,0,-7,-2,1,14.73
2947,1,7,25,3,2,4,-2,-2,14.735
2948,-3,-3,-5,1,-1,-3,-2,1,14.74
2949,-2,-3,3,1,0,4,-3,-2,14.745000000000001
2950,-1,-1,-14,-1,-1,-4,2,-7,14.75
2951,6,0,-12,-5,-1,-1,1,7,14.755
2952,0,0,3,2,-3,-6,-2,1,14.76
2953,-5,-2,2,0,-2,-5,-3,-5,14.765
2954,0,3,-13,-3,0,3,3,0,14.77
2955,-2,-2,0,0,-1,0,2,-1,14.775
2956,-1,-2,6,2,-1,-5,-2,2,14.780000000000001
2957,-6,-12,-28,-5,-1,12,2,-3,14.785
2958,2,3,11,1,-2,-5,-7,4,14.790000000000001
2959,-3,0,-15,0,0,0,2,-6,14.795
2960,1,1,4,-2,-1,-1,-4,2,14.8
2961,-3,1,13,2,-1,13,8,-1,14.805
2962,-3,1,28,4,-3,-10,-3,-2,14.81
2963,3,0,-30,-11,-1,1,0,3,14.815
2964,-1,-4,-1,-1,-1,-1,-2,-2,14.82
2965,-2,-4,-9,-3,-2,-7,-3,-2,14.825000000000001
2966,2,4,-2,0,0,1,-1,-3,14.83
2967,-3,2,17,2,-3,-4,-3,5,14.835
2968,-2,-1,-11,-5,-2,0,-4,-1,14.84
2969,-1,1,1,-2,-2,-5,-2,-1,14.845
2970,-1,-2,-1,-1,-2,0,1,0,14.85
2971,-5,-2,12,1,-4,-6,-2,-6,14.855
2972,-1,-2,-22,-2,-1,-3,-1,0,14.86
2973,-3,-2,14,-1,-1,-4,-3,0,14.865
2974,1,4,-7,-3,0,11,2,1,14.870000000000001
2975,0,-6,-12,0,-2,1,-2,-1,14.875
2976,-7,5,19,0,-1,3,2,-4,14.88
2977,-2,-6,-8,-3,-2,-7,-4,-5,14.885
2978,2,2,7,3,0,-7,1,1,14.89
2979,0,2,-6,-2,1,11,-1,0,14.895
2980,-1,-5,-16,-5,-3,3,5,2,14.9
2981,-1,1,-3,-1,-1,-1,-2,0,14.905000000000001
2982,-2,-3,-3,1,-1,-5,-5,-3,14.91
2983,-3,-6,-1,0,-2,-4,-2,3,14.915000000000001
2984,1,-1,2,3,0,-3,-4,-4,14.92
2985,0,2,0,-1,1,1,2,-1,14.925
2986,-1,-8,-2,-1,-1,-2,-3,0,14.93
2987,-1,-3,-17,-2,1,0,2,-3,14.935
2988,1,6,28,3,0,-2,-1,1,14.94
2989,-1,-5,-9,-4,-3,-3,-3,-1,14.945
2990,2,-1,-8,-2,0,-9,-2,1,14.950000000000001
2991,3,-1,-4,1,0,7,0,-1,14.955
2992,-5,-5,-10,-1,1,0,2,-4,14.96
2993,1,7,20,4,2,-2,-1,-1,14.965
2994,-4,1,0,-2,-1,3,2,1,14.97
2995,-1,-5,5,-2,-4,-15,-10,-3,14.975
2996,2,-6,-17,-4,-1,12,4,3,14.98
2997,-5,-1,-10,-3,1,-2,1,-6,14.985
2998,5,-7,-2,0,0,4,3,4,14.99
2999,0,4,12,0,0,-7,1,-2,14.995000000000001
3000,0,3,4,1,1,0,-4,0,15.0
3001,-2,-2,9,4,-2,-1,-2,-2,15.005
3002,-1,-6,-30,-17,-5,-3,-4,-1,15.01
3003,-2,-2,6,4,0,2,3,-2,15.015
3004,-2,0,0,-1,-2,-3,-1,0,15.02
3005,2,1,-2,-1,-1,3,-1,2,15.025
3006,-1,3,8,4,1,2,1,-1,15.030000000000001
3007,0,-1,1,-2,-2,-2,-2,1,15.035
3008,-5,-7,1,0,-2,-2,2,-3,15.040000000000001
3009,2,0,-2,-2,-3,1,-1,2,15.045
3010,-4,-1,-5,-1,-1,-3,-3,-2,15.05
3011,-6,4,19,0,-1,-1,-5,-6,15.055
3012,5,0,-3,1,2,3,1,0,15.06
3013,-4,-10,-7,0,-3,-8,-3,4,15.065
3014,0,2,-1,-2,2,13,4,-2,15.07
3015,1,0,-10,-3,-3,-1,-5,0,15.075000000000001
3016,2,8,12,-1,1,-3,1,-1,15.08
3017,-2,-1,16,0,-2,-1,-3,-2,15.085
3018,-4,-7,-8,-4,-2,-6,-2,-3,15.09
3019,-2,-1,-11,1,-1,0,4,1,15.095
3020,0,0,11,5,0,-4,0,-3,15.1
3021,-1,-1,-24,-10,-1,-1,-1,-3,15.105
3022,1,3,10,4,0,1,-1,1,15.11
3023,-5,-9,-15,-4,0,-2,2,-1,15.115
3024,0,1,-1,-1,-1,-1,-3,2,15.120000000000001
3025,3,1,1,1,0,2,4,3,15.125
3026,-12,-6,1,1,-3,-8,-2,-7,15.13
3027,2,2,6,0,1,3,1,0,15.135
3028,1,-1,-6,-1,-3,-10,-3,-2,15.14
3029,-2,-3,-8,-3,1,18,6,4,15.145
3030,4,5,-4,0,-3,-5,-2,-2,15.15
3031,-2,1,12,0,-3,-10,-4,-1,15.155000000000001
3032,-3,-5,-15,1,-2,1,0,0,15.16
3033,1,6,32,5,1,5,-2,-4,15.165000000000001
3034,0,-5,3,-4,-2,-11,-1,2,15.17
3035,2,-4,-1,2,3,4,2,-1,15.175
3036,1,2,-6,-2,-1,-2,-3,1,15.18
3037,-1,1,-13,-3,-3,-5,-1,-2,15.185
3038,1,3,4,1,0,5,-2,0,15.19
3039,0,-2,-5,-3,1,-5,2,-1,15.195
3040,-1,-4,-1,-2,-2,-1,-3,-1,15.200000000000001
3041,-3,-3,-5,-3,-2,-2,1,-2,15.205
3042,3,2,-4,3,0,-2,-1,2,15.21
3043,-6,-3,-12,-11,-4,3,1,-5,15.215
3044,-3,-1,3,1,1,1,1,-7,15.22
3045,6,3,4,2,-1,-2,-2,4,15.225
3046,0,-1,-11,-1,0,-3,-1,0,15.23
3047,1,-3,13,2,1,4,0,1,15.235
3048,-3,-7,3,-2,0,1,4,-1,15.24
3049,-5,-4,1,-2,0,-8,-4,-2,15.245000000000001
3050,1,0,-1,-1,-1,-1,-2,-1,15.25
3051,-1,-1,-12,0,-3,-6,-3,0,15.255
3052,0,4,6,-4,-1,6,1,4,15.26
3053,1,-2,6,1,-1,-3,1,-1,15.265
3054,-3,-4,-1,0,0,2,3,0,15.27
3055,0,4,-1,2,1,-2,-3,-1,15.275
3056,1,2,-6,0,-2,-5,-1,0,15.280000000000001
3057,-2,0,6,-1,-3,5,2,-2,15.285
3058,-2,-5,-12,-3,-1,4,1,-3,15.290000000000001
3059,2,2,4,0,-1,0,2,2,15.295
3060,2,4,3,2,0,-4,-3,-2,15.3
3061,3,-2,-12,-5,0,-1,-2,-1,15.305
3062,0,-1,7,0,-1,6,-1,1,15.31
3063,1,4,1,-2,0,0,0,1,15.315
3064,-1,-5,5,3,-2,-6,-3,1,15.32
3065,-2,-2,-5,1,2,17,3,-1,15.325000000000001
3066,-3,-4,17,2,-4,-4,-3,-2,15.33
3067,0,-6,-24,-8,-2,-2,-1,0,15.335
3068,-1,-5,-23,-3,-1,-1,2,0,15.34
3069,0,3,15,-2,-2,-1,-2,-2,15.345
3070,3,4,4,3,1,-6,0,2,15.35
3071,-2,-1,3,2,-1,2,-5,-5,15.355
3072,-2,-1,-1,1,1,6,0,-2,15.36
3073,-3,-3,-13,-2,0,-7,-3,0,15.365
3074,-1,1,7,2,-1,1,-2,-1,15.370000000000001
3075,0,2,-11,-4,-2,-7,1,0,15.375
3076,-3,3,5,-4,-2,0,-6,-5,15.38
3077,6,1,1,0,-2,-4,2,10,15.385
3078,1,-9,-11,-1,1,-6,-1,2,15.39
3079,-8,-3,2,3,4,21,3,-5,15.395
3080,-1,-5,-1,0,2,3,0,0,15.4
3081,-1,5,-1,3,0,-5,-3,-3,15.405000000000001
3082,-1,-1,-6,-3,-3,-7,-3,-2,15.41
3083,0,-2,8,-1,-2,-4,-1,2,15.415000000000001
3084,-2,-3,15,2,-3,-1,-1,-1,15.42
3085,-3,1,-9,-6,0,1,-1,-2,15.425
3086,1,-3,-16,-3,-1,-1,-1,0,15.43
3087,1,2,15,2,-2,-8,-1,-1,15.435
3088,-2,2,-4,-6,-2,-8,-2,-1,15.44
3089,0,0,-4,2,1,0,2,-1,15.445
3090,-2,7,2,-2,-2,1,-3,-3,15.450000000000001
3091,-2,-5,4,-1,-2,-5,1,-1,15.455
3092,2,-3,-10,4,1,2,1,3,15.46
3093,-1,-2,-5,-4,-1,-2,-2,-2,15.465
3094,0,5,2,3,3,7,2,-1,15.47
3095,-2,-2,-9,0,-1,-7,-3,2,15.475
3096,1,-1,9,1,-1,-1,1,-3,15.48
3097,-4,-8,-12,-2,-1,-2,-2,-3,15.485000000000001
3098,-2,2,16,-2,-2,-1,-1,2,15.49
3099,0,2,-5,-1,-1,0,-2,-2,15.495000000000001
3100,-2,-2,-5,-2,1,-3,3,-2,15.5
3101,1,2,-2,0,1,7,-4,2,15.505
3102,-2,2,9,0,-1,-5,3,-1,15.51
3103,4,2,-1,4,2,1,1,1,15.515
3104,-3,-3,-9,-7,-3,-2,-5,-1,15.52
3105,-1,-1,-9,1,-2,-13,-4,-4,15.525
3106,-3,-3,1,-5,-3,-3,0,-3,15.530000000000001
3107,1,0,5,1,-2,2,-4,-1,15.535
3108,4,11,8,3,-1,0,0,1,15.540000000000001
3109,-5,-8,-5,-2,-1,0,0,-3,15.545
3110,0,0,-3,-1,2,5,-2,-7,15.55
3111,1,-2,-3,-3,-1,-2,3,8,15.555
3112,0,4,5,2,-1,-2,-6,-2,15.56
3113,5,4,3,-1,-2,2,4,2,15.565
3114,-3,-2,-14,-1,2,7,2,2,15.57
3115,-2,-3,6,0,-1,-3,-2,-3,15.575000000000001
3116,-4,-1,-3,-2,-5,-1,-3,-2,15.58
3117,0,1,4,0,2,-3,-3,-1,15.585
3118,1,2,-4,-8,-3,-1,0,4,15.59
3119,-3,0,-3,5,4,5,1,0,15.595
3120,6,-7,-9,9,2,1,3,3,15.6
3121,-5,-2,-2,0,-3,-5,1,0,15.605
3122,-5,-6,9,-3,-3,-6,-6,-5,15.610000000000001
3123,-4,1,15,-1,-2,-1,-2,-4,15.615
3124,-2,0,-5,-8,-5,-7,-4,-1,15.620000000000001
3125,-3,-1,2,0,1,6,2,-5,15.625
3126,3,1,-10,2,1,1,2,0,15.63
3127,-3,-5,-5,-4,-4,-3,-4,-6,15.635
3128,2,-3,5,-1,2,-3,2,3,15.64
3129,4,-3,-1,2,0,4,-5,3,15.645
3130,-8,2,0,-1,-1,-1,2,-2,15.65
3131,-1,-2,-6,-2,-3,-3,0,-4,15.655000000000001
3132,-4,-2,-7,-3,0,6,0,-2,15.66
3133,0,-2,-4,-4,-2,-5,0,0,15.665000000000001
3134,-1,-3,7,4,-3,-4,-4,-2,15.67
3135,-2,-1,-2,1,3,2,2,1,15.675
3136,-4,3,-5,-1,2,7,2,-1,15.68
3137,-4,-4,0,-2,-2,-1,-1,0,15.685
3138,1,-6,-4,1,-1,-2,-3,-2,15.69
3139,-2,-1,-7,0,-3,-2,2,0,15.695
3140,9,-1,-2,-5,1,-1,2,3,15.700000000000001
3141,2,5,7,3,0,-3,-1,-4,15.705
3142,-9,-4,0,2,0,0,1,0,15.71
3143,-2,-2,0,-1,-3,-3,-2,-2,15.715
3144,-4,-3,-2,1,0,-1,-1,-2,15.72
3145,2,1,0,0,-4,-9,2,0,15.725
3146,5,-2,-14,-3,-1,3,-8,1,15.73
3147,-1,-4,8,-1,2,6,8,-1,15.735000000000001
3148,-8,-2,3,-2,-4,-11,-8,4,15.74
3149,3,1,-10,-7,0,12,9,3,15.745000000000001
3150,-4,3,-7,-1,0,2,2,-1,15.75
3151,2,5,1,-3,0,-8,-6,1,15.755
3152,-1,4,8,3,1,2,3,-2,15.76
3153,-4,-4,-10,-1,-1,-6,-3,-3,15.765
3154,1,-2,6,-1,-1,-1,0,1,15.77
3155,0,-1,-5,-2,0,-1,1,-2,15.775
3156,-6,-7,-2,-2,-1,-4,-3,-2,15.780000000000001
3157,-4,-1,4,2,-2,-4,-6,-3,15.785
3158,2,-3,-6,-1,2,9,4,0,15.790000000000001
3159,2,2,-2,-1,-2,0,-8,-3,15.795
3160,2,4,3,-2,-1,-1,2,-1,15.8
3161,0,2,3,1,2,-2,-3,-1,15.805
3162,-4,-4,2,-3,-5,-5,-4,-4,15.81
3163,6,5,0,-4,1,-1,0,1,15.815
3164,4,6,1,10,5,9,6,5,15.82
3165,10,0,5,3,-7,2,-1,-3,15.825000000000001
3166,-11,-6,-3,2,3,-2,1,0,15.83
3167,18,3,-1,-5,-2,2,-1,-1,15.835
3168,-17,-6,-3,-7,-3,-4,-5,-5,15.84
3169,-7,-14,-2,-3,-2,-5,-3,-3,15.845
3170,4,9,9,-1,-1,-4,0,2,15.85
3171,-2,-6,-12,0,1,13,3,1,15.855
3172,7,2,-1,0,1,1,3,1,15.860000000000001
3173,-2,3,15,1,-1,-10,-5,-1,15.865
3174,-2,-7,-18,-5,0,12,4,0,15.870000000000001
3175,-9,-1,-6,-2,-1,-3,0,0,15.875
3176,8,1,7,0,-2,0,-3,-2,15.88
3177,-8,2,-9,-5,-2,3,10,1,15.885
3178,10,2,8,4,-1,-13,-14,6,15.89
3179,-5,-4,1,2,-1,7,10,-10,15.895
3180,-7,-8,-10,-10,-3,0,-7,0,15.9
3181,-1,2,1,0,0,-5,-6,5,15.905000000000001
3182,4,-2,-4,0,4,3,6,3,15.91
3183,-15,-4,4,-9,-4,-4,14,-3,15.915000000000001
3184,-14,-8,-16,2,-6,-6,-12,-6,15.92
3185,1,-1,4,6,5,-7,-2,-3,15.925
3186,0,1,1,0,-2,10,-10,-7,15.93
3187,-6,0,3,2,-1,-11,-13,5,15.935
3188,4,-4,-3,-10,-4,-1,6,5,15.94
3189,-6,1,-3,-1,-1,4,4,-1,15.945
3190,7,1,2,2,-2,-5,2,-3,15.950000000000001
3191,-5,0,-3,-10,-3,-4,-13,-3,15.955
3192,-1,5,4,5,4,5,2,-3,15.96
3193,-1,3,9,-2,-2,-3,-8,-1,15.965
3194,24,7,7,13,12,3,15,3,15.97
3195,-6,-2,-8,1,-5,4,3,3,15.975
3196,-5,-2,0,-7,-2,-2,2,1,15.98
3197,-9,-5,-3,6,2,3,-4,-2,15.985000000000001
3198,-1,-3,-1,-11,-10,-4,1,-3,15.99
3199,0,1,-2,4,1,-9,-11,-4,15.995000000000001
3200,1,2,4,2,1,1,-1,0,16.0
3201,18,0,-5,-12,-7,10,12,2,16.005
3202,-28,-4,1,11,2,-5,2,-2,16.01
3203,9,0,-2,-13,-2,0,2,-1,16.015
3204,1,0,7,15,3,-2,-12,1,16.02
3205,29,3,2,-1,4,0,-3,4,16.025
3206,-2,-1,-13,-7,-2,-2,-6,-2,16.03
3207,-46,-5,1,-7,-4,0,19,-9,16.035
3208,3,-6,-14,-23,-8,3,18,-2,16.04
3209,16,0,3,20,8,-10,-46,-4,16.045
3210,-5,9,0,10,-1,-7,-7,3,16.05
3211,-5,-14,3,11,8,-3,-11,-7,16.055
3212,-33,-7,5,-5,-7,2,18,-7,16.06
3213,6,-11,-20,-7,-8,1,8,8,16.065
3214,4,0,13,-3,1,0,1,-1,16.07
3215,-4,-4,-10,-2,0,-3,-1,4,16.075
3216,29,9,6,13,7,2,-7,3,16.080000000000002
3217,11,7,3,-50,-13,0,8,-2,16.085
3218,-55,-14,8,52,6,-1,12,-8,16.09
3219,25,8,-3,1,6,0,-17,4,16.095
3220,12,-8,-1,-27,-9,-4,-5,-5,16.1
3221,-16,11,13,53,18,6,14,2,16.105
3222,31,-1,-2,-51,-12,0,-9,-1,16.11
3223,-30,0,11,21,-16,-5,8,-2,16.115000000000002
3224,86,23,-8,28,23,0,-2,19,16.12
3225,-66,-3,0,-25,-4,2,-12,-2,16.125
3226,-3,-21,-2,6,-6,-8,1,-16,16.13
3227,2,12,8,15,2,4,11,8,16.135
3228,96,-11,-32,-25,-6,5,-11,-2,16.14
3229,-91,-13,0,-41,-20,-5,-5,-12,16.145
3230,73,-2,4,11,4,4,63,24,16.15
3231,44,-2,-36,-51,-31,-18,-61,-3,16.155
3232,-6,3,24,103,41,3,15,18,16.16
3233,16,-3,1,-44,-26,-8,-10,-32,16.165
3234,-19,5,-15,40,43,20,5,2,16.17
3235,26,11,28,33,9,6,11,14,16.175
3236,-80,9,28,-30,-12,-4,5,-9,16.18
3237,22,-11,-28,9,-10,4,16,4,16.185
3238,-24,-14,-15,-22,-6,-6,-14,-10,16.19
3239,-17,7,5,-41,3,2,13,2,16.195
3240,39,-19,-22,20,1,-5,-33,-6,16.2
3241,-9,16,27,-7,1,-7,-6,-5,16.205000000000002
3242,-19,5,13,16,-11,-2,-6,-15,16.21
3243,12,8,-29,17,22,9,2,25,16.215
3244,44,-44,-1,-21,-23,-13,10,-11,16.22
3245,-64,-10,-3,-77,-16,-7,10,-23,16.225
3246,-14,15,10,70,20,7,-29,11,16.23
3247,-2,-7,1,-18,-10,-4,15,-16,16.235
3248,-55,5,-13,-26,-11,4,-2,7,16.240000000000002
3249,12,-10,-13,10,16,17,15,8,16.245
3250,43,18,19,21,1,-9,-36,6,16.25
3251,-37,10,-9,-38,-5,4,56,1,16.255
3252,16,24,19,24,-5,-3,-31,1,16.26
3253,-20,-7,6,31,3,-8,25,18,16.265
3254,-105,-14,-1,-63,-34,-9,-51,-37,16.27
3255,72,12,25,9,14,-3,-4,12,16.275
3256,-105,-27,-21,-59,-32,-9,2,-33,16.28
3257,86,1,-45,102,51,20,18,27,16.285
3258,-6,-8,0,-57,-22,0,17,10,16.29
3259,-11,-14,10,-1,-3,-5,-22,-15,16.295
3260,-26,25,7,-37,-8,0,21,4,16.3
3261,4,16,39,33,2,6,-16,-6,16.305
3262,61,36,24,-27,-11,-4,29,39,16.31
3263,-5,-12,3,-18,-10,-11,-21,-20,16.315
3264,40,23,-32,47,28,10,31,17,16.32
3265,-43,-34,-7,-15,-13,-17,-58,-22,16.325
3266,121,21,-19,-2,17,9,5,5,16.330000000000002
3267,-54,-13,9,67,5,14,36,-9,16.335
3268,-54,-25,3,-1,-3,-4,-28,-6,16.34
3269,18,-7,7,-80,-38,-1,54,-11,16.345
3270,32,-26,-33,89,51,1,-5,32,16.35
3271,-11,-8,-34,-26,1,-7,-47,-9,16.355
3272,51,40,43,35,11,2,8,-4,16.36
3273,-9,3,-1,-39,-11,-7,-15,6,16.365000000000002
3274,-51,-5,10,-20,-13,-3,-10,-21,16.37
3275,14,30,25,12,3,6,21,-7,16.375
3276,-20,-19,-11,-62,-8,9,30,23,16.38
3277,-60,-9,2,83,25,-4,-31,-10,16.385
3278,44,0,-15,-100,-32,-11,-4,-9,16.39
3279,91,28,5,6,0,-4,-11,28,16.395
3280,25,-16,-13,95,42,14,13,5,16.4
3281,-31,0,17,-41,-32,-11,8,-10,16.405
3282,-60,-13,-43,21,16,4,4,-17,16.41
3283,33,26,37,-128,-36,-5,-11,7,16.415
3284,1,3,-11,54,37,5,-20,5,16.42
3285,15,-7,17,-13,8,18,53,26,16.425
3286,-10,9,3,-49,0,-2,-34,-13,16.43
3287,-58,-16,17,-20,4,-8,-10,-18,16.435
3288,-62,-13,-39,0,-22,-3,20,-2,16.44
3289,101,10,-4,35,6,-9,-53,2,16.445
3290,-69,-2,9,10,-13,8,45,-11,16.45
3291,64,-8,-27,13,3,2,14,33,16.455000000000002
3292,-89,6,21,-50,-19,-7,-19,-42,16.46
3293,-18,10,-7,33,23,4,16,-1,16.465
3294,107,49,21,-44,-19,3,25,10,16.47
3295,-31,-88,-44,69,21,-3,-62,5,16.475
3296,82,43,21,-10,-16,-9,0,10,16.48
3297,-63,-23,0,-98,-30,-7,7,3,16.485
3298,50,32,2,70,41,-6,-61,-23,16.490000000000002
3299,-105,16,39,-16,17,41,65,8,16.495
3300,80,-32,-64,-56,-14,-21,-20,12,16.5
3301,-39,16,-9,27,17,-1,-30,-11,16.505
3302,-26,-65,-31,-11,-24,-1,31,1,16.51
3303,-2,-16,-19,53,11,8,23,-3,16.515
3304,-12,40,44,-73,-24,-19,-52,-8,16.52
3305,15,-6,23,66,16,12,13,-3,16.525
3306,-97,-46,-21,-26,-18,-15,-21,-20,16.53
3307,79,17,-12,-13,-16,-13,13,9,16.535
3308,-51,3,9,1,18,24,80,-19,16.54
3309,89,6,31,-13,-6,1,-59,23,16.545
3310,-51,1,-13,-3,23,-3,-19,1,16.55
3311,31,-21,-33,-23,-14,0,-1,-2,16.555
3312,27,19,20,24,3,-4,14,14,16.56
3313,62,25,-36,-45,3,13,64,11,16.565
3314,-60,-62,-9,30,12,13,-34,-14,16.57
3315,-62,12,20,-53,-20,-17,-19,-28,16.575
3316,-48,-30,41,64,12,2,-25,-32,16.580000000000002
3317,67,37,10,50,25,-6,23,30,16.585
3318,20,37,32,3,-19,5,71,18,16.59
3319,49,-15,15,87,38,-10,-72,12,16.595
3320,-15,21,27,-37,-12,-12,-37,-25,16.6
3321,-14,-1,-70,9,3,11,32,15,16.605
3322,45,-43,7,-69,-38,-20,-10,-35,16.61
3323,-63,-11,-8,-34,-7,4,1,2,16.615000000000002
3324,40,-6,-16,-5,-9,-8,-7,12,16.62
3325,-34,-18,-4,-21,-9,-1,-2,-26,16.625
3326,-6,52,7,-13,-5,5,42,14,16.63
3327,0,-25,-2,1,-11,-20,-73,-5,16.635
3328,-36,24,26,-126,-8,22,-21,-3,16.64
3329,18,-22,-29,94,18,5,43,13,16.645
3330,94,22,3,-33,14,3,5,34,16.65
3331,-57,20,8,92,18,-2,-16,-29,16.655
3332,86,25,-5,-18,4,-4,5,35,16.66
3333,-71,-76,-44,-94,-30,-27,-60,-38,16.665
3334,-41,-13,-3,9,5,16,18,-3,16.67
3335,40,7,-9,-30,-9,-2,22,-22,16.675
3336,-13,10,-3,-57,-22,-1,-15,-7,16.68
3337,-8,32,28,47,17,-10,-11,-7,16.685
3338,76,72,44,118,15,11,49,64,16.69
3339,55,36,-16,-40,-2,0,12,29,16.695
3340,20,-78,-61,20,8,4,22,29,16.7
3341,-33,-11,-14,-22,-27,-15,-55,-50,16.705000000000002
3342,-10,6,19,-4,11,1,-12,-7,16.71
3343,-1,39,41,2,-5,3,17,-4,16.715
3344,-18,6,-6,13,10,-2,0,-3,16.72
3345,65,12,37,-53,-8,20,31,32,16.725
3346,-12,2,-13,53,21,-3,-32,3,16.73
3347,5,4,-4,-27,-10,-9,11,14,16.735
3348,-17,-72,-81,18,-9,-17,-4,-13,16.740000000000002
3349,-66,16,22,16,9,3,-18,-25,16.745
3350,26,-1,26,-31,-18,9,9,13,16.75
3351,-34,-11,0,-32,-2,-2,1,-30,16.755
3352,14,48,50,48,13,0,27,-3,16.76
3353,42,-22,-25,-6,-8,3,-12,37,16.765
3354,14,18,-9,-18,4,9,-1,-2,16.77
3355,-1,-55,-54,-14,-14,-6,20,-19,16.775
3356,-25,4,19,9,-2,8,27,-8,16.78
3357,9,3,26,6,-15,-23,-24,8,16.785
3358,-33,-31,-34,0,5,-5,-19,-15,16.79
3359,9,17,17,-5,5,6,15,9,16.795
3360,-19,16,32,45,11,8,9,-8,16.8
3361,68,45,-29,-19,4,2,-5,12,16.805
3362,-42,-78,-34,-70,-25,-15,-24,-12,16.81
3363,-36,21,45,42,13,15,22,-17,16.815
3364,-15,-37,-30,-45,-15,1,23,11,16.82
3365,69,42,25,8,5,-14,-24,15,16.825
3366,-19,1,1,-34,-9,4,-17,-29,16.830000000000002
3367,-66,-25,-21,-18,-34,-9,-20,-26,16.835
3368,63,27,52,45,45,32,74,38,16.84
3369,14,-26,-35,-4,-12,-35,-45,11,16.845
3370,-22,-20,-28,9,2,-24,-12,-12,16.85
3371,3,-22,-18,-57,-12,7,13,-1,16.855
3372,-44,-19,-1,-32,-14,2,-22,-27,16.86
3373,8,9,13,20,7,11,-3,-19,16.865000000000002
3374,3,8,5,-29,-9,-7,-7,7,16.87
3375,3,3,9,34,13,0,11,12,16.875
3376,-12,4,4,4,-7,-10,-35,-17,16.88
3377,-17,25,45,16,13,9,29,3,16.885
3378,-2,2,-31,-9,-11,-8,0,-4,16.89
3379,-9,-6,7,7,10,-4,-11,8,16.895
3380,16,-9,-38,25,-1,-7,-22,8,16.9
3381,-37,-20,-11,-37,-7,23,26,4,16.905
3382,-7,5,27,7,1,3,2,5,16.91
3383,8,14,3,18,8,2,2,-9,16.915
3384,-5,-8,-5,-110,-36,-5,-21,-2,16.92
3385,11,4,9,90,56,5,29,14,16.925
3386,46,12,2,1,-1,-9,0,4,16.93
3387,7,3,10,24,9,-4,-7,8,16.935
3388,0,-6,3,-13,-10,-16,-10,-6,16.94
3389,-34,-23,-32,-57,-18,6,8,-16,16.945
3390,-4,11,18,12,5,6,5,-1,16.95
3391,13,-9,-11,2,1,-9,-14,-22,16.955000000000002
3392,-10,10,7,5,-10,-13,-17,23,16.96
3393,5,4,11,-3,-4,-12,-3,-41,16.965
3394,-16,-29,-30,10,4,28,14,47,16.97
3395,43,7,2,-11,1,13,26,46,16.975
3396,-37,70,49,41,15,-18,-50,-90,16.98
3397,-41,-44,-36,-22,-19,17,33,25,16.985
3398,45,-33,8,-11,-3,9,-1,40,16.990000000000002
3399,-11,-9,1,-2,-1,6,16,-27,16.995
3400,1,-11,0,21,10,23,-4,24,17.0
3401,28,57,-26,-8,-2,-24,-15,14,17.005
3402,-61,-48,4,-16,-11,-20,-6,-59,17.01
3403,-1,-13,-12,-11,-2,-6,-9,24,17.015
3404,0,1,7,21,1,-17,-9,-18,17.02
3405,-26,4,25,-8,-6,-4,-11,-24,17.025
3406,3,30,8,7,2,-5,7,-2,17.03
3407,8,7,-1,8,2,2,1,8,17.035
3408,-12,-14,-20,-2,-3,-2,4,4,17.04
3409,-1,-7,11,-6,1,11,1,0,17.045
3410,8,8,-1,4,2,2,1,1,17.05
3411,-9,6,-6,-2,-1,-11,-9,-8,17.055
3412,10,-11,-21,-4,-2,1,11,14,17.06
3413,4,11,14,-2,-5,-15,-6,-5,17.065
3414,-7,-5,-4,2,1,4,2,-7,17.07
3415,-12,-3,-8,-11,-6,6,-3,0,17.075
3416,13,-9,-13,-2,1,0,16,19,17.080000000000002
3417,-1,25,48,8,5,16,-6,-15,17.085
3418,-5,10,10,3,0,-27,-17,10,17.09
3419,1,7,-27,-6,-1,-3,5,-8,17.095
3420,0,-34,-19,-8,1,25,8,17,17.1
3421,-16,12,23,8,1,-8,-9,-9,17.105
3422,-12,45,12,1,-3,2,0,-40,17.11
3423,20,15,33,12,5,5,-1,35,17.115000000000002
3424,5,-31,-32,1,0,-3,-1,-1,17.12
3425,-17,-53,-6,-18,-6,-5,0,-7,17.125
3426,2,-10,1,4,-1,5,-3,3,17.13
3427,-3,1,-10,6,3,-4,-2,-2,17.135
3428,-1,10,-26,-1,-1,-11,-3,-4,17.14
3429,1,16,25,-9,-1,3,0,4,17.145
3430,-3,-12,-4,0,-4,-3,-4,-5,17.150000000000002
3431,-1,17,-8,-5,-3,-3,0,14,17.155
3432,0,20,62,8,1,-5,-1,3,17.16
3433,-5,-27,-34,-2,1,-3,-2,5,17.165
3434,-2,13,-6,-2,3,0,2,-9,17.17
3435,-6,-20,-2,-5,-2,-5,-9,-11,17.175
3436,6,-1,-22,-5,-2,5,1,6,17.18
3437,-7,-9,5,5,-5,-13,0,-6,17.185
3438,11,6,-16,-2,1,12,5,0,17.19
3439,-8,-2,-2,-8,-1,5,1,-4,17.195
3440,8,47,-4,-1,5,3,3,3,17.2
3441,-16,-94,-47,-15,-10,-3,-5,-12,17.205000000000002
3442,-12,14,83,12,-4,-19,-10,2,17.21
3443,1,-20,-16,-4,-1,1,-3,-23,17.215
3444,-5,8,-1,0,2,8,1,7,17.22
3445,8,21,-14,2,1,4,0,7,17.225
3446,1,-7,-24,-3,-2,-6,1,4,17.23
3447,-1,1,3,0,0,2,-3,-7,17.235
3448,-8,-5,10,1,0,2,3,-9,17.240000000000002
3449,5,14,-8,1,1,10,7,7,17.245
3450,-1,-8,-14,-6,-3,-9,-3,1,17.25
3451,0,10,18,10,2,3,3,-2,17.255
3452,-3,-20,-15,-5,-3,-13,-8,-2,17.26
3453,2,1,11,5,3,12,6,6,17.265
