slno,emg1,emg2,emg3,emg4,emg5,emg6,emg7,emg8,Time
0,-1,-2,-1,-3,-1,-1,-1,0,0.0
1,0,-1,1,-2,-1,-1,-4,-1,0.005
2,0,-1,1,-3,-1,-2,-4,0,0.01
3,0,-1,0,0,-1,-1,-3,1,0.015
4,-1,1,-2,-2,0,2,-2,0,0.02
5,-2,0,-1,-2,0,2,1,-1,0.025
6,1,-2,-2,1,-4,-1,1,0,0.03
7,0,0,-1,0,-3,-1,0,-3,0.035
8,0,-1,-1,3,-1,-4,2,-1,0.04
9,-1,0,0,-1,-2,2,1,0,0.045
10,-3,-3,-2,0,0,1,-1,-1,0.05
11,0,-1,1,-3,2,0,-2,-1,0.055
12,-1,1,-1,-2,-2,-2,-4,-4,0.06
13,-1,1,-2,3,-2,-2,-4,0,0.065
14,-2,0,2,0,-1,0,-3,0,0.07
15,0,-3,1,-1,1,0,-1,0,0.075
16,-2,-1,-3,-3,-1,0,2,1,0.08
17,-2,-1,-2,-3,-1,-4,-1,-1,0.085
18,-2,1,-4,-1,1,0,0,-2,0.09
19,-1,-2,-1,2,-1,-1,0,-4,0.095
20,1,-1,2,0,0,-4,-1,-1,0.1
21,2,-1,-1,-1,-1,-1,0,-2,0.105
22,0,-1,0,-3,-1,0,-1,0,0.11
23,-1,-1,-3,-5,-1,1,-1,-1,0.115
24,-1,-2,0,1,0,-1,3,2,0.12
25,-1,-1,0,0,-1,0,-1,0,0.125
26,1,-2,-3,-2,-3,2,-1,-1,0.13
27,-3,-1,1,-1,-2,2,-3,0,0.135
28,0,-1,-1,-1,1,-1,-1,-1,0.14
29,0,-1,0,-2,2,-3,0,0,0.145
30,1,0,0,1,0,-1,0,0,0.15
31,-1,-3,-2,-1,0,0,1,-3,0.155
32,-2,0,0,-2,-3,0,-1,-2,0.16
33,-1,-1,-1,-2,-2,-1,-4,-2,0.165
34,0,-2,0,1,-1,-2,-1,-1,0.17
35,-1,1,-1,1,-1,-2,1,2,0.17500000000000002
36,0,2,-1,1,1,-3,-1,1,0.18
37,-1,0,-3,-2,0,-1,0,-1,0.185
38,0,0,-1,-4,-1,0,-2,-1,0.19
39,0,-2,0,-2,0,-2,-2,-1,0.195
40,-2,-2,-2,-1,-3,2,-4,-2,0.2
41,1,0,1,-1,0,0,1,0,0.20500000000000002
42,-1,-1,-1,0,0,-1,-1,1,0.21
43,-2,0,-1,-1,-1,0,1,-2,0.215
44,2,0,-1,0,-1,-3,-1,-2,0.22
45,-2,-1,-1,-2,-3,1,2,-1,0.225
46,-2,0,0,0,-2,0,1,0,0.23
47,1,-1,0,-1,-2,-1,-3,-2,0.23500000000000001
48,0,0,-1,-1,-1,2,-4,0,0.24
49,-1,-1,-2,-1,-4,-1,-2,-1,0.245
50,1,-1,-1,0,-1,-2,1,1,0.25
51,-1,-2,-1,1,-1,-2,0,-1,0.255
52,-2,-2,0,-3,1,-2,2,-2,0.26
53,-1,0,1,1,2,0,1,-1,0.265
54,-1,-1,-1,-2,1,0,0,-1,0.27
55,0,0,-1,-2,0,-2,0,1,0.275
56,1,0,0,2,-1,-2,0,2,0.28
57,1,-1,-2,0,-4,-3,-1,0,0.28500000000000003
58,-5,0,-2,-4,-3,-3,-3,-3,0.29
59,-1,0,-2,0,0,-1,-2,0,0.295
60,-2,-2,0,1,-1,0,-5,-1,0.3
61,0,-2,-2,2,-1,1,-4,-3,0.305
62,-2,0,-1,3,-1,-2,0,-1,0.31
63,-2,-2,-1,-1,-2,0,-1,-2,0.315
64,-1,-3,-1,-2,0,0,1,-2,0.32
65,1,-3,1,-1,0,-1,1,1,0.325
66,0,-3,0,-3,1,0,0,-1,0.33
67,-2,0,0,-2,-1,-2,1,0,0.335
68,-1,1,1,-2,1,-2,-2,1,0.34
69,0,0,-1,-1,-2,0,-3,-2,0.34500000000000003
70,0,0,-1,-2,1,1,-1,-1,0.35000000000000003
71,0,-1,-2,-2,-1,-1,1,0,0.355
72,-1,-2,-3,-1,-2,-2,1,-3,0.36
73,-1,-1,-1,0,0,0,-2,1,0.365
74,-3,0,1,2,-1,-1,0,1,0.37
75,0,-1,-2,-1,-3,1,-1,-1,0.375
76,-1,0,-2,-1,-2,2,-1,-1,0.38
77,-3,2,-1,-1,-2,-1,-1,0,0.385
78,2,1,1,1,-1,1,-3,-2,0.39
79,1,2,0,-2,1,0,-2,0,0.395
80,1,0,0,1,-1,-2,0,1,0.4
81,1,0,-1,-4,-3,-3,2,0,0.405
82,-1,-1,-1,-3,-1,-1,0,-3,0.41000000000000003
83,-2,-3,-1,-2,-2,-1,1,-2,0.41500000000000004
84,-2,-1,-2,0,-1,0,0,-1,0.42
85,-1,-3,0,-1,-1,-2,-2,0,0.425
86,1,-2,-2,-1,0,1,-1,1,0.43
87,2,0,0,4,1,-1,-3,0,0.435
88,-1,1,-2,2,0,0,-1,0,0.44
89,-1,1,0,-2,-1,1,-1,-4,0.445
90,-4,-3,-1,-3,0,-1,-3,-1,0.45
91,-3,-1,-1,-4,-1,-1,-1,-2,0.455
92,0,-1,1,-1,0,-2,1,-1,0.46
93,-1,1,-1,-1,0,2,-1,-1,0.465
94,0,-1,-1,1,-2,-1,-3,0,0.47000000000000003
95,-1,1,1,-1,-1,1,-2,0,0.47500000000000003
96,-3,-2,0,-1,-3,-2,1,1,0.48
97,3,-2,-2,-1,0,-1,0,0,0.485
98,1,-1,1,-1,-2,-1,2,-2,0.49
99,1,-1,-1,1,-1,-2,-2,0,0.495
100,-1,1,-1,-4,-3,1,0,-3,0.5
101,-3,1,1,1,0,1,0,-2,0.505
102,0,-1,-2,1,2,1,-2,0,0.51
103,0,-2,-2,-1,-1,-4,0,1,0.515
104,-2,1,-1,0,-1,-1,-1,-2,0.52
105,-3,-2,-4,0,1,-1,-4,-1,0.525
106,0,-3,-2,0,-1,-2,-1,-4,0.53
107,0,-3,0,1,1,2,-1,-3,0.535
108,1,0,-3,-3,-3,1,-1,1,0.54
109,-1,-2,1,0,-4,-2,2,-1,0.545
110,-1,1,-2,-2,0,1,-2,1,0.55
111,0,0,-1,0,1,-3,-2,-3,0.555
112,-1,-2,0,-1,1,-3,-3,-2,0.56
113,-2,-2,-1,-3,-1,2,0,1,0.5650000000000001
114,0,3,-1,-2,-1,-1,0,-1,0.5700000000000001
115,-1,1,1,2,-1,1,-1,-3,0.5750000000000001
116,-1,-2,-1,-1,-2,2,-1,-3,0.58
117,-3,-2,-1,0,0,-2,1,0,0.585
118,-2,-1,1,-3,-1,-2,0,-2,0.59
119,-2,-1,0,-1,-1,1,1,1,0.595
120,1,-1,1,0,1,-2,0,1,0.6
121,0,1,0,1,0,-1,-1,-1,0.605
122,0,1,1,-2,0,0,-4,0,0.61
123,0,-3,-1,0,-2,-2,-3,-1,0.615
124,0,-1,-1,-1,-1,-2,1,-2,0.62
125,2,2,-2,-1,0,0,3,-2,0.625
126,-2,0,-3,-2,2,0,3,-2,0.63
127,-2,-2,-2,-2,-2,1,0,-1,0.635
128,-1,-3,-3,-1,-1,0,-3,0,0.64
129,0,-1,0,-3,0,2,-4,-3,0.645
130,-1,0,0,-3,-3,2,-5,-1,0.65
131,1,2,0,-2,-2,-2,-2,0,0.655
132,0,-2,0,0,-3,0,2,-1,0.66
133,0,-1,-2,1,0,0,1,-1,0.665
134,-1,-1,0,2,0,-4,1,0,0.67
135,-1,-1,2,-1,1,-1,-1,-1,0.675
136,0,1,-2,-3,2,-1,0,0,0.68
137,1,-2,-2,-3,-1,-2,-3,-1,0.685
138,0,-1,-2,1,-3,-1,1,-1,0.6900000000000001
139,-3,-3,-3,1,-3,2,-1,1,0.6950000000000001
140,-2,-2,-2,0,-1,-1,-1,-1,0.7000000000000001
141,-4,0,-1,-2,-1,-2,-1,-2,0.705
142,2,-1,-3,-1,-1,-3,-1,-1,0.71
143,-1,1,-1,1,-3,-2,1,-2,0.715
144,-1,0,3,-1,1,0,-2,-1,0.72
145,-1,-1,2,-2,-2,-3,2,1,0.725
146,0,-1,0,3,-2,-1,0,0,0.73
147,-1,-2,-3,-1,1,-2,-1,0,0.735
148,-3,0,-1,-1,-1,0,-3,0,0.74
149,-1,1,-1,-1,2,2,-3,1,0.745
150,0,0,0,0,1,1,1,-2,0.75
151,-1,-2,-3,-1,-3,1,0,-2,0.755
152,0,0,1,-1,-4,-1,0,1,0.76
153,0,-3,2,0,-2,-2,1,0,0.765
154,-3,-3,0,-1,-2,1,0,-1,0.77
155,-3,1,0,-1,4,-1,-1,0,0.775
156,-3,2,-2,-2,1,-1,0,-1,0.78
157,0,2,-2,2,0,1,1,-3,0.785
158,0,-2,0,1,0,-1,-5,-1,0.79
159,3,-1,-1,1,1,-1,-2,-1,0.795
160,-2,-2,-1,-2,0,0,-3,-1,0.8
161,-2,0,0,-4,-2,-2,-2,0,0.805
162,1,0,-2,-2,0,1,1,-2,0.81
163,-1,-2,0,-5,-2,0,-3,0,0.8150000000000001
164,2,-1,0,2,-1,-2,0,0,0.8200000000000001
165,0,-1,0,2,-1,-1,0,0,0.8250000000000001
166,-4,-2,-1,-3,-1,-2,0,-3,0.8300000000000001
167,0,0,-1,-1,-2,-1,0,-4,0.835
168,-2,0,1,1,-1,1,-1,-2,0.84
169,-1,-3,1,0,-3,-1,-1,1,0.845
170,-1,-2,-3,0,0,-1,-1,1,0.85
171,-1,0,-2,-1,1,0,2,0,0.855
172,1,-1,-3,-2,2,1,-1,-1,0.86
173,-1,-1,-2,-2,0,2,-1,-2,0.865
174,-3,-2,0,0,0,-2,-2,1,0.87
175,-2,-2,0,0,-2,2,0,-1,0.875
176,-1,-1,-1,1,-3,-1,1,0,0.88
177,0,1,-2,-1,0,-3,-1,0,0.885
178,2,0,0,0,1,0,-1,1,0.89
179,0,1,-1,-2,-1,-1,-2,-1,0.895
180,-1,1,-1,-1,0,2,-3,-2,0.9
181,-2,-2,-4,-3,1,-1,0,-1,0.905
182,0,-1,-1,-3,-2,-2,-1,0,0.91
183,-2,-1,-2,-1,-2,-1,-2,0,0.915
184,-2,-4,-1,2,-3,2,-2,1,0.92
185,-2,-2,-2,0,-1,-1,-3,0,0.925
186,-1,2,1,0,0,1,0,-1,0.93
187,2,-1,0,1,0,-3,1,-2,0.935
188,0,0,-2,-1,1,-1,1,-3,0.9400000000000001
189,0,-2,0,-1,-1,-1,0,0,0.9450000000000001
190,0,0,0,1,0,1,-1,0,0.9500000000000001
191,0,0,1,0,0,-2,-3,-1,0.9550000000000001
192,0,-1,1,-3,-2,-3,1,-2,0.96
193,-2,-4,-3,1,0,-1,0,-1,0.965
194,1,-4,-3,-1,-3,-1,-1,-2,0.97
195,1,-3,-1,0,-2,-2,3,0,0.975
196,1,0,1,1,0,0,-1,-1,0.98
197,-1,-1,-1,-1,-1,2,-2,0,0.985
198,-2,1,-1,-2,-1,0,-3,1,0.99
199,-3,2,-2,-2,2,2,-3,1,0.995
200,-2,-3,-3,-4,-4,-2,1,-1,1.0
201,-3,-1,0,-3,-2,-1,1,0,1.0050000000000001
202,-3,0,1,0,-1,0,2,-2,1.01
203,-2,0,-2,0,1,-2,-3,-1,1.0150000000000001
204,0,-1,0,3,0,-2,-2,1,1.02
205,0,0,1,4,-1,-3,-5,-1,1.025
206,0,-3,-1,0,0,-2,-1,0,1.03
207,-2,0,2,-2,-1,1,-3,0,1.035
208,-2,-1,-2,-6,2,1,-2,0,1.04
209,1,2,-2,3,-2,0,-1,-3,1.045
210,-4,-3,-4,-6,-3,-1,2,-3,1.05
211,0,0,-4,-4,-4,-1,1,0,1.055
212,-3,1,-4,-1,-1,-1,0,0,1.06
213,-1,-1,-1,1,0,-1,-1,-1,1.065
214,0,2,3,2,-1,-1,-1,1,1.07
215,-1,-3,-2,0,0,-1,-1,0,1.075
216,1,-3,2,-2,1,-3,-6,-1,1.08
217,0,3,3,0,2,1,0,-2,1.085
218,1,2,-1,3,-1,0,-2,-2,1.09
219,-3,0,-7,-3,-3,1,-1,0,1.095
220,-2,2,-2,-1,-2,-2,1,-1,1.1
221,-3,-7,-2,-4,-1,-2,-1,0,1.105
222,0,0,0,5,2,-1,1,-1,1.11
223,-1,-6,-1,-2,-1,2,-2,-1,1.115
224,3,1,1,1,1,2,-1,-1,1.12
225,0,0,-1,-2,-2,1,0,0,1.125
226,-4,-3,-3,-2,0,-1,-2,-4,1.1300000000000001
227,1,2,3,0,1,0,0,-2,1.135
228,-2,2,-3,-2,-1,1,-2,0,1.1400000000000001
229,0,-2,-2,-3,0,-1,0,-2,1.145
230,-1,-2,0,1,2,0,0,0,1.1500000000000001
231,-1,-2,-2,-1,-2,-2,0,-3,1.155
232,1,-7,1,2,1,-3,1,2,1.16
233,1,6,-1,-3,-4,-2,-5,0,1.165
234,-1,-12,-4,-3,-4,-2,-2,1,1.17
235,-4,11,0,1,1,0,0,0,1.175
236,0,9,1,1,1,-2,1,-2,1.18
237,0,11,-3,-2,1,0,1,0,1.185
238,3,10,-1,-7,-2,-1,0,-3,1.19
239,1,14,-1,1,-2,0,-1,-1,1.195
240,-3,11,-3,-1,-2,-1,1,0,1.2
241,4,0,1,4,2,-1,0,-1,1.205
242,-1,-5,3,-1,0,0,0,1,1.21
243,-1,-17,0,0,-1,1,0,2,1.215
244,4,-9,-2,0,-6,-1,2,1,1.22
245,0,-21,-4,-2,-3,1,1,2,1.225
246,0,-8,0,0,2,1,2,2,1.23
247,0,-7,1,-3,-2,-1,-4,-2,1.235
248,-2,-9,1,0,-1,-1,-2,-2,1.24
249,-2,0,-2,-2,-1,0,-1,-2,1.245
250,-5,-1,-4,-7,-5,-4,-2,-1,1.25
251,-1,-1,-1,2,2,-1,0,1,1.2550000000000001
252,0,-2,-5,0,-3,-1,-1,0,1.26
253,-2,-4,0,0,-1,-1,-2,-2,1.2650000000000001
254,-1,16,1,6,1,-2,-3,0,1.27
255,0,19,0,1,2,0,-1,-3,1.2750000000000001
256,-3,0,3,-1,2,4,3,-1,1.28
257,-2,-5,-2,1,1,0,1,-3,1.285
258,0,-9,1,0,0,2,2,-1,1.29
259,-1,-15,2,-4,-3,-1,2,0,1.295
260,4,-1,3,0,3,-1,-4,-1,1.3
261,-7,-13,1,4,3,-3,-2,-1,1.305
262,-7,-6,-2,-5,0,-3,-1,-4,1.31
263,1,-4,-1,-2,-4,-2,-2,-4,1.315
264,1,10,-1,7,5,3,1,4,1.32
265,1,5,4,4,3,-3,0,1,1.325
266,1,8,0,8,4,2,1,3,1.33
267,-1,4,0,-1,0,-2,2,0,1.335
268,-2,-3,-3,-7,-5,-4,-2,-3,1.34
269,3,-5,-4,-2,-4,0,-1,-2,1.345
270,-2,-2,1,-1,-2,-3,1,-1,1.35
271,-2,-14,0,0,2,-3,0,-1,1.355
272,0,-4,0,-1,0,-1,-3,-1,1.36
273,-1,5,-7,-9,-4,-4,1,3,1.365
274,-1,-3,-5,-7,-4,0,-2,0,1.37
275,0,-9,-3,-1,-2,0,0,2,1.375
276,-5,-8,-1,-3,-3,-1,0,-3,1.3800000000000001
277,0,5,5,-2,0,0,-4,-1,1.385
278,1,-3,1,2,-2,2,-1,-1,1.3900000000000001
279,-1,-2,3,2,-2,2,-2,-1,1.395
280,-3,-3,-2,-1,0,2,1,-3,1.4000000000000001
281,-3,8,1,1,-1,0,-4,0,1.405
282,2,9,-4,0,-3,-3,-1,-1,1.41
283,1,9,-1,0,-3,0,0,0,1.415
284,-1,6,-2,-1,-2,-3,-1,0,1.42
285,-2,7,0,-1,0,1,0,-2,1.425
286,2,0,-1,2,2,-1,-2,-2,1.43
287,-3,-11,-7,-2,-2,-2,-5,-5,1.435
288,0,-16,-7,0,-1,0,0,-1,1.44
289,-1,12,-8,-2,-1,-3,2,-1,1.445
290,-5,5,-9,-7,-4,1,0,1,1.45
291,0,16,1,8,0,-1,-1,1,1.455
292,-3,13,2,4,2,0,-3,-2,1.46
293,-1,3,2,-3,-1,0,1,-1,1.465
294,1,2,10,-1,-1,-1,1,-4,1.47
295,-1,-12,-4,-4,-2,-1,0,-3,1.475
296,-1,-20,3,-5,-3,-2,-2,-4,1.48
297,1,-50,2,2,1,0,0,0,1.485
298,0,-18,-5,-5,-2,2,-1,-1,1.49
299,-3,21,-5,-3,-1,0,-2,2,1.495
300,0,15,0,-1,-3,0,1,2,1.5
301,0,48,1,-3,-3,-2,-2,-1,1.5050000000000001
302,-1,8,-5,8,-2,-4,0,-3,1.51
303,-1,11,-7,-10,-3,-3,-1,-4,1.5150000000000001
304,0,52,-5,1,-2,1,0,0,1.52
305,-1,20,-3,-4,-1,2,-1,1,1.5250000000000001
306,1,0,3,-3,-2,0,1,1,1.53
307,0,-42,9,3,2,-2,-2,-2,1.5350000000000001
308,-2,-62,1,-1,-3,0,-1,0,1.54
309,-1,-53,4,2,2,0,-2,-3,1.545
310,0,-19,-3,0,-2,-1,-3,-1,1.55
311,-2,2,2,-2,-1,-2,1,-1,1.555
312,-2,8,7,0,-1,0,0,-2,1.56
313,2,4,0,-10,-2,0,1,0,1.565
314,0,-2,-4,-2,-5,-1,-2,1,1.57
315,-1,-5,0,-1,-3,0,1,2,1.575
316,0,-14,1,-2,-2,-2,-1,-2,1.58
317,0,-5,2,-1,1,0,-3,-3,1.585
318,-1,-9,3,1,4,1,-1,-3,1.59
319,-1,-9,-3,-4,2,1,-1,1,1.595
320,-1,-24,-6,-4,1,-3,-3,0,1.6
321,-1,-12,-2,4,-1,1,-1,0,1.605
322,-1,13,3,-3,-5,0,-2,1,1.61
323,-2,8,0,1,-2,-2,0,-1,1.615
324,1,21,-1,-2,-1,-3,0,0,1.62
325,0,22,3,5,1,-1,1,1,1.625
326,1,22,-5,-1,-2,1,1,1,1.6300000000000001
327,-1,46,0,2,1,2,0,-1,1.635
328,-1,45,1,-5,-1,0,-1,-1,1.6400000000000001
329,-1,22,-3,5,-4,-3,0,-3,1.645
330,-2,4,-1,-4,-1,0,0,-1,1.6500000000000001
331,3,-7,-2,1,-1,1,-4,-2,1.655
332,4,81,-3,-6,-2,1,0,0,1.6600000000000001
333,-1,18,0,-2,-4,-1,0,-1,1.665
334,-2,-31,-1,-1,1,-6,-4,0,1.67
335,-2,-68,-3,-5,0,1,-2,-2,1.675
336,-3,-18,-3,0,0,0,-1,-1,1.68
337,0,44,-4,-6,-3,-1,1,-1,1.685
338,2,60,4,7,3,-2,-1,-1,1.69
339,-2,61,-4,-4,0,0,-1,0,1.695
340,0,-24,-4,1,0,0,-2,0,1.7
341,-2,-58,-6,0,-1,0,0,-1,1.705
342,1,-84,-2,0,0,-3,-2,1,1.71
343,1,-76,2,-3,0,-2,1,1,1.715
344,1,-122,0,-1,0,1,-1,0,1.72
345,-1,-9,-1,-1,0,3,0,0,1.725
346,-1,-5,2,0,1,2,-1,-4,1.73
347,1,-40,1,-1,-1,0,-1,-2,1.735
348,-4,-36,-3,4,-2,-2,-1,0,1.74
349,-2,-43,-2,1,-1,-4,0,-2,1.745
350,-1,37,5,-4,-2,-1,2,-1,1.75
351,-1,35,4,2,0,0,1,-2,1.7550000000000001
352,0,4,7,0,2,-2,0,-2,1.76
353,0,-22,1,0,2,-3,-4,0,1.7650000000000001
354,-2,-11,-2,0,-1,0,-2,-2,1.77
355,2,9,-3,-2,-1,0,-2,0,1.7750000000000001
356,-1,6,-6,-4,-5,0,-1,0,1.78
357,-1,13,-9,0,-3,0,-1,2,1.7850000000000001
358,-1,8,-2,-1,-3,3,-1,-3,1.79
359,-2,0,-2,-5,-4,-1,-1,-1,1.795
360,-1,27,-5,-3,-4,-2,-2,-1,1.8
361,0,29,1,-2,1,-1,-2,-2,1.805
362,-2,5,-7,-5,-1,0,0,-1,1.81
363,-1,23,2,-3,1,-3,-3,-1,1.815
364,1,25,-2,-2,1,-5,0,1,1.82
365,-1,6,0,0,-2,-1,-2,1,1.825
366,1,5,3,3,0,0,-1,2,1.83
367,-2,9,-4,0,-3,-2,1,-1,1.835
368,-2,5,0,1,1,-2,-1,0,1.84
369,-1,-8,-1,-5,-4,-1,-2,0,1.845
370,0,-1,2,4,4,1,-1,-1,1.85
371,1,2,5,7,2,1,0,-2,1.855
372,-3,-6,-1,0,0,-1,3,-2,1.86
373,-1,-2,-2,0,-2,-2,-1,-2,1.865
374,-1,1,1,-5,-4,-1,1,1,1.87
375,-2,4,1,1,-2,-1,-1,1,1.875
376,0,-7,1,4,1,0,0,-3,1.8800000000000001
377,0,6,2,-3,1,1,0,-2,1.885
378,-3,0,-3,-5,-4,-1,-2,-2,1.8900000000000001
379,-2,-2,0,0,-2,0,-4,0,1.895
380,0,3,-6,-6,-5,-1,-2,-1,1.9000000000000001
381,-1,0,-1,1,-2,-1,4,-4,1.905
382,1,-9,-4,-13,-3,-1,-1,1,1.9100000000000001
383,-2,-6,0,-4,0,0,1,0,1.915
384,0,-7,-3,0,-2,-1,0,1,1.92
385,0,-6,1,-2,-3,-2,-4,0,1.925
386,-2,-1,1,2,0,-3,-1,1,1.93
387,1,13,-1,6,-2,-2,0,-3,1.935
388,1,9,-2,-8,-3,-3,-1,-1,1.94
389,1,-5,0,0,3,-2,-1,0,1.945
390,0,-4,-2,0,1,-1,-3,-3,1.95
391,-1,-2,-3,-2,1,0,-2,0,1.955
392,-2,-3,3,-1,-3,0,-4,-1,1.96
393,-1,-8,-2,1,-1,-1,1,1,1.965
394,-3,-8,0,2,0,-1,1,2,1.97
395,-2,-7,-4,-7,-4,-4,1,-2,1.975
396,0,9,8,3,0,0,1,-1,1.98
397,-3,-7,-12,-11,0,-3,-3,-3,1.985
398,0,1,-2,0,-1,-1,-1,-2,1.99
399,1,2,-2,4,1,1,0,1,1.995
400,-3,-3,-2,4,-1,1,2,-1,2.0
401,-1,0,4,6,1,2,0,0,2.005
402,0,1,2,1,-1,-1,0,-1,2.0100000000000002
403,1,0,-1,-1,-1,0,-1,-1,2.015
404,-2,0,4,-3,3,0,-4,0,2.02
405,0,-2,1,6,0,-1,-1,-1,2.025
406,1,0,-2,0,-3,-1,-1,-1,2.0300000000000002
407,0,-2,3,5,0,-2,0,0,2.035
408,-1,1,-3,-4,1,-1,-1,-1,2.04
409,-1,-2,1,-4,1,0,-2,0,2.045
410,-1,-1,-1,-1,1,-1,-1,-1,2.05
411,1,-3,0,-2,1,-2,4,0,2.055
412,-1,-4,-2,5,-1,-2,2,-1,2.06
413,0,-1,0,-1,-2,2,-1,0,2.065
414,-2,-4,0,-1,-2,0,0,-3,2.07
415,0,-1,-2,-2,-1,0,-1,0,2.075
416,-1,-3,2,1,0,0,3,-1,2.08
417,-2,0,-3,-9,-3,-4,-1,-2,2.085
418,0,0,2,1,0,-1,-2,-2,2.09
419,0,4,-2,-3,0,0,-4,1,2.095
420,-2,-3,-4,0,2,2,-2,-2,2.1
421,-1,3,-2,3,-2,-2,0,-1,2.105
422,-1,-1,1,4,2,0,1,0,2.11
423,-2,-3,-5,-6,-1,-2,-2,-3,2.115
424,0,4,2,3,-1,-3,-3,1,2.12
425,1,-4,2,-1,0,0,2,-1,2.125
426,-3,-5,-4,0,-3,-1,1,0,2.13
427,-1,0,-1,-2,-3,0,1,0,2.1350000000000002
428,0,-2,-5,-1,1,-3,-3,0,2.14
429,-1,-4,2,1,0,-1,0,-1,2.145
430,0,5,0,1,-2,0,-1,-1,2.15
431,-3,-4,2,-2,-2,-2,-3,-1,2.1550000000000002
432,-2,-3,-1,-2,-1,-1,-3,-5,2.16
433,2,6,5,1,0,-1,-3,0,2.165
434,1,-5,-3,-2,-1,1,-1,-1,2.17
435,0,-3,-4,-5,-3,-3,-2,-1,2.1750000000000003
436,0,3,-2,-6,-1,-3,0,1,2.18
437,-2,2,3,2,0,-1,0,2,2.185
438,-2,7,-1,-7,-1,-2,-2,0,2.19
439,-3,-7,-3,4,1,0,-1,0,2.195
440,-3,0,0,-6,-1,1,2,1,2.2
441,-4,-1,0,-4,-2,1,0,-1,2.205
442,-1,-10,-1,3,0,2,0,-2,2.21
443,0,-16,-3,-4,-3,1,-4,-3,2.215
444,-1,-5,1,4,1,-1,-1,-1,2.22
445,0,-1,-2,2,2,-4,1,0,2.225
446,-1,6,0,0,-1,-2,1,-2,2.23
447,0,6,5,10,2,-2,1,-1,2.235
448,0,9,-5,-8,-3,-3,0,-1,2.24
449,7,8,2,0,-4,0,-1,-2,2.245
450,-4,7,-3,-7,-1,-1,-1,-2,2.25
451,8,7,-1,-5,-2,-1,-1,2,2.255
452,-16,0,0,4,-2,2,1,1,2.2600000000000002
453,-3,-2,-3,-2,0,1,-1,0,2.265
454,-2,-4,-4,-3,-2,-3,-2,0,2.27
455,-2,0,2,-2,1,-1,1,-2,2.275
456,2,-4,-4,-3,-3,-2,-1,-3,2.2800000000000002
457,-1,-5,-3,2,2,-1,-2,-3,2.285
458,1,-1,1,4,2,-1,-2,0,2.29
459,-4,-7,-5,-6,-3,0,-3,1,2.295
460,5,-1,2,-1,3,1,-2,1,2.3000000000000003
461,-3,-7,-5,-1,0,1,0,-2,2.305
462,2,2,0,-2,-1,-3,0,0,2.31
463,-2,1,2,4,1,-1,1,-1,2.315
464,1,-1,-1,-2,-2,0,-1,-1,2.32
465,2,2,1,-2,-2,-2,-1,0,2.325
466,0,0,2,0,1,0,1,0,2.33
467,-2,2,-1,2,-2,0,0,0,2.335
468,1,-2,-2,2,-2,1,-2,-2,2.34
469,-1,3,0,3,0,1,-2,-3,2.345
470,0,0,0,-5,-3,-3,0,-1,2.35
471,-1,-3,-1,-6,-2,-3,-1,-3,2.355
472,2,2,-2,1,3,-3,-3,-2,2.36
473,-4,-7,-4,-2,-1,-3,-3,-1,2.365
474,-3,-18,-5,-4,-4,-1,-1,-3,2.37
475,-2,3,-1,-1,-1,1,1,-1,2.375
476,1,1,3,-4,-3,1,3,1,2.38
477,2,4,-1,2,1,5,0,-1,2.3850000000000002
478,-2,-2,-2,1,1,1,-4,0,2.39
479,-2,1,-1,2,-3,-1,-1,-2,2.395
480,0,-7,1,1,2,-3,2,-2,2.4
481,-3,0,-1,0,-2,0,1,-1,2.4050000000000002
482,1,-14,-3,-1,1,0,-2,1,2.41
483,-1,-21,-1,3,1,-1,-3,0,2.415
484,-1,-28,-3,1,-1,1,-3,0,2.42
485,0,-14,-2,0,-1,-2,2,-2,2.4250000000000003
486,-3,2,0,5,0,-1,2,-1,2.43
487,-1,9,-2,2,1,-1,-1,1,2.435
488,-1,13,-1,-1,0,1,-3,-1,2.44
489,-1,1,1,-2,0,0,-2,0,2.445
490,0,4,-1,-3,-3,-3,-1,1,2.45
491,-1,0,-2,-3,0,-1,1,-1,2.455
492,-1,8,3,-3,-2,-1,-1,-2,2.46
493,-2,10,0,2,0,-1,-1,-1,2.465
494,0,6,-1,-3,-1,-1,1,0,2.47
495,-2,15,-1,1,-2,-2,-1,-1,2.475
496,0,11,-2,-3,-1,-2,-1,-3,2.48
497,1,-3,3,-3,-3,-3,0,1,2.485
498,-3,2,-3,1,-1,0,-1,-1,2.49
499,1,1,-2,-2,1,1,-1,-3,2.495
500,1,84,1,3,1,0,-1,0,2.5
501,0,16,-5,-4,0,-1,-4,-3,2.505
502,-2,-8,0,-3,-1,-3,-1,0,2.5100000000000002
503,-3,-46,0,-2,-2,0,1,1,2.515
504,-1,-63,-2,-3,-1,-1,0,-1,2.52
505,0,-25,-2,-3,-1,0,-2,1,2.525
506,1,-14,0,1,0,-1,2,-2,2.5300000000000002
507,8,-3,0,-2,-3,-1,1,-1,2.535
508,-13,-13,-3,-5,-5,-2,1,-3,2.54
509,-1,4,-2,-4,-2,-2,-5,-3,2.545
510,-1,-6,2,4,2,2,-3,1,2.5500000000000003
511,0,11,-4,-1,-1,-3,0,-1,2.555
512,3,2,-4,-4,-4,-4,-2,-1,2.56
513,-1,-1,-1,2,0,1,0,-2,2.565
514,-3,8,-2,-3,-3,2,-3,-3,2.57
515,-2,10,3,0,0,-2,2,-2,2.575
516,1,-6,-2,0,-2,-2,0,-1,2.58
517,-3,0,-2,-4,-1,-1,2,-1,2.585
518,1,9,5,3,0,1,-1,-1,2.59
519,-1,11,1,-1,1,0,-2,1,2.595
520,1,-4,-2,1,0,0,-2,0,2.6
521,0,6,-2,0,-2,-2,-2,0,2.605
522,-3,-2,-4,0,-1,-1,0,1,2.61
523,-5,-9,0,-1,-2,-3,-4,0,2.615
524,1,-11,0,2,1,-1,-1,-2,2.62
525,-4,-5,3,-3,-1,-2,-2,-5,2.625
526,-28,-3,-1,1,1,-1,0,-31,2.63
527,18,3,0,1,2,0,-3,24,2.6350000000000002
528,4,-9,0,2,1,-2,3,2,2.64
529,3,2,0,-2,1,1,2,4,2.645
530,3,-9,-6,-10,-3,0,0,-4,2.65
531,-10,0,-4,-3,-3,2,-2,-8,2.6550000000000002
532,-1,66,2,7,1,4,-3,-1,2.66
533,1,5,-3,0,-4,-2,1,0,2.665
534,2,13,4,1,0,-3,-1,7,2.67
535,-4,5,2,1,1,1,1,-8,2.6750000000000003
536,2,-9,-2,1,1,-1,0,2,2.68
537,-4,5,-1,-3,-1,-1,2,-4,2.685
538,5,12,-3,0,-1,-3,0,2,2.69
539,-3,-3,1,-2,0,-1,-1,-1,2.695
540,-4,-14,0,-3,0,1,0,-5,2.7
541,-3,-30,-3,-1,-1,0,-4,0,2.705
542,4,-34,0,2,1,1,0,5,2.71
543,-3,-15,-1,1,0,-1,-3,-5,2.715
544,-5,-22,-2,-3,-3,-1,0,-2,2.72
545,1,-3,-2,2,0,0,1,2,2.725
546,13,5,1,-1,-1,0,0,5,2.73
547,-11,5,-1,1,-1,-3,0,-8,2.735
548,1,6,2,0,-2,-2,-2,0,2.74
549,-3,-6,-1,-2,0,1,0,3,2.745
550,-1,-11,-1,-7,0,0,0,1,2.75
551,2,-7,-1,-1,1,-2,1,-1,2.755
552,-1,-17,1,2,0,-1,0,-2,2.7600000000000002
553,7,-1,2,2,1,1,-2,0,2.765
554,-17,6,-4,2,0,-1,-1,-5,2.77
555,29,6,-7,-8,-6,-4,-2,0,2.775
556,0,2,-1,-6,-1,-1,-3,1,2.7800000000000002
557,0,7,8,9,-1,-1,-1,-1,2.785
558,-1,5,-8,-15,-2,-1,-4,-1,2.79
559,-10,-5,-3,-3,-2,-1,-1,-2,2.795
560,0,-8,-3,-2,-2,-1,1,-3,2.8000000000000003
561,-2,5,-2,1,0,0,0,-2,2.805
562,6,-11,5,5,1,-1,-2,1,2.81
563,-6,-12,-1,-8,-3,0,0,-1,2.815
564,2,-16,-4,0,-4,1,0,1,2.82
565,-7,-8,-2,1,1,-1,2,-3,2.825
566,1,2,-3,4,-3,-1,0,0,2.83
567,-2,8,-2,-2,0,1,-1,1,2.835
568,-3,-21,1,1,0,0,-2,-2,2.84
569,-1,-19,-6,-4,0,-2,-2,1,2.845
570,0,55,2,-2,-1,-2,-1,2,2.85
571,-3,9,0,0,-2,-2,1,-2,2.855
572,-1,1,1,-7,-1,0,2,0,2.86
573,-1,-8,1,-3,-2,1,1,-3,2.865
574,2,-20,-1,4,2,0,0,-1,2.87
575,-4,7,-1,2,-1,-3,0,-1,2.875
576,0,16,2,3,2,-1,-6,-2,2.88
577,1,7,-4,-4,-2,-1,-2,-3,2.8850000000000002
578,1,0,2,2,-1,1,-4,0,2.89
579,-2,4,-1,0,-2,2,-1,0,2.895
580,0,-9,-3,2,-1,-2,0,-1,2.9
581,0,10,-2,-3,1,-4,-1,0,2.9050000000000002
582,1,6,-3,-6,-4,-1,-2,1,2.91
583,-3,-2,0,1,1,1,-3,-1,2.915
584,1,8,2,1,1,2,1,-2,2.92
585,-3,7,-1,3,-2,-1,0,-1,2.9250000000000003
586,4,-8,1,0,-3,-1,1,0,2.93
587,-10,5,1,-5,-2,0,-4,-4,2.935
588,-6,-3,-1,0,0,-3,-4,0,2.94
589,0,1,4,6,2,-3,-1,-1,2.945
590,0,-16,-3,0,-1,-4,-2,0,2.95
591,0,-15,-9,-6,-1,-1,-1,4,2.955
592,-1,0,-3,-6,-3,1,-1,-2,2.96
593,-1,-1,-5,-5,-3,1,-3,1,2.965
594,-4,-5,2,8,1,0,1,0,2.97
595,1,6,2,2,0,-1,2,-2,2.975
596,-8,1,-1,-1,-2,-1,2,-3,2.98
597,-1,-2,1,-3,-2,-1,-3,-15,2.985
598,8,1,-5,-4,-1,-1,-4,24,2.99
599,1,1,0,-1,0,-1,-2,0,2.995
600,4,-4,1,-2,1,0,3,3,3.0
601,-7,-3,-3,-3,-2,-1,2,-5,3.005
602,3,3,-2,-2,-2,-1,1,-8,3.0100000000000002
603,-7,-3,-3,-2,-3,0,-2,-3,3.015
604,1,2,-5,-1,-2,-1,-2,2,3.02
605,4,5,1,0,0,0,-1,3,3.025
606,-3,1,0,-3,0,-3,-3,-8,3.0300000000000002
607,3,-4,2,4,-2,0,0,4,3.035
608,-2,2,1,4,2,-2,-3,-4,3.04
609,-2,-4,-2,-2,-2,-3,-1,6,3.045
610,-1,-9,0,0,2,-3,-1,-3,3.0500000000000003
611,-3,-1,-1,-12,-2,-1,0,-6,3.055
612,0,-5,-1,-4,-2,0,0,-3,3.06
613,3,1,-1,-6,0,2,0,4,3.065
614,-5,-6,-1,-2,-1,-1,1,-3,3.0700000000000003
615,4,-11,-1,0,-2,-2,0,0,3.075
616,0,1,1,1,-1,1,1,3,3.08
617,-1,1,-4,5,-1,0,-2,-2,3.085
618,-2,9,2,0,-3,1,1,-2,3.09
619,-1,4,0,5,0,1,1,1,3.095
620,1,-1,-1,-1,-3,-3,0,1,3.1
621,-2,3,-1,0,0,0,1,0,3.105
622,0,0,-2,1,0,2,-1,-4,3.11
623,3,1,-3,-1,1,0,-5,-3,3.115
624,-3,-1,-1,3,-1,0,-4,-2,3.12
625,4,-4,1,4,0,-1,-2,-1,3.125
626,-8,-2,-4,-8,-2,-2,1,-2,3.13
627,1,4,8,9,3,-1,3,-2,3.1350000000000002
628,-4,-10,-11,-14,-6,-3,1,7,3.14
629,-1,-2,0,2,1,0,-2,4,3.145
630,4,-2,-1,0,-1,1,-1,-1,3.15
631,0,-2,-1,-9,-3,-1,0,-1,3.1550000000000002
632,-1,5,4,-1,-1,-3,-3,-3,3.16
633,0,3,0,2,0,-3,3,0,3.165
634,-1,-2,0,2,0,0,0,-1,3.17
635,-4,-6,-4,-1,-2,0,-1,-3,3.1750000000000003
636,1,-1,0,1,2,-1,-2,-3,3.18
637,-1,-6,-3,-7,-4,0,-2,0,3.185
638,-1,1,-1,1,-3,-1,-2,-3,3.19
639,0,-1,-2,-1,-1,-1,-3,2,3.1950000000000003
640,3,0,-3,-2,0,-1,-1,-1,3.2
641,-2,0,0,-2,0,-3,-1,-2,3.205
642,-2,-11,1,3,2,-1,0,-1,3.21
643,2,-1,-3,-4,0,0,-1,0,3.215
644,0,2,0,0,1,0,-1,2,3.22
645,0,0,-4,-7,-3,-2,-3,0,3.225
646,-1,1,-1,-3,-1,-1,0,-1,3.23
647,-2,1,-2,2,1,0,-3,-2,3.235
648,0,-4,-1,5,-1,0,-2,-2,3.24
649,-2,-5,2,0,-2,0,1,-3,3.245
650,-2,-7,-3,-7,-3,-2,-1,0,3.25
651,1,2,4,3,1,-1,1,0,3.255
652,-1,2,-5,-9,-5,-2,0,-3,3.2600000000000002
653,-1,-6,-2,2,1,1,0,-5,3.265
654,-3,-5,-4,-3,-3,-1,-2,1,3.27
655,-1,0,0,3,0,1,-1,-1,3.275
656,2,7,2,-4,0,1,-1,2,3.2800000000000002
657,-1,2,-4,-2,1,0,-1,0,3.285
658,3,4,0,0,1,0,1,-1,3.29
659,0,0,-3,-2,-1,0,-3,-2,3.295
660,-2,-5,1,2,0,-4,-1,0,3.3000000000000003
661,9,4,-1,-1,0,-2,-3,1,3.305
662,-12,-3,-4,0,1,0,-2,-5,3.31
663,-1,1,0,-3,0,2,3,2,3.315
664,-1,-4,-1,-1,-2,4,-1,-2,3.3200000000000003
665,-1,1,0,-4,-1,0,-1,-1,3.325
666,3,-1,-1,0,-2,-1,1,-2,3.33
667,0,-5,-2,0,-1,-2,2,1,3.335
668,-3,2,1,8,2,1,2,-2,3.34
669,0,-4,-6,-4,-4,-2,-1,0,3.345
670,-2,0,0,-2,-1,-3,-2,0,3.35
671,-3,-3,0,0,0,-1,0,-3,3.355
672,1,1,-1,-1,-2,-1,0,6,3.36
673,0,4,1,1,-1,-2,-2,1,3.365
674,1,0,-2,-1,-1,1,-1,2,3.37
675,0,-3,3,4,-2,-3,-3,0,3.375
676,-3,-5,-3,1,1,-2,-1,-8,3.38
677,-3,0,0,-2,-1,0,-1,-1,3.3850000000000002
678,2,2,-1,-5,-2,-1,0,-1,3.39
679,-1,-4,-1,0,-1,0,-1,-1,3.395
680,-1,0,-1,-8,-6,-1,-3,-1,3.4
681,-5,-6,-6,7,0,1,-1,-2,3.4050000000000002
682,0,5,4,6,2,-3,-4,1,3.41
683,-1,-4,0,-3,0,-1,0,0,3.415
684,0,-6,-3,-4,1,2,0,-2,3.42
685,-1,2,4,0,2,1,0,-1,3.4250000000000003
686,0,-2,3,2,0,-1,-3,1,3.43
687,-1,2,2,5,2,-4,-1,-1,3.435
688,-1,-4,-2,-3,1,-2,-1,-2,3.44
689,-1,4,0,0,-2,-3,-1,0,3.4450000000000003
690,-2,-1,0,1,2,-3,0,-1,3.45
691,-2,-3,-5,-4,-2,-3,1,-1,3.455
692,1,-2,1,3,-1,2,-1,-1,3.46
693,-1,-5,2,-4,-1,2,0,-1,3.465
694,-1,0,1,-1,1,1,0,0,3.47
695,-1,1,-3,-6,-3,-2,-1,-1,3.475
696,1,4,3,2,0,-5,0,1,3.48
697,6,2,-1,0,-1,-2,-2,-2,3.485
698,-7,-1,1,1,-3,1,0,-2,3.49
699,2,3,0,0,0,-3,-2,3,3.495
700,-1,-3,-3,2,-1,2,-2,-3,3.5
701,-3,6,-2,2,-2,-2,0,-1,3.505
702,0,-1,-4,-3,-2,-2,-1,-2,3.5100000000000002
703,1,-2,-1,-3,-2,-1,-4,-2,3.515
704,-4,-6,-2,-4,-3,-2,-4,-2,3.52
705,0,2,1,-2,-1,0,-1,0,3.525
706,1,-1,-4,-3,-2,0,1,-1,3.5300000000000002
707,1,4,0,4,2,1,3,1,3.535
708,2,-2,1,1,-1,-3,2,-1,3.54
709,-2,-7,1,-1,1,-2,0,1,3.545
710,0,-2,0,1,0,-2,-1,0,3.5500000000000003
711,-4,-12,-1,1,-2,2,-2,-1,3.555
712,-1,-4,-8,-5,-6,0,0,-1,3.56
713,-3,-1,1,-2,-5,2,1,-2,3.565
714,0,-1,-2,-5,0,-2,0,0,3.5700000000000003
715,0,4,1,-1,0,-2,2,-2,3.575
716,-1,-4,-1,0,2,-3,-1,2,3.58
717,-2,-1,-2,-2,-2,-2,-5,0,3.585
718,-1,3,-1,-1,-2,2,-1,-3,3.59
719,-2,9,-2,-2,-1,2,-2,-2,3.595
720,-3,10,-2,-3,0,0,0,-2,3.6
721,-2,-5,-3,-1,0,-2,0,3,3.605
722,0,-8,-3,-3,-2,-1,-2,-2,3.61
723,-2,-11,-3,-2,-2,-1,-1,2,3.615
724,0,-1,2,-1,-1,-2,1,-2,3.62
725,-3,-2,3,-1,2,0,-4,0,3.625
726,-1,-1,1,2,2,-2,-1,1,3.63
727,0,3,1,-4,0,0,1,-3,3.6350000000000002
728,2,7,2,3,0,1,-1,0,3.64
729,0,3,0,-2,-3,-3,1,0,3.645
730,0,-2,2,0,-2,0,-2,-3,3.65
731,6,-5,-2,1,-1,-1,-2,1,3.6550000000000002
732,-11,1,-1,3,0,0,1,-1,3.66
733,-4,1,-5,-4,-5,0,1,-1,3.665
734,-1,-7,0,1,4,0,0,0,3.67
735,-1,-1,-2,-1,-2,-1,-3,1,3.6750000000000003
736,-3,-4,2,-1,-1,1,-4,2,3.68
737,0,-1,-4,-1,-2,-1,1,-6,3.685
738,0,7,-1,1,-1,-2,0,-2,3.69
739,0,22,-2,-1,-2,0,-1,-1,3.6950000000000003
740,2,16,0,3,-2,-3,-1,-4,3.7
741,-1,10,1,-4,-1,-3,-3,2,3.705
742,3,-9,-1,-1,-1,-3,2,0,3.71
743,-3,-18,-3,2,-1,0,0,0,3.715
744,1,-21,0,-2,0,1,-1,-4,3.72
745,0,-24,1,4,1,3,-2,0,3.725
746,3,-9,-1,1,-1,1,-5,1,3.73
747,-1,-4,0,1,0,-1,-1,1,3.735
748,0,2,-4,-6,-2,1,0,-2,3.74
749,-2,1,-1,-1,1,3,0,-5,3.745
750,-4,3,-3,-3,0,1,-2,-3,3.75
751,-4,4,0,-1,-4,-1,0,-1,3.755
752,1,-5,0,-4,-1,-3,1,0,3.7600000000000002
753,1,-1,-4,2,-2,-1,4,0,3.765
754,-1,0,-2,-9,-5,0,3,1,3.77
755,-3,-10,0,2,4,1,-4,-4,3.775
756,2,1,2,-1,2,1,0,-1,3.7800000000000002
757,0,-36,1,3,-2,-2,-1,1,3.785
758,0,-17,-3,-2,1,-4,-1,-5,3.79
759,0,12,1,0,1,-4,-2,4,3.795
760,-2,11,-5,2,1,1,-3,2,3.8000000000000003
761,-1,30,0,2,1,0,-1,-2,3.805
762,-1,13,-1,-1,-1,0,-1,-2,3.81
763,1,9,1,-1,-3,0,2,-3,3.815
764,-1,1,2,2,0,0,-1,-1,3.8200000000000003
765,-1,2,-3,-2,-1,-3,-1,-3,3.825
766,-1,-4,-3,-2,0,1,-1,-1,3.83
767,-4,-10,-3,-5,-5,2,1,-1,3.835
768,1,-12,0,-1,-4,1,-1,0,3.84
769,-1,-5,5,-2,-1,0,-1,-1,3.845
770,1,2,2,-2,-1,-5,-3,1,3.85
771,1,-4,-1,2,3,-3,-4,0,3.855
772,-2,1,-4,-2,1,-3,1,-7,3.86
773,2,3,-1,0,-2,-2,1,8,3.865
774,-3,11,-3,-2,-2,-1,1,1,3.87
775,-2,-1,-5,-5,0,0,-2,-5,3.875
776,-2,-2,-2,-3,-1,0,-1,3,3.88
777,-1,-3,-2,-2,1,-3,-3,-6,3.8850000000000002
778,2,1,1,0,1,-1,1,1,3.89
779,-1,-5,-4,0,0,-2,2,-3,3.895
780,1,-3,4,3,1,-3,0,0,3.9
781,-1,-1,-3,0,-1,0,2,1,3.9050000000000002
782,-2,-4,0,2,-1,1,2,2,3.91
783,-1,-1,-2,-6,-4,-1,0,-3,3.915
784,0,2,1,3,0,1,-4,-1,3.92
785,-3,0,-1,0,0,-2,-3,-3,3.9250000000000003
786,1,3,1,2,0,-2,-2,0,3.93
787,-1,3,-2,5,0,0,-2,0,3.935
788,-1,0,-4,-5,-1,-1,0,-2,3.94
789,0,8,-1,1,0,3,-1,-7,3.9450000000000003
790,2,4,0,-1,-1,0,0,-1,3.95
791,-2,-2,0,0,0,2,0,-1,3.955
792,3,-4,0,-1,0,-5,-1,0,3.96
793,-7,-2,-1,3,1,-1,-4,1,3.9650000000000003
794,1,0,-2,-3,-4,0,0,1,3.97
795,-1,0,0,-4,-4,-1,1,0,3.975
796,1,-2,-1,4,-2,1,2,-2,3.98
797,0,-1,-3,-7,-3,-5,0,-2,3.985
798,-3,2,-2,2,-1,0,-3,-1,3.99
799,-2,-5,-4,0,-3,-1,-1,-1,3.995
800,-1,0,-1,-3,-3,1,-1,-1,4.0
801,0,-4,1,0,-1,1,2,2,4.005
802,-3,-6,-1,3,0,-1,-1,0,4.01
803,1,0,1,-1,4,0,-1,-1,4.015
804,-1,0,-2,-4,0,0,-3,-7,4.0200000000000005
805,3,4,-2,-4,-1,-1,-1,9,4.025
806,-2,0,1,0,0,-1,1,-2,4.03
807,2,0,1,-3,-3,-4,0,1,4.035
808,-2,1,-2,4,-1,-4,0,2,4.04
809,-2,6,-2,-1,0,-2,-2,-2,4.045
810,-1,-4,-1,-4,0,1,1,0,4.05
811,1,58,0,0,-2,-1,0,-4,4.055
812,-4,3,0,1,-4,0,0,1,4.0600000000000005
813,-3,-11,-3,1,-3,-1,0,-6,4.065
814,-2,-19,-2,-1,0,0,-3,-1,4.07
815,-2,-33,-3,-1,0,1,-2,-2,4.075
816,-2,-13,-5,-6,-4,1,-1,1,4.08
817,3,-2,1,-2,-1,2,-1,-2,4.085
818,1,-4,0,-1,0,0,1,-2,4.09
819,-5,-15,-4,-7,1,0,-5,-1,4.095
820,-3,1,4,1,-1,-2,2,1,4.1
821,-2,-12,-2,-4,-2,-2,0,1,4.105
822,0,6,-1,-1,2,-4,-3,-1,4.11
823,0,1,-1,0,-1,-4,-3,2,4.115
824,-4,-2,0,0,-3,-2,-3,-2,4.12
825,-1,2,-3,0,-2,1,-1,-4,4.125
826,-1,4,-1,-2,-2,-1,1,-4,4.13
827,-3,1,-2,0,0,0,3,1,4.135
828,7,7,-2,2,2,0,2,-1,4.14
829,-9,7,0,-4,-2,-2,0,-4,4.1450000000000005
830,0,-1,0,-4,-2,0,-2,-3,4.15
831,2,-7,0,0,0,-4,-3,5,4.155
832,-1,-5,-1,-5,-2,-3,-3,0,4.16
833,3,-1,1,-1,1,1,-2,2,4.165
834,-4,-1,-1,2,-2,0,-1,1,4.17
835,1,-2,2,5,-2,-1,-1,-3,4.175
836,-2,4,-1,-2,0,-2,2,-1,4.18
837,1,33,1,1,-2,0,1,-5,4.1850000000000005
838,-2,2,-1,-7,0,-1,0,0,4.19
839,1,-2,-9,5,0,0,-3,-2,4.195
840,1,-16,-4,1,2,0,-3,2,4.2
841,0,-16,0,1,1,0,-1,-2,4.205
842,-2,-11,0,2,-2,1,1,1,4.21
843,-2,-11,3,0,-1,2,2,-2,4.215
844,-1,-5,0,1,2,0,-2,-4,4.22
845,1,-10,0,1,0,-1,-2,-1,4.225
846,1,5,-1,1,-2,-1,-1,-3,4.23
847,-2,-5,1,0,2,-2,1,0,4.235
848,-2,6,-1,-3,0,0,0,-1,4.24
849,-2,-3,1,-5,0,-1,-1,1,4.245
850,1,2,3,0,-1,-1,0,1,4.25
851,-1,9,5,-1,-1,1,-1,0,4.255
852,-1,3,0,-2,-1,0,3,1,4.26
853,1,5,-2,1,-2,-3,-2,-1,4.265
854,-2,5,-2,-4,1,-3,-4,-2,4.2700000000000005
855,0,4,-3,-5,0,-1,2,0,4.275
856,0,-1,-2,-2,-2,1,3,-1,4.28
857,-1,-14,-4,1,1,-1,2,0,4.285
858,0,-3,-2,6,-2,2,0,1,4.29
859,1,1,0,2,1,2,-2,1,4.295
860,0,4,-3,-2,-4,0,-6,-3,4.3
861,0,0,-2,3,3,-4,-1,-2,4.305
862,-3,-2,-2,-4,-3,-4,-1,-4,4.3100000000000005
863,-2,-2,0,0,-2,-1,1,-1,4.315
864,-2,-7,-2,-2,-3,-2,1,0,4.32
865,0,0,3,-3,-2,1,0,2,4.325
866,8,0,2,-1,0,-2,-3,-3,4.33
867,-10,1,-1,3,-2,0,1,1,4.335
868,-1,2,-1,0,2,0,-3,-2,4.34
869,-4,-2,-6,-3,-3,0,-5,-4,4.345
870,-2,-4,-2,-5,-4,0,1,6,4.3500000000000005
871,1,-3,1,-4,-2,-5,1,-4,4.355
872,-2,1,3,6,3,-1,2,-3,4.36
873,2,6,2,5,5,-1,2,-3,4.365
874,1,4,2,3,2,3,0,-4,4.37
875,2,-8,1,-2,0,2,-2,-1,4.375
876,0,3,0,-3,-4,0,2,3,4.38
877,1,2,0,-3,0,2,-2,3,4.385
878,-5,1,-4,3,-2,-3,-4,-1,4.39
879,0,-3,-3,1,0,-2,-1,1,4.3950000000000005
880,2,-1,2,0,-2,0,-1,0,4.4
881,-2,-3,-1,-5,-4,-1,-1,1,4.405
882,-1,-3,-2,-2,-2,-4,0,-1,4.41
883,2,5,-3,-5,-2,-2,2,-3,4.415
884,-2,0,1,-3,3,0,-2,-4,4.42
885,-4,0,0,-1,0,1,-2,-4,4.425
886,-5,-4,1,1,1,1,-2,1,4.43
887,0,1,1,1,0,-1,0,0,4.4350000000000005
888,1,-2,-1,-1,-4,-7,1,2,4.44
889,0,-1,0,-2,-2,-1,4,1,4.445
890,-2,23,-1,-1,1,-1,-2,-2,4.45
891,-3,47,-4,-5,0,1,-2,-2,4.455
892,-2,3,-1,2,-1,-1,-2,-6,4.46
893,-1,-24,0,-1,-3,-1,-3,-1,4.465
894,0,-45,-4,-2,-4,-3,1,0,4.47
895,2,-35,-2,2,-6,-1,0,2,4.4750000000000005
896,-2,-19,-2,-2,-5,2,-3,1,4.48
897,2,-21,0,0,-4,-1,0,3,4.485
898,1,-7,-3,-2,-5,0,2,0,4.49
899,-3,-5,0,-2,1,-3,0,-9,4.495
900,-2,6,-3,-1,2,0,2,2,4.5
901,-1,7,1,3,5,0,-1,2,4.505
902,1,7,-1,-1,3,-1,-1,1,4.51
903,1,1,0,-3,3,-2,0,-2,4.515
904,-1,-2,-2,0,-1,-1,-2,0,4.5200000000000005
905,-3,5,-4,-5,0,0,0,-3,4.525
906,1,10,-1,2,1,0,-3,-2,4.53
907,-2,-15,-1,-2,-3,0,-5,0,4.535
908,0,0,0,1,1,-1,-3,-2,4.54
909,1,5,-2,1,0,0,-1,-1,4.545
910,-1,2,2,1,3,-1,1,-6,4.55
911,0,-4,-1,2,-1,-1,-1,0,4.555
912,-1,6,3,4,0,0,0,3,4.5600000000000005
913,1,10,0,-1,-4,0,5,-2,4.565
914,1,2,1,-2,-2,-1,3,-1,4.57
915,-2,-2,4,1,1,-1,-1,1,4.575
916,0,-1,-4,-4,-2,-5,2,-4,4.58
917,1,2,1,1,1,-1,0,4,4.585
918,-3,1,0,-4,0,-1,-2,2,4.59
919,-2,-4,-4,-9,-4,-2,-2,2,4.595
920,-1,-2,1,0,-1,0,-4,-1,4.6000000000000005
921,-5,0,-4,-3,-3,0,-1,-6,4.605
922,-3,-1,-4,3,2,1,0,-4,4.61
923,0,4,3,3,1,2,2,0,4.615
924,-1,-4,1,-1,-4,0,0,1,4.62
925,-2,2,3,5,-1,-1,-2,-1,4.625
926,2,4,-2,-5,-3,1,0,-1,4.63
927,1,-4,-3,-1,1,-3,-1,-3,4.635
928,2,-1,-3,-6,1,-3,0,-1,4.64
929,2,-4,-3,-3,2,-2,-2,1,4.6450000000000005
930,-4,-3,0,1,0,-2,-1,-4,4.65
931,6,-3,-3,0,-4,-3,1,0,4.655
932,-11,-1,-2,-1,0,-1,-2,-3,4.66
933,-4,-2,0,-2,-2,-1,-3,0,4.665
934,-2,-1,-1,-2,-2,0,1,5,4.67
935,1,0,-4,-2,-2,1,0,-1,4.675
936,4,-4,-1,-1,-1,-2,3,-1,4.68
937,1,-1,-1,-4,1,0,0,-7,4.6850000000000005
938,-1,-6,1,1,-3,0,-1,6,4.69
939,0,6,-2,-3,0,-1,-4,3,4.695
940,1,-1,-1,0,1,1,-3,-2,4.7
941,-2,8,2,0,2,-4,0,-2,4.705
942,-1,-1,-4,-9,-3,-4,4,-3,4.71
943,-3,-1,2,6,2,2,1,-1,4.715
944,0,6,-3,-1,-2,-1,-1,0,4.72
945,0,3,-5,-1,-1,-1,-3,-1,4.7250000000000005
946,2,0,0,7,-1,0,-6,2,4.73
947,-1,-5,0,-1,-1,0,-2,-4,4.735
948,-2,-7,1,-5,-3,-4,-1,-5,4.74
949,-2,-3,-1,-3,-4,-3,2,4,4.745
950,0,-2,1,-1,0,-1,1,-3,4.75
951,-1,-5,-4,-1,-1,-2,1,0,4.755
952,2,3,-1,3,2,1,-1,2,4.76
953,0,0,0,3,1,0,0,-3,4.765
954,-2,2,-2,-5,-3,-1,0,-3,4.7700000000000005
955,-5,-1,0,-3,-2,0,0,0,4.775
956,0,-2,-2,0,-3,0,0,0,4.78
957,-1,46,-2,-1,-1,3,-3,1,4.785
958,-2,30,2,0,2,3,-1,-2,4.79
959,-2,5,-2,-2,0,-1,-1,-4,4.795
960,3,2,1,-3,-2,0,-1,-1,4.8
961,-1,-37,-3,-7,-4,-5,-1,-1,4.805
962,1,-21,2,1,0,0,-1,0,4.8100000000000005
963,0,-14,0,0,1,-1,-3,1,4.815
964,-4,-16,0,3,2,-2,1,0,4.82
965,0,-13,-4,-3,-2,-3,1,-2,4.825
966,-3,-13,-5,-1,-5,-2,-4,-5,4.83
967,-2,-6,0,2,-1,2,-1,3,4.835
968,0,-2,-4,0,-1,-1,-3,0,4.84
969,-1,-7,2,1,3,-1,1,-3,4.845
970,1,-3,0,-2,1,-3,3,4,4.8500000000000005
971,-1,-2,-3,-5,-6,-4,3,-3,4.855
972,-1,5,0,-4,-1,-1,2,0,4.86
973,1,2,-1,2,-3,3,-2,-1,4.865
974,-4,-11,-1,-3,-1,-1,-4,-2,4.87
975,1,8,1,0,1,2,-4,-1,4.875
976,-1,0,-2,-5,1,1,-1,1,4.88
977,-2,-1,-1,-1,2,3,-1,-1,4.885
978,-2,3,-1,2,0,0,0,-2,4.89
979,-4,-2,2,6,1,-1,-1,-1,4.8950000000000005
980,0,-1,-3,1,-2,-2,-1,-3,4.9
981,0,-3,-4,-5,-5,-5,0,1,4.905
982,1,5,-3,-1,2,-1,-2,1,4.91
983,0,5,-1,-2,-1,1,-2,2,4.915
984,-1,-2,0,0,-3,2,-1,0,4.92
985,0,-7,1,-2,-1,-2,-4,1,4.925
986,0,5,0,-4,-1,-3,0,0,4.93
987,2,2,0,-1,-1,-4,1,-4,4.9350000000000005
988,0,2,-2,0,1,-5,-1,1,4.94
989,-4,-7,-4,-3,-2,-4,0,0,4.945
990,-1,0,-2,1,-2,1,0,-3,4.95
991,-3,-5,4,3,0,3,-1,0,4.955
992,0,-21,0,3,1,2,-3,0,4.96
993,-1,-1,3,5,0,0,-1,0,4.965
994,-2,7,0,-3,-4,0,-1,-3,4.97
995,0,8,-1,3,-1,0,-2,-2,4.9750000000000005
996,0,15,-3,-4,-3,0,0,-1,4.98
997,2,4,1,-1,2,-2,0,1,4.985
998,0,3,-4,-4,0,-3,-1,2,4.99
999,-2,4,-1,-5,1,-3,1,0,4.995
1000,-3,-2,1,-3,1,-5,-2,-2,5.0
1001,-1,-3,1,1,-2,2,-2,-1,5.005
1002,-2,-3,-3,-3,-3,-1,0,-2,5.01
1003,-1,-1,-4,-3,-3,-3,-2,-6,5.015
1004,1,3,0,2,1,-1,-3,1,5.0200000000000005
1005,0,5,-2,-1,-2,2,0,-1,5.025
1006,0,-5,3,1,1,0,-1,0,5.03
1007,-4,-9,-5,1,0,-1,0,-2,5.035
1008,-1,-8,-3,-4,-5,0,2,-4,5.04
1009,8,-3,1,3,-3,-2,-2,4,5.045
1010,-9,-7,0,1,2,-1,0,1,5.05
1011,-3,1,0,-5,2,1,-4,-2,5.055
1012,-5,4,0,2,1,3,0,0,5.0600000000000005
1013,-1,-5,-3,-3,-1,0,1,-4,5.065
1014,4,-4,0,0,0,-2,-4,-1,5.07
1015,-1,0,0,0,0,-1,1,1,5.075
1016,-3,-4,1,-3,-3,0,-1,-1,5.08
1017,-1,3,-2,-1,-2,-2,-2,-2,5.085
1018,2,-1,1,0,-1,-1,2,-4,5.09
1019,0,-2,1,1,-3,-2,3,-4,5.095
1020,3,5,1,2,-1,-3,-3,3,5.1000000000000005
1021,-3,1,-1,2,1,0,-3,-1,5.105
1022,-2,2,-4,-2,-2,-2,-4,-1,5.11
1023,4,-4,-2,-6,1,-1,-2,2,5.115
1024,-2,-4,-2,-4,2,-1,2,-3,5.12
1025,-1,-3,-3,-6,-2,-1,1,-1,5.125
1026,2,-1,-2,0,-2,1,-2,1,5.13
1027,0,0,-1,2,-5,1,-4,1,5.135
1028,-2,3,2,-1,-3,0,-3,-2,5.14
1029,-4,0,-2,0,-2,1,-2,-3,5.1450000000000005
1030,-1,-2,1,2,-2,-1,4,-2,5.15
1031,-2,-3,-2,-1,0,-3,0,1,5.155
1032,1,0,-2,-6,2,-1,1,1,5.16
1033,-1,6,2,0,3,-1,-1,-2,5.165
1034,0,-1,3,1,1,-2,-1,-4,5.17
1035,3,2,0,0,-3,0,3,2,5.175
1036,0,11,-1,1,-2,2,-1,-5,5.18
1037,-1,14,-4,0,-3,0,-1,6,5.1850000000000005
1038,0,7,-1,2,1,1,-6,-1,5.19
1039,0,-5,0,-1,-2,-2,-3,-1,5.195
1040,-1,-8,0,1,-4,-2,0,-1,5.2
1041,6,-9,1,0,-3,-1,2,-8,5.205
1042,-9,-3,-3,1,-2,-2,0,-1,5.21
1043,0,-1,-2,-7,0,-1,-1,-1,5.215
1044,-2,-8,-6,-1,-1,-3,0,-1,5.22
1045,-2,-6,-2,-3,-1,-4,-1,-2,5.2250000000000005
1046,3,-1,-2,-3,-1,-1,2,-1,5.23
1047,0,-3,0,0,-1,0,-1,0,5.235
1048,-2,-1,2,1,0,-1,-3,-2,5.24
1049,-7,-5,-2,-1,1,0,-1,0,5.245
1050,3,-3,-2,-1,2,0,1,0,5.25
1051,-2,0,-1,2,-1,3,0,-1,5.255
1052,2,2,1,3,-3,-1,2,-1,5.26
1053,0,-3,2,0,-1,0,-1,7,5.265
1054,0,3,-1,-6,-3,-2,0,-1,5.2700000000000005
1055,-2,-13,-5,-5,-2,-1,-3,-2,5.275
1056,-1,-1,-4,-2,-1,0,0,-1,5.28
1057,-4,3,-2,3,1,0,-2,-2,5.285
1058,3,6,-2,0,-1,-3,-1,0,5.29
1059,1,1,1,2,1,-1,-2,-1,5.295
1060,-1,-2,0,-3,1,1,-2,0,5.3
1061,-4,-6,-1,-5,1,0,-1,-2,5.305
1062,-2,-2,3,-1,-4,-1,1,0,5.3100000000000005
1063,-2,2,2,1,0,-2,-3,-8,5.315
1064,0,-1,1,2,-1,-1,-5,8,5.32
1065,1,-1,0,-1,-3,0,-6,0,5.325
1066,-2,-4,-6,0,-3,1,-3,0,5.33
1067,-4,-3,-2,-2,-1,-1,2,-1,5.335
1068,-2,-3,-1,-2,0,-3,2,-1,5.34
1069,3,-1,2,0,1,-2,4,-3,5.345
1070,2,-4,1,3,-1,0,0,1,5.3500000000000005
1071,-2,0,-1,1,-2,-2,3,2,5.355
1072,4,10,1,0,-3,-2,1,-4,5.36
1073,-3,-4,0,-4,-4,-2,-1,-1,5.365
1074,3,-3,-1,-1,0,1,-1,-8,5.37
1075,2,2,-2,-1,0,3,1,8,5.375
1076,-3,-2,-3,-3,1,0,0,0,5.38
1077,1,2,1,-4,0,-2,1,1,5.385
1078,-1,3,0,-4,0,0,-2,3,5.39
1079,1,8,3,1,-1,1,-1,1,5.3950000000000005
1080,-4,-2,0,-1,-2,-1,-1,-2,5.4
1081,-2,1,-1,3,-1,-1,-1,-1,5.405
1082,-6,0,-2,2,2,-5,1,-2,5.41
1083,-1,-2,-6,0,1,-2,2,0,5.415
1084,0,-3,1,2,2,0,0,-2,5.42
1085,2,0,2,1,2,1,-3,-2,5.425
1086,-3,-7,-3,-1,-3,-3,-2,-1,5.43
1087,0,-2,-1,3,1,0,-2,-2,5.4350000000000005
1088,-2,-4,-5,-3,-3,-1,1,-6,5.44
1089,-1,-9,-3,-2,-1,-4,0,2,5.445
1090,3,0,5,3,0,1,-2,2,5.45
1091,1,-1,-3,-6,-4,-3,-1,-3,5.455
1092,0,-2,-3,-2,1,-2,1,0,5.46
1093,-1,4,-2,0,-1,3,1,0,5.465
1094,-2,-1,-2,2,-1,1,-1,0,5.47
1095,-2,-1,1,-1,-1,0,-2,-8,5.4750000000000005
1096,-2,3,2,1,1,-1,-2,9,5.48
1097,-6,-5,-3,-2,-4,-2,1,-1,5.485
1098,-1,1,0,-2,0,0,2,2,5.49
1099,0,-3,0,0,-2,0,-2,0,5.495
1100,0,-7,-6,0,-3,-2,-2,-2,5.5
1101,7,1,-3,-3,-1,-2,1,0,5.505
1102,-12,-4,-1,-3,-1,1,0,-5,5.51
1103,-2,4,1,-3,0,-4,1,-4,5.515
1104,-2,1,1,1,1,-3,0,-3,5.5200000000000005
1105,-2,2,2,2,2,-2,-2,3,5.525
1106,2,2,0,-2,-2,-1,-3,-1,5.53
1107,-3,-2,-2,-2,-2,0,-3,3,5.535
1108,0,5,0,0,-2,3,-5,-1,5.54
1109,-2,-1,1,2,-3,1,-2,-3,5.545
1110,3,0,0,-1,-1,-2,1,1,5.55
1111,-5,-4,-2,-3,-2,-3,-1,-2,5.555
1112,2,1,0,-2,-1,-3,0,0,5.5600000000000005
1113,-3,-4,-4,-1,-1,-1,-3,-4,5.565
1114,0,0,0,3,1,0,0,-2,5.57
1115,1,-2,-1,2,1,2,2,2,5.575
1116,-1,-6,-4,1,1,3,1,-2,5.58
1117,-3,2,-1,1,-2,-1,2,-1,5.585
1118,0,-2,1,0,-4,-2,-2,-2,5.59
1119,3,-5,2,-1,-2,-2,-2,0,5.595
1120,1,-2,-2,-6,-3,0,-1,0,5.6000000000000005
1121,0,2,-2,-1,1,-2,-2,-3,5.605
1122,-2,1,-2,0,2,0,-1,-1,5.61
1123,-2,-1,1,-1,0,-2,0,0,5.615
1124,0,1,3,8,2,-2,2,-3,5.62
1125,-2,-2,-3,-2,-3,0,0,0,5.625
1126,-3,-4,-5,-3,-5,-1,0,1,5.63
1127,0,1,-2,-6,-3,-1,0,-2,5.635
1128,-2,-5,-1,-3,-1,0,3,-1,5.64
1129,-1,0,-1,1,1,-1,0,0,5.6450000000000005
1130,1,7,2,-2,-2,-1,-3,-2,5.65
1131,-1,-2,1,5,3,-1,-3,-4,5.655
1132,2,0,-1,0,-1,0,-1,-2,5.66
1133,-1,-3,0,1,3,2,-1,-2,5.665
1134,2,-2,2,1,3,0,-1,0,5.67
1135,-1,0,0,2,-1,-4,-2,1,5.675
1136,-1,4,2,2,0,3,2,0,5.68
1137,-1,-10,2,0,-1,0,0,2,5.6850000000000005
1138,-1,-8,-1,-1,0,0,-3,-5,5.69
1139,-2,0,-3,-3,1,-2,-2,-2,5.695
1140,2,0,-3,-2,-2,-3,-3,2,5.7
1141,1,6,-1,-2,-3,-7,0,-1,5.705
1142,0,-3,-1,-2,-1,-2,0,3,5.71
1143,-2,-1,1,0,2,1,-1,-1,5.715
1144,-3,-1,-2,-5,-1,-2,-1,-3,5.72
1145,0,-1,-1,-1,0,0,1,-4,5.7250000000000005
1146,-2,4,0,0,-1,-2,-1,-4,5.73
1147,9,3,1,3,-2,2,-1,-4,5.735
1148,-9,-1,4,4,1,-1,-2,6,5.74
1149,-2,-3,-1,-4,-1,1,1,-2,5.745
1150,-5,-5,-5,-3,0,3,1,-1,5.75
1151,0,-2,-2,-5,-5,-1,1,0,5.755
1152,0,0,-1,-3,-3,-2,0,-4,5.76
1153,-2,-4,-1,2,2,-1,-3,0,5.765
1154,2,-2,0,3,3,-3,1,5,5.7700000000000005
1155,0,1,-3,-2,1,-1,-3,0,5.775
1156,3,-4,-3,-2,-1,2,0,-3,5.78
1157,1,2,1,-3,-3,-1,-2,0,5.785
1158,1,0,-3,-5,-3,-1,-1,-2,5.79
1159,-5,-3,-1,-1,-4,-1,1,2,5.795
1160,0,0,-1,0,-3,-4,-3,0,5.8
1161,1,1,0,-3,-2,0,-2,1,5.805
1162,-3,-4,-6,-5,0,-2,0,-1,5.8100000000000005
1163,-3,-3,-4,-2,0,1,1,-1,5.815
1164,1,6,-1,-1,3,1,-1,0,5.82
1165,-2,-1,-1,-1,1,-2,2,-1,5.825
1166,0,3,1,1,0,-2,1,-3,5.83
1167,0,1,2,4,3,0,2,-2,5.835
1168,0,-2,3,1,-2,-4,-1,-3,5.84
1169,0,-2,-2,1,-1,-1,-3,0,5.845
1170,-2,-3,1,0,1,1,-4,-2,5.8500000000000005
1171,-3,1,-4,-3,0,-5,-3,0,5.855
1172,-2,-7,-3,-4,-1,1,0,-3,5.86
1173,-2,2,-1,0,-2,0,0,0,5.865
1174,0,3,-1,-1,0,-1,-2,2,5.87
1175,-2,-8,-3,-1,-2,-2,0,-1,5.875
1176,2,-2,-1,-3,2,-1,-3,1,5.88
1177,9,2,0,-5,-4,-2,0,-1,5.885
1178,-11,3,0,-1,-2,2,-2,-7,5.89
1179,-1,0,3,1,-2,0,-2,5,5.8950000000000005
1180,-1,-3,-1,-2,-4,-4,2,-2,5.9
1181,-3,-5,-1,-3,2,2,0,-1,5.905
1182,4,-4,-4,-3,0,-2,1,-3,5.91
1183,-1,0,-2,-4,-2,-2,1,-3,5.915
1184,-2,2,3,2,0,1,-2,-1,5.92
1185,2,5,1,6,-2,-1,-2,0,5.925
1186,-1,-3,-2,2,-2,-1,0,0,5.93
1187,-3,-7,-4,-1,-1,0,0,-5,5.9350000000000005
1188,1,-1,-4,-3,-2,1,3,1,5.94
1189,-3,3,-2,-2,-1,0,-4,-3,5.945
1190,1,-4,0,-5,-2,-1,-1,2,5.95
1191,1,2,2,2,-2,-2,-4,-1,5.955
1192,-1,-4,-4,-7,-2,-3,-2,0,5.96
1193,-4,-4,-2,1,0,-2,0,-1,5.965
1194,1,3,0,2,-3,0,0,-1,5.97
1195,0,-3,2,0,-1,1,3,-3,5.9750000000000005
1196,0,-1,3,-2,0,0,-2,-1,5.98
1197,-3,-6,3,-1,1,-2,-2,1,5.985
1198,0,-3,0,-2,2,-1,1,0,5.99
1199,0,2,-4,-6,0,0,1,1,5.995
1200,-1,0,-3,2,1,-1,-2,-2,6.0
1201,0,-1,-3,1,-5,-1,1,-2,6.005
1202,-2,1,-2,-1,0,-1,-2,0,6.01
1203,-1,1,-2,0,1,0,1,3,6.015000000000001
1204,1,1,2,3,0,1,1,-2,6.0200000000000005
1205,1,8,2,1,-1,0,-1,-5,6.025
1206,2,-4,0,3,-2,-1,-1,2,6.03
1207,-2,-1,1,1,2,-2,-1,1,6.035
1208,-3,-3,-3,-4,1,1,-2,1,6.04
1209,0,-5,-4,-5,-2,1,0,-2,6.045
1210,-3,3,2,0,-1,2,0,-1,6.05
1211,1,-1,-2,-1,-3,-2,1,-4,6.055
1212,3,4,-1,0,-4,-3,-1,3,6.0600000000000005
1213,-4,-2,-1,-2,-1,0,-2,-2,6.065
1214,1,-7,-2,-4,1,0,-4,-5,6.07
1215,0,-3,0,-1,-1,0,-4,2,6.075
1216,-6,-4,0,1,0,-1,0,-3,6.08
1217,-3,2,-2,-1,-2,-3,0,-1,6.085
1218,1,0,-3,2,-2,1,1,11,6.09
1219,1,1,3,2,-1,0,-2,-7,6.095
1220,-2,1,3,2,0,1,0,-1,6.1000000000000005
1221,-1,-1,2,0,0,0,1,0,6.105
1222,-1,-5,-2,0,1,-2,3,-5,6.11
1223,-2,-1,-4,-3,-3,-3,-2,-1,6.115
1224,0,-2,-4,-3,-1,0,-4,-1,6.12
1225,-3,-3,-2,-2,1,2,-3,-1,6.125
1226,-1,1,2,3,1,-1,-3,-3,6.13
1227,0,0,3,0,-2,-1,-1,-1,6.135
1228,-3,-1,-4,-3,-2,-3,1,-1,6.140000000000001
1229,-2,-6,-4,1,0,-2,-2,0,6.1450000000000005
1230,0,-2,-2,-4,1,-1,1,-5,6.15
1231,-1,8,-1,2,1,1,-1,4,6.155
1232,-2,-5,-4,-2,-5,-1,-1,-1,6.16
1233,1,4,1,2,2,1,-4,-2,6.165
1234,-1,-1,-2,0,-4,-1,-4,-6,6.17
1235,0,-1,-1,3,-4,1,0,2,6.175
1236,2,5,2,0,1,-1,0,2,6.18
1237,-2,-5,0,9,2,-3,0,1,6.1850000000000005
1238,0,3,3,0,1,-3,-2,1,6.19
1239,0,-5,-3,-7,-2,-2,1,-1,6.195
1240,-1,-1,0,1,0,-1,2,-2,6.2
1241,-1,-4,-4,-5,-2,1,5,3,6.205
1242,0,1,-3,-2,0,2,0,1,6.21
1243,-2,-6,-1,0,5,1,-2,0,6.215
1244,0,5,3,1,2,-1,-2,-1,6.22
1245,0,-3,-4,-8,-3,-1,-1,-4,6.2250000000000005
1246,-4,-2,1,0,-2,0,-1,-3,6.23
1247,3,-1,-3,1,-1,1,2,0,6.235
1248,0,-3,-3,0,0,-1,-1,-4,6.24
1249,-1,5,-1,-3,-2,0,0,2,6.245
1250,2,0,-2,-2,1,1,0,3,6.25
1251,-1,1,-5,-5,-3,2,-4,-2,6.255
1252,-2,-7,-3,-4,-1,0,1,-1,6.26
1253,0,-7,-2,-1,-2,-4,0,-1,6.265000000000001
1254,1,-4,1,-1,-2,-3,-1,1,6.2700000000000005
1255,1,14,3,0,-2,-1,-1,-3,6.275
1256,-1,7,0,1,-3,-1,2,0,6.28
1257,-1,1,2,-1,0,0,-2,-1,6.285
1258,-1,-8,0,-2,-1,-2,-1,0,6.29
1259,-4,-19,-2,0,1,-1,-2,-2,6.295
1260,-1,-8,-2,0,-1,0,-1,-8,6.3
1261,3,-7,-2,-4,-1,-3,0,4,6.305
1262,-3,-11,-4,-2,-3,-1,-1,-3,6.3100000000000005
1263,-2,-3,-2,-2,-1,1,2,-1,6.315
1264,1,2,1,-2,-1,3,-2,1,6.32
1265,-2,2,1,2,1,-3,-3,-1,6.325
1266,-1,9,2,1,0,-4,2,-4,6.33
1267,-2,2,-2,-6,-2,-2,1,4,6.335
1268,0,7,0,-1,-2,-2,-2,0,6.34
1269,-1,1,-3,-1,0,2,-1,-4,6.345
1270,-3,-1,-2,-1,1,1,-4,-3,6.3500000000000005
1271,-3,-1,-5,-4,-2,1,-1,0,6.355
1272,-2,-6,1,3,1,1,3,2,6.36
1273,-3,2,2,5,1,0,0,-1,6.365
1274,2,2,0,-1,-3,-3,0,-1,6.37
1275,0,-6,-2,-1,0,-4,-2,0,6.375
1276,1,-1,0,-1,-1,-3,-3,-1,6.38
1277,0,3,-2,-1,-1,-2,-1,-2,6.385
1278,-2,1,-1,2,0,-1,1,1,6.390000000000001
1279,0,1,3,3,-1,0,-2,-1,6.3950000000000005
1280,0,1,0,-2,-2,-1,-2,1,6.4
1281,-3,-7,1,-3,-4,2,-1,-3,6.405
1282,0,34,0,-5,-2,2,0,0,6.41
1283,-4,14,0,3,0,-3,2,-1,6.415
1284,-2,-6,-2,4,0,0,-1,-3,6.42
1285,0,-9,-2,0,-3,-2,-2,-4,6.425
1286,-2,-23,0,-1,1,-2,-4,4,6.43
1287,0,-12,-2,0,-3,-1,0,-2,6.4350000000000005
1288,-3,-6,-1,1,2,-1,-2,-4,6.44
1289,1,-3,-1,-3,1,-1,-1,-2,6.445
1290,-3,-5,-2,-3,-2,1,0,-1,6.45
1291,0,-3,-1,-2,2,-2,2,-1,6.455
1292,1,-2,0,-2,1,0,2,1,6.46
1293,2,6,3,2,3,0,2,1,6.465
1294,0,-3,2,6,1,0,0,-1,6.47
1295,0,0,-2,-2,-4,-1,-3,-2,6.4750000000000005
1296,-2,-4,1,2,-1,0,-2,-2,6.48
1297,-1,7,0,3,1,-3,1,0,6.485
1298,-1,3,-2,-1,-1,-1,-2,0,6.49
1299,0,-1,1,-2,-1,0,-1,-3,6.495
1300,1,2,-2,-5,-5,-3,0,2,6.5
1301,-2,1,-2,2,0,-1,-2,1,6.505
1302,1,-3,-4,-6,-5,-1,-1,-3,6.51
1303,-2,-6,-1,-1,1,0,0,0,6.515000000000001
1304,-1,1,-4,-1,-2,2,1,0,6.5200000000000005
1305,-1,-1,1,-1,-1,-2,-2,-1,6.525
1306,1,1,-2,-2,0,-1,0,-2,6.53
1307,0,0,0,2,0,1,-1,2,6.535
1308,-2,7,-3,0,-1,1,0,0,6.54
1309,-3,2,-4,1,-2,0,0,1,6.545
1310,1,-1,4,3,-1,-2,0,-2,6.55
1311,0,2,1,0,0,0,0,-1,6.555
1312,-2,-2,-2,-3,-1,-5,-4,-3,6.5600000000000005
1313,1,-2,0,-2,-3,-2,-1,-3,6.565
1314,-2,-1,-2,0,-3,-1,-4,-3,6.57
1315,0,-1,-1,-2,-2,0,-5,-3,6.575
1316,1,-3,0,-2,-1,0,-1,2,6.58
1317,-2,3,5,-1,3,-3,0,-2,6.585
1318,-3,-7,-6,-1,0,-1,0,1,6.59
1319,-2,0,1,-1,1,-1,1,3,6.595
1320,0,-2,0,0,-2,-1,-1,-2,6.6000000000000005
1321,1,-1,-2,-2,-2,1,-1,0,6.605
1322,-4,-1,0,-1,-1,-2,1,0,6.61
1323,0,2,-1,-1,-2,-1,-2,-1,6.615
1324,-1,0,-1,-1,0,-1,-3,-1,6.62
1325,1,2,-4,-6,-1,0,-1,0,6.625
1326,0,-1,1,1,1,-1,1,1,6.63
1327,1,-1,-2,1,-1,-1,-1,0,6.635
1328,0,-1,-2,-1,-1,-1,0,0,6.640000000000001
1329,-2,-8,-2,-3,-1,0,0,0,6.6450000000000005
1330,0,0,-2,-4,-2,-2,-3,-3,6.65
1331,-2,-3,3,1,1,-1,0,-1,6.655
1332,0,-1,1,3,0,-1,0,1,6.66
1333,3,-1,-2,0,-2,3,-1,-2,6.665
1334,1,0,-1,-2,-1,2,-2,-11,6.67
1335,6,8,1,-1,-3,-2,-1,9,6.675
1336,-10,-2,-2,-1,-1,-3,-1,-1,6.68
1337,-2,-3,-2,1,1,-1,-1,0,6.6850000000000005
1338,-1,-1,-2,1,1,-3,0,-1,6.69
1339,-2,-2,-3,1,1,-1,0,-5,6.695
1340,2,4,1,-1,0,0,1,-4,6.7
1341,-1,3,-1,-3,-2,0,0,-3,6.705
1342,1,0,1,1,0,1,-2,1,6.71
1343,-4,0,0,1,0,1,-2,-5,6.715
1344,2,4,0,-2,-1,-2,-1,3,6.72
1345,-2,0,-1,-2,1,-1,-2,-2,6.7250000000000005
1346,-1,2,0,0,0,1,0,8,6.73
1347,-1,-5,-2,-1,1,-2,0,0,6.735
1348,-1,-6,0,3,-2,1,-1,-1,6.74
1349,-1,-2,-1,0,-3,-1,0,-1,6.745
1350,-1,0,0,0,-3,1,-1,0,6.75
1351,-1,2,-1,-7,-4,0,3,-5,6.755
1352,3,-1,1,-1,1,-2,-2,3,6.76
1353,-2,-2,1,0,-1,-3,-3,1,6.765000000000001
1354,-1,-6,-2,1,-1,-3,-3,-1,6.7700000000000005
1355,-3,2,-1,3,0,1,-1,-5,6.775
1356,2,1,-4,-3,-1,-3,1,-6,6.78
1357,-4,-3,-1,2,1,3,0,-1,6.785
1358,-2,-1,0,-6,-1,-1,0,-1,6.79
1359,2,-2,-1,-1,-1,0,-3,-1,6.795
1360,-2,-1,1,-1,1,2,0,2,6.8
1361,-3,-3,-1,-2,-2,-1,1,0,6.805
1362,-2,-1,-1,-3,0,-1,2,-2,6.8100000000000005
1363,0,1,-1,1,0,-1,-1,1,6.815
1364,-1,-2,2,-2,0,1,-1,2,6.82
1365,-2,-5,0,2,-1,-1,-4,-2,6.825
1366,-1,1,1,1,0,-2,0,-1,6.83
1367,-2,-3,-3,-4,-2,-3,-2,0,6.835
1368,-2,-2,-3,-3,0,0,-2,-1,6.84
1369,1,4,-1,-1,1,1,0,-2,6.845
1370,-1,-4,-4,-5,-4,1,-1,-5,6.8500000000000005
1371,0,2,-1,1,-1,-2,1,4,6.855
1372,-1,1,-3,-2,-1,-1,-1,0,6.86
1373,6,0,-2,0,0,-2,-2,1,6.865
1374,-12,1,-2,0,-2,-2,0,0,6.87
1375,-1,-6,-3,-2,-2,1,-1,-3,6.875
1376,-2,-4,0,-2,-2,0,-4,3,6.88
1377,2,-6,-1,-1,0,0,2,1,6.885
1378,2,-3,1,4,3,-1,0,1,6.890000000000001
1379,-2,-1,-1,-1,0,-4,1,-2,6.8950000000000005
1380,-1,-2,0,0,-3,-2,-3,-4,6.9
1381,-2,-2,-2,-3,-2,-2,-1,-1,6.905
1382,3,-1,2,-1,1,2,0,1,6.91
1383,-2,-8,-3,-7,-1,1,-1,-2,6.915
1384,0,0,-2,-5,-3,-2,0,-2,6.92
1385,-2,2,2,0,-1,0,-1,0,6.925
1386,-1,1,-2,1,1,0,0,-5,6.93
1387,0,4,0,0,-1,-1,-1,4,6.9350000000000005
1388,-3,-8,-2,-1,0,-1,-2,-4,6.94
1389,0,2,1,-2,-2,-3,1,-2,6.945
1390,1,-1,-4,-3,0,-2,-3,-4,6.95
1391,-2,-2,-1,-1,1,-1,0,-1,6.955
1392,2,4,0,2,1,0,1,1,6.96
1393,-3,0,-1,0,-1,-1,-3,-2,6.965
1394,2,0,0,0,0,1,-2,-1,6.97
1395,-1,-1,-2,-5,0,-4,-2,0,6.9750000000000005
1396,-2,3,-2,0,-3,0,-1,-1,6.98
1397,-1,0,-4,-7,-3,-2,-4,-1,6.985
1398,0,2,0,-1,0,0,-2,1,6.99
1399,-2,-7,-3,-2,-2,-1,0,-2,6.995
1400,1,0,-1,1,0,-1,0,-1,7.0
1401,-1,-4,0,-2,-1,-1,0,-1,7.005
1402,-3,-2,-2,-3,-2,-3,-2,-2,7.01
1403,7,-2,1,1,0,0,-2,1,7.015000000000001
1404,-9,0,-1,-1,0,0,1,-3,7.0200000000000005
1405,-1,8,3,3,-2,2,0,3,7.025
1406,3,0,-1,2,-3,2,1,1,7.03
1407,0,1,1,0,-1,1,-3,-9,7.035
1408,2,-4,0,-3,-1,-2,-2,1,7.04
1409,0,-1,0,-1,0,-2,-1,-1,7.045
1410,4,-3,-1,-1,2,-4,-1,1,7.05
1411,-17,5,2,4,2,0,1,0,7.055
1412,1,2,1,-1,1,-2,-3,-1,7.0600000000000005
1413,-4,1,2,-2,-4,1,-3,-2,7.065
1414,2,0,-1,-1,-2,-1,-3,1,7.07
1415,1,-6,-1,-2,-4,-3,-3,-1,7.075
1416,-1,0,0,0,-2,0,0,-1,7.08
1417,-1,-4,-3,3,0,-4,1,-1,7.085
1418,-1,3,1,4,2,0,-1,-3,7.09
1419,2,2,-1,-2,1,-1,-1,-1,7.095
1420,-2,-1,-3,1,0,-2,0,-3,7.1000000000000005
1421,2,-1,-2,-1,0,0,-1,2,7.105
1422,-1,0,-3,-2,-4,0,1,1,7.11
1423,-1,3,0,2,1,-1,1,0,7.115
1424,3,-2,0,-3,1,-2,1,-3,7.12
1425,0,3,3,2,0,-1,2,-3,7.125
1426,-3,-1,4,1,-3,-1,-2,1,7.13
1427,-1,-1,-1,0,-1,1,-2,0,7.135
1428,-1,-4,-4,-1,-2,-1,-5,0,7.140000000000001
1429,0,0,-1,-1,1,-1,-4,-1,7.1450000000000005
1430,-3,-7,-5,-2,-2,-2,-4,0,7.15
1431,3,4,-3,-2,-1,-3,-2,-2,7.155
1432,0,7,-3,0,-3,0,1,1,7.16
1433,-1,1,-4,-4,0,2,1,-1,7.165
1434,-1,1,1,-1,-1,0,2,0,7.17
1435,-2,-2,-3,-2,-3,0,1,-1,7.175
1436,0,1,-3,-4,-1,1,2,2,7.18
1437,-2,-3,-1,1,-2,-1,-1,1,7.1850000000000005
1438,0,-1,-1,-4,-1,0,1,-2,7.19
1439,-1,-3,0,-2,-2,2,-2,-2,7.195
1440,1,2,2,1,0,-1,-2,-2,7.2
1441,0,1,0,-1,-1,-1,-1,-2,7.205
1442,0,-1,0,-1,-1,-4,-2,0,7.21
1443,-1,1,0,-1,0,-2,3,-4,7.215
1444,0,0,-4,-4,-3,0,0,1,7.22
1445,-1,2,-2,-5,2,-1,-1,-1,7.2250000000000005
1446,1,-7,-3,-2,-2,-1,-1,-2,7.23
1447,-2,1,5,4,0,-1,-2,0,7.235
1448,-4,-8,-4,-1,-3,0,-1,0,7.24
1449,-1,-1,1,3,-2,-1,-2,-1,7.245
1450,-2,3,-3,-3,0,-3,-1,-1,7.25
1451,2,-1,0,1,2,-1,-2,-2,7.255
1452,1,-3,2,2,1,2,2,-7,7.26
1453,-2,-5,-2,-3,-2,0,-1,4,7.265000000000001
1454,-7,1,0,4,3,2,1,1,7.2700000000000005
1455,16,-2,-4,-2,-4,-1,0,-1,7.275
1456,-9,3,1,-2,2,0,-2,5,7.28
1457,2,4,-2,-1,-2,-2,0,-6,7.285
1458,11,3,0,1,-3,0,2,1,7.29
1459,-60,-4,-3,0,-1,-3,-4,-7,7.295
1460,31,-2,0,1,0,0,0,9,7.3
1461,-8,-5,-1,0,1,0,-2,-13,7.305
1462,10,-4,1,-1,3,1,-1,0,7.3100000000000005
1463,-12,16,0,-1,-2,-2,-1,3,7.315
1464,0,16,-6,0,-4,-1,0,-10,7.32
1465,-13,33,1,-4,0,-1,1,13,7.325
1466,-17,14,-3,-9,-5,-3,2,-11,7.33
1467,10,-7,-5,-3,-3,-1,-5,15,7.335
1468,5,2,-16,-2,-1,-1,0,45,7.34
1469,58,-16,-3,7,2,-1,2,29,7.345
1470,-33,-12,7,10,1,-2,-4,-65,7.3500000000000005
1471,-2,-14,8,-5,0,0,4,-28,7.355
1472,-19,-19,1,-10,-3,-3,-4,-17,7.36
1473,-13,-19,-14,-15,-2,1,-5,2,7.365
1474,6,-13,-10,-2,-2,0,-3,16,7.37
1475,12,-16,-7,-3,-1,0,-1,3,7.375
1476,-6,-23,8,9,-3,0,-1,-9,7.38
1477,5,-16,0,0,0,-3,1,-3,7.385
1478,2,-8,6,6,-1,-1,0,2,7.390000000000001
1479,15,-14,0,2,-4,0,0,3,7.3950000000000005
1480,-4,-16,-2,-6,0,0,-2,-3,7.4
1481,-25,-12,-1,1,-3,-1,-1,-16,7.405
1482,9,3,4,0,1,-1,-1,14,7.41
1483,48,-1,-9,-3,0,-1,-1,9,7.415
1484,10,29,5,1,2,0,0,-12,7.42
1485,-40,24,4,2,-1,1,3,1,7.425
1486,-20,3,-1,0,-2,-3,2,17,7.43
1487,-7,18,11,-7,-2,0,-3,-10,7.4350000000000005
1488,17,28,42,27,3,-1,-1,-1,7.44
1489,50,51,46,-2,-2,-2,-5,0,7.445
1490,-18,34,-68,-16,-7,0,-5,-7,7.45
1491,-18,5,-77,-18,-1,2,2,0,7.455
1492,-22,-26,78,-11,-2,2,6,5,7.46
1493,94,23,9,-25,-9,-6,4,16,7.465
1494,-68,7,101,45,15,-2,-2,6,7.47
1495,-17,-12,88,11,2,3,0,-12,7.4750000000000005
1496,-46,-20,12,-68,-24,-14,-15,-18,7.48
1497,41,21,-34,-50,-5,5,5,2,7.485
1498,127,11,29,71,28,16,12,6,7.49
1499,-71,-86,55,23,17,5,1,5,7.495
1500,-21,72,-49,30,-2,2,-1,-12,7.5
1501,-59,-39,-2,39,29,5,-4,-1,7.505
1502,-21,-21,-26,-67,-31,-15,13,41,7.51
1503,57,63,-49,0,5,0,-11,-23,7.515000000000001
1504,-47,-41,37,30,-3,-12,9,16,7.5200000000000005
1505,-15,7,-65,-91,-20,-20,-27,-38,7.525
1506,4,11,-19,15,-4,-48,-53,-10,7.53
1507,104,48,2,-48,-34,-73,24,46,7.535
1508,-62,-72,-1,-59,-12,28,-2,-17,7.54
1509,-2,-40,14,89,20,96,76,42,7.545
1510,-63,-95,23,20,16,11,-2,35,7.55
1511,18,28,-67,-48,-34,-11,-47,-71,7.555
1512,-21,4,-61,-34,9,-46,-39,-89,7.5600000000000005
1513,-27,64,104,54,-10,-35,-13,-18,7.565
1514,35,-97,19,-62,1,6,-10,-1,7.57
1515,114,85,-10,-72,-15,-2,18,19,7.575
1516,-87,-73,16,107,23,-4,4,-2,7.58
1517,31,-27,47,69,-10,-8,-12,-8,7.585
1518,-18,10,-60,6,24,15,17,-21,7.59
1519,50,18,41,-66,-16,15,8,-3,7.595
1520,38,88,-64,67,49,31,59,30,7.6000000000000005
1521,27,23,-38,40,5,-14,-33,77,7.605
1522,60,25,8,-65,-10,-17,-22,-45,7.61
1523,-43,55,113,127,6,5,5,15,7.615
1524,-5,-79,-51,-58,-67,-16,-46,-59,7.62
1525,13,96,-57,-22,10,-22,-12,33,7.625
1526,-17,-34,-28,-64,-27,6,11,32,7.63
1527,-27,-60,-112,-58,3,5,12,-1,7.635
1528,32,73,1,33,-3,-7,10,33,7.640000000000001
1529,-18,-23,18,-15,-4,-12,4,-65,7.6450000000000005
1530,1,37,54,-52,-19,13,8,-18,7.65
1531,-71,-62,38,66,17,7,5,3,7.655
1532,63,67,35,30,20,-2,-2,11,7.66
1533,14,-50,36,-93,-30,-5,-8,-24,7.665
1534,-48,-25,39,9,14,3,14,-26,7.67
1535,-49,-49,-67,97,26,6,13,25,7.675
1536,19,-21,43,50,0,4,-1,38,7.68
1537,39,40,11,-31,15,1,-6,-15,7.6850000000000005
1538,35,28,49,-35,-38,-13,-7,0,7.69
1539,-102,-50,-12,70,56,10,6,-12,7.695
1540,82,79,-8,-57,-3,3,1,23,7.7
1541,46,-15,3,52,16,5,7,-12,7.705
1542,-41,5,-34,-1,-11,-4,10,3,7.71
1543,-9,7,31,-61,-13,2,-31,-12,7.715
1544,19,40,-23,-23,-9,9,17,1,7.72
1545,-65,54,10,25,18,-7,-3,-6,7.7250000000000005
1546,88,54,-77,3,-3,6,16,9,7.73
1547,-9,-9,53,66,0,-11,-38,-3,7.735
1548,-3,-47,37,-94,-9,1,0,-19,7.74
1549,5,-9,13,-128,-31,-5,22,12,7.745
1550,-72,49,4,119,18,4,0,-33,7.75
1551,0,16,-13,-15,-7,-5,-38,10,7.755
1552,18,16,8,-1,-4,-1,14,39,7.76
1553,-37,-101,63,95,22,0,-20,-36,7.765000000000001
1554,50,67,-106,-40,-36,4,-3,-3,7.7700000000000005
1555,-6,-32,81,0,42,8,39,9,7.775
1556,-23,-52,-30,-63,-9,-14,-48,19,7.78
1557,-54,-68,-61,65,-12,-8,-9,-17,7.785
1558,1,19,24,-20,4,-2,-8,10,7.79
1559,-10,63,45,-2,-26,8,13,-18,7.795
1560,54,-6,-34,-25,-1,3,27,32,7.8
1561,46,10,-29,2,2,-9,-10,-4,7.805000000000001
1562,-9,-27,-4,-1,14,-1,-4,-17,7.8100000000000005
1563,96,29,-51,-60,-17,-2,-3,5,7.815
1564,-73,-12,16,24,7,-1,4,-25,7.82
1565,-35,-32,-28,-107,-38,7,11,29,7.825
1566,-86,-25,48,113,56,5,0,-8,7.83
1567,59,55,5,-45,4,-1,-11,-30,7.835
1568,-12,-22,-13,-18,-32,-1,3,31,7.84
1569,-8,-21,-12,-14,25,11,25,-16,7.845
1570,-32,16,-52,-25,-10,-5,-4,7,7.8500000000000005
1571,-26,-72,11,-74,-11,-3,-32,8,7.855
1572,60,54,-53,70,9,-5,-19,-27,7.86
1573,-33,11,20,-33,-16,-7,-13,-6,7.865
1574,126,-39,59,38,14,17,28,14,7.87
1575,-61,32,5,-44,-44,-27,-11,25,7.875
1576,17,-36,-66,7,20,4,15,0,7.88
1577,34,-19,39,-18,-5,1,1,-12,7.885
1578,-3,87,-22,-86,-35,-12,-8,-8,7.890000000000001
1579,-26,-68,14,96,44,2,-21,-5,7.8950000000000005
1580,6,39,52,-83,-10,0,-13,-51,7.9
1581,-68,-5,-39,-61,-20,4,26,2,7.905
1582,38,-1,43,-49,11,2,-25,39,7.91
1583,13,43,7,83,37,16,35,29,7.915
1584,-71,-38,10,-77,-24,-15,-42,-10,7.92
1585,58,-47,7,126,39,8,-1,-34,7.925
1586,-32,-9,-18,-6,-36,-35,-5,16,7.930000000000001
1587,83,7,24,84,11,23,-4,13,7.9350000000000005
1588,51,-13,42,64,43,20,13,10,7.94
1589,-84,25,-22,-70,-29,-12,-9,-15,7.945
1590,63,-40,22,-28,3,4,8,5,7.95
1591,-47,15,-3,59,-2,-18,7,-5,7.955
1592,-39,30,58,-12,-9,-10,-2,-31,7.96
1593,20,-17,-57,19,7,11,26,10,7.965
1594,6,-16,10,23,2,-4,-7,18,7.97
1595,24,30,-19,-25,-16,10,24,-2,7.9750000000000005
1596,92,-6,-59,-43,6,2,15,-11,7.98
1597,-82,16,20,35,-20,-16,-8,37,7.985
1598,-19,-1,-78,-5,22,-6,-12,-13,7.99
1599,-22,-43,-38,-128,-16,7,12,-14,7.995
1600,-14,2,6,127,26,-4,3,-20,8.0
1601,69,0,-5,-63,-19,-7,2,24,8.005
1602,-48,-58,-54,39,23,6,3,-21,8.01
1603,62,16,-37,-103,-17,-4,-2,-20,8.015
1604,3,-55,87,20,-38,-2,51,41,8.02
1605,105,80,13,64,65,2,-60,17,8.025
1606,-26,20,54,12,-9,4,-4,-12,8.03
1607,-4,-10,-60,-18,-4,-1,-6,-2,8.035
1608,-20,5,71,-26,-18,-2,-1,3,8.040000000000001
1609,32,35,-31,-10,-16,-1,9,1,8.045
1610,40,-7,-4,-1,-10,-3,1,-1,8.05
1611,-11,15,20,8,-5,3,13,-11,8.055
1612,37,40,103,-40,1,-1,-10,30,8.06
1613,-16,-22,-9,26,7,1,-8,-8,8.065
1614,-49,12,8,23,-1,-1,1,-26,8.07
1615,3,5,38,-58,-3,4,-6,29,8.075
1616,87,-45,-42,69,-2,-8,-20,-7,8.08
1617,-43,55,6,27,26,1,25,-52,8.085
1618,91,21,27,117,26,0,-12,70,8.09
1619,-60,-48,-54,-48,-10,-4,-7,-19,8.095
1620,-69,7,-70,-25,-11,-1,5,1,8.1
1621,2,-18,52,-9,14,3,-6,2,8.105
1622,17,35,-76,-49,-35,2,7,-49,8.11
1623,48,13,95,81,6,2,11,7,8.115
1624,-60,-23,-25,18,7,-10,-4,16,8.120000000000001
1625,32,-28,8,-40,-7,5,13,-2,8.125
1626,-72,59,9,-67,-27,-8,-18,-13,8.13
1627,-6,-51,11,25,7,-1,-3,-5,8.135
1628,52,6,-62,-44,-4,11,28,-11,8.14
1629,5,18,32,-27,-20,-5,-20,32,8.145
1630,-8,3,-9,77,50,14,8,8,8.15
1631,-68,-41,-13,-27,-16,-13,2,1,8.155
1632,-19,28,-4,-53,-3,-3,-16,-21,8.16
1633,51,17,21,9,0,-7,-11,4,8.165000000000001
1634,-9,-41,44,22,12,2,12,25,8.17
1635,36,-3,19,26,-16,-1,-10,-9,8.175
1636,-73,-3,34,70,14,5,-19,-19,8.18
1637,63,-14,-90,-128,-13,-4,-5,15,8.185
1638,11,-14,-3,70,16,4,14,-3,8.19
1639,10,-11,15,-8,2,4,0,-16,8.195
1640,78,26,-14,-25,-11,2,14,39,8.2
1641,-93,-21,-3,34,-3,-3,6,-24,8.205
1642,-19,-53,-53,-49,-24,3,5,-59,8.21
1643,-26,40,43,2,23,-10,-24,68,8.215
1644,39,12,-11,-45,18,14,-14,-6,8.22
1645,-13,27,-72,106,-24,5,22,29,8.225
1646,45,-9,85,-75,-1,-11,-1,-2,8.23
1647,5,28,-50,-46,-21,-7,-11,-18,8.235
1648,-53,5,38,34,8,-4,-7,-15,8.24
1649,-20,-13,-26,-76,-9,2,15,-11,8.245000000000001
1650,32,28,-41,6,-16,2,-3,22,8.25
1651,-14,-42,29,34,26,4,29,-15,8.255
1652,-9,19,-13,-44,0,-3,-25,10,8.26
1653,21,-11,56,121,22,4,-5,6,8.265
1654,-59,25,-58,-61,-7,-5,-9,-21,8.27
1655,-12,10,44,-24,-23,2,3,-18,8.275
1656,57,-19,-15,51,20,5,10,23,8.28
1657,-55,-17,18,-48,-14,-7,-9,-27,8.285
1658,9,-13,26,-39,-21,-4,-15,19,8.290000000000001
1659,5,30,-32,19,5,3,18,23,8.295
1660,-10,-20,22,-39,-17,-5,12,-4,8.3
1661,30,12,23,18,-2,-2,-18,-4,8.305
1662,-7,-32,24,-14,-1,0,-2,-3,8.31
1663,43,24,-58,-52,-16,2,7,0,8.315
1664,-54,-61,22,99,17,-7,-24,-17,8.32
1665,-69,0,13,-26,0,-4,8,-4,8.325
1666,-5,-5,-13,-13,6,1,-14,-9,8.33
1667,-26,-7,-53,-9,-3,-1,5,-18,8.335
1668,27,22,44,-5,-27,-8,-7,6,8.34
1669,7,1,43,-32,21,8,-2,-3,8.345
1670,-5,1,46,37,0,0,7,10,8.35
1671,-7,10,-12,-14,-13,-9,-14,-12,8.355
1672,-10,11,-1,-36,-3,1,8,-10,8.36
1673,12,-4,83,23,0,-2,14,18,8.365
1674,28,28,-50,-23,-3,-1,-11,0,8.370000000000001
1675,-21,-25,-10,-16,1,-5,-1,-10,8.375
1676,-32,-9,-67,-12,4,0,3,-1,8.38
1677,36,-6,1,5,-1,-5,-11,-4,8.385
1678,-47,4,23,5,1,-2,15,-14,8.39
1679,-3,-13,12,21,5,-7,-3,23,8.395
1680,34,-45,24,11,5,-4,-13,-19,8.4
1681,-38,-9,-57,-10,-10,-10,-3,42,8.405
1682,81,-14,-35,-14,-4,-8,11,4,8.41
1683,-19,53,19,25,6,-4,-12,-2,8.415000000000001
1684,-6,15,9,-25,3,29,23,-44,8.42
1685,-9,2,-79,-1,5,1,2,12,8.425
1686,-27,6,1,7,2,22,7,3,8.43
1687,58,-65,2,13,4,-23,-16,7,8.435
1688,95,32,-10,-4,1,26,8,-15,8.44
1689,-3,-38,-19,-14,2,17,-1,30,8.445
1690,-64,32,14,6,0,-20,0,12,8.45
1691,-38,-41,-10,13,-6,-4,5,-7,8.455
1692,-28,-75,-25,-5,-2,-33,-15,-6,8.46
1693,34,-113,22,-2,-5,2,-16,3,8.465
1694,-46,-52,-9,-12,0,-9,-4,24,8.47
1695,16,-110,16,10,6,20,4,5,8.475
1696,-71,109,-1,1,-6,-7,-2,16,8.48
1697,42,127,-24,-17,-8,-15,1,-19,8.485
1698,69,113,-128,-3,-5,5,-10,-29,8.49
1699,-26,127,-11,9,4,1,4,13,8.495000000000001
1700,-39,26,94,20,5,-2,21,-13,8.5
1701,-47,21,47,-25,-7,-5,-23,43,8.505
1702,-24,-115,124,-35,-8,-27,3,4,8.51
1703,69,-13,27,30,11,8,-8,-34,8.515
1704,-1,-34,54,33,1,-6,-22,29,8.52
1705,-68,1,-15,-49,-1,46,23,-63,8.525
1706,8,0,114,0,0,7,14,-5,8.53
1707,-18,4,-88,-14,-4,-8,-15,-10,8.535
1708,2,49,-81,-22,-2,10,24,7,8.540000000000001
1709,9,17,-5,33,2,-32,-12,5,8.545
1710,-15,39,-20,8,0,10,-1,-65,8.55
1711,27,-15,22,-8,-1,3,4,25,8.555
1712,30,-68,91,10,-1,-22,-23,14,8.56
1713,3,-108,-114,-9,-2,6,7,1,8.565
1714,-12,-41,91,-4,3,9,24,28,8.57
1715,38,29,22,-2,-6,-3,-5,-1,8.575000000000001
1716,-57,-20,-42,-17,-5,-8,0,-8,8.58
1717,22,5,61,23,2,7,-19,1,8.585
1718,9,-43,-11,17,3,18,0,-29,8.59
1719,16,1,21,-9,-3,-6,9,33,8.595
1720,-19,3,-15,-13,1,7,-8,-3,8.6
1721,-5,-3,-15,5,-1,-17,-9,-16,8.605
1722,16,12,20,15,0,5,-8,20,8.61
1723,-3,5,-26,-6,-1,7,2,-2,8.615
1724,9,23,17,7,4,-4,1,2,8.620000000000001
1725,17,12,-56,2,-5,-9,12,-11,8.625
1726,-29,-10,-25,2,-1,-8,-13,1,8.63
1727,-4,-24,-31,-24,-3,2,9,9,8.635
1728,19,-25,-45,-7,2,0,5,2,8.64
1729,9,33,100,29,6,-2,4,-14,8.645
1730,7,-1,-40,-1,-2,1,-1,10,8.65
1731,-49,12,-41,5,1,-3,-2,-35,8.655
1732,18,26,-22,3,1,3,0,40,8.66
1733,18,-1,-33,-3,-5,1,1,-11,8.665000000000001
1734,21,-3,-20,-7,0,-8,-4,15,8.67
1735,-20,-8,25,18,-3,0,-2,-28,8.675
1736,-10,-6,-75,-25,0,4,1,-16,8.68
1737,2,9,74,20,3,4,13,-1,8.685
1738,18,-10,-10,-9,-2,-9,-3,9,8.69
1739,-16,-6,9,-1,-3,-2,-6,-4,8.695
1740,8,-3,26,3,-2,4,4,-3,8.700000000000001
1741,0,-4,8,-4,3,-2,0,-5,8.705
1742,6,9,15,12,1,-1,-4,8,8.71
1743,-4,13,7,-9,1,1,3,6,8.715
1744,0,3,12,-7,-2,-1,-3,-4,8.72
1745,-2,5,53,6,1,0,3,2,8.725
1746,7,9,44,12,1,0,0,0,8.73
1747,-18,5,30,-12,-2,1,2,-1,8.735
1748,10,-3,59,2,1,1,1,0,8.74
1749,-11,-7,54,-9,-2,-1,-4,-8,8.745000000000001
1750,1,9,9,2,3,3,0,2,8.75
1751,5,7,-58,0,-2,-1,0,1,8.755
1752,1,1,-80,-4,-3,-3,0,0,8.76
1753,-1,-13,-43,1,-1,1,3,0,8.765
1754,-3,-12,-34,-6,-2,-2,-3,1,8.77
1755,-1,-19,-5,15,0,2,-2,2,8.775
1756,1,-5,-18,0,2,-1,-1,-1,8.78
1757,-5,-15,-19,-7,-3,-2,0,-3,8.785
1758,0,2,-22,1,-2,0,2,0,8.790000000000001
1759,-4,2,-9,-17,1,-1,2,0,8.795
1760,2,-2,1,-5,-3,-2,0,-2,8.8
1761,2,16,1,0,-1,-4,-2,0,8.805
1762,1,13,-3,6,0,-1,-2,3,8.81
1763,7,13,6,-6,-2,-1,-2,-1,8.815
1764,-16,-7,16,0,-1,1,0,-5,8.82
1765,-3,-95,-70,-5,-2,-2,-1,-4,8.825000000000001
1766,3,-42,-15,-5,0,1,-1,-5,8.83
1767,-4,-13,19,9,1,1,1,19,8.835
1768,3,19,-20,-1,-1,-1,-4,-18,8.84
1769,-14,36,-11,-2,0,1,-1,-2,8.845
1770,6,23,6,4,-4,2,2,1,8.85
1771,-10,11,-9,3,1,-1,-6,9,8.855
1772,10,2,-13,-2,5,-2,-5,1,8.86
1773,-1,19,17,4,0,-3,3,2,8.865
1774,7,17,10,8,1,-1,-5,-8,8.870000000000001
1775,-8,12,2,-12,-4,-3,3,-17,8.875
1776,13,-10,-16,0,-1,-1,0,27,8.88
1777,-7,4,20,19,4,0,2,2,8.885
1778,12,2,-14,-17,-1,0,1,1,8.89
1779,-1,-5,26,12,0,-2,2,1,8.895
1780,7,-6,4,1,1,-5,0,0,8.9
1781,5,1,-6,-3,-4,-2,1,-11,8.905
1782,-7,-14,1,-4,-4,-3,-1,6,8.91
1783,-3,-12,-2,1,2,2,0,-5,8.915000000000001
1784,3,3,13,-7,-2,1,-2,-3,8.92
1785,5,16,-13,3,-2,0,-2,-2,8.925
1786,-7,13,-11,-10,0,-1,0,-1,8.93
1787,0,-20,-13,-7,-3,0,-1,-4,8.935
1788,-4,-16,0,3,-3,1,1,-1,8.94
1789,-15,-7,2,-5,-3,0,-1,-18,8.945
1790,10,-5,13,4,0,-1,-5,17,8.950000000000001
1791,8,2,-12,-1,0,-1,-1,0,8.955
1792,-4,4,-2,-5,-3,-2,-1,-5,8.96
1793,4,9,-12,-13,-2,2,0,-1,8.965
1794,-10,1,12,9,-1,-3,0,-7,8.97
1795,3,1,-6,-8,-3,3,3,1,8.975
1796,-3,-5,5,1,-3,-2,-2,13,8.98
1797,1,4,0,3,1,-2,-3,4,8.985
1798,-6,-7,1,3,3,-2,0,5,8.99
1799,2,-3,-5,-6,-4,-1,0,-4,8.995000000000001
1800,-13,4,16,-12,-3,0,1,-11,9.0
1801,-11,-2,-11,3,0,1,-3,10,9.005
1802,3,-2,0,-1,-1,-1,0,-1,9.01
1803,6,-1,12,6,0,-2,-2,-6,9.015
1804,-1,-4,-16,-9,-2,1,-2,-7,9.02
1805,1,22,16,-1,-1,-1,-2,3,9.025
1806,-6,10,-3,0,-3,-1,-1,-6,9.03
1807,-5,4,7,8,-1,-1,-1,0,9.035
1808,-2,-5,-1,-7,1,0,0,-3,9.040000000000001
1809,9,-8,8,10,2,-4,0,-1,9.045
1810,-4,-8,-2,-8,-1,-1,1,1,9.05
1811,1,-9,3,2,3,-4,-1,-7,9.055
1812,4,1,-5,4,-1,0,1,-5,9.06
1813,-15,-15,-11,-7,0,-1,-1,1,9.065
1814,24,-3,-2,-6,-4,-2,-2,-9,9.07
1815,0,-2,6,3,1,0,-4,-1,9.075000000000001
1816,-10,1,-6,2,-1,2,-3,-6,9.08
1817,-15,0,1,-1,-4,-1,-1,7,9.085
1818,-4,-3,-2,0,1,0,0,-2,9.09
1819,-4,-2,-5,-1,-3,-1,-2,-4,9.095
1820,1,0,0,5,0,-1,-1,12,9.1
1821,23,8,1,-6,1,2,1,-3,9.105
1822,-25,-3,-3,3,0,0,-1,-3,9.11
1823,-2,-1,10,4,-1,-2,-1,1,9.115
1824,1,2,-5,-2,0,2,0,-5,9.120000000000001
1825,0,-10,-5,-5,-1,-2,0,-1,9.125
1826,0,2,2,-1,2,3,-2,-1,9.13
1827,-2,-6,0,-4,1,-1,-2,-2,9.135
1828,-4,-7,-6,5,-1,-4,0,-1,9.14
1829,7,-1,0,1,-1,-2,-1,2,9.145
1830,3,-3,-2,-2,0,1,1,2,9.15
1831,-3,10,4,2,-1,-1,-1,1,9.155
1832,0,-10,-4,-4,-2,1,-2,-3,9.16
1833,1,1,-15,-7,-2,-2,-2,-2,9.165000000000001
1834,-4,-1,10,3,-2,-5,-2,-3,9.17
1835,-13,3,6,8,0,-1,4,4,9.175
1836,0,0,-1,1,2,0,2,-1,9.18
1837,11,-2,-3,-2,-1,-1,-2,-7,9.185
1838,-5,-3,5,10,2,0,-2,-1,9.19
1839,5,-4,-10,-12,-2,-1,-2,-4,9.195
1840,-7,8,5,-5,-3,-2,0,4,9.200000000000001
1841,-4,4,-2,-8,-2,0,3,-2,9.205
1842,-3,-1,0,-1,-3,-1,0,-2,9.21
1843,-1,-8,-7,-1,-1,-1,2,-12,9.215
1844,21,-3,-5,7,1,-2,0,1,9.22
1845,4,-1,9,-1,0,0,-1,-1,9.225
1846,3,7,0,-9,-2,-2,-2,2,9.23
1847,-15,-2,9,5,-1,-2,-2,-5,9.235
1848,-4,-2,-12,-16,-2,-1,-4,0,9.24
1849,0,-4,0,0,-1,1,-1,1,9.245000000000001
1850,-2,-6,-12,6,-1,2,2,-4,9.25
1851,7,9,12,-3,1,-2,-1,3,9.255
1852,1,1,2,3,0,-3,0,0,9.26
1853,-9,3,4,6,2,-2,-2,4,9.265
1854,-3,0,-10,-8,-2,-3,0,0,9.27
1855,3,-4,-1,7,-4,-3,0,0,9.275
1856,-10,-2,-2,0,-2,0,1,6,9.28
1857,7,-3,1,7,0,2,-1,-5,9.285
1858,-1,-3,-2,-8,-2,0,-1,-3,9.290000000000001
1859,4,-8,-2,-7,-3,2,-3,1,9.295
1860,-18,-6,-6,-1,-1,-2,0,-13,9.3
1861,35,-4,-7,0,0,-3,-4,2,9.305
1862,0,-2,0,3,0,0,0,1,9.31
1863,0,-2,-4,-6,-1,0,1,6,9.315
1864,-9,0,5,3,-2,1,0,-3,9.32
1865,-6,3,2,-7,-3,0,1,-5,9.325000000000001
1866,-3,-3,-1,-3,1,-1,-1,0,9.33
1867,1,5,-11,-4,1,0,-3,-5,9.335
1868,9,-3,2,-1,-2,-1,-1,4,9.34
1869,3,-3,3,-1,0,-2,1,-1,9.345
1870,6,0,-10,-2,1,-3,-2,-3,9.35
1871,-12,1,-4,-1,0,0,2,5,9.355
1872,-1,-5,6,3,-1,0,-3,3,9.36
1873,-5,3,1,-2,-2,0,-1,3,9.365
1874,-4,-2,7,2,-2,2,-3,6,9.370000000000001
1875,9,2,1,-6,-2,-2,-3,-6,9.375
1876,3,-4,-13,7,-1,-3,-2,1,9.38
1877,-6,-1,5,-5,-2,-2,0,-5,9.385
1878,-6,-4,-1,0,-2,-3,3,-2,9.39
1879,-1,0,-7,-4,0,1,-1,0,9.395
1880,0,4,6,-1,0,0,0,-1,9.4
1881,-9,-3,-7,-4,-1,-1,-3,6,9.405
1882,-1,-11,-1,4,1,1,-1,-2,9.41
1883,-12,-12,-5,0,-2,-2,1,1,9.415000000000001
1884,36,-9,-1,-4,-1,-1,-2,-6,9.42
1885,-9,3,0,3,1,1,0,-3,9.425
1886,13,4,-1,-6,-3,-3,-3,-2,9.43
1887,22,3,-7,1,-2,0,-2,7,9.435
1888,-19,7,6,-2,-2,-4,-4,-3,9.44
1889,-26,-2,9,-4,-4,-3,2,0,9.445
1890,-4,4,-9,-2,0,0,2,-1,9.450000000000001
1891,-3,3,-4,2,-2,0,2,-2,9.455
1892,7,-3,-3,0,-1,2,0,-5,9.46
1893,4,0,0,-2,-1,-1,-1,1,9.465
1894,-14,0,3,8,2,1,1,-1,9.47
1895,8,7,6,2,0,-1,0,0,9.475
1896,-10,2,-4,-4,-3,-1,0,0,9.48
1897,0,1,0,3,-1,-1,0,-22,9.485
1898,0,1,-4,-3,0,-2,-1,18,9.49
1899,-2,-3,-11,-8,-3,-2,-1,-2,9.495000000000001
1900,-1,2,6,-1,-1,0,-2,4,9.5
1901,1,-8,-7,-2,-1,2,0,0,9.505
1902,-7,0,2,1,1,0,-4,-10,9.51
1903,-3,-1,9,6,4,1,-4,-6,9.515
1904,-7,0,1,6,3,1,-1,2,9.52
1905,5,1,0,4,-2,-1,0,2,9.525
1906,-13,0,-7,0,-1,0,0,-4,9.53
1907,24,-2,6,-9,-4,-3,0,7,9.535
1908,6,0,-4,-2,2,-1,-1,-7,9.540000000000001
1909,-5,-7,-2,-1,2,3,0,8,9.545
1910,1,1,2,1,1,1,1,-2,9.55
1911,-16,2,2,2,-1,-1,-2,-3,9.555
1912,7,4,0,-6,1,0,2,-1,9.56
1913,4,3,0,2,-2,-2,0,0,9.565
1914,1,-3,-1,-3,-5,-4,-2,-3,9.57
1915,-6,-6,-6,-7,-4,1,0,-1,9.575000000000001
1916,-4,0,1,-4,-4,0,-4,2,9.58
1917,-7,2,-6,-4,-1,1,-3,2,9.585
1918,3,1,5,1,2,2,-3,-2,9.59
1919,-2,-1,-1,4,2,-2,0,-3,9.595
1920,0,-1,0,2,-3,-1,3,-3,9.6
1921,2,-3,-7,-2,-2,-1,1,4,9.605
1922,16,-2,5,-5,-3,-1,0,-5,9.61
1923,-3,-7,1,5,0,0,-2,6,9.615
1924,0,-1,-6,-12,-2,-1,2,-21,9.620000000000001
1925,-4,1,-1,0,-1,-3,1,22,9.625
1926,-15,3,6,0,0,-1,-1,2,9.63
1927,17,4,-2,4,0,0,-2,-3,9.635
1928,-24,-8,-3,5,-2,-1,-2,-4,9.64
1929,1,-2,-2,-2,-1,-1,-1,-3,9.645
1930,-7,1,-3,-2,-2,-3,0,-5,9.65
1931,-5,1,-3,2,-2,-1,1,-4,9.655
1932,7,-4,-2,0,1,-2,-5,8,9.66
1933,-4,1,0,0,0,0,-2,-6,9.665000000000001
1934,3,1,10,-2,-1,1,0,5,9.67
1935,-2,-8,-11,-9,-2,1,-1,-9,9.675
1936,1,-2,5,2,0,-2,0,6,9.68
1937,-2,-3,-8,0,1,0,-1,-1,9.685
1938,8,-1,-3,0,-2,-1,2,-5,9.69
1939,-14,2,4,-2,-1,-2,1,0,9.695
1940,-5,5,-1,-5,-3,-1,0,-1,9.700000000000001
1941,3,-3,-1,-3,-1,-2,-2,-6,9.705
1942,1,-3,-11,-4,-5,-2,-2,-5,9.71
1943,-2,-1,-1,-2,-1,-1,1,4,9.715
1944,2,-2,-4,-1,1,-2,0,2,9.72
1945,1,3,4,-3,-1,1,1,-2,9.725
1946,7,1,0,-3,-2,-2,-3,-4,9.73
1947,-6,-2,-8,-3,1,-1,-1,0,9.735
1948,-8,1,8,0,1,0,-1,0,9.74
1949,18,0,-3,0,-1,0,-1,-1,9.745000000000001
1950,-18,-9,-1,0,-2,-1,0,-2,9.75
1951,30,-4,7,-1,2,0,-2,-18,9.755
1952,4,1,-4,-1,-2,-1,1,5,9.76
1953,-4,6,6,7,-1,1,0,-3,9.765
1954,2,1,-8,-8,-2,-2,-1,5,9.77
1955,-8,-4,-4,-3,1,-1,-3,-2,9.775
1956,2,3,0,-5,-1,-3,2,-2,9.78
1957,0,1,1,0,-1,-2,-1,-5,9.785
1958,-12,4,0,5,1,1,3,-5,9.790000000000001
1959,1,8,2,-2,-1,0,1,6,9.795
1960,2,-8,-5,2,-1,3,0,-7,9.8
1961,-8,-3,-4,-6,-3,-2,-2,5,9.805
1962,11,1,4,3,0,0,0,3,9.81
1963,-12,-8,-6,-6,-2,0,-2,1,9.815
1964,-2,-2,-1,5,0,2,-4,0,9.82
1965,3,-4,0,1,3,0,-4,-5,9.825000000000001
1966,-1,8,-6,1,1,-2,-2,0,9.83
1967,-3,36,10,3,0,-2,-2,1,9.835
1968,-2,7,1,7,1,-3,1,0,9.84
1969,-7,-9,0,-4,-1,-1,2,6,9.845
1970,4,-21,2,-3,-1,0,-2,3,9.85
1971,-9,-14,1,7,2,2,0,0,9.855
1972,-1,-15,0,2,0,-1,0,2,9.86
1973,-11,-11,2,-9,-3,-1,-2,-6,9.865
1974,7,-5,-3,3,-2,-3,1,-1,9.870000000000001
1975,-6,-6,-2,-5,-1,1,0,4,9.875
1976,8,-1,-1,2,-2,0,-2,-2,9.88
1977,-6,1,-4,2,1,0,-2,1,9.885
1978,0,-1,-2,-1,-1,1,1,0,9.89
1979,3,-2,0,0,-1,-1,-2,0,9.895
1980,-6,-5,-2,-3,2,-1,-3,7,9.9
1981,2,3,3,3,2,-1,1,-2,9.905
1982,-3,-2,-2,0,-1,-2,1,-25,9.91
1983,-6,-8,1,-3,-3,1,-1,15,9.915000000000001
1984,3,1,-5,-2,-1,0,1,-7,9.92
1985,4,1,2,4,0,1,-1,4,9.925
1986,-1,8,3,0,0,-2,-4,-2,9.93
1987,-5,-2,1,-5,0,-2,1,-4,9.935
1988,-1,-3,-3,-7,-2,-2,-2,1,9.94
1989,-1,0,-4,-7,-1,-1,-3,-5,9.945
1990,-2,0,0,-2,0,2,-2,2,9.950000000000001
1991,-2,2,3,1,-3,-2,-2,-5,9.955
1992,2,1,-3,0,1,-1,1,5,9.96
1993,0,0,0,-1,-2,-3,3,-4,9.965
1994,-3,-8,-9,3,-2,0,-3,2,9.97
1995,1,0,-1,2,-2,-1,0,-4,9.975
1996,0,-5,2,2,1,-1,-3,-5,9.98
1997,-1,-3,2,1,1,0,-2,0,9.985
1998,2,0,3,-3,0,-1,-1,7,9.99
1999,9,-2,-4,-3,0,0,-2,0,9.995000000000001
2000,-15,-4,-4,-3,-3,-1,2,-7,10.0
2001,2,-2,-3,2,-2,1,2,1,10.005
2002,-1,0,3,-2,-2,-5,-2,7,10.01
2003,0,-2,-3,1,1,-4,-2,-3,10.015
2004,-5,7,-3,-6,-2,0,-1,-4,10.02
2005,31,-1,-9,-6,-1,-4,-2,-6,10.025
2006,-2,1,9,5,-3,3,1,-1,10.03
2007,-4,2,3,2,-3,-3,0,0,10.035
2008,1,4,-1,-8,-1,2,-4,3,10.040000000000001
2009,-4,2,-2,-2,-1,-2,-2,-1,10.045
2010,-2,-7,-4,-1,0,-1,-2,-1,10.05
2011,13,-6,-5,-4,-3,-2,-1,20,10.055
2012,-9,3,1,-11,-2,0,1,-11,10.06
2013,7,-3,-7,-3,-6,-2,-2,27,10.065
2014,5,8,0,2,4,-1,0,0,10.07
2015,-4,5,2,5,0,2,1,-5,10.075000000000001
2016,0,-3,-4,4,0,1,-2,2,10.08
2017,-8,2,2,-1,1,1,-3,-7,10.085
2018,0,1,1,-12,1,-1,-1,-5,10.09
2019,-2,0,-2,-8,0,2,2,-4,10.095
2020,1,3,2,-2,0,-3,0,11,10.1
2021,-3,-2,1,7,2,-3,0,-7,10.105
2022,-3,0,-6,-3,-3,-3,1,2,10.11
2023,-3,2,2,2,-1,-3,-2,-6,10.115
2024,4,-7,2,5,-2,1,2,-1,10.120000000000001
2025,-10,-1,3,2,-1,0,0,-5,10.125
2026,1,-1,-8,1,-1,1,-1,1,10.13
2027,-2,-1,3,6,-2,0,-1,0,10.135
2028,-1,4,3,6,1,-1,-2,0,10.14
2029,1,3,0,5,0,0,-2,-3,10.145
2030,-18,-6,-4,2,1,1,-1,-1,10.15
2031,1,1,-4,2,3,2,-2,-8,10.155
2032,1,-3,1,1,-1,-1,0,-1,10.16
2033,1,2,1,5,-1,-2,1,-2,10.165000000000001
2034,4,-6,2,-9,-1,-1,-1,-2,10.17
2035,-9,-5,-6,2,-3,-1,-2,-2,10.175
2036,5,-4,1,2,2,-2,-3,2,10.18
2037,-4,-2,-2,-4,-1,-2,-2,-4,10.185
2038,2,1,1,3,-2,-2,-1,0,10.19
2039,-1,3,0,1,2,0,0,0,10.195
2040,2,4,1,6,-2,-1,3,-1,10.200000000000001
2041,-5,-4,-7,-3,-2,0,0,0,10.205
2042,7,4,4,-1,-3,2,2,3,10.21
2043,-13,-4,-1,-5,-2,-2,0,-6,10.215
2044,-11,3,-5,-4,-1,-2,-2,10,10.22
2045,-11,2,3,5,2,4,-3,-1,10.225
2046,27,-7,5,6,1,-3,-4,2,10.23
2047,7,0,-2,0,0,-1,-4,-3,10.235
2048,-1,1,-2,-1,-1,0,0,-6,10.24
2049,-10,-6,-9,-11,-4,-3,1,2,10.245000000000001
2050,-9,2,0,3,1,-1,2,-3,10.25
2051,5,-3,5,-3,-2,-3,-1,0,10.255
2052,0,1,-2,-3,-3,-2,-4,-1,10.26
2053,0,-3,-1,-2,-2,-2,-2,-8,10.265
2054,-7,9,-3,-5,-2,1,2,1,10.27
2055,0,5,5,4,2,-2,0,1,10.275
2056,5,7,-8,-7,-1,-3,0,-2,10.28
2057,-5,-1,2,1,-2,-1,-2,-1,10.285
2058,-4,-6,-5,-2,1,-1,-3,0,10.290000000000001
2059,-1,-7,0,0,-3,2,-2,1,10.295
2060,-1,-7,6,3,0,0,0,-2,10.3
2061,3,-9,6,-11,0,1,-2,-3,10.305
2062,-2,-9,-13,-2,-2,2,-1,-2,10.31
2063,-1,-4,-1,-2,1,1,-1,-6,10.315
2064,0,-3,-3,6,-2,-2,1,-3,10.32
2065,3,4,2,0,-1,-3,-1,8,10.325000000000001
2066,-7,2,8,0,-2,-2,-3,2,10.33
2067,4,1,-3,-5,-1,-1,-2,2,10.335
2068,-1,-4,-2,0,1,1,0,1,10.34
2069,-1,-2,-6,-1,2,0,0,-4,10.345
2070,0,5,0,-4,0,-4,0,-4,10.35
2071,-2,2,2,5,0,-1,1,-2,10.355
2072,-2,-5,2,-3,0,-3,-1,-1,10.36
2073,-5,5,2,3,1,-1,2,-7,10.365
2074,-13,5,-2,1,-1,0,-2,-2,10.370000000000001
2075,17,-4,-4,-5,-2,-2,1,-3,10.375
2076,-2,-3,1,-3,-1,-2,-2,0,10.38
2077,8,0,-4,0,-1,0,-2,-1,10.385
2078,-8,-4,-2,-4,-2,2,1,-2,10.39
2079,-13,-5,-3,-4,-4,0,1,0,10.395
2080,11,0,-2,-1,-2,1,0,3,10.4
2081,-6,-1,-5,-2,0,-1,1,0,10.405
2082,4,4,3,5,-1,-1,2,0,10.41
2083,2,1,5,4,1,-2,-1,0,10.415000000000001
2084,-8,-8,-5,-6,-4,-2,-2,-3,10.42
2085,-3,-1,0,0,-2,-1,-2,-2,10.425
2086,0,-5,-4,-8,-2,-2,-2,-1,10.43
2087,0,-1,-3,-3,-1,-2,3,0,10.435
2088,-1,6,6,0,0,-1,-1,0,10.44
2089,1,2,-3,-3,-2,0,0,2,10.445
2090,0,0,5,-2,-1,-2,0,0,10.450000000000001
2091,-2,2,-1,-2,0,0,-2,-1,10.455
2092,-1,3,-1,1,-1,2,-3,-5,10.46
2093,-3,-7,-4,0,-1,1,-3,2,10.465
2094,3,0,-5,3,0,-1,-1,-6,10.47
2095,-5,-9,-2,-3,-2,-4,-1,3,10.475
2096,0,4,1,4,2,2,1,-4,10.48
2097,1,-3,-3,-2,-4,1,-2,0,10.485
2098,-1,-4,-3,0,-2,-1,-3,0,10.49
2099,-1,-1,0,-3,0,0,-2,2,10.495000000000001
2100,8,-2,8,3,-1,-3,2,-3,10.5
2101,-17,2,0,-3,0,-2,1,-1,10.505
2102,-3,4,7,1,0,0,0,-3,10.51
2103,-3,3,-12,-2,-1,-1,-2,1,10.515
2104,2,-3,-2,-1,-1,-1,-3,-1,10.52
2105,10,0,1,-1,-1,2,1,0,10.525
2106,-7,-6,-5,-3,0,1,-4,2,10.53
2107,-16,0,-1,-2,1,1,-3,-4,10.535
2108,22,-4,0,-1,0,-3,-2,-4,10.540000000000001
2109,3,3,7,7,0,0,-3,5,10.545
2110,1,-3,-4,-3,0,1,1,-1,10.55
2111,4,-2,-3,-1,-2,-1,0,-2,10.555
2112,-12,0,1,-1,0,0,1,4,10.56
2113,3,-2,2,0,1,-2,0,-5,10.565
2114,4,8,2,2,0,-1,0,0,10.57
2115,2,1,-2,0,0,-1,-2,0,10.575000000000001
2116,-8,-4,-6,-2,-2,0,-3,1,10.58
2117,2,3,3,-5,-1,-1,-1,-2,10.585
2118,-4,-7,-3,0,-1,-1,0,0,10.59
2119,-2,5,0,-2,-3,-3,3,-2,10.595
2120,-5,-1,-2,-1,-2,0,2,1,10.6
2121,-2,-1,1,3,-2,-1,2,-3,10.605
2122,1,-3,-6,-5,-1,-3,0,-1,10.61
2123,3,-1,3,-4,-1,1,-2,4,10.615
2124,3,-2,0,3,0,-2,-2,-4,10.620000000000001
2125,2,1,5,7,1,-2,0,-3,10.625
2126,-3,-2,-1,5,0,0,0,2,10.63
2127,0,0,-4,0,0,0,0,-22,10.635
2128,-9,8,-3,-3,2,0,-1,25,10.64
2129,8,0,-3,-1,-3,-2,-3,-9,10.645
2130,-15,-3,-5,-1,-1,0,-4,1,10.65
2131,-1,-4,6,-2,-1,0,-3,-1,10.655
2132,-3,-7,-5,-1,-2,1,-1,-5,10.66
2133,-1,2,1,-9,-3,0,2,-2,10.665000000000001
2134,6,-1,0,0,-4,-4,-3,0,10.67
2135,-3,-5,-3,-2,-1,-1,-3,4,10.675
2136,-3,4,1,-2,-1,-3,-2,-4,10.68
2137,-2,1,-8,-4,0,-1,-2,3,10.685
2138,3,-6,0,-2,0,-1,2,-5,10.69
2139,-9,-2,-1,1,0,-1,3,5,10.695
2140,3,-1,-2,0,-3,-2,-1,-5,10.700000000000001
2141,-5,-6,-7,-4,-2,1,-4,-1,10.705
2142,5,9,3,-1,1,0,-1,0,10.71
2143,5,-6,-4,0,-2,-2,-1,-1,10.715
2144,-6,0,-2,1,-3,0,3,-2,10.72
2145,0,0,-2,-5,-2,-3,-1,-1,10.725
2146,2,0,4,0,-1,-1,0,-3,10.73
2147,-6,-5,-3,-2,0,0,2,2,10.735
2148,-1,-3,5,4,3,2,2,-4,10.74
2149,-2,-3,-7,-2,1,1,1,4,10.745000000000001
2150,6,-1,4,1,0,-2,0,0,10.75
2151,-3,5,-1,-5,-3,-1,-1,-1,10.755
2152,3,3,-3,-2,-1,-4,-1,-3,10.76
2153,-3,-3,-1,4,0,-1,-3,1,10.765
2154,0,-1,-2,0,-1,0,-3,-2,10.77
2155,3,9,-4,-1,-3,-1,-1,1,10.775
2156,-5,2,-4,-6,-5,1,1,-4,10.78
2157,0,-1,1,5,-1,1,1,1,10.785
2158,-6,1,2,0,-2,1,0,0,10.790000000000001
2159,13,-6,-2,6,0,0,-3,-1,10.795
2160,2,2,2,-8,1,0,0,-2,10.8
2161,1,-3,1,-2,1,-2,0,-3,10.805
2162,-1,-4,-5,-4,-3,-1,-1,1,10.81
2163,-2,6,4,2,0,-1,-1,0,10.815
2164,0,-5,-2,3,-2,1,-2,2,10.82
2165,-3,-4,-2,-1,-1,-2,-2,-2,10.825000000000001
2166,-2,-4,-4,-3,-2,-1,-2,2,10.83
2167,-3,-4,-1,-4,-1,-2,1,-14,10.835
2168,-1,0,1,-4,-1,-3,0,27,10.84
2169,-7,4,6,-3,0,-1,-1,-3,10.845
2170,2,-3,-5,2,1,1,-2,-1,10.85
2171,-1,2,-5,0,-2,-1,-1,3,10.855
2172,-1,-7,-5,2,-2,0,0,-6,10.86
2173,-5,-3,2,0,0,-3,2,-2,10.865
2174,0,1,4,-5,-5,-5,-1,2,10.870000000000001
2175,5,0,-2,0,0,0,0,7,10.875
2176,-4,-2,-3,-4,0,2,1,-5,10.88
2177,-1,-4,0,0,0,2,-2,4,10.885
2178,-2,0,2,-1,0,3,0,-9,10.89
2179,2,2,7,4,0,2,-2,0,10.895
2180,1,6,-5,-1,-2,0,0,-3,10.9
2181,-13,3,-4,2,-1,-3,1,0,10.905
2182,18,2,-3,-3,-1,-2,-1,0,10.91
2183,-1,-4,3,2,-1,-1,2,-2,10.915000000000001
2184,2,-4,-1,1,2,-3,-3,-3,10.92
2185,4,-4,-1,-4,-2,-1,-2,-2,10.925
2186,-7,-1,0,1,0,-1,0,-2,10.93
2187,-6,-2,-1,0,2,0,-1,-1,10.935
2188,0,-3,3,0,-1,-1,-2,-8,10.94
2189,1,4,-1,-4,-4,-2,-3,5,10.945
2190,-5,-6,-1,6,2,-1,-2,1,10.950000000000001
2191,1,-4,-3,0,0,0,-2,1,10.955
2192,-6,-1,3,4,2,-2,-2,-3,10.96
2193,1,-1,2,5,0,0,-2,-3,10.965
2194,3,-6,-3,-7,-1,-1,-1,4,10.97
2195,-4,2,-1,-2,-2,-2,2,-1,10.975
2196,1,0,-1,-3,-1,4,2,-3,10.98
2197,1,-9,0,-4,-1,0,3,-1,10.985
2198,-1,1,1,1,0,-2,-1,-3,10.99
2199,-7,-5,3,-1,-4,-2,-1,13,10.995000000000001
2200,3,-1,-3,-4,-4,-2,-4,1,11.0
2201,4,4,3,1,0,-1,-1,-16,11.005
2202,-6,-7,-5,-7,-2,-2,0,29,11.01
2203,-4,-1,-7,-9,-2,-2,-3,-6,11.015
2204,-2,6,1,2,2,0,-1,-2,11.02
2205,2,2,-4,-1,-2,-1,-2,2,11.025
2206,-5,8,1,3,3,1,-2,-13,11.03
2207,0,3,2,4,1,-2,-1,-9,11.035
2208,6,2,-4,-2,-1,-1,2,6,11.040000000000001
2209,1,5,-1,-4,0,1,4,-2,11.045
2210,-2,6,-3,-1,-1,2,0,-4,11.05
2211,1,1,0,1,3,3,0,1,11.055
2212,-12,-5,1,-1,-3,-4,-5,-5,11.06
2213,4,1,1,-1,-2,-2,-3,-1,11.065
2214,-4,-2,-5,-1,-4,-3,1,-2,11.07
2215,-1,-4,-2,2,1,-1,0,0,11.075000000000001
2216,3,-2,-5,-5,-1,-1,-1,-4,11.08
2217,1,-2,3,2,0,0,0,1,11.085
2218,-11,-1,-1,0,0,-3,1,-4,11.09
2219,3,-3,-2,-10,-4,-3,-3,-2,11.095
2220,-5,-4,2,3,-2,-1,0,2,11.1
2221,0,1,-1,-1,1,1,0,1,11.105
2222,4,-7,-2,1,1,2,-2,2,11.11
2223,-3,-12,-1,2,-2,1,3,-1,11.115
2224,-1,-8,5,-3,-4,-2,-1,0,11.120000000000001
2225,-1,0,2,-1,1,-2,-1,-6,11.125
2226,2,4,-1,-3,-3,0,-1,-1,11.13
2227,-1,2,-5,0,0,2,-3,2,11.135
2228,2,3,-5,-3,-2,-1,-1,-2,11.14
2229,1,2,11,0,-3,-3,-1,2,11.145
2230,-7,-4,-1,0,4,0,0,-2,11.15
2231,13,4,0,1,-1,0,-2,-5,11.155
2232,0,5,-5,1,3,1,-1,1,11.16
2233,-1,1,-11,-3,-2,-1,0,3,11.165000000000001
2234,1,-8,2,-1,-1,-1,0,-2,11.17
2235,-1,-1,2,-3,-2,-2,0,-3,11.175
2236,1,-5,-1,3,0,2,0,-2,11.18
2237,0,-1,-4,-3,-1,-1,-1,-2,11.185
2238,2,1,-2,4,-2,-2,-1,-2,11.19
2239,-2,4,-2,-2,0,-1,-1,2,11.195
2240,3,2,-1,3,-1,-2,-4,-3,11.200000000000001
2241,-10,-5,2,-3,1,-1,0,1,11.205
2242,2,6,4,-4,0,2,0,-2,11.21
2243,-1,-3,-2,-1,1,1,2,2,11.215
2244,-2,-1,-1,1,1,0,2,-2,11.22
2245,5,-3,-6,2,-4,-1,-1,1,11.225
2246,1,3,4,2,-1,-3,-1,-3,11.23
2247,-2,5,7,6,0,1,-3,-4,11.235
2248,-1,-2,0,-2,-1,0,-3,1,11.24
2249,0,-3,-9,-5,0,0,1,-9,11.245000000000001
2250,0,1,7,4,1,-1,1,-6,11.25
2251,0,3,-2,3,0,-4,-1,7,11.255
2252,-3,-1,0,-3,0,0,1,-1,11.26
2253,0,-4,0,-3,-2,-2,-1,0,11.265
2254,1,-7,-11,-2,-2,-1,-2,-7,11.27
2255,-9,-2,1,-3,-4,1,-2,2,11.275
2256,-2,0,-1,2,-3,-1,0,-2,11.28
2257,-4,1,-1,-4,0,-1,1,-3,11.285
2258,-2,6,0,0,-2,-1,-1,1,11.290000000000001
2259,-1,-8,-4,-4,-1,-5,-3,-3,11.295
2260,-2,-1,-4,-3,0,-4,0,1,11.3
2261,-12,7,-1,1,0,0,-5,2,11.305
2262,3,-11,-10,-2,0,0,-3,-1,11.31
2263,-5,-5,2,4,0,2,-1,0,11.315
2264,0,-4,1,-7,-3,0,-1,-2,11.32
2265,1,-3,-4,-1,1,-2,-1,2,11.325000000000001
2266,1,4,0,-3,-1,-6,-1,1,11.33
2267,1,2,-4,0,1,-5,1,-3,11.335
2268,-2,-1,0,-2,0,0,1,-3,11.34
2269,3,-3,3,5,0,3,1,0,11.345
2270,-3,5,3,-5,-3,3,-1,2,11.35
2271,3,4,-1,-4,-5,0,-2,1,11.355
2272,0,3,4,2,1,-1,-3,2,11.36
2273,0,-2,-4,-2,0,-3,-3,4,11.365
2274,-1,1,2,-3,-2,-2,0,-3,11.370000000000001
2275,0,2,-5,-8,-2,-2,0,-4,11.375
2276,-2,-1,2,-1,1,0,1,-2,11.38
2277,2,-2,4,0,0,0,2,-1,11.385
2278,1,-1,-1,-1,-2,-2,-5,1,11.39
2279,-2,-4,-9,-1,-2,0,-2,0,11.395
2280,-3,-1,-1,-5,-2,-4,-3,-4,11.4
2281,3,-3,1,2,2,1,3,0,11.405
2282,-2,-4,5,5,0,0,3,-1,11.41
2283,-4,-8,1,3,2,-2,-1,-3,11.415000000000001
2284,-2,-4,-1,2,-1,-4,-3,-5,11.42
2285,2,-2,-1,-3,-3,-2,-3,6,11.425
2286,1,-1,-10,0,1,3,0,1,11.43
2287,0,-4,-1,-2,0,2,1,3,11.435
2288,4,4,3,0,-2,1,-1,0,11.44
2289,-1,3,5,4,-2,0,1,-13,11.445
2290,-3,-5,1,3,0,-2,-2,2,11.450000000000001
2291,-3,-3,4,1,0,-1,2,-2,11.455
2292,4,3,-4,-4,-3,0,0,1,11.46
2293,-5,-8,0,-3,-2,2,-1,-7,11.465
2294,-7,13,5,-1,1,1,-1,-4,11.47
2295,2,-9,-12,-18,-12,-3,-5,-1,11.475
2296,0,4,-2,16,6,1,5,-3,11.48
2297,15,4,-3,-9,-2,0,1,11,11.485
2298,15,4,-3,15,11,1,3,7,11.49
2299,2,9,8,-37,-6,-2,-3,2,11.495000000000001
2300,10,26,5,23,-11,-3,-6,-5,11.5
2301,3,-29,-8,6,3,0,4,2,11.505
2302,-41,-33,-5,-10,2,1,7,0,11.51
2303,20,8,-11,-16,-14,-6,-3,-3,11.515
2304,-13,26,-12,-38,-4,-5,-1,1,11.52
2305,-3,12,21,37,1,1,-7,3,11.525
2306,0,-13,6,6,-8,-3,-3,2,11.53
2307,78,-13,7,18,9,3,5,4,11.535
2308,-10,-35,14,-18,-3,1,0,-7,11.540000000000001
2309,-14,-46,2,-5,-4,-4,2,0,11.545
2310,-29,-39,-54,-26,-6,-1,-3,-6,11.55
2311,-125,-27,-28,10,-1,-5,-12,-36,11.555
2312,11,6,-14,-3,3,0,-4,6,11.56
2313,8,23,-8,-4,0,1,-2,-2,11.565
2314,28,41,51,16,1,2,1,4,11.57
2315,23,50,-66,-10,3,0,2,10,11.575000000000001
2316,54,23,34,12,1,0,6,10,11.58
2317,-32,23,-7,-8,-2,-1,4,3,11.585
2318,31,9,16,-7,-5,1,0,4,11.59
2319,-8,22,23,10,0,1,1,3,11.595
2320,-20,-29,-13,3,0,0,-4,-7,11.6
2321,28,-1,-1,-5,-1,-1,-1,3,11.605
2322,11,15,-10,-3,-1,-3,-4,-3,11.61
2323,-5,-31,16,9,5,7,10,11,11.615
2324,-3,2,-15,1,-2,-4,0,-3,11.620000000000001
2325,-11,17,-6,-5,1,-2,-2,-3,11.625
2326,10,13,3,0,-1,0,-6,-15,11.63
2327,31,4,44,11,6,3,5,12,11.635
2328,-90,-28,-61,-10,-9,-4,-2,1,11.64
2329,63,34,44,-8,-3,-1,-3,-5,11.645
2330,28,-7,15,3,3,-2,-2,2,11.65
2331,-16,-32,-67,-25,-11,-8,-3,3,11.655
2332,65,31,40,15,9,-1,1,7,11.66
2333,-15,-17,-75,24,0,-1,-1,-1,11.665000000000001
2334,-38,40,45,11,11,8,3,1,11.67
2335,-37,-31,22,-30,-1,0,-7,-11,11.675
2336,-22,-15,29,28,2,1,0,-9,11.68
2337,-77,-10,-19,-15,-10,-2,-1,-5,11.685
2338,-71,14,-16,4,-4,-5,1,-6,11.69
2339,-18,-54,-5,21,-2,-11,-5,7,11.695
2340,53,-1,9,1,3,0,1,5,11.700000000000001
2341,-32,-32,21,-3,7,5,-1,-4,11.705
2342,2,-34,-24,-13,-11,-1,-3,-6,11.71
2343,-1,6,28,9,0,0,-1,-1,11.715
2344,-18,-1,-8,-7,-3,-7,-6,-7,11.72
2345,78,52,36,3,2,0,7,13,11.725
2346,-52,-74,-44,-33,-14,-7,-7,-18,11.73
2347,17,13,14,28,3,4,2,1,11.735
2348,47,88,27,-61,-11,4,5,-2,11.74
2349,-87,-97,9,45,19,0,-1,-7,11.745000000000001
2350,119,85,21,10,33,5,-2,30,11.75
2351,-55,-49,8,39,-10,-2,-12,0,11.755
2352,-38,-54,-36,-14,-8,-9,-10,-18,11.76
2353,34,96,46,16,-9,-9,-4,26,11.765
2354,103,-65,35,63,24,1,2,-16,11.77
2355,50,34,-27,7,-13,5,7,9,11.775
2356,-36,38,-13,-54,-7,1,-9,-13,11.78
2357,6,-34,-7,-88,-31,-1,2,4,11.785
2358,-1,19,-48,34,-7,1,13,12,11.790000000000001
2359,62,31,30,-16,6,0,5,-14,11.795
2360,-24,-38,-6,41,-11,3,-5,-5,11.8
2361,32,-31,-69,-72,-3,0,-8,-4,11.805
2362,51,61,6,-67,-4,-4,3,8,11.81
2363,-49,30,72,-15,-3,-10,-9,-2,11.815
2364,-51,-37,-72,72,-4,2,6,-15,11.82
2365,49,56,18,61,28,2,17,-2,11.825000000000001
2366,-70,-86,-84,-105,-31,-4,-16,30,11.83
2367,52,51,-34,61,19,5,7,13,11.835
2368,-24,38,7,-16,8,-4,-19,-4,11.84
2369,83,50,4,34,2,7,0,-33,11.845
2370,33,5,38,-28,1,6,4,7,11.85
2371,-16,18,17,-29,-8,-7,9,4,11.855
2372,-62,-18,-22,-11,-5,-2,25,11,11.86
2373,-4,19,88,62,3,-7,-21,-9,11.865
2374,-71,-8,69,31,-7,-2,-3,-15,11.870000000000001
2375,-67,-52,5,-61,13,0,-17,-10,11.875
2376,14,-28,43,44,7,5,13,2,11.88
2377,-23,-66,9,-12,-11,-4,-1,-3,11.885
2378,-43,40,6,58,-11,-7,-2,-4,11.89
2379,56,88,28,4,19,8,3,3,11.895
2380,57,-77,-1,-8,12,3,19,10,11.9
2381,48,67,-39,-46,-16,-7,-22,-27,11.905
2382,-4,-46,19,24,21,9,39,30,11.91
2383,-52,-7,-43,6,-33,-14,-10,-33,11.915000000000001
2384,104,17,69,-98,-23,-7,-22,35,11.92
2385,-101,-80,-79,42,14,1,2,12,11.925
2386,101,-4,17,-7,-14,0,12,-9,11.93
2387,-51,-43,7,-85,-10,-8,3,-1,11.935
2388,21,-28,6,-14,3,0,2,-13,11.94
2389,95,13,121,-61,4,11,24,8,11.945
2390,-27,47,-56,34,0,-7,-32,-25,11.950000000000001
2391,-17,-57,73,-22,-21,2,-1,-4,11.955
2392,-20,102,-14,-6,12,-2,-12,7,11.96
2393,-65,-32,-93,-56,-26,-11,0,-3,11.965
2394,-47,70,26,-32,8,-2,8,0,11.97
2395,87,11,29,-69,-29,2,-2,7,11.975
2396,80,46,-17,101,64,20,22,12,11.98
2397,-83,-46,-56,3,-15,-15,-28,-27,11.985
2398,-52,-43,30,-53,-8,-3,3,12,11.99
2399,5,21,-25,26,4,-4,-15,-10,11.995000000000001
2400,-17,-35,-3,-61,-20,-10,-1,-12,12.0
2401,13,41,36,88,46,15,8,12,12.005
2402,-43,-47,-11,-16,-14,-2,-7,-12,12.01
2403,0,1,-42,-39,-3,-1,11,17,12.015
2404,-11,-49,77,41,-3,4,11,-12,12.02
2405,10,32,-47,-67,9,1,6,-1,12.025
2406,51,-1,31,48,-1,-11,-33,-22,12.030000000000001
2407,41,30,-32,18,-8,3,12,25,12.035
2408,-105,-29,-48,3,5,-11,-15,0,12.040000000000001
2409,-77,-65,7,-17,-15,2,0,-27,12.045
2410,35,51,-3,15,-13,2,0,-11,12.05
2411,-15,-38,-56,-1,22,4,10,15,12.055
2412,68,35,-28,23,-23,-3,6,15,12.06
2413,44,10,63,-46,-31,1,-2,28,12.065
2414,-76,21,-50,72,58,8,3,-48,12.07
2415,8,5,61,30,-23,-2,-2,-31,12.075000000000001
2416,-117,48,-43,-69,18,-7,-21,45,12.08
2417,36,-22,25,11,-5,-8,-5,-9,12.085
2418,34,26,25,-32,3,2,9,38,12.09
2419,-35,-22,-80,31,9,0,-5,4,12.095
2420,111,37,81,71,3,4,8,-10,12.1
2421,-11,-13,22,-80,-18,-8,-2,18,12.105
2422,-80,-67,-55,11,-15,-6,-6,-26,12.11
2423,68,-2,-11,-31,23,8,7,-2,12.115
2424,72,44,-23,2,-9,4,17,-23,12.120000000000001
2425,-59,-25,7,-41,-3,-4,-22,20,12.125
2426,39,-36,-21,12,0,-3,4,-13,12.13
2427,34,18,9,57,21,-1,1,13,12.135
2428,-32,-34,-8,-128,-22,-5,-15,-14,12.14
2429,41,42,-12,127,22,5,14,-10,12.145
2430,-37,-32,20,-54,-16,-9,0,19,12.15
2431,-9,-5,-30,-42,-4,-3,-27,-27,12.155000000000001
2432,-49,-10,17,115,32,2,1,1,12.16
2433,-16,-24,8,31,-2,-1,6,3,12.165000000000001
2434,83,57,19,-93,-36,-2,25,28,12.17
2435,-3,-32,25,93,21,4,0,-8,12.175
2436,45,-47,-91,42,-10,1,-2,11,12.18
2437,-20,21,65,-47,-8,-3,-18,-37,12.185
2438,50,-7,-9,100,29,1,2,23,12.19
2439,26,56,97,-7,-4,-4,23,9,12.195
2440,100,30,-66,-4,-17,6,1,3,12.200000000000001
2441,-75,-41,-25,-11,-6,-10,-3,-16,12.205
2442,54,22,80,-11,6,14,17,-3,12.21
2443,-17,15,19,44,3,-12,-21,-28,12.215
2444,-22,-55,58,-78,-13,-9,-14,44,12.22
2445,10,47,10,60,-14,8,11,-5,12.225
2446,44,1,-116,-32,9,-2,19,30,12.23
2447,-117,35,68,-3,-5,1,-11,-6,12.235
2448,84,-58,33,13,-24,-4,-3,-17,12.24
2449,-57,20,-43,67,3,6,13,-40,12.245000000000001
2450,-119,-55,63,-77,-6,-8,-9,36,12.25
2451,1,13,18,39,-1,0,-14,-8,12.255
2452,-64,27,-71,-103,6,8,7,-8,12.26
2453,44,28,16,54,8,0,2,27,12.265
2454,39,-7,43,21,-3,4,-7,-28,12.27
2455,51,22,-82,-36,-6,-1,12,26,12.275
2456,-128,-35,74,-46,-10,-7,3,-62,12.280000000000001
2457,127,8,59,49,36,9,8,41,12.285
2458,-65,39,-50,-49,-9,-8,-16,0,12.290000000000001
2459,19,-47,-39,-5,6,7,15,13,12.295
2460,98,64,57,-30,-14,-1,2,-20,12.3
2461,-38,-27,-128,17,31,-7,-19,29,12.305
2462,25,-14,32,-11,-11,-2,-12,5,12.31
2463,-11,17,-60,59,8,1,-8,-35,12.315
2464,7,-82,-1,66,16,0,16,40,12.32
2465,47,51,36,-51,-28,-15,-9,-12,12.325000000000001
2466,-58,-9,5,15,3,1,-12,-28,12.33
2467,-65,-30,-77,-54,-19,1,1,-20,12.335
2468,44,0,-49,5,7,7,-11,18,12.34
2469,-85,36,47,-10,-5,-7,0,-16,12.345
2470,-65,-42,-21,-54,-14,-7,-6,-27,12.35
2471,2,-24,48,40,32,11,18,34,12.355
2472,-24,1,61,7,-17,-5,-10,-9,12.36
2473,-1,-26,68,-64,-18,-3,-6,12,12.365
2474,31,25,37,-3,3,4,2,-37,12.370000000000001
2475,29,7,2,-1,-6,-3,8,-9,12.375
2476,8,-15,13,-41,4,10,6,42,12.38
2477,7,41,-15,-22,2,-14,-19,30,12.385
2478,9,-50,-3,-35,-26,-10,-19,-84,12.39
2479,-19,29,-16,58,58,3,7,13,12.395
2480,-38,15,-12,41,-1,-11,-30,47,12.4
2481,-7,-113,-19,-38,3,12,22,10,12.405000000000001
2482,6,-28,-44,-89,-23,-4,1,8,12.41
2483,17,18,53,67,22,11,-9,-24,12.415000000000001
2484,-22,34,-1,44,5,-3,5,-7,12.42
2485,40,30,-42,13,22,10,8,-19,12.425
2486,5,36,-74,19,-14,-9,-13,29,12.43
2487,49,21,94,-128,-81,-12,2,-21,12.435
2488,-83,-57,-100,127,100,17,-5,4,12.44
2489,13,-26,0,-84,-28,-11,-24,-14,12.445
2490,46,31,60,65,18,6,-5,13,12.450000000000001
2491,-47,-23,-20,-35,-15,-1,7,11,12.455
2492,1,1,36,-36,-21,-8,4,-20,12.46
2493,13,-13,-22,-13,-4,6,19,0,12.465
2494,38,27,-8,62,11,10,5,-7,12.47
2495,-22,-29,-74,-10,-6,-8,-15,32,12.475
2496,10,14,28,-37,-20,-6,-4,-18,12.48
2497,-9,-15,38,7,13,3,5,30,12.485
2498,0,17,-76,37,3,2,4,-10,12.49
2499,7,-8,93,-16,-8,0,-2,12,12.495000000000001
2500,25,1,-56,-22,-9,-5,-2,-35,12.5
2501,-69,-2,20,17,-9,-8,-6,-12,12.505
2502,2,-9,30,-7,7,0,8,13,12.51
2503,-12,-12,2,-5,-3,-4,-2,2,12.515
2504,15,-9,32,-12,-9,-9,-5,-19,12.52
2505,-5,6,-14,-17,0,6,26,37,12.525
2506,46,5,51,21,3,-32,-34,-11,12.530000000000001
2507,-77,0,26,-10,7,39,53,-24,12.535
2508,-35,55,98,19,-6,-2,4,23,12.540000000000001
2509,-55,-89,-1,5,-1,-28,-21,-89,12.545
2510,79,-31,-75,-4,1,19,28,-1,12.55
2511,86,-26,11,7,1,40,12,37,12.555
2512,-42,26,19,-17,-9,-2,-1,-59,12.56
2513,3,-19,-29,1,0,-7,-23,24,12.565
2514,-108,55,16,0,1,-4,33,-20,12.57
2515,53,21,-49,-16,-3,-28,3,-18,12.575000000000001
2516,38,97,40,0,-6,8,-2,65,12.58
2517,57,127,-72,1,-2,-28,-40,-31,12.585
2518,-41,-12,-4,-5,-5,28,-4,47,12.59
2519,24,-80,-52,-16,-7,-13,-14,-23,12.595
2520,-3,-54,21,-19,-3,-1,-3,15,12.6
2521,-15,1,8,20,-1,0,7,-23,12.605
2522,-5,17,24,8,5,-2,-6,4,12.61
2523,-27,35,-2,-5,1,-1,-11,11,12.615
2524,-14,-33,-26,-4,-4,-13,-14,-18,12.620000000000001
2525,33,48,22,-1,2,14,17,12,12.625
2526,-20,22,-31,-7,-1,6,4,15,12.63
2527,-7,24,27,1,3,-11,-22,5,12.635
2528,36,-4,-21,-7,-2,-7,5,-1,12.64
2529,-31,-13,37,12,-1,19,16,36,12.645
2530,-13,-39,-50,10,7,-4,-16,-62,12.65
2531,-31,-70,-69,-18,-11,-20,-10,2,12.655000000000001
2532,3,-28,9,22,0,14,2,-7,12.66
2533,80,-52,25,-17,-1,10,10,11,12.665000000000001
2534,-14,-59,94,25,2,-7,-13,27,12.67
2535,-13,-12,-21,-17,-5,-15,-14,-23,12.675
2536,-64,-8,20,-11,-1,3,6,-31,12.68
2537,22,1,-86,14,4,13,-6,58,12.685
2538,-8,83,39,14,2,-27,8,-27,12.69
2539,22,94,27,14,-2,2,1,3,12.695
2540,-18,39,72,-33,-3,-5,-1,-24,12.700000000000001
2541,60,-32,-31,-8,-1,39,4,-12,12.705
2542,-59,-43,-3,3,4,16,4,18,12.71
2543,17,-38,27,-5,-4,-16,-18,0,12.715
2544,21,-36,-3,-2,-2,-11,-9,-12,12.72
2545,-26,-19,-40,-8,0,-16,4,-4,12.725
2546,32,12,-4,7,-2,1,0,25,12.73
2547,-15,-21,20,-3,-5,-6,-5,18,12.735
2548,42,-9,-31,4,-3,-1,-4,8,12.74
2549,-25,30,33,-21,-3,-4,-2,-25,12.745000000000001
2550,23,17,-49,-1,-1,3,0,9,12.75
2551,-21,8,21,7,2,1,0,1,12.755
2552,0,-27,24,0,-2,5,4,11,12.76
2553,-13,-7,-15,8,1,-3,4,-10,12.765
2554,10,-6,5,-3,-1,-2,-6,-3,12.77
2555,4,-4,-24,-6,2,4,2,8,12.775
2556,6,-17,-91,-7,-6,2,-2,-8,12.780000000000001
2557,-49,3,-16,24,1,-1,7,-32,12.785
2558,5,-17,38,-23,-7,-5,-18,-16,12.790000000000001
2559,1,-5,-19,-8,1,4,-5,4,12.795
2560,-6,19,12,20,1,0,7,6,12.8
2561,-13,1,60,-9,-1,-4,-1,7,12.805
2562,26,7,3,6,4,-4,-2,4,12.81
2563,-51,1,40,-1,-3,-23,-8,-8,12.815
2564,22,-10,-22,-6,3,56,15,0,12.82
2565,-1,3,6,-5,-1,-7,-1,3,12.825000000000001
2566,11,1,7,-5,-3,5,2,4,12.83
2567,13,16,13,15,4,-6,-3,0,12.835
2568,-31,24,-25,-2,-2,-16,-7,6,12.84
2569,26,14,-2,6,-2,5,2,0,12.845
2570,-4,4,-2,-5,-1,-1,1,7,12.85
2571,-1,3,-7,12,5,6,4,-5,12.855
2572,-8,6,-1,2,-2,-8,1,-1,12.86
2573,4,4,2,-9,-2,-1,2,1,12.865
2574,-16,-17,10,-3,-3,-8,-1,5,12.870000000000001
2575,8,-10,3,11,1,6,3,-4,12.875
2576,-1,-11,-18,-12,0,-9,-1,2,12.88
2577,-6,-10,26,-5,2,-5,-4,4,12.885
2578,-7,-5,-6,-1,0,3,2,5,12.89
2579,22,4,9,1,-1,10,6,-4,12.895
2580,-8,2,0,-6,-2,-7,-6,2,12.9
2581,-5,-8,-18,3,-2,-2,-3,-4,12.905000000000001
2582,-6,-10,-3,-1,-2,2,1,-1,12.91
2583,5,0,-8,-4,0,4,0,-2,12.915000000000001
2584,-6,-3,-5,5,-1,-9,-6,-5,12.92
2585,-6,-11,9,1,-4,-2,-4,-1,12.925
2586,1,46,-2,1,-1,1,1,0,12.93
2587,0,4,2,-5,-1,-2,2,1,12.935
2588,-9,3,-13,-3,1,-2,2,1,12.94
2589,8,-11,-4,5,2,0,3,-22,12.945
2590,3,-16,-18,-10,0,-2,-1,29,12.950000000000001
2591,-2,-4,8,1,-3,0,-3,2,12.955
2592,11,-7,-33,-5,-4,-2,-1,-1,12.96
2593,1,-6,9,5,-2,2,-1,-4,12.965
2594,-5,-12,-8,-1,-1,-1,-2,-9,12.97
2595,9,7,2,-8,1,1,0,10,12.975
2596,-16,-1,-9,0,0,-2,-4,-21,12.98
2597,28,6,6,0,-3,-5,-3,35,12.985
2598,-15,-12,-11,0,-3,1,-1,33,12.99
2599,17,-8,0,-4,2,1,4,-18,12.995000000000001
2600,-9,-5,13,9,3,0,-5,-23,13.0
2601,9,10,3,-5,0,-3,0,17,13.005
2602,-7,10,11,4,0,3,1,-31,13.01
2603,11,2,-6,3,-4,-1,-1,45,13.015
2604,-1,4,-5,-13,-2,0,5,14,13.02
2605,-7,7,7,-4,-2,0,-2,-13,13.025
2606,-5,-6,-4,-9,-2,-1,-1,-3,13.030000000000001
2607,-18,5,-25,1,0,-6,-2,-21,13.035
2608,-6,74,36,23,2,4,1,2,13.040000000000001
2609,19,40,-2,-17,0,1,0,6,13.045
2610,13,6,-2,2,1,-1,0,-9,13.05
2611,-5,-24,-12,-3,0,1,-2,-8,13.055
2612,10,-70,8,2,-2,-6,-1,14,13.06
2613,-16,-38,6,6,-2,0,-1,-9,13.065
2614,5,81,-2,-1,-1,-3,-4,-9,13.07
2615,3,42,12,-2,-2,0,2,-8,13.075000000000001
2616,-5,9,-19,2,2,-1,2,6,13.08
2617,-9,-44,-6,0,-3,0,2,-11,13.085
2618,-4,-8,5,0,-2,-1,-2,-16,13.09
2619,-8,-1,7,1,-2,2,-4,13,13.095
2620,7,12,-16,-5,-3,1,-1,4,13.1
2621,-1,-7,1,-1,1,-1,-2,-1,13.105
2622,2,-57,-8,5,2,-3,0,0,13.11
2623,1,-20,0,-5,-2,-2,3,-3,13.115
2624,-3,-28,2,-8,0,-7,-2,-12,13.120000000000001
2625,-2,-7,16,-2,0,-3,-2,-3,13.125
2626,-3,-22,-2,1,-1,1,-2,-1,13.13
2627,-14,-15,7,-3,-2,2,-2,-6,13.135
2628,-23,-12,0,2,-1,-1,-4,8,13.14
2629,15,11,-3,5,-3,1,1,-5,13.145
2630,17,-9,-10,-10,-3,-2,-3,2,13.15
2631,21,-11,-15,-4,-1,0,-1,-5,13.155000000000001
2632,-18,3,12,-3,-2,-4,-1,0,13.16
2633,-13,10,-5,-6,-2,-2,-2,3,13.165000000000001
2634,2,-10,12,15,1,0,1,-4,13.17
2635,-25,9,-21,-11,-3,0,0,3,13.175
2636,10,6,19,5,-1,-1,1,-2,13.18
2637,3,13,-10,-6,0,0,0,-2,13.185
2638,-19,6,8,-12,-5,-2,0,-1,13.19
2639,-5,6,-22,12,0,-4,1,-16,13.195
2640,-6,-3,11,-7,0,0,-5,28,13.200000000000001
2641,-1,2,-7,3,-1,1,0,-1,13.205
2642,2,-14,1,0,-1,1,0,-4,13.21
2643,1,8,5,0,-1,2,-2,-5,13.215
2644,11,17,1,1,-1,0,1,-5,13.22
2645,-4,6,-10,0,0,0,0,-4,13.225
2646,-5,6,10,3,-1,-1,-1,5,13.23
2647,-13,-1,12,-1,3,0,0,4,13.235
2648,27,-7,-6,-3,1,-1,1,-8,13.24
2649,-22,0,-1,6,-1,-1,-4,8,13.245000000000001
2650,-5,-1,1,6,-1,-1,-3,-6,13.25
2651,7,-3,-10,-15,-6,-4,-3,3,13.255
2652,-3,1,0,1,-2,0,4,7,13.26
2653,-5,7,-10,-8,-1,-5,-2,-2,13.265
2654,15,7,2,8,2,-4,1,0,13.27
2655,-3,-4,8,8,1,2,0,-9,13.275
2656,0,9,-3,-8,-2,-1,1,-9,13.280000000000001
2657,2,-5,15,1,1,-1,-1,15,13.285
2658,-20,-7,-26,-2,1,0,-1,-11,13.290000000000001
2659,9,4,-11,2,-4,-2,-5,33,13.295
2660,3,-10,-1,-2,-1,0,-1,-10,13.3
2661,-6,-3,-2,8,2,2,1,-6,13.305
2662,9,53,10,-3,0,1,-2,-2,13.31
2663,-10,1,-3,0,-2,-1,3,0,13.315
2664,-6,-5,0,0,-1,-1,-2,-3,13.32
2665,-11,-30,0,-3,-4,1,3,1,13.325000000000001
2666,3,-33,1,-2,0,-1,-3,2,13.33
2667,-2,-2,1,7,-1,-1,2,-11,13.335
2668,2,-7,7,-1,0,-3,-1,4,13.34
2669,0,3,-4,2,0,-2,0,-8,13.345
2670,0,-6,1,-8,-3,-2,1,1,13.35
2671,9,5,13,4,3,-1,-1,-5,13.355
2672,-1,0,3,5,-3,0,0,-4,13.36
2673,-9,4,4,-4,0,2,-1,-3,13.365
2674,-4,-8,-1,5,3,3,1,-3,13.370000000000001
2675,12,6,-24,-6,-1,-3,-1,5,13.375
2676,-9,8,-5,-6,-3,-2,-1,-2,13.38
2677,8,10,4,4,-3,-3,-2,-1,13.385
2678,1,-4,-4,-5,-2,-2,0,7,13.39
2679,-3,-5,7,-4,-2,-2,2,-11,13.395
2680,12,1,-1,5,3,1,0,1,13.4
2681,14,3,-3,3,0,1,-2,-1,13.405000000000001
2682,-1,-9,9,-2,-3,1,1,-1,13.41
2683,-7,-3,1,1,1,0,-2,-2,13.415000000000001
2684,-2,0,-3,-1,1,-3,1,-15,13.42
2685,6,-6,-5,-5,-1,-3,-2,33,13.425
2686,-11,3,-1,7,1,-3,1,13,13.43
2687,26,-3,12,-6,-2,1,-1,-35,13.435
2688,-10,-5,-4,-4,-3,-2,-1,13,13.44
2689,-3,2,-5,1,1,0,-1,-12,13.445
2690,8,-5,-5,0,-1,-1,-2,3,13.450000000000001
2691,-19,-6,0,-2,-4,0,-2,2,13.455
2692,0,-2,6,3,1,1,-3,-6,13.46
2693,-2,2,-3,-4,1,3,1,-9,13.465
2694,-5,-3,-10,-6,-3,1,0,2,13.47
2695,1,-4,0,0,0,-2,1,-1,13.475
2696,1,-1,-2,-1,-2,0,-1,-2,13.48
2697,-6,5,2,2,-1,-4,1,-2,13.485
2698,2,0,0,2,0,-3,-3,-6,13.49
2699,-4,-6,-2,0,1,1,-1,1,13.495000000000001
2700,1,-2,-5,-3,1,-4,1,2,13.5
2701,-2,-4,-11,-4,1,0,-2,-5,13.505
2702,4,11,14,0,0,-1,-1,-1,13.51
2703,1,-4,3,1,-2,0,-2,5,13.515
2704,-6,0,4,2,-1,0,-1,3,13.52
2705,4,15,-12,-7,-1,-2,0,-1,13.525
2706,14,-6,-2,-9,-1,-1,-1,-7,13.530000000000001
2707,-2,6,7,-2,0,1,0,3,13.535
2708,2,2,3,-3,0,-1,-2,-5,13.540000000000001
2709,-2,-8,-1,13,-1,-3,-1,-6,13.545
2710,-4,0,-9,0,-2,-2,0,3,13.55
2711,-1,-1,-2,1,-2,0,1,-9,13.555
2712,5,-4,-8,-6,-3,2,0,-5,13.56
2713,-5,5,9,4,1,2,-5,4,13.565
2714,-6,-2,1,1,0,2,-4,-2,13.57
2715,2,4,-7,-3,2,-1,-1,2,13.575000000000001
2716,8,-8,-7,-3,-3,-2,2,-8,13.58
2717,-6,-7,0,-1,-1,-3,-1,-3,13.585
2718,3,-4,2,-3,-2,0,-1,0,13.59
2719,-10,-5,1,3,-2,-2,0,2,13.595
2720,-6,3,1,-4,-1,-1,-2,3,13.6
2721,4,-2,-2,-4,-1,2,2,-2,13.605
2722,-5,-7,-5,-3,-1,0,1,-1,13.61
2723,2,4,3,2,0,-1,0,2,13.615
2724,-3,1,-4,2,1,-3,-2,5,13.620000000000001
2725,6,-1,3,-6,0,0,-2,-2,13.625
2726,-4,1,-14,2,-4,-3,1,-3,13.63
2727,0,9,11,9,-3,0,-1,4,13.635
2728,1,0,3,-7,-1,0,0,2,13.64
2729,-4,-5,-1,2,-2,-3,1,-5,13.645
2730,-3,2,-1,-4,-2,-1,-1,-4,13.65
2731,5,-3,-8,-4,1,-2,0,5,13.655000000000001
2732,-10,2,-2,1,-1,-2,-2,6,13.66
2733,-1,-6,-8,-6,-2,-1,1,-2,13.665000000000001
2734,-1,-1,2,-2,1,1,-1,-3,13.67
2735,5,-5,0,-1,-1,-1,-4,-2,13.675
2736,-4,0,6,1,1,2,-2,-3,13.68
2737,12,2,1,-1,-1,-1,-2,-1,13.685
2738,1,-1,-2,1,-2,1,0,-1,13.69
2739,-11,2,-2,-2,0,1,1,-4,13.695
2740,10,0,1,5,-1,-1,0,3,13.700000000000001
2741,-2,-4,-6,-3,-2,-2,-2,-5,13.705
2742,-5,-3,-1,-10,-4,0,-1,17,13.71
2743,-9,-6,-2,1,0,-2,-3,-1,13.715
2744,3,-3,-3,3,2,-1,0,-3,13.72
2745,-4,6,5,3,-2,0,0,3,13.725
2746,-1,4,9,0,-1,-1,1,-7,13.73
2747,-8,-10,-14,-6,1,1,1,1,13.735
2748,-3,3,6,1,-2,-1,-1,6,13.74
2749,-4,-2,-5,-1,-1,0,-3,-5,13.745000000000001
2750,1,0,0,2,1,-4,-1,-4,13.75
2751,0,0,-9,-5,-4,-2,1,-2,13.755
2752,-7,-1,-8,-1,-4,-1,-2,-1,13.76
2753,13,0,2,2,2,-1,0,-3,13.765
2754,1,3,10,-1,0,-1,0,-3,13.77
2755,1,2,3,7,1,-1,0,-1,13.775
2756,3,-6,-3,-4,-1,2,-1,-6,13.780000000000001
2757,-8,-6,0,-4,-2,1,-3,2,13.785
2758,-5,-4,-6,6,1,0,-5,0,13.790000000000001
2759,7,0,2,-3,-3,-1,-2,-6,13.795
2760,-5,4,-9,-5,-1,0,1,2,13.8
2761,9,0,11,2,-2,-2,1,-2,13.805
2762,0,-8,2,1,1,-2,2,-5,13.81
2763,-3,0,-3,-1,-1,-4,-1,0,13.815
2764,5,7,2,0,-1,-1,-2,0,13.82
2765,-4,3,-7,-7,-3,-1,-3,2,13.825000000000001
2766,-1,2,-1,-1,-1,0,-4,-3,13.83
2767,3,-1,-1,3,0,2,-1,2,13.835
2768,-6,-6,-2,-4,-2,1,1,-1,13.84
2769,-4,3,-1,-2,0,1,0,-4,13.845
2770,4,-5,-2,6,-1,-1,0,2,13.85
2771,-21,-2,0,-7,0,0,3,-5,13.855
2772,30,-13,0,6,0,-2,-3,4,13.86
2773,-4,1,-4,-5,-3,-4,-1,21,13.865
2774,4,-1,-4,-3,1,-1,-1,-3,13.870000000000001
2775,-3,1,5,0,-1,-1,-4,-1,13.875
2776,0,1,-6,-1,-1,-1,-2,-4,13.88
2777,-2,2,2,-7,-2,1,0,-7,13.885
2778,-7,3,1,4,-3,-2,-1,2,13.89
2779,12,-7,-1,-3,1,-1,-2,1,13.895
2780,-2,-9,0,-5,-1,0,0,-8,13.9
2781,-17,1,-9,4,0,-1,-1,0,13.905000000000001
2782,1,4,-6,-6,0,-2,1,-3,13.91
2783,-1,10,3,-2,-3,0,-2,0,13.915000000000001
2784,-3,-3,0,1,-2,0,-1,0,13.92
2785,1,-1,0,-1,2,-2,1,-2,13.925
2786,-8,-5,1,4,-1,1,0,1,13.93
2787,7,2,2,1,-1,-3,-1,1,13.935
2788,-5,-3,-5,-2,-1,-2,0,0,13.94
2789,-3,4,6,2,-1,0,0,-5,13.945
2790,-1,0,2,-2,-2,0,-3,-4,13.950000000000001
2791,5,-4,-9,-5,1,0,-2,1,13.955
2792,-7,0,-1,0,-1,-1,-2,-1,13.96
2793,-5,2,-1,2,1,0,-2,-9,13.965
2794,5,0,1,-2,-2,-3,-3,13,13.97
2795,0,1,-2,2,1,-1,2,-1,13.975
2796,-8,5,2,1,2,-1,-1,-3,13.98
2797,7,-4,-3,-3,0,-3,1,7,13.985
2798,-1,0,-1,0,-1,2,0,-3,13.99
2799,-6,-7,-1,1,-1,1,0,-1,13.995000000000001
2800,7,4,1,0,-2,-1,2,3,14.0
2801,3,-1,2,3,-2,-2,-2,-3,14.005
2802,-1,-1,-3,-6,0,0,-1,-3,14.01
2803,-2,-7,-1,0,-1,0,-2,3,14.015
2804,-4,0,-3,-2,0,-3,0,-3,14.02
2805,1,-5,-9,2,-2,2,-1,-2,14.025
2806,3,-5,2,-8,-3,-1,4,0,14.030000000000001
2807,-28,0,8,11,-1,-1,0,-1,14.035
2808,-5,3,-2,-2,-1,-2,-4,-8,14.040000000000001
2809,-16,-13,3,1,0,-2,-1,19,14.045
2810,8,-1,0,0,2,1,-2,-2,14.05
2811,15,0,-1,-5,0,0,0,-6,14.055
2812,-10,-3,-8,0,-1,-1,-2,17,14.06
2813,-1,1,7,1,-1,1,-4,-11,14.065
2814,-3,2,-10,-1,-2,0,-3,-4,14.07
2815,1,0,0,0,0,-2,1,5,14.075000000000001
2816,-6,2,7,2,-3,-1,1,-6,14.08
2817,0,-1,-1,-4,1,0,2,-5,14.085
2818,6,-2,0,0,-1,1,0,-3,14.09
2819,12,-8,-5,0,-4,-2,-2,-1,14.095
2820,3,-1,-4,-3,-3,-1,-4,-3,14.1
2821,0,6,6,2,0,-2,-1,-1,14.105
2822,-11,-4,-7,0,1,-3,1,0,14.11
2823,-3,1,-5,-2,1,-2,-1,-3,14.115
2824,1,1,2,-1,-1,1,1,-1,14.120000000000001
2825,1,1,0,2,-2,-1,0,0,14.125
2826,-3,4,8,-1,-1,-4,1,-3,14.13
2827,6,4,-8,-10,-3,-1,0,1,14.135
2828,-1,-6,0,-4,1,0,-1,-8,14.14
2829,-1,-12,-2,-3,-1,-1,-3,-2,14.145
2830,5,-5,3,-1,2,-1,0,1,14.15
2831,-17,-3,-4,-2,-2,1,-2,-8,14.155000000000001
2832,0,-1,3,4,-1,0,-1,5,14.16
2833,4,7,-5,-3,1,0,-1,-3,14.165000000000001
2834,-4,1,3,2,0,-1,0,2,14.17
2835,1,-5,2,1,-3,-3,0,0,14.175
2836,12,2,2,4,2,0,2,-4,14.18
2837,-9,-4,-3,-3,-2,0,2,-20,14.185
2838,-3,-2,-5,4,0,-1,-5,29,14.19
2839,-1,10,4,2,1,0,-4,-9,14.195
2840,-6,-3,-6,-1,0,-1,-2,17,14.200000000000001
2841,6,-2,4,3,-1,-1,-2,-3,14.205
2842,-8,-4,-10,-8,-3,-1,1,-10,14.21
2843,-3,-1,2,0,-2,-2,-2,0,14.215
2844,-2,-14,-1,-5,0,-1,-1,-6,14.22
2845,0,0,2,0,-1,0,1,7,14.225
2846,-8,-1,-4,-1,-1,0,1,-6,14.23
2847,7,7,1,5,1,0,0,7,14.235
2848,-10,7,5,-2,-1,-1,1,-12,14.24
2849,2,-1,4,1,2,1,-1,10,14.245000000000001
2850,2,0,-4,-5,0,1,-4,-10,14.25
2851,10,-8,-9,-5,-3,-1,1,6,14.255
2852,-4,-2,-4,2,0,-3,2,-2,14.26
2853,-1,2,-4,-2,0,0,-2,-1,14.265
2854,7,6,4,3,-3,0,-1,0,14.27
2855,-5,-2,1,0,0,1,-2,-1,14.275
2856,-2,1,0,-1,-2,-1,0,-3,14.280000000000001
2857,-1,0,-1,1,-2,-3,1,9,14.285
2858,1,0,-3,-8,-1,-1,-1,-5,14.290000000000001
2859,-1,-6,0,-7,-1,2,-1,-1,14.295
2860,1,-9,2,1,0,0,-2,0,14.3
2861,1,-12,-5,-4,1,1,-1,-7,14.305
2862,-10,2,4,6,2,2,1,2,14.31
2863,11,-4,-2,2,-2,-3,-3,2,14.315
2864,4,5,1,-2,-2,0,-3,-1,14.32
2865,-15,4,0,-1,-2,-2,-2,-3,14.325000000000001
2866,27,3,-5,2,-3,-2,-1,-11,14.33
2867,0,5,1,0,0,-2,1,9,14.335
2868,1,1,-9,-8,0,1,2,-4,14.34
2869,8,2,5,0,0,-3,-2,0,14.345
2870,-19,-3,2,0,0,-1,0,-3,14.35
2871,4,1,6,-1,0,-1,-4,-2,14.355
2872,-18,-14,-1,11,0,-1,1,-4,14.36
2873,2,-8,-1,-1,-1,0,3,-5,14.365
2874,-7,-9,-3,0,-1,0,-1,25,14.370000000000001
2875,-9,3,4,3,3,-1,0,-16,14.375
2876,11,4,5,2,-1,-1,-2,3,14.38
2877,0,3,-12,-7,-1,0,0,0,14.385
2878,-2,1,2,1,1,-2,-2,-7,14.39
2879,-5,-5,-6,-4,-1,0,0,-2,14.395
2880,0,4,4,-1,-1,0,-2,1,14.4
2881,3,3,2,4,2,0,1,3,14.405000000000001
2882,2,0,1,-2,-2,0,0,-5,14.41
2883,-7,-10,-11,-3,-1,-1,0,3,14.415000000000001
2884,-6,8,7,7,3,0,0,-3,14.42
2885,5,-1,0,-3,-3,0,-2,2,14.425
2886,-8,5,-5,1,0,0,0,-3,14.43
2887,0,-1,0,-1,-1,-1,1,3,14.435
2888,2,-7,1,0,0,1,0,3,14.44
2889,-8,-4,-4,-5,-2,-2,0,-4,14.445
2890,-1,-2,-6,0,1,-1,-2,-3,14.450000000000001
2891,7,4,1,-3,-1,-1,-1,1,14.455
2892,0,1,0,-1,-1,0,-1,-5,14.46
2893,-2,1,1,3,-1,0,-5,-5,14.465
2894,0,1,-6,-1,2,-1,-1,5,14.47
2895,5,-10,2,3,0,1,0,-3,14.475
2896,-8,9,-5,-1,-1,-1,0,3,14.48
2897,-3,2,3,-1,-1,-2,-1,-3,14.485
2898,4,6,2,-3,-2,-3,0,-2,14.49
2899,-1,4,-1,-2,-2,-3,0,-3,14.495000000000001
2900,3,-2,-3,-3,0,-2,-2,6,14.5
2901,3,-1,-3,1,2,0,-1,1,14.505
2902,-1,-6,4,-2,-1,-1,-3,-5,14.51
2903,0,3,-3,7,1,0,1,4,14.515
2904,2,-2,-2,-5,-3,-3,0,-11,14.52
2905,-1,0,1,2,0,0,-1,9,14.525
2906,-5,-10,0,-3,-3,1,1,-2,14.530000000000001
2907,-4,-1,4,-1,2,0,0,-10,14.535
2908,-16,-2,-3,-2,1,0,-1,3,14.540000000000001
2909,37,0,-3,-3,0,-2,-2,-7,14.545
2910,-2,4,6,4,0,-2,-1,-8,14.55
2911,12,-7,-1,-3,-2,-3,-2,2,14.555
2912,7,6,-7,1,-1,-1,-2,0,14.56
2913,-11,-5,-2,-2,-1,1,1,-3,14.565
2914,2,-2,-4,1,-1,-1,-1,-2,14.57
2915,-5,-1,0,0,-2,-1,-2,-4,14.575000000000001
2916,-3,-6,-1,-6,-3,-2,1,-2,14.58
2917,-3,0,-1,3,-3,0,-4,-5,14.585
2918,0,-5,-6,-3,-2,2,-1,1,14.59
2919,-11,1,-1,-8,-2,1,-2,2,14.595
2920,15,-1,1,1,1,-1,0,0,14.6
2921,-15,1,-1,-1,2,-3,1,-1,14.605
2922,4,0,2,3,3,-2,-3,0,14.61
2923,6,4,0,1,-4,-2,-1,-6,14.615
2924,-4,-7,-2,-2,-2,-1,0,1,14.620000000000001
2925,2,2,0,0,-1,-2,2,-1,14.625
2926,-7,-6,-5,-5,-2,-1,0,0,14.63
2927,-5,5,3,-3,2,1,1,-2,14.635
2928,6,3,4,0,1,0,-1,-2,14.64
2929,-5,-6,-3,-3,0,1,-1,3,14.645
2930,-2,-6,-2,-2,-1,1,0,-7,14.65
2931,-2,-5,6,6,1,-2,1,4,14.655000000000001
2932,-3,0,-9,0,-2,1,-3,-5,14.66
2933,-15,2,5,-5,-2,-1,0,20,14.665000000000001
2934,14,6,0,2,-2,-3,-2,-3,14.67
2935,-3,-6,-13,1,-2,-1,-1,-4,14.675
2936,-1,4,5,-3,0,0,-1,5,14.68
2937,1,-4,-5,-4,-3,2,1,-10,14.685
2938,-2,-1,-1,-3,-2,-2,-1,2,14.69
2939,-4,3,-1,1,0,0,-3,3,14.695
2940,-6,-2,-3,-1,-3,-3,-2,-7,14.700000000000001
2941,3,-5,1,3,0,-1,-2,-4,14.705
2942,0,6,2,0,1,-2,-1,2,14.71
2943,-1,-4,-2,-1,0,-2,0,-3,14.715
2944,-4,-5,-4,-7,-3,1,1,1,14.72
2945,9,8,5,0,0,1,0,-9,14.725
2946,-13,-10,8,10,0,1,-2,6,14.73
2947,4,0,-11,-10,0,-2,0,0,14.735
2948,10,4,-2,-6,-2,-2,-2,1,14.74
2949,-14,-9,-6,-1,-1,-2,2,1,14.745000000000001
2950,4,2,-4,-6,-2,1,-2,-6,14.75
2951,-5,2,1,-1,-2,-1,-1,0,14.755
2952,0,1,4,2,2,1,-1,-2,14.76
2953,4,-1,0,0,-3,-2,-3,-10,14.765
2954,-3,-1,-14,-8,-1,-1,0,18,14.77
2955,-2,-2,4,1,-1,-2,-1,3,14.775
2956,2,1,0,5,0,-3,1,8,14.780000000000001
2957,-1,0,0,-1,-2,0,-2,0,14.785
2958,-4,0,3,-1,-1,1,0,-6,14.790000000000001
2959,1,-1,-5,1,0,-3,-1,-4,14.795
2960,-2,-4,-2,-2,-1,0,-2,-5,14.8
2961,0,4,-4,-3,0,-3,-1,-1,14.805
2962,3,-2,-2,0,-1,0,0,-6,14.81
2963,-3,4,16,3,2,4,2,-2,14.815
2964,-3,-7,0,6,2,1,0,-6,14.82
2965,-1,-6,-7,-2,-2,-2,0,1,14.825000000000001
2966,3,3,3,-1,-1,-4,-3,-3,14.83
2967,2,7,-4,-1,-5,-1,-1,-4,14.835
2968,1,-8,1,-2,-1,-1,-1,-8,14.84
2969,-13,2,-1,7,3,1,-1,-6,14.845
2970,6,6,1,-7,-1,-2,-1,27,14.85
2971,-1,0,2,-3,-2,-2,-6,4,14.855
2972,-3,2,0,-1,-3,-1,-5,-1,14.86
2973,-7,-3,-6,-3,-2,-1,-3,1,14.865
2974,3,-1,6,1,0,0,-1,-14,14.870000000000001
2975,-9,-10,-9,-4,-1,0,4,-3,14.875
2976,5,0,-2,3,1,-2,1,6,14.88
2977,9,4,5,-2,2,0,-1,-3,14.885
2978,-8,-2,-3,1,-2,-1,2,-4,14.89
2979,1,0,1,2,-2,1,-2,0,14.895
2980,0,2,-2,0,-1,-1,-2,-4,14.9
2981,0,-1,-3,-6,-1,0,0,0,14.905000000000001
2982,-4,-4,-5,-7,-3,-1,1,-3,14.91
2983,1,3,6,0,0,-2,-3,0,14.915000000000001
2984,-3,1,-3,-4,-1,0,0,1,14.92
2985,4,-6,-3,2,-2,-1,-3,2,14.925
2986,0,-3,-3,0,-2,-1,-2,-6,14.93
2987,2,-1,-8,-2,1,-2,0,-3,14.935
2988,3,-1,3,-4,-2,-3,-1,-4,14.94
2989,-6,1,6,-1,1,-2,2,1,14.945
2990,-2,-1,-4,2,-1,0,-1,-4,14.950000000000001
2991,-4,-9,2,0,-2,0,1,5,14.955
2992,0,5,2,3,-1,0,-2,-1,14.96
2993,0,-5,-8,-4,1,2,-2,1,14.965
2994,-2,4,1,-1,-1,0,0,-2,14.97
2995,3,4,-3,-1,-1,0,-1,-3,14.975
2996,-2,-4,-6,-5,-1,0,-1,1,14.98
2997,2,2,6,2,-3,-1,-3,-2,14.985
2998,-4,1,1,3,0,0,-2,-3,14.99
2999,0,-3,-6,-4,-2,0,-1,-1,14.995000000000001
3000,0,-1,-2,-3,-1,0,0,-4,15.0
3001,-4,2,9,7,3,-2,0,23,15.005
3002,-1,-5,-2,0,3,-2,-1,-4,15.01
3003,-3,3,7,3,1,-2,-2,-2,15.015
3004,-3,-10,-10,-6,-3,-1,2,5,15.02
3005,-5,1,-1,-1,-3,0,1,-8,15.025
3006,-6,-1,2,0,-2,1,-2,0,15.030000000000001
3007,12,0,5,-2,-1,1,-5,-4,15.035
3008,-28,3,2,1,-1,1,0,11,15.040000000000001
3009,35,-1,-3,-3,0,0,0,-7,15.045
3010,-9,-1,-5,0,0,-3,1,2,15.05
3011,-6,-2,-7,-9,-1,0,-2,-2,15.055
3012,9,2,6,5,2,1,1,-6,15.06
3013,-14,0,-4,-1,0,0,-1,-2,15.065
3014,-1,-1,5,-1,0,-3,-1,2,15.07
3015,4,2,-1,7,0,-1,0,-3,15.075000000000001
3016,-1,-4,-7,-2,0,-1,-2,-1,15.08
3017,-2,5,-1,-1,-4,0,0,2,15.085
3018,6,-5,-4,-3,-2,1,-3,-10,15.09
3019,-2,2,-2,-3,-1,-3,-1,5,15.095
3020,-3,-5,1,2,-2,-3,0,-1,15.1
3021,-3,0,-2,-3,0,-1,1,-4,15.105
3022,4,0,1,-3,0,0,1,-5,15.11
3023,-4,-2,2,-5,-4,1,0,2,15.115
3024,1,6,-1,4,1,-2,-1,-1,15.120000000000001
3025,2,-1,-2,1,1,0,-2,-7,15.125
3026,0,-1,1,2,0,-2,0,0,15.13
3027,-3,-6,-7,2,0,1,1,3,15.135
3028,3,1,5,-4,-2,-1,-3,-4,15.14
3029,-3,-5,-1,-1,-2,-1,0,2,15.145
3030,-1,7,0,1,2,0,-3,-6,15.15
3031,-6,-5,-2,0,0,-2,1,3,15.155000000000001
3032,5,-2,-5,-3,-4,-2,0,1,15.16
3033,-2,-1,-2,-1,-5,-1,-4,1,15.165000000000001
3034,-4,1,0,-1,-2,1,1,-23,15.17
3035,-15,4,2,-4,-1,0,-4,21,15.175
3036,30,-5,-3,6,1,0,-1,-4,15.18
3037,0,-3,-1,-7,-1,-1,1,2,15.185
3038,5,-4,-3,5,-2,-1,0,-3,15.19
3039,0,-3,-2,2,0,1,1,-7,15.195
3040,-20,0,0,-6,-1,1,-2,1,15.200000000000001
3041,13,5,2,3,-3,-1,-2,-2,15.205
3042,1,-2,-3,-6,-1,-1,-3,7,15.21
3043,-1,-3,-2,1,-2,-1,-1,-8,15.215
3044,-4,-4,1,0,-1,-1,-1,1,15.22
3045,-7,-3,-2,-4,1,-3,-2,0,15.225
3046,-4,5,6,0,1,1,-1,10,15.23
3047,3,-1,-3,0,-2,-3,-1,-3,15.235
3048,-1,4,-4,0,2,-1,-2,-16,15.24
3049,-6,-1,-1,-1,-1,-1,2,-1,15.245000000000001
3050,3,-3,0,-1,-2,-3,-2,1,15.25
3051,7,7,0,-2,2,-2,0,1,15.255
3052,-15,-7,3,-1,-2,1,3,-5,15.26
3053,-4,-1,-5,-5,0,-2,0,0,15.265
3054,9,3,-2,-5,-4,-2,0,1,15.27
3055,1,-2,-1,7,-1,1,-3,-8,15.275
3056,2,5,1,-1,-3,1,0,4,15.280000000000001
3057,-6,3,-3,2,-1,-3,-1,-3,15.285
3058,-7,-4,-3,-2,-2,2,0,3,15.290000000000001
3059,3,5,2,-1,0,0,-4,-4,15.295
3060,0,-4,-5,-8,-2,-1,-3,3,15.3
3061,-3,-1,-4,-1,0,0,-3,2,15.305
3062,-2,-4,2,1,0,-3,-1,0,15.31
3063,0,2,7,2,0,-1,1,-1,15.315
3064,-1,4,-7,-5,-2,-1,-3,1,15.32
3065,1,-15,-3,-5,-2,-1,0,-3,15.325000000000001
3066,-5,4,-2,0,-1,0,-1,2,15.33
3067,-3,-5,-1,-2,-1,-2,-1,-4,15.335
3068,-1,-3,-2,1,3,0,-1,-6,15.34
3069,3,0,3,2,-1,-1,-1,7,15.345
3070,2,8,3,2,2,1,1,0,15.35
3071,-2,-6,0,-3,2,1,3,-8,15.355
3072,1,-1,-2,-1,-2,-1,0,6,15.36
3073,-22,7,1,1,-1,0,-1,-3,15.365
3074,15,-1,3,5,1,1,-1,1,15.370000000000001
3075,-3,4,-7,-5,-2,0,1,4,15.375
3076,4,1,1,-4,-3,-3,-2,-6,15.38
3077,-4,2,1,6,0,-1,-2,-4,15.385
3078,-5,-8,2,-2,-1,0,-2,3,15.39
3079,2,0,-4,-2,1,3,-1,-6,15.395
3080,1,1,2,-2,2,-1,0,4,15.4
3081,4,0,-4,2,2,-1,0,0,15.405000000000001
3082,-3,-4,-1,-1,1,-1,1,-2,15.41
3083,0,-7,-8,-6,-4,-3,0,0,15.415000000000001
3084,-4,-1,3,0,-1,-1,2,1,15.42
3085,4,-1,-1,-1,-2,-4,2,-1,15.425
3086,-2,0,-3,-1,-2,0,0,-4,15.43
3087,-6,0,0,2,0,-2,-2,1,15.435
3088,0,4,0,-2,0,0,0,1,15.44
3089,-1,-10,-3,-3,-4,-1,0,-6,15.445
3090,1,0,-3,-2,-2,-2,-2,1,15.450000000000001
3091,2,2,5,5,2,-1,-3,2,15.455
3092,1,1,-1,-1,-1,-1,-3,-3,15.46
3093,3,-5,-6,-1,-1,0,-2,0,15.465
3094,-4,-1,-1,-8,-4,0,1,1,15.47
3095,-2,-4,1,1,-1,-1,-2,-2,15.475
3096,-2,-2,-1,5,0,0,0,0,15.48
3097,-1,1,3,3,0,0,2,-3,15.485000000000001
3098,-4,-5,-4,-4,1,-2,0,3,15.49
3099,0,-2,1,-2,0,1,0,-2,15.495000000000001
3100,-3,-1,0,-2,-1,0,0,1,15.5
3101,3,5,1,-3,-1,-2,-2,-2,15.505
3102,-1,-3,-10,2,-1,-1,-1,0,15.51
3103,1,-1,3,0,1,-1,1,0,15.515
3104,0,-1,-4,-4,-4,0,2,0,15.52
3105,1,0,3,-10,-5,0,-1,2,15.525
3106,-3,0,0,26,5,-3,-1,-2,15.530000000000001
3107,1,0,-1,-26,-4,-3,0,-1,15.535
3108,2,-1,1,5,1,-2,0,-1,15.540000000000001
3109,1,-3,-1,-8,-5,0,-2,-3,15.545
3110,1,-1,1,0,-2,2,-1,-3,15.55
3111,-5,-2,-1,-20,-3,2,-2,-2,15.555
3112,-3,-2,0,19,0,-2,-2,-2,15.56
3113,-1,5,-1,-27,-3,0,-2,-1,15.565
3114,1,-6,0,27,3,0,-2,1,15.57
3115,-8,3,-2,3,-4,-2,-1,5,15.575000000000001
3116,13,-1,1,-15,-5,-1,-5,0,15.58
3117,15,4,-2,7,0,-1,-1,-2,15.585
3118,-6,-16,-3,-15,-4,-3,3,-1,15.59
3119,-4,1,2,1,3,0,5,2,15.595
3120,10,-3,-1,4,1,0,1,3,15.6
3121,24,6,4,17,6,0,-3,3,15.605
3122,-13,-2,-5,-21,-6,-2,-5,-8,15.610000000000001
3123,-8,-7,-6,16,3,0,-3,-3,15.615
3124,10,3,0,-1,0,0,1,-2,15.620000000000001
3125,-22,-7,-4,-9,-4,1,1,2,15.625
3126,4,-4,5,4,-1,0,-3,1,15.63
3127,7,-10,0,-1,-1,1,-3,-1,15.635
3128,-9,-5,-1,-12,-1,-3,-1,-3,15.64
3129,-22,11,-5,14,-1,0,1,-2,15.645
3130,19,34,9,-2,1,1,1,2,15.65
3131,-2,-16,-19,-1,-2,-2,-2,-5,15.655000000000001
3132,7,2,-5,-1,1,1,1,-1,15.66
3133,6,-17,3,-6,-1,0,-2,-5,15.665000000000001
3134,-47,0,-3,4,0,-3,-2,-1,15.67
3135,5,5,6,4,-1,0,2,0,15.675
3136,-2,-1,0,-4,-4,-2,-1,-2,15.68
3137,-20,0,-1,4,0,0,-1,-1,15.685
3138,15,12,0,-4,0,4,2,2,15.69
3139,20,15,0,0,0,-1,-3,-3,15.695
3140,3,18,2,6,0,0,2,6,15.700000000000001
3141,28,24,6,5,2,1,2,8,15.705
3142,-44,9,1,-11,-1,-3,-3,-9,15.71
3143,29,-12,0,3,0,-1,0,6,15.715
3144,13,-11,-3,-3,-3,0,-2,3,15.72
3145,-18,-21,3,17,4,-2,-1,-6,15.725
3146,20,-18,-6,-16,-3,3,3,7,15.73
3147,8,8,3,2,2,1,3,-2,15.735000000000001
3148,-68,-22,-9,-19,-4,0,0,-3,15.74
3149,50,5,0,37,-7,-4,0,1,15.745000000000001
3150,45,0,-15,-24,7,-1,-2,-4,15.75
3151,28,-4,10,-23,-8,-1,-3,-10,15.755
3152,-13,-76,28,35,16,4,3,-1,15.76
3153,17,26,-31,-24,-6,-4,-2,9,15.765
3154,-32,-22,-84,12,-7,-3,-1,-7,15.77
3155,-15,-47,-3,11,-2,-1,-3,-2,15.775
3156,29,-25,-39,-8,3,0,-2,1,15.780000000000001
3157,-114,-55,12,-13,-2,0,-5,-20,15.785
3158,-5,-4,28,0,-5,0,6,2,15.790000000000001
3159,15,-44,-36,-5,6,3,2,13,15.795
3160,9,-2,44,-10,-9,-3,-3,-9,15.8
3161,36,26,50,25,11,4,3,8,15.805
3162,-30,120,10,6,4,-1,-6,-5,15.81
3163,-124,-62,23,-20,-9,0,4,6,15.815
3164,29,-38,-20,-50,-4,-4,-11,-5,15.82
3165,-18,19,-45,66,13,6,5,-9,15.825000000000001
3166,60,-29,-60,-24,-25,-5,-1,-3,15.83
3167,2,48,52,10,36,-1,-5,9,15.835
3168,-35,17,-9,-88,-41,-5,0,10,15.84
3169,39,71,6,67,42,2,6,6,15.845
3170,6,-16,-21,-64,-9,-5,4,7,15.85
3171,-29,-20,-16,24,-49,-11,-7,-26,15.855
3172,48,72,-49,-101,47,7,2,-5,15.860000000000001
3173,-16,-15,67,47,26,14,13,25,15.865
3174,3,31,-22,-7,-22,-4,-2,-5,15.870000000000001
3175,-2,37,-6,76,22,8,3,-7,15.875
3176,9,-2,24,40,-11,-6,-8,2,15.88
3177,-20,19,5,-39,-14,-6,-3,-9,15.885
3178,87,42,47,-1,4,4,15,10,15.89
3179,-52,-72,-25,-49,-1,-13,-28,-50,15.895
3180,-15,83,4,59,-12,1,-2,2,15.9
3181,122,-79,-27,-62,-18,-6,-8,30,15.905000000000001
3182,2,1,2,-47,-10,-4,-26,-1,15.91
3183,6,57,-11,-14,6,0,14,2,15.915000000000001
3184,-16,-45,68,104,43,13,11,-17,15.92
3185,36,43,-65,-128,-39,-9,1,16,15.925
3186,-97,-128,42,77,17,3,14,-2,15.93
3187,75,115,22,23,-24,-4,13,41,15.935
3188,-14,-51,5,4,2,2,-5,-14,15.94
3189,-120,29,-30,20,20,-1,-19,-14,15.945
3190,38,-17,69,14,2,1,1,-15,15.950000000000001
3191,-5,35,16,-18,18,2,9,24,15.955
3192,13,26,-45,-19,-25,0,-5,-11,15.96
3193,17,-67,13,6,-3,-1,4,-18,15.965
3194,-17,-29,-20,-21,1,2,-7,-3,15.97
3195,17,28,34,-2,19,7,8,7,15.975
3196,49,-8,17,-14,-10,-8,1,8,15.98
3197,-91,-43,-10,-22,-21,-9,-7,-27,15.985000000000001
3198,-58,-14,-5,-46,-23,-6,-3,-6,15.99
3199,-39,-17,-30,76,16,-9,-18,6,15.995000000000001
3200,-81,-22,-5,4,12,5,3,-19,16.0
3201,11,19,2,12,-17,-8,-5,-19,16.005
3202,73,70,-2,-70,1,6,11,23,16.01
3203,-19,-54,31,72,25,13,-23,-32,16.015
3204,-26,-30,-36,-74,-23,-4,25,21,16.02
3205,-114,-33,30,81,24,-1,2,36,16.025
3206,-8,22,-18,42,12,3,8,-8,16.03
3207,113,-48,19,-83,-16,0,-4,35,16.035
3208,63,61,-70,3,-7,-9,-46,-11,16.04
3209,127,8,63,-3,10,10,5,6,16.045
3210,-91,-50,13,0,-18,-17,-9,0,16.05
3211,-39,45,-8,-86,-31,-4,20,-20,16.055
3212,-9,11,38,69,41,3,-7,1,16.06
3213,113,7,12,-80,-44,-1,2,8,16.065
3214,-34,-26,-69,39,32,1,-17,-24,16.07
3215,39,3,-38,-69,-39,-8,8,0,16.075
3216,-48,40,26,0,-3,-1,16,9,16.080000000000002
3217,17,14,8,-38,-5,1,14,37,16.085
3218,3,-1,70,29,13,1,-4,-21,16.09
3219,6,-42,6,6,2,0,7,-15,16.095
3220,9,62,4,-95,-33,-5,2,22,16.1
3221,-72,-17,-3,19,13,15,26,-1,16.105
3222,-59,-56,0,-62,-40,-9,-41,-4,16.11
3223,-54,0,12,113,69,16,14,-15,16.115000000000002
3224,121,38,29,-60,-19,-9,-23,-36,16.12
3225,-20,-14,15,72,-7,0,37,15,16.125
3226,17,-81,23,-11,22,1,-21,49,16.13
3227,70,27,-72,-49,-45,-15,-11,2,16.135
3228,-67,-16,45,-29,41,11,-4,-14,16.14
3229,46,35,46,33,17,4,-16,-81,16.145
3230,-30,3,29,51,-16,-2,36,65,16.15
3231,-15,37,21,21,1,-3,-13,7,16.155
3232,42,-6,-68,118,23,13,18,27,16.16
3233,-48,-16,-13,-44,-22,-17,-24,-37,16.165
3234,90,68,-8,-26,13,2,13,-8,16.17
3235,-55,-3,24,37,4,3,8,0,16.175
3236,-15,9,-15,-40,-34,-12,7,10,16.18
3237,-66,-6,-81,-16,21,0,-21,-39,16.185
3238,127,36,-25,-71,-2,-1,9,2,16.19
3239,-7,45,62,-58,-1,-2,-9,14,16.195
3240,20,-48,25,-24,2,1,4,-6,16.2
3241,67,8,37,27,3,0,-18,-43,16.205000000000002
3242,-93,13,-44,-55,-4,-11,-10,0,16.21
3243,17,12,14,89,38,6,11,40,16.215
3244,-14,-24,20,30,1,9,18,2,16.22
3245,-1,-32,-47,-61,-14,-6,-4,39,16.225
3246,16,10,40,91,-12,0,9,-21,16.23
3247,8,34,-27,-103,-20,1,-4,-31,16.235
3248,-36,-77,-18,18,15,-4,-21,24,16.240000000000002
3249,0,7,-30,-5,1,-4,-20,3,16.245
3250,82,18,25,41,-2,5,-5,-20,16.25
3251,-82,17,-64,10,-13,-6,2,2,16.255
3252,15,10,103,-8,-1,0,1,-23,16.26
3253,-74,-38,-82,-53,8,1,-8,-25,16.265
3254,-2,-15,60,80,-10,-2,35,-3,16.27
3255,63,-25,38,50,7,11,39,67,16.275
3256,19,38,-77,14,-3,-1,-36,-14,16.28
3257,-26,-27,48,-27,-22,-11,-6,-11,16.285
3258,12,28,-11,-35,22,3,-35,26,16.29
3259,-7,-65,-41,-28,-34,-12,-17,-29,16.295
3260,-45,-2,16,-11,0,2,12,4,16.3
3261,67,63,-7,84,14,13,51,56,16.305
3262,-17,-9,51,-43,-29,-8,-31,-55,16.31
3263,-10,13,-25,-85,12,-3,2,2,16.315
3264,21,-2,-14,72,-4,-9,-6,12,16.32
3265,58,32,-59,-5,18,6,-5,13,16.325
3266,-78,-28,19,-13,-5,-3,18,-20,16.330000000000002
3267,26,-29,10,-14,-3,-7,-29,-2,16.335
3268,1,16,-2,-60,-29,-2,2,-27,16.34
3269,6,-13,6,44,6,3,46,39,16.345
3270,-9,-14,-33,-39,-2,-2,-34,0,16.35
3271,52,-5,-59,37,8,5,-8,-26,16.355
3272,-35,13,31,-16,2,-7,-18,-6,16.36
3273,15,-13,57,29,6,-1,-12,20,16.365000000000002
3274,3,0,-102,-63,8,4,25,32,16.37
3275,-27,-5,5,-24,-6,4,14,-24,16.375
3276,72,19,22,76,25,4,17,5,16.38
3277,-77,-6,30,-47,-26,-11,-31,-1,16.385
3278,-5,1,30,18,19,8,14,2,16.39
3279,17,-24,9,-67,-20,-2,0,18,16.395
3280,52,29,-10,12,-3,0,10,-7,16.4
3281,-27,36,14,11,-4,-11,-8,-23,16.405
3282,-8,-33,-6,127,13,0,-20,-22,16.41
3283,-14,-3,45,56,31,3,-1,10,16.415
3284,-64,-60,1,-37,-18,-6,-11,-8,16.42
3285,22,19,-13,-102,-13,3,17,4,16.425
3286,110,14,-21,71,13,3,10,22,16.43
3287,-28,39,39,38,-13,-22,-9,-6,16.435
3288,-7,10,29,-8,-5,3,21,14,16.44
3289,55,-3,-24,-30,8,6,-16,-1,16.445
3290,-30,50,13,-13,-3,6,21,-13,16.45
3291,46,-35,20,-28,-5,0,-33,-26,16.455000000000002
3292,1,-10,-45,28,6,-7,12,41,16.46
3293,3,-8,28,-10,-12,-4,5,-15,16.465
3294,-13,-16,21,-20,1,1,-7,2,16.47
3295,3,-40,-53,29,4,2,7,-8,16.475
3296,-26,-24,8,-26,-10,-1,4,-12,16.48
3297,-19,-19,-28,29,9,0,-12,-6,16.485
3298,-16,-7,-8,-56,-3,-1,10,-2,16.490000000000002
3299,9,39,-19,-4,-3,2,2,-10,16.495
3300,-14,51,-3,8,-3,-6,-5,7,16.5
3301,-48,36,0,0,1,-7,-3,-17,16.505
3302,15,54,6,-8,3,2,-4,10,16.51
3303,-8,7,19,-19,-9,-11,13,21,16.515
3304,-1,-10,-51,2,0,-9,-28,-36,16.52
3305,31,-21,36,10,2,26,15,-19,16.525
3306,31,-30,-20,-16,-1,6,-8,-1,16.53
3307,5,-27,-30,2,-1,9,11,-11,16.535
3308,18,-26,-5,10,3,-2,6,10,16.54
3309,-30,85,19,-4,-1,-19,-11,13,16.545
3310,6,18,-60,-2,-2,-2,-6,11,16.55
3311,3,31,33,-11,-2,-3,5,5,16.555
3312,-59,47,-32,-2,-2,-4,-3,15,16.56
3313,25,-30,5,0,-7,-24,-14,-60,16.565
3314,24,-88,-11,7,1,15,23,-7,16.57
3315,-67,-66,30,-17,-12,-67,-51,-30,16.575
3316,65,17,41,1,3,87,19,-42,16.580000000000002
3317,-59,96,-5,10,9,40,4,85,16.585
3318,65,101,102,0,-2,-32,-30,-88,16.59
3319,-33,44,-86,-18,-4,20,48,43,16.595
3320,-22,-16,-5,7,-1,-44,0,-15,16.6
3321,55,-113,-50,3,0,-9,4,59,16.605
3322,-47,-75,28,11,2,0,-11,4,16.61
3323,23,-34,-8,-10,-3,-11,-15,-7,16.615000000000002
3324,-11,8,76,-5,-2,-8,-1,-1,16.62
3325,-8,-11,-47,2,-1,6,-3,-3,16.625
3326,-32,0,15,-8,-4,-12,4,24,16.63
3327,9,6,46,3,4,15,-3,-11,16.635
3328,-8,7,-70,9,-1,1,9,20,16.64
3329,-13,-16,3,-6,0,-3,-8,-22,16.645
3330,-22,-21,-42,-18,-8,-5,-4,4,16.65
3331,27,8,20,-6,-2,13,2,8,16.655
3332,-4,-43,42,9,5,0,-6,13,16.66
3333,-67,-36,27,-3,-5,-13,-3,-36,16.665
3334,37,-1,-61,16,5,3,6,5,16.67
3335,66,5,34,8,-3,5,4,39,16.675
3336,-57,-24,-83,4,3,-11,-3,9,16.68
3337,-7,-3,81,-13,-5,-3,-8,-51,16.685
3338,-18,27,-48,-1,2,8,8,6,16.69
3339,-38,10,47,10,4,10,-7,-3,16.695
3340,25,26,73,-17,-5,-22,0,-11,16.7
3341,34,-6,0,-4,-5,4,-14,22,16.705000000000002
3342,-15,0,57,-9,0,7,0,-5,16.71
3343,-4,13,-30,3,-1,-6,-1,-12,16.715
3344,-8,20,48,-10,1,-10,-14,8,16.72
3345,27,-2,-30,23,-1,-11,3,-1,16.725
3346,10,-18,-51,-12,-1,3,-4,24,16.73
3347,-41,-13,81,-5,-1,18,0,-44,16.735
3348,16,-45,-77,4,-3,6,27,4,16.740000000000002
3349,10,8,-62,-14,-2,2,-22,6,16.745
3350,-47,11,50,17,4,-3,-9,-3,16.75
3351,54,-10,9,6,1,-3,-2,16,16.755
3352,-64,-16,-5,-17,-2,6,0,2,16.76
3353,24,9,55,9,0,-6,5,-24,16.765
3354,3,8,-58,4,-1,-4,5,-4,16.77
3355,-27,20,0,-4,-5,-4,-6,-6,16.775
3356,40,-2,-2,-4,-3,-11,7,6,16.78
3357,4,0,-13,0,2,2,-6,3,16.785
3358,-31,11,37,-9,-4,-3,2,4,16.79
3359,15,-4,6,17,3,-1,4,14,16.795
3360,6,5,-9,16,-1,0,-17,-7,16.8
3361,11,4,-32,-25,-3,-1,14,5,16.805
3362,-1,5,7,-1,1,-1,0,-2,16.81
3363,-11,4,-27,2,-1,-2,-2,-10,16.815
3364,8,4,3,3,1,6,-9,-2,16.82
3365,1,1,-16,-7,-2,-3,-1,2,16.825
3366,3,22,13,8,-1,-2,4,6,16.830000000000002
3367,-5,-2,-32,-4,-1,0,-2,-2,16.835
3368,5,0,28,-3,-1,3,-2,-1,16.84
3369,-7,-19,-7,0,-3,-4,4,4,16.845
3370,4,5,17,4,-4,-3,1,-4,16.85
3371,-9,9,-7,-5,3,3,-3,-9,16.855
3372,21,4,4,11,2,2,-3,1,16.86
3373,-2,1,-1,-16,-1,0,6,-16,16.865000000000002
3374,-5,7,15,23,2,-4,0,9,16.87
3375,3,-15,-9,-13,-3,-3,1,5,16.875
3376,-4,-8,-18,-2,3,2,1,0,16.88
3377,-2,-4,14,1,-1,-4,1,-2,16.885
3378,-1,-1,-30,-13,-4,1,0,-6,16.89
3379,1,6,17,1,-2,-2,0,-1,16.895
3380,-2,0,-3,-2,-2,-1,-2,0,16.9
3381,-10,-7,6,13,1,1,0,5,16.905
3382,2,-5,4,-1,0,3,-1,-6,16.91
3383,-6,4,-22,8,2,1,-3,-3,16.915
3384,0,-6,-12,-15,-1,-4,-2,0,16.92
3385,-2,3,-13,-4,-2,-2,-3,2,16.925
3386,-5,34,11,6,2,-1,0,2,16.93
3387,-2,13,-24,-4,0,0,2,-5,16.935
3388,4,-2,-44,-1,0,0,2,0,16.94
3389,-1,-19,27,1,-1,-1,2,7,16.945
3390,0,-34,3,-1,-1,-2,0,-2,16.95
3391,5,-18,-35,-4,-1,0,-3,-5,16.955000000000002
3392,-7,-16,15,7,-2,-2,-4,-4,16.96
3393,-2,-16,-14,1,0,-2,0,3,16.965
3394,-1,-24,-13,-12,-1,0,2,-6,16.97
3395,7,7,54,5,0,-3,-2,2,16.975
3396,-31,7,-56,-11,-2,-1,4,13,16.98
3397,7,12,10,8,0,1,-4,-13,16.985
3398,-4,5,-10,-3,0,-3,-4,39,16.990000000000002
3399,-8,1,13,-1,-1,1,2,1,16.995
3400,27,5,15,1,0,-3,0,-19,17.0
3401,-13,5,4,-3,-2,-3,-2,21,17.005
3402,6,0,-20,-5,0,5,3,-13,17.01
3403,-21,0,29,1,-1,0,2,6,17.015
3404,28,3,-23,2,-2,-1,-4,-7,17.02
3405,16,5,22,10,0,-1,1,-19,17.025
3406,17,5,-2,2,0,-4,-1,3,17.03
3407,-13,-28,-37,-10,-4,-2,-3,0,17.035
3408,-4,8,15,-17,-6,0,2,1,17.04
3409,-3,10,9,3,1,1,-1,1,17.045
3410,-10,-34,-1,2,-1,0,-1,-7,17.05
3411,12,12,-19,-7,-3,-1,-2,-2,17.055
3412,-2,21,11,5,2,0,-4,2,17.06
3413,0,31,2,-6,-2,0,-2,-4,17.065
3414,4,14,18,2,3,0,1,2,17.07
3415,-26,2,-24,3,-1,0,2,2,17.075
3416,32,-14,19,2,-1,-1,0,-3,17.080000000000002
3417,-2,-8,-10,-4,-1,-1,1,4,17.085
3418,-11,0,18,-7,-4,-2,1,-8,17.09
3419,32,-7,-29,-3,1,1,-1,-3,17.095
3420,-10,4,23,5,0,-2,0,-17,17.1
3421,-5,-10,-23,-17,0,2,2,29,17.105
3422,-2,-4,14,12,0,-2,2,-5,17.11
3423,-4,-2,65,17,1,-2,-3,-7,17.115000000000002
3424,2,-1,-61,-22,-3,-2,-5,4,17.12
3425,-3,-1,-4,4,1,-3,-4,-2,17.125
3426,-3,-5,2,2,-1,0,-2,-5,17.13
3427,-3,9,-27,-5,0,2,0,1,17.135
3428,0,8,43,15,1,2,2,1,17.14
3429,-5,-16,-7,0,-1,-1,1,-7,17.145
3430,2,3,-17,-9,-2,-2,-2,2,17.150000000000002
3431,1,1,-4,3,-1,-2,-1,-9,17.155
