slno,emg1,emg2,emg3,emg4,emg5,emg6,emg7,emg8,Time
0,-2,-1,-1,0,-4,-1,1,-1,0.0
1,0,-3,-1,-4,-2,0,1,-2,0.005
2,-1,0,2,2,3,-1,1,0,0.01
3,0,-4,-1,1,0,-2,-4,-2,0.015
4,-2,0,-2,-1,3,-2,-2,0,0.02
5,0,2,-2,1,-2,-2,0,-1,0.025
6,0,1,0,-2,-3,0,-1,-3,0.03
7,0,3,1,0,0,-1,2,1,0.035
8,-2,-3,3,-1,-3,1,-2,-2,0.04
9,-1,0,1,0,-4,-2,-1,-1,0.045
10,-1,-2,-1,-1,7,4,-1,0,0.05
11,0,2,2,-1,-1,2,0,1,0.055
12,0,-3,1,2,0,-1,0,0,0.06
13,1,1,-2,0,-3,-1,0,-1,0.065
14,-2,-1,-3,0,-5,-2,-2,-2,0.07
15,0,-1,-1,2,2,-1,0,-2,0.075
16,-1,1,-2,-3,-1,-2,1,0,0.08
17,-2,1,-1,-4,1,-3,-1,0,0.085
18,0,1,0,-1,1,0,-1,-1,0.09
19,-3,-1,-1,0,1,1,-2,-1,0.095
20,1,0,2,0,3,-2,-1,-1,0.1
21,-2,-2,0,-3,0,1,-2,-2,0.105
22,-1,-1,0,1,1,0,2,0,0.11
23,0,1,1,1,-7,-2,0,1,0.115
24,-1,0,2,0,2,0,-2,0,0.12
25,0,-2,2,0,-1,-3,-1,1,0.125
26,0,-1,-2,0,-1,-1,-2,-4,0.13
27,-1,2,0,-1,2,0,0,-3,0.135
28,-1,-2,-3,-2,-1,-2,0,-2,0.14
29,0,0,-2,-2,-3,1,-1,-1,0.145
30,-2,-2,-2,-2,-4,-1,0,2,0.15
31,-2,-3,-3,-3,1,-1,-1,0,0.155
32,0,10,-1,-2,-4,0,0,0,0.16
33,0,0,1,4,3,1,-1,-1,0.165
34,-1,1,1,-1,-4,1,-1,0,0.17
35,-1,2,-1,-3,-2,-2,0,-1,0.17500000000000002
36,-1,-6,-1,-2,-2,-2,0,-1,0.18
37,-1,-3,1,0,-1,0,-3,-3,0.185
38,1,-4,-1,2,0,1,-2,-2,0.19
39,0,-6,-2,0,3,2,-2,0,0.195
40,0,-7,1,-1,1,-2,0,1,0.2
41,-1,-2,-3,-6,-3,-4,2,0,0.20500000000000002
42,-1,1,-1,2,2,-3,0,-1,0.21
43,0,-3,-1,1,-4,-3,-2,0,0.215
44,-1,-6,0,-2,-2,-1,-2,-1,0.22
45,-1,-3,-1,2,2,1,1,-1,0.225
46,-1,1,0,-1,0,1,0,-3,0.23
47,-1,0,-2,0,-6,0,0,-3,0.23500000000000001
48,-2,-1,-3,-3,6,2,-3,-1,0.24
49,-2,0,0,-1,-5,0,-2,-1,0.245
50,0,0,-2,-4,0,0,-2,0,0.25
51,0,0,3,1,2,1,3,0,0.255
52,-1,3,1,1,0,-2,0,1,0.26
53,1,0,-3,-2,1,-1,-2,2,0.265
54,-1,-1,-1,-4,0,-5,-4,1,0.27
55,-1,1,3,0,-3,-1,-4,0,0.275
56,1,7,0,3,0,2,-2,0,0.28
57,-2,-2,-4,-2,2,0,0,-1,0.28500000000000003
58,-2,-1,-1,-3,-4,0,0,-1,0.29
59,-1,-2,1,-2,0,0,0,-1,0.295
60,0,-3,0,4,0,0,0,1,0.3
61,-1,-1,0,0,-3,-2,0,-2,0.305
62,-2,1,0,-2,0,-3,-3,-3,0.31
63,-3,-2,-1,2,2,-3,-1,0,0.315
64,0,1,0,2,0,0,-1,-1,0.32
65,0,-3,2,1,-2,-1,-1,-1,0.325
66,-1,0,0,-3,-1,0,1,1,0.33
67,0,1,-1,0,6,-1,1,0,0.335
68,-3,-3,-1,-4,-3,-2,-2,-4,0.34
69,-1,2,-2,0,2,-2,-4,1,0.34500000000000003
70,1,-5,-1,-2,-2,0,-1,-1,0.35000000000000003
71,0,-1,0,-3,-4,1,0,0,0.355
72,-1,-4,0,4,0,1,2,0,0.36
73,-2,-3,-1,-1,0,1,-1,-3,0.365
74,-1,2,2,3,0,-4,0,-2,0.37
75,1,-1,-2,-2,-1,-1,-1,0,0.375
76,-1,-4,-2,-2,-1,0,-2,-2,0.38
77,0,1,-1,-8,-2,-2,0,-2,0.385
78,-3,0,0,3,0,0,1,-1,0.39
79,-3,-1,-1,0,-2,0,-3,0,0.395
80,-3,1,-1,0,-4,0,-1,-2,0.4
81,0,0,1,0,-2,1,1,1,0.405
82,-1,-4,-5,-8,-2,2,0,-1,0.41000000000000003
83,-1,2,-1,-3,0,-2,-1,-1,0.41500000000000004
84,0,-2,-3,-3,-2,-1,2,0,0.42
85,-1,3,-1,0,-1,1,0,-3,0.425
86,0,4,1,2,-1,-1,-1,-2,0.43
87,-2,-3,-3,0,0,-2,-2,-2,0.435
88,0,-2,-3,-2,-1,-3,0,0,0.44
89,-1,-1,-2,1,-5,-1,0,-1,0.445
90,0,-2,0,0,5,0,-3,1,0.45
91,-1,-1,0,-4,0,0,-1,1,0.455
92,-1,0,0,-1,3,-4,-3,0,0.46
93,-1,-1,2,1,1,-2,-1,-2,0.465
94,0,0,-2,1,-1,-1,-3,-2,0.47000000000000003
95,-1,-2,-7,-5,-4,2,-2,-3,0.47500000000000003
96,-3,-2,1,-5,-4,-1,0,-2,0.48
97,0,-2,0,-1,-3,-1,0,-2,0.485
98,1,-5,-1,-1,-2,2,2,-2,0.49
99,1,-1,-3,0,-1,0,-2,-2,0.495
100,-1,3,5,0,-2,-1,-2,-2,0.5
101,-1,-4,-19,-4,0,-2,-1,0,0.505
102,-2,-1,0,-1,0,-1,-1,1,0.51
103,0,-2,-2,-3,-1,-1,-1,-1,0.515
104,0,-1,1,-2,-1,-2,0,0,0.52
105,-2,-2,5,2,3,1,-1,0,0.525
106,-1,-1,-9,1,-2,-3,0,0,0.53
107,1,0,-6,2,-2,-1,1,0,0.535
108,0,0,-1,-2,-5,-4,-2,-2,0.54
109,-1,3,4,1,2,-3,-2,-1,0.545
110,-2,1,1,-2,-2,0,1,-1,0.55
111,-2,-1,7,2,1,1,0,-1,0.555
112,0,-1,0,0,0,-2,1,1,0.56
113,-1,-4,-1,-4,1,1,0,2,0.5650000000000001
114,-1,2,2,-1,-2,1,-1,-3,0.5700000000000001
115,1,1,-2,-5,-2,-2,-2,0,0.5750000000000001
116,-1,-2,-2,0,2,0,1,-2,0.58
117,0,0,4,0,0,1,0,0,0.585
118,0,-1,3,2,0,-1,1,-2,0.59
119,0,1,2,24,-2,-2,0,-1,0.595
120,1,0,-6,8,-3,-1,-1,-1,0.6
121,-2,1,-2,-1,0,-1,-2,-3,0.605
122,-1,0,-2,-11,-2,-1,-3,-2,0.61
123,-1,0,-2,-11,3,-1,-1,-1,0.615
124,-1,-1,-1,-8,-1,1,0,-1,0.62
125,-1,2,-1,-3,0,-3,-1,-1,0.625
126,-2,-1,0,-2,-5,0,-1,1,0.63
127,-2,-4,0,-5,9,0,2,-2,0.635
128,0,-2,-2,-3,-9,-3,-2,-1,0.64
129,-1,-4,-1,-3,-3,0,1,-2,0.645
130,-1,-4,-1,1,3,-3,0,2,0.65
131,-1,-3,-2,0,-5,-2,0,1,0.655
132,-2,-3,-2,-5,-1,1,-3,2,0.66
133,-2,1,0,0,-1,-2,-2,0,0.665
134,-2,-2,-3,1,0,-2,-1,-3,0.67
135,0,1,1,0,0,-3,0,-3,0.675
136,-2,0,-2,0,2,-2,3,-1,0.68
137,0,1,-3,0,-2,-1,0,1,0.685
138,0,1,-3,-1,2,1,2,0,0.6900000000000001
139,-1,3,0,-1,-1,2,-3,-2,0.6950000000000001
140,0,-2,0,-1,-2,1,-1,-3,0.7000000000000001
141,0,-1,0,2,-8,-1,0,-2,0.705
142,0,-1,0,0,11,1,1,0,0.71
143,0,-1,-3,-5,-6,-3,-3,-1,0.715
144,1,2,3,3,1,0,-1,0,0.72
145,-2,-2,0,-1,-5,1,-2,0,0.725
146,0,2,2,4,-1,-1,-1,-1,0.73
147,-3,0,-2,-1,1,-3,1,0,0.735
148,0,0,-4,0,5,-4,-1,-2,0.74
149,0,-3,-1,0,2,-2,1,-2,0.745
150,1,1,0,1,-2,0,2,-1,0.75
151,-1,-1,-2,-4,-2,0,-1,0,0.755
152,1,-1,1,-3,-1,1,-1,0,0.76
153,-1,-1,-1,-3,0,1,-3,-1,0.765
154,-3,-5,-1,0,-2,-2,-3,1,0.77
155,0,1,-2,2,-2,-2,1,0,0.775
156,1,-1,-1,-4,-3,-2,-1,-2,0.78
157,-1,1,-5,-11,-1,-3,-3,-3,0.785
158,-2,3,-1,-5,-1,1,-2,0,0.79
159,0,-1,-3,-1,-4,-1,-1,0,0.795
160,-4,-1,-2,5,-2,1,-3,0,0.8
161,-1,-1,-2,6,1,-3,0,1,0.805
162,0,-1,0,-1,-11,-2,-1,-2,0.81
163,-1,-2,0,-2,9,1,2,-2,0.8150000000000001
164,-1,-1,1,3,-2,-3,-1,0,0.8200000000000001
165,0,1,1,2,1,-1,-2,-2,0.8250000000000001
166,1,-2,-1,1,-4,-5,-2,-2,0.8300000000000001
167,0,-2,-1,-1,-3,-2,-2,-2,0.835
168,-2,-2,-2,-1,2,0,-1,-3,0.84
169,0,-2,1,-1,1,1,0,-1,0.845
170,0,-2,1,-2,-2,-1,-2,1,0.85
171,3,0,2,0,-1,1,-1,1,0.855
172,-2,0,-4,-3,0,-2,1,0,0.86
173,0,-2,-1,0,-1,0,-1,-2,0.865
174,-1,0,0,2,-1,0,-2,-3,0.87
175,-3,-1,1,-2,-4,0,-3,0,0.875
176,-2,-1,0,0,-2,-1,-4,-1,0.88
177,0,-1,-2,-3,0,-2,1,1,0.885
178,-2,-3,-3,-2,-4,1,2,1,0.89
179,-1,-2,1,-2,9,0,1,-2,0.895
180,-1,-2,-2,0,-4,-1,1,-1,0.9
181,-2,-5,-2,1,0,-4,0,-2,0.905
182,-2,-1,-2,0,-2,-4,-1,-1,0.91
183,0,-3,-4,-1,-5,-1,1,-2,0.915
184,2,0,1,-1,6,4,1,0,0.92
185,2,1,1,2,-1,1,1,-1,0.925
186,0,1,1,1,1,1,0,-2,0.93
187,0,0,-1,-1,-4,-2,-3,0,0.935
188,-1,-2,-1,-6,0,-3,-2,-1,0.9400000000000001
189,-3,-1,1,0,0,2,-1,0,0.9450000000000001
190,-1,-1,-3,-2,0,-2,1,-3,0.9500000000000001
191,-1,3,0,2,0,-1,1,-1,0.9550000000000001
192,-1,-2,-1,1,-1,-2,2,0,0.96
193,0,0,2,-3,0,0,0,0,0.965
194,-3,-5,0,-5,-4,-1,-1,-2,0.97
195,0,-2,-3,-1,-1,-3,-2,-1,0.975
196,0,0,-2,0,-7,-1,-3,-1,0.98
197,-1,1,-2,1,5,1,-2,0,0.985
198,0,-1,-2,0,4,0,0,1,0.99
199,0,-2,0,1,0,-1,0,0,0.995
200,0,0,3,2,-2,-2,1,-2,1.0
201,-2,-3,-2,-5,-3,-2,1,-1,1.0050000000000001
202,0,1,1,-5,-1,0,0,-1,1.01
203,0,0,-1,0,-2,-2,-3,0,1.0150000000000001
204,-2,-1,-2,-1,1,-2,0,-1,1.02
205,1,-2,0,1,-2,1,0,1,1.025
206,-1,0,-1,2,2,-1,-1,0,1.03
207,-2,-3,0,0,-1,2,0,-1,1.035
208,-2,0,2,0,-2,0,-3,-1,1.04
209,0,2,-4,-2,-1,-3,-3,-2,1.045
210,-1,-4,0,0,0,1,0,-1,1.05
211,0,0,1,-3,-6,1,-2,1,1.055
212,-1,-2,-3,1,6,-1,2,-1,1.06
213,0,-3,-1,0,-4,-2,1,-1,1.065
214,3,2,-1,3,0,-1,-3,-1,1.07
215,-2,-4,-5,-2,1,-2,0,-2,1.075
216,-3,4,-1,-6,-5,0,0,-4,1.08
217,-2,4,2,1,0,-3,0,-2,1.085
218,1,-1,1,-1,-3,-3,0,0,1.09
219,2,-2,0,-2,7,0,2,0,1.095
220,2,1,0,-1,-3,-2,0,1,1.1
221,-1,-2,-4,-2,-1,0,-1,0,1.105
222,-2,1,-1,-3,-5,-2,-3,0,1.11
223,-1,-1,-3,-1,-3,0,0,-2,1.115
224,0,1,0,0,1,1,0,1,1.12
225,1,1,1,-1,0,0,1,-1,1.125
226,-3,0,-3,-3,-1,0,-3,-2,1.1300000000000001
227,-2,1,0,1,-3,-1,-3,0,1.135
228,1,-2,1,1,0,1,-2,-2,1.1400000000000001
229,-3,-1,2,-1,-7,0,0,-1,1.145
230,0,-1,2,2,9,0,1,1,1.1500000000000001
231,-1,-6,-5,-4,-1,-2,0,-2,1.155
232,-3,-1,-4,-4,-5,-3,-1,-1,1.16
233,1,-1,-1,-4,1,1,-1,-1,1.165
234,-1,-2,-3,-1,0,1,-4,-2,1.17
235,-1,1,1,4,-2,-2,0,-3,1.175
236,0,-1,2,4,2,0,0,1,1.18
237,-3,-4,0,1,-3,-4,-1,-2,1.185
238,1,-5,-2,0,-3,-2,2,-1,1.19
239,2,0,0,0,3,-2,0,0,1.195
240,-2,-1,0,-2,-6,0,0,-2,1.2
241,-2,0,-4,3,4,-1,0,-1,1.205
242,0,0,1,-2,-4,0,0,1,1.21
243,0,-4,0,0,-3,-2,-3,0,1.215
244,-1,-4,-6,-3,1,-2,0,-1,1.22
245,1,0,-3,-2,-3,0,-1,-1,1.225
246,-1,-1,0,-4,1,1,2,-2,1.23
247,-2,0,0,-4,-3,2,0,-1,1.235
248,0,1,-1,-3,-2,-3,-1,0,1.24
249,1,-1,0,0,0,-2,-1,1,1.245
250,-2,0,-2,-3,-4,-3,-2,-1,1.25
251,-1,2,0,0,0,1,-1,1,1.2550000000000001
252,-4,-3,-1,-2,-4,0,-1,0,1.26
253,-1,-2,-2,-5,-1,-1,-3,0,1.2650000000000001
254,2,0,-2,1,2,-1,-2,-1,1.27
255,-1,3,0,1,-1,2,-2,-1,1.2750000000000001
256,1,-1,-1,1,-1,-2,0,-1,1.28
257,-4,-3,-3,-1,-3,0,1,-3,1.285
258,-3,-1,-1,-1,1,-2,-1,-1,1.29
259,1,3,0,0,1,-4,1,-3,1.295
260,1,1,0,-2,1,-2,-3,0,1.3
261,2,-1,1,1,3,1,-3,1,1.305
262,0,1,-1,0,-2,0,-2,-2,1.31
263,1,0,0,0,-1,-1,-3,0,1.315
264,0,-1,0,0,1,-1,-1,-2,1.32
265,-2,-2,-2,-1,-2,-1,2,-1,1.325
266,0,-2,-1,3,1,1,2,1,1.33
267,-3,0,0,-4,-3,0,0,0,1.335
268,-2,-4,1,2,2,2,1,-1,1.34
269,-1,-3,-2,1,-1,-1,-2,-2,1.345
270,-1,-2,-3,-1,1,1,-2,-1,1.35
271,-4,-2,-1,-3,-1,-4,-1,-1,1.355
272,-1,0,-2,-4,-2,-4,-3,-2,1.36
273,0,-1,3,-2,-1,0,3,-2,1.365
274,0,1,-5,1,-2,-2,1,0,1.37
275,0,-1,-3,-1,-2,-2,1,0,1.375
276,0,2,-2,-2,1,0,-1,1,1.3800000000000001
277,-1,1,-1,1,-3,0,1,0,1.385
278,0,1,0,-1,-4,-1,2,2,1.3900000000000001
279,-1,-9,-2,-3,-3,1,-1,-1,1.395
280,-2,-1,0,4,6,2,-1,-3,1.4000000000000001
281,0,-2,-2,0,1,-2,-6,-1,1.405
282,-2,-1,0,-2,0,1,-4,1,1.41
283,-1,-2,1,-1,-2,0,-1,0,1.415
284,0,-1,0,-3,0,-2,2,0,1.42
285,-1,-1,-1,-2,0,-2,-1,0,1.425
286,0,1,0,-2,-3,-3,2,-1,1.43
287,1,1,-3,-2,0,1,-3,-1,1.435
288,1,-2,-2,-3,-3,-2,-5,-1,1.44
289,-1,0,0,0,1,-1,-1,0,1.445
290,0,-3,-2,0,-6,-3,-1,1,1.45
291,-2,-2,1,-1,2,0,1,-1,1.455
292,0,6,0,0,6,2,1,-1,1.46
293,-2,-1,-2,-5,-4,-1,-1,-1,1.465
294,0,0,0,-1,0,-1,-1,-4,1.47
295,1,2,-1,2,-1,-1,0,0,1.475
296,-2,-2,-2,3,-1,2,0,1,1.48
297,-1,1,1,-1,2,-1,-1,2,1.485
298,-3,-1,0,-1,-1,1,0,-1,1.49
299,-1,3,-1,0,-1,-1,-1,1,1.495
300,-1,0,-1,-2,-6,0,0,0,1.5
301,-3,-1,-2,-2,0,1,2,-2,1.5050000000000001
302,1,-3,2,4,4,1,-2,-4,1.51
303,0,2,1,4,-1,0,-1,-2,1.5150000000000001
304,1,-1,-3,3,1,-1,-4,-1,1.52
305,-1,3,0,-2,-5,-2,-1,-1,1.5250000000000001
306,1,1,-2,-8,-1,-3,0,-1,1.53
307,0,-1,-1,-6,-2,-2,-1,-2,1.5350000000000001
308,0,1,0,0,1,-2,-1,1,1.54
309,2,-3,0,1,-3,-1,-2,-1,1.545
310,-2,0,-3,0,1,-1,0,-1,1.55
311,0,-2,-1,-1,1,-1,0,0,1.555
312,1,-4,-1,-3,-6,-2,1,-2,1.56
313,0,-2,-4,-1,1,2,1,-3,1.565
314,-3,-3,-1,1,4,0,1,-1,1.57
315,-1,-3,-1,1,-1,-3,0,-3,1.575
316,0,-1,-1,-2,0,-3,-1,-2,1.58
317,0,4,2,2,-6,-4,-1,1,1.585
318,-1,1,-1,2,1,-1,-3,1,1.59
319,-1,-3,-1,0,0,1,0,1,1.595
320,-2,-4,-2,0,-4,-1,-2,-1,1.6
321,1,6,0,2,-1,0,0,-1,1.605
322,-2,-4,0,-3,-3,-2,1,-3,1.61
323,0,-2,-1,-4,-1,-2,-4,-1,1.615
324,0,0,1,0,0,-1,0,1,1.62
325,-1,-4,-2,-1,0,-2,-3,1,1.625
326,0,0,0,-1,1,-1,-2,-1,1.6300000000000001
327,-1,2,-2,2,-2,0,-1,-2,1.635
328,-1,0,2,0,0,-3,-1,-1,1.6400000000000001
329,-1,-1,0,-2,0,1,-1,0,1.645
330,0,0,-2,-5,-3,0,-1,0,1.6500000000000001
331,-1,-3,-1,0,-2,-3,-3,-1,1.655
332,-4,-2,-3,-4,-6,0,0,-1,1.6600000000000001
333,-2,-3,-1,2,14,2,0,-1,1.665
334,1,1,0,2,-4,-1,1,1,1.67
335,-3,-5,-1,-1,-1,-1,2,0,1.675
336,0,1,0,0,-2,-4,-2,-1,1.68
337,-3,-5,-1,1,-5,-3,-3,-3,1.685
338,-1,-1,0,-3,-6,-1,-1,-1,1.69
339,0,4,0,3,8,2,1,1,1.695
340,1,1,-1,1,2,0,-1,1,1.7
341,-1,-1,0,0,-2,-2,-2,0,1.705
342,2,-1,-4,-1,3,-1,-2,0,1.71
343,-1,3,-2,0,-3,1,1,0,1.715
344,-3,-2,-2,-1,0,2,-1,-3,1.72
345,0,4,1,0,-1,3,-2,1,1.725
346,-1,-2,0,1,0,1,-1,1,1.73
347,0,1,1,-3,-3,-2,2,0,1.735
348,-1,-2,-1,-2,1,-2,1,-3,1.74
349,1,-2,-2,-1,-2,-2,-1,0,1.745
350,-1,0,0,-1,-1,1,-1,-1,1.75
351,0,-4,0,-1,1,1,-3,-1,1.7550000000000001
352,-1,-1,0,-2,-1,2,0,-2,1.76
353,-3,-1,-2,-2,-3,-2,1,-2,1.7650000000000001
354,-2,-3,-1,1,-2,-2,-1,-1,1.77
355,-2,-1,1,2,0,-1,-3,1,1.7750000000000001
356,1,-1,-1,1,-1,-1,0,-2,1.78
357,0,-2,0,-2,2,0,0,-1,1.7850000000000001
358,0,0,0,-1,0,-2,1,-1,1.79
359,0,1,2,-2,-3,1,0,0,1.795
360,0,4,-1,6,0,0,-1,1,1.8
361,-2,-2,-4,-4,-10,-1,0,0,1.805
362,-1,-2,1,1,10,2,-2,-1,1.81
363,0,-2,-1,-5,-8,0,-1,-2,1.815
364,-2,-2,-4,-3,-3,-1,-2,1,1.82
365,0,1,0,2,0,-3,1,1,1.825
366,-1,1,-2,-3,-5,-3,0,-1,1.83
367,-2,-1,-3,-3,-1,-2,-2,-2,1.835
368,1,-1,-1,3,0,0,-2,-1,1.84
369,-2,0,-1,4,-1,0,-1,-1,1.845
370,1,2,1,1,0,1,-1,-2,1.85
371,-2,-3,-1,1,3,-1,-1,0,1.855
372,-1,-3,0,-4,-3,-2,0,0,1.86
373,1,1,-2,-1,0,-2,0,0,1.865
374,1,1,-1,-2,0,1,-1,-1,1.87
375,-2,-1,-3,-1,-1,-3,-1,-1,1.875
376,-2,-4,0,-4,-4,-1,-1,-2,1.8800000000000001
377,0,-2,1,1,0,0,0,-3,1.885
378,-3,-2,-4,-1,-5,-1,-2,-1,1.8900000000000001
379,-2,0,-1,3,2,0,1,-1,1.895
380,0,1,1,-3,0,-2,-1,0,1.9000000000000001
381,-1,7,-1,-4,-2,-2,-1,0,1.905
382,0,-2,-2,-2,-9,-2,-1,0,1.9100000000000001
383,-1,-1,-2,-3,5,-2,-3,-1,1.915
384,-2,-11,-1,2,4,0,0,0,1.92
385,2,-6,-3,-3,-2,-1,-3,-1,1.925
386,-2,-6,-2,-1,-4,0,-1,-2,1.93
387,1,0,0,3,-4,1,1,-1,1.935
388,0,1,-1,1,2,1,-1,1,1.94
389,-1,-2,0,1,2,0,0,-2,1.945
390,1,-2,0,0,-1,1,1,1,1.95
391,0,0,-2,-5,-5,-2,0,-2,1.955
392,-3,2,-1,-1,-2,0,1,-1,1.96
393,-11,1,0,1,-1,0,0,0,1.965
394,18,6,0,2,-3,-4,-2,-2,1.97
395,0,-1,2,-5,-1,-2,-2,0,1.975
396,-4,3,-1,-1,0,-2,0,-2,1.98
397,-1,-3,-2,-4,-1,-1,-2,0,1.985
398,-6,-1,2,3,3,0,1,1,1.99
399,1,1,-1,4,-4,-1,1,-1,1.995
400,1,1,0,1,4,0,-2,1,2.0
401,1,-5,-2,-2,1,-1,-2,-2,2.005
402,-4,-1,-2,-4,-2,-1,-2,0,2.0100000000000002
403,-2,-5,-3,3,-7,-3,-4,-2,2.015
404,-3,-4,-2,-1,9,-1,-1,0,2.02
405,3,-1,-1,1,-4,-2,1,2,2.025
406,-4,22,-2,-3,0,2,0,-2,2.0300000000000002
407,-1,7,0,-5,-5,2,0,0,2.035
408,3,0,-3,-5,-6,-2,-3,-3,2.04
409,0,-10,0,3,1,1,-1,-2,2.045
410,-4,-13,-2,1,1,-2,-2,-1,2.05
411,-2,-7,2,5,2,-1,-2,-2,2.055
412,-1,-8,-1,-1,-2,-3,-3,-2,2.06
413,0,-5,-1,-5,-2,-2,0,-3,2.065
414,-3,-5,-1,-5,0,-2,3,0,2.07
415,-2,1,0,2,0,0,1,1,2.075
416,-1,-2,-3,2,0,1,2,2,2.08
417,-9,2,-4,-2,-7,-2,-2,0,2.085
418,11,-4,-3,-13,-5,-4,-1,-3,2.09
419,1,-3,0,-1,5,-1,-2,-2,2.095
420,2,0,0,1,-4,0,1,-1,2.1
421,-2,-2,-3,-1,-5,0,0,-1,2.105
422,-6,-6,0,14,11,1,-2,2,2.11
423,1,-6,-5,-11,-4,-2,0,-1,2.115
424,4,5,2,1,-3,0,-2,-5,2.12
425,-11,2,-2,-3,3,1,0,-1,2.125
426,-1,1,0,2,-2,0,-2,0,2.13
427,-2,0,2,4,2,-1,0,1,2.1350000000000002
428,1,8,3,5,0,0,1,2,2.14
429,-4,4,2,-2,-3,-4,0,-1,2.145
430,2,-3,-3,-3,0,1,-3,-2,2.15
431,-3,-1,-4,0,0,-3,0,0,2.1550000000000002
432,-1,-1,-2,-5,-2,-1,-1,-1,2.16
433,7,2,-1,-2,1,1,-1,-3,2.165
434,-4,2,1,-3,-2,-1,0,0,2.17
435,1,-3,-1,4,-3,1,-3,-2,2.1750000000000003
436,1,-6,-3,-11,-7,-1,-2,-3,2.18
437,3,0,-1,1,8,0,-2,-2,2.185
438,-3,-1,1,6,-1,-1,-2,-1,2.19
439,0,1,-2,-7,-1,1,-1,0,2.195
440,-4,-2,2,2,-2,-3,-1,-4,2.2
441,1,-2,-3,2,0,-1,2,1,2.205
442,-4,0,-3,-4,-4,-2,0,-1,2.21
443,-8,3,0,-8,-4,-1,0,0,2.215
444,6,-2,-3,-2,0,-2,-1,1,2.22
445,0,3,1,-4,-5,-3,0,0,2.225
446,-1,-2,-4,1,-1,-2,-2,1,2.23
447,-1,1,2,2,6,2,-1,-2,2.235
448,-4,2,-1,-2,-2,1,-1,-2,2.24
449,2,-2,1,2,-3,-1,-1,-1,2.245
450,-11,-8,-2,-1,-4,-2,1,-1,2.25
451,4,-3,0,1,-1,-1,0,0,2.255
452,-12,-4,-4,-3,0,-1,-1,0,2.2600000000000002
453,2,-1,-2,-2,0,-1,-1,-1,2.265
454,-2,2,0,0,1,-1,-3,-3,2.27
455,2,-1,-1,2,0,-4,-2,-4,2.275
456,-2,-1,1,0,-1,-2,0,2,2.2800000000000002
457,-2,-5,-3,-1,-1,-1,-1,1,2.285
458,0,-4,2,-2,-5,0,-1,-1,2.29
459,2,-1,-2,-3,3,0,0,-2,2.295
460,5,-1,-2,2,-3,0,-3,-2,2.3000000000000003
461,0,0,0,-2,5,2,-1,-1,2.305
462,3,0,0,3,0,-1,0,1,2.31
463,3,2,-5,-1,-6,-3,-1,0,2.315
464,-4,5,1,-1,-7,-1,0,1,2.32
465,2,2,3,1,13,1,-2,-1,2.325
466,-1,-1,0,-2,-4,-1,0,-3,2.33
467,0,2,-3,1,-4,0,0,0,2.335
468,2,1,0,-3,3,0,0,0,2.34
469,0,0,1,-1,-4,-1,0,0,2.345
470,2,-1,-4,-4,-3,-2,-1,1,2.35
471,-2,-6,-5,-3,-2,-1,-4,0,2.355
472,-2,-2,-3,2,-2,-3,1,1,2.36
473,2,0,-3,3,-2,0,-3,-1,2.365
474,-3,-1,-1,-4,1,-3,-2,-1,2.37
475,-3,0,1,1,2,2,1,1,2.375
476,0,-1,0,0,1,2,-1,-3,2.38
477,-1,-3,-3,-3,-5,0,-1,-2,2.3850000000000002
478,1,0,4,-2,-1,0,-1,0,2.39
479,-1,-4,1,1,-3,-3,-2,0,2.395
480,-1,-2,1,2,2,0,-2,1,2.4
481,-1,-1,-5,-10,-4,-4,-2,-2,2.4050000000000002
482,1,-3,-1,6,0,2,1,-1,2.41
483,-1,-2,0,-1,-2,1,0,-1,2.415
484,-1,1,1,1,5,-1,2,-2,2.42
485,1,0,0,4,-3,-1,-1,1,2.4250000000000003
486,0,3,-1,-5,2,-1,-4,0,2.43
487,-1,-1,-1,-6,-3,-1,-1,-1,2.435
488,-2,-2,-2,0,0,-1,1,0,2.44
489,-1,-1,0,0,-1,-3,0,0,2.445
490,-1,-2,0,-3,-2,-3,2,-2,2.45
491,-1,0,-3,1,0,-1,2,-1,2.455
492,0,-2,-2,-4,-1,1,-1,-3,2.46
493,0,2,4,-1,-3,0,-2,0,2.465
494,-1,-2,-4,-3,2,3,0,-1,2.47
495,-1,0,0,2,4,0,0,1,2.475
496,0,-1,0,0,0,-2,-3,-1,2.48
497,0,0,-4,-3,-3,-2,-1,-2,2.485
498,0,-1,-1,-1,-5,-2,-1,-2,2.49
499,-1,0,1,0,5,-2,-1,-1,2.495
500,-1,-1,-1,-3,-5,1,0,-1,2.5
501,-1,1,1,4,4,1,-4,0,2.505
502,-2,-1,-2,1,-3,-1,0,1,2.5100000000000002
503,0,-2,-2,-6,-5,-3,0,0,2.515
504,0,-4,1,-1,-1,0,-3,-1,2.52
505,-3,-2,-2,-3,-2,0,0,-2,2.525
506,1,-1,0,0,0,0,1,-2,2.5300000000000002
507,-1,-4,-3,3,-1,-3,0,-3,2.535
508,1,1,0,-3,-4,-2,-1,0,2.54
509,-2,-4,-1,1,-4,1,0,-1,2.545
510,-1,1,-3,0,13,3,-1,1,2.5500000000000003
511,-1,4,1,-2,-5,0,0,2,2.555
512,-1,0,0,3,3,-1,0,2,2.56
513,-1,-2,-1,1,-2,-1,0,-1,2.565
514,8,-1,0,-2,-4,-3,1,-1,2.57
515,-8,2,0,-1,1,0,-1,-2,2.575
516,-3,0,-3,-3,-1,-3,-1,0,2.58
517,-1,2,-1,0,4,-1,0,1,2.585
518,-4,-1,-3,-2,-2,0,0,-1,2.59
519,2,2,4,3,-2,-2,0,-3,2.595
520,1,-2,-2,1,-1,-2,0,-3,2.6
521,0,-1,0,-2,-2,-1,-1,-1,2.605
522,0,0,-1,0,-2,2,-4,-2,2.61
523,-1,-5,-5,-4,-2,-1,-3,0,2.615
524,-1,-2,0,-4,0,0,0,1,2.62
525,0,0,-1,-1,-3,-4,1,-2,2.625
526,-2,-1,2,2,-6,-3,0,0,2.63
527,0,-2,-2,-5,-5,0,-2,1,2.6350000000000002
528,0,-1,0,0,10,1,-1,-1,2.64
529,0,-3,-2,-4,-3,-2,-1,0,2.645
530,-2,-1,3,0,-2,-2,-1,-1,2.65
531,0,-5,-1,4,3,0,-1,-2,2.6550000000000002
532,-1,1,-2,-3,-5,-3,-1,2,2.66
533,-1,-1,-2,-3,-2,3,0,0,2.665
534,-3,4,1,-2,1,-2,-4,-2,2.67
535,0,-5,-2,-2,1,-2,-2,-2,2.6750000000000003
536,-2,-1,0,1,0,-1,0,0,2.68
537,-1,1,0,-1,0,-1,-1,0,2.685
538,0,0,-3,1,-4,-1,0,0,2.69
539,-1,2,-1,-5,0,-2,-1,1,2.695
540,-1,3,-1,1,2,-2,1,-4,2.7
541,-1,0,-1,1,-3,-2,1,0,2.705
542,0,0,1,0,0,1,0,0,2.71
543,1,4,2,3,0,0,-1,-1,2.715
544,-2,0,-2,-2,-10,-5,0,0,2.72
545,-2,0,-1,1,8,3,-2,0,2.725
546,-1,-3,-4,-3,2,-1,0,1,2.73
547,0,-2,-2,-2,-3,0,3,2,2.735
548,3,0,3,0,-4,-2,0,0,2.74
549,-1,-2,0,-3,-1,-5,-2,-2,2.745
550,-2,2,-2,-1,-2,0,-4,-1,2.75
551,-2,-1,-3,-3,-3,-2,-4,1,2.755
552,-2,0,-3,-1,2,2,-3,-5,2.7600000000000002
553,-1,-1,-2,2,-2,0,-1,2,2.765
554,-1,-1,0,1,2,-3,0,0,2.77
555,1,0,2,-1,0,1,1,-1,2.775
556,0,1,2,-1,-1,0,0,-1,2.7800000000000002
557,-2,-3,-2,0,2,-2,0,-1,2.785
558,0,-4,-1,-1,0,-4,-1,-3,2.79
559,-1,1,0,-2,-3,0,-3,-2,2.795
560,-1,-1,-1,1,-1,0,-1,-1,2.8000000000000003
561,-2,1,3,2,-2,1,-2,-1,2.805
562,-2,-3,-1,-2,0,-1,1,0,2.81
563,0,-2,-1,-2,-4,-4,-1,-1,2.815
564,-1,-4,-3,1,3,0,-2,-2,2.82
565,0,-1,-1,-1,0,1,4,-1,2.825
566,-1,0,-2,-2,-4,0,0,-1,2.83
567,-2,1,1,2,2,-1,1,-1,2.835
568,-1,1,-1,-5,-5,-3,-2,1,2.84
569,2,-3,-3,-1,-2,-1,0,-1,2.845
570,0,-4,2,-4,0,-1,1,0,2.85
571,-1,1,-1,0,1,-3,0,-1,2.855
572,0,-1,0,-1,-1,1,0,3,2.86
573,-1,-2,0,-2,1,0,-1,0,2.865
574,-2,1,1,0,0,-1,-1,-1,2.87
575,0,0,-1,-1,-6,-1,-2,-1,2.875
576,-1,-3,-3,1,4,-2,-1,-1,2.88
577,-3,-1,-1,-1,-2,-3,-1,-2,2.8850000000000002
578,0,0,-2,-1,-2,-1,-3,-1,2.89
579,0,-2,-2,-2,1,-2,0,1,2.895
580,2,-3,-4,-1,-3,-1,-1,0,2.9
581,2,-2,-1,-2,-3,0,1,-3,2.9050000000000002
582,-1,1,-1,-4,-3,-2,1,-1,2.91
583,-1,1,4,2,-1,-1,-1,-2,2.915
584,1,0,-2,-1,-1,1,-1,1,2.92
585,-2,-5,-5,-2,1,-1,-2,0,2.9250000000000003
586,-3,-1,-1,0,-6,0,0,-2,2.93
587,-3,-2,-4,0,4,2,-2,-2,2.935
588,-1,1,0,-1,3,2,-2,-2,2.94
589,-1,0,-3,1,-3,-4,-1,1,2.945
590,-2,-2,-4,1,1,0,-1,-3,2.95
591,0,1,-1,0,-3,0,0,-2,2.955
592,0,3,3,-1,1,0,0,0,2.96
593,0,0,2,-2,2,-1,2,-1,2.965
594,1,4,0,4,1,1,0,0,2.97
595,0,-3,-4,0,-3,-1,0,0,2.975
596,-2,-1,0,3,3,-2,0,-1,2.98
597,1,0,3,-1,-1,-2,0,0,2.985
598,1,-1,-1,-2,0,0,-2,1,2.99
599,0,3,-5,-2,-1,1,0,-2,2.995
600,-2,-3,-1,-2,-4,-2,-1,0,3.0
601,-2,-1,-1,-1,-1,-1,1,-1,3.005
602,2,-3,-2,0,-2,-1,-1,-2,3.0100000000000002
603,1,1,-1,0,1,-2,-2,-1,3.015
604,-3,-6,-2,1,-2,0,-1,-2,3.02
605,-2,2,0,-2,-2,-2,-4,-8,3.025
606,-1,1,-2,1,-2,2,0,-1,3.0300000000000002
607,-1,0,2,-3,1,-3,0,0,3.035
608,1,1,0,1,-7,-3,-2,2,3.04
609,-3,-2,-5,0,12,2,-1,2,3.045
610,-1,-2,0,-1,-5,-3,-1,-2,3.0500000000000003
611,-2,-3,0,6,3,-1,1,-2,3.055
612,-2,0,-1,0,-2,-2,2,0,3.06
613,-2,0,-1,-2,-4,-2,-2,0,3.065
614,0,0,-1,-3,-2,-1,-2,-2,3.0700000000000003
615,0,-1,-1,-3,0,1,1,1,3.075
616,-1,-5,-2,-3,-1,-3,-1,0,3.08
617,2,2,1,1,-1,-1,1,0,3.085
618,0,0,-2,-2,2,-2,-2,0,3.09
619,3,0,2,0,-2,-1,-2,1,3.095
620,1,0,-2,-3,3,1,-4,-2,3.1
621,-3,-3,-2,-2,-5,0,0,-2,3.105
622,-3,0,-1,-2,-3,-3,1,1,3.11
623,-3,-1,-3,-3,-1,-1,1,-3,3.115
624,-1,-1,-1,1,0,0,0,-1,3.12
625,0,-2,-1,0,-2,1,-3,1,3.125
626,-1,-1,1,-3,0,-1,1,1,3.13
627,0,1,-3,1,-2,-1,1,0,3.1350000000000002
628,0,2,-3,-2,3,1,0,-1,3.14
629,2,3,0,-4,-5,0,-1,-1,3.145
630,0,-4,-1,-2,-1,0,-2,-1,3.15
631,-1,-2,2,-4,8,-1,-2,-3,3.1550000000000002
632,0,-2,-1,0,-6,-3,-3,-1,3.16
633,-1,-1,1,2,1,0,0,-1,3.165
634,1,0,-2,2,-3,-1,0,0,3.17
635,-3,1,-3,-4,-3,1,-1,-3,3.1750000000000003
636,1,2,-3,-1,4,3,4,1,3.18
637,0,-1,0,-2,-3,1,2,1,3.185
638,1,-1,0,1,3,0,-1,0,3.19
639,-1,2,1,4,-2,-1,-1,2,3.1950000000000003
640,-4,-3,0,0,-1,-3,-2,-3,3.2
641,-1,0,-1,-2,-4,-2,1,-1,3.205
642,-2,2,0,1,0,-2,0,-2,3.21
643,-1,-1,-1,-5,-1,0,-2,0,3.215
644,0,-1,-3,-2,-2,-2,-2,-1,3.22
645,2,-2,-2,-4,-3,-1,-2,1,3.225
646,-2,-3,-1,-1,-3,-4,2,0,3.23
647,-1,-3,0,2,-3,-3,0,-1,3.235
648,1,1,2,-3,-1,0,1,0,3.24
649,-1,-1,-1,0,-4,0,-2,-1,3.245
650,-1,-1,-2,-2,9,1,-3,-1,3.25
651,0,-2,-4,1,-6,-4,-2,-1,3.255
652,-1,3,-2,0,0,1,1,0,3.2600000000000002
653,-1,-5,-4,2,1,-1,0,0,3.265
654,0,-2,-1,-4,-3,0,-1,1,3.27
655,-1,-2,-1,4,3,0,-1,-1,3.275
656,1,1,1,0,-5,1,0,-1,3.2800000000000002
657,1,0,-2,-2,1,-1,-1,-1,3.285
658,-1,-4,0,-1,0,-1,-1,-1,3.29
659,-1,-2,-1,-5,0,-2,0,-1,3.295
660,-1,0,1,0,-2,-3,1,2,3.3000000000000003
661,-2,0,1,4,1,0,0,-1,3.305
662,-3,2,1,4,-2,-1,0,0,3.31
663,-1,-1,-2,-1,3,-1,1,0,3.315
664,-3,-4,-2,-4,-1,-3,0,-1,3.3200000000000003
665,-1,1,-1,0,2,-1,-2,-2,3.325
666,2,0,-2,-2,-5,2,-2,-2,3.33
667,0,3,1,-2,-2,0,-1,-1,3.335
668,-3,-1,-4,7,-1,-1,-1,-1,3.34
669,0,4,-1,12,-4,-1,1,0,3.345
670,-2,-3,2,7,11,0,-1,0,3.35
671,3,-1,-1,-1,-2,0,-3,0,3.355
672,-1,-2,-4,-11,-1,1,-4,-2,3.36
673,-1,-5,-2,-11,-5,-2,-2,-2,3.365
674,0,-8,-1,-6,-6,-3,2,-2,3.37
675,0,-4,0,-8,2,-1,2,0,3.375
676,-1,1,1,-1,0,-1,-1,0,3.38
677,-1,-2,0,2,-2,-3,-1,0,3.3850000000000002
678,-1,1,-1,-5,1,0,0,0,3.39
679,0,-4,-3,1,0,-2,-1,2,3.395
680,-1,2,-1,1,-1,2,-1,0,3.4
681,0,4,0,3,2,1,-3,-1,3.4050000000000002
682,0,1,-2,-2,-1,-2,-3,-1,3.41
683,0,-3,-2,-2,-5,-2,-1,-1,3.415
684,0,-1,-1,-2,1,-3,0,0,3.42
685,-1,-1,4,-1,1,1,0,0,3.4250000000000003
686,-1,1,0,-1,-4,-2,-2,-3,3.43
687,-2,-1,-1,1,-1,-3,0,-3,3.435
688,1,-3,-2,-2,-5,0,-1,-2,3.44
689,-1,-6,-2,-5,-4,-1,0,-1,3.4450000000000003
690,0,-2,-5,2,3,1,-2,-1,3.45
691,1,-1,0,3,-1,-1,0,-1,3.455
692,-2,2,1,-1,-6,-3,-2,-3,3.46
693,0,4,0,0,9,-2,-1,1,3.465
694,-2,-1,3,5,0,2,2,2,3.47
695,-2,-4,-2,-1,0,-1,-2,1,3.475
696,1,-1,0,-2,-2,-1,2,0,3.48
697,-1,-1,-1,-3,-3,-2,0,1,3.485
698,-1,-3,-2,-4,-3,-1,-1,1,3.49
699,-3,3,0,1,-1,3,-1,0,3.495
700,2,-1,0,-3,1,-1,0,-1,3.5
701,-2,-4,0,2,-4,0,-2,-3,3.505
702,-2,-2,-3,-3,0,-1,-4,-3,3.5100000000000002
703,-2,-1,-2,0,-2,0,0,-3,3.515
704,-1,1,0,6,2,-1,-2,-1,3.52
705,-1,-3,-3,0,1,-1,1,-1,3.525
706,1,3,2,3,-3,-2,1,1,3.5300000000000002
707,0,-1,0,-4,-1,1,-2,2,3.535
708,-1,-1,-2,-1,0,0,-4,1,3.54
709,-1,-2,-4,-3,-4,-2,-2,-2,3.545
710,0,2,-3,-6,-6,-2,-1,-2,3.5500000000000003
711,-3,0,2,1,4,0,-1,-3,3.555
712,-2,-1,2,-2,0,4,1,-1,3.56
713,-1,-1,-2,-1,-1,-1,0,-1,3.565
714,0,3,0,-1,-5,-1,0,-3,3.5700000000000003
715,0,3,-1,1,0,-1,-2,-2,3.575
716,-2,-4,-3,-2,-1,-1,-1,-1,3.58
717,0,2,1,-2,0,2,0,0,3.585
718,1,-4,-4,-1,2,0,1,1,3.59
719,-2,2,2,1,3,-1,1,1,3.595
720,0,-1,-3,1,-2,-2,-1,0,3.6
721,-1,1,1,2,-1,-4,-2,0,3.605
722,-1,1,-1,-1,-4,-1,-2,-1,3.61
723,-1,-6,-1,0,-8,-1,1,-2,3.615
724,-1,-2,1,-1,11,0,1,0,3.62
725,0,-1,-1,-2,-4,-2,-1,0,3.625
726,-2,-2,0,-5,-1,0,0,0,3.63
727,0,1,-1,0,-2,2,-2,0,3.6350000000000002
728,-5,-5,-4,-3,-3,0,0,-6,3.64
729,-3,-2,-3,2,-5,-1,-2,-1,3.645
730,-1,-2,0,4,7,-1,-3,-1,3.65
731,3,-1,-4,-2,-5,-1,-3,1,3.6550000000000002
732,3,-1,-1,-3,-4,-1,0,2,3.66
733,3,5,-1,-1,3,1,2,-1,3.665
734,0,2,-2,1,-5,2,-1,-3,3.67
735,0,-2,-3,-1,2,-2,1,-1,3.6750000000000003
736,-3,1,3,-1,1,-4,1,0,3.68
737,-3,-2,2,0,-3,0,-1,0,3.685
738,2,0,-2,3,-3,-2,-1,1,3.69
739,-1,-4,-4,-9,-1,-1,-3,-2,3.6950000000000003
740,0,-2,3,4,-2,-2,-2,0,3.7
741,-5,-3,-2,-2,2,-1,0,2,3.705
742,-1,0,1,1,3,0,-1,-1,3.71
743,-1,-1,0,1,-1,0,0,-1,3.715
744,1,2,-5,-6,-6,-2,-1,-1,3.72
745,-1,-4,1,1,1,0,0,-1,3.725
746,-2,-2,1,5,-1,1,0,-1,3.73
747,-1,5,-2,-3,-2,-3,0,-2,3.735
748,1,-1,0,1,-2,0,2,-2,3.74
749,2,1,-9,-7,-1,0,-3,2,3.745
750,-2,-1,5,-3,-1,-3,0,0,3.75
751,-1,-1,2,0,2,0,-3,-1,3.755
752,0,-1,1,-3,-5,-4,-3,-1,3.7600000000000002
753,-1,-2,-3,1,3,0,-2,-2,3.765
754,1,-2,-2,-1,-3,-3,3,-2,3.77
755,-1,-2,-3,-3,-2,-3,0,0,3.775
756,-1,1,-3,2,2,2,1,-1,3.7800000000000002
757,-2,-2,0,-5,-2,1,0,1,3.785
758,0,0,-2,-5,-1,3,-1,-1,3.79
759,-2,-4,0,3,0,1,0,1,3.795
760,-2,0,-4,-1,-3,1,-4,0,3.8000000000000003
761,1,1,1,1,0,0,0,-1,3.805
762,-1,-4,0,1,-6,-2,-2,0,3.81
763,1,1,-1,-4,7,-1,1,0,3.815
764,0,-6,-2,3,-1,-1,2,1,3.8200000000000003
765,-9,-5,-3,-5,-5,-2,-2,-3,3.825
766,11,2,3,4,0,-1,-2,-1,3.83
767,-14,-4,3,10,-3,-3,-4,-2,3.835
768,-7,3,3,-1,2,1,-3,0,3.84
769,18,4,-1,2,2,0,-1,-4,3.845
770,-3,-3,-3,-3,0,0,0,1,3.85
771,3,4,3,-2,-2,-1,2,-1,3.855
772,-3,-5,-11,-5,-1,-3,1,0,3.86
773,-3,0,0,-1,-2,-1,-1,1,3.865
774,-4,-2,1,-1,-2,-1,-3,0,3.87
775,5,-2,-3,-1,-3,1,0,-1,3.875
776,-3,0,1,-3,-4,1,-2,-2,3.88
777,-1,0,-1,0,3,-1,-1,-2,3.8850000000000002
778,-2,-2,-3,-5,1,-1,0,-2,3.89
779,-3,2,-3,-3,1,-3,-1,-1,3.895
780,3,-4,-4,-4,-4,-3,-2,-1,3.9
781,1,-2,3,-2,-4,-2,-1,0,3.9050000000000002
782,-2,-5,-2,-4,-1,-1,-3,-2,3.91
783,-2,0,0,0,-4,1,-2,-2,3.915
784,1,-3,2,0,-1,-1,-2,-3,3.92
785,1,3,0,1,0,-1,0,-2,3.9250000000000003
786,-3,3,-3,3,1,0,0,1,3.93
787,1,-1,1,1,-2,2,-1,1,3.935
788,1,1,0,-3,1,1,0,1,3.94
789,-5,0,1,1,1,0,0,-1,3.9450000000000003
790,0,0,-3,-2,-2,0,0,-2,3.95
791,2,-1,2,-3,2,-3,-1,1,3.955
792,1,-1,-1,1,2,-1,1,1,3.96
793,-1,-2,-4,-5,-3,1,1,2,3.9650000000000003
794,-3,-3,5,6,-3,1,-2,-4,3.97
795,1,0,-4,0,-4,1,-3,1,3.975
796,-4,-5,-1,0,-2,-3,-1,-3,3.98
797,2,-1,0,-5,2,0,0,-1,3.985
798,-1,-1,-1,-2,-1,1,0,0,3.99
799,1,1,7,6,0,-1,0,2,3.995
800,1,3,1,1,-4,0,4,3,4.0
801,-2,-4,-5,0,5,-1,1,-2,4.005
802,-2,2,-2,-4,-1,0,-1,-1,4.01
803,-1,-2,2,-1,1,1,-2,-2,4.015
804,0,-1,1,4,1,-1,1,-2,4.0200000000000005
805,-1,1,0,3,-3,-3,-1,-2,4.025
806,-1,-2,-3,-4,1,-2,-1,-1,4.03
807,-1,-3,-2,-4,0,-1,-2,-2,4.035
808,-1,3,-1,-2,3,0,-4,0,4.04
809,-2,-1,-1,-2,-1,0,-1,-1,4.045
810,0,1,-4,-5,-2,-3,-1,-1,4.05
811,-1,-2,-5,-3,-4,-2,1,0,4.055
812,1,-1,2,1,-2,1,-2,2,4.0600000000000005
813,1,-3,0,-2,-3,1,-1,0,4.065
814,-1,0,2,3,1,2,-1,0,4.07
815,0,-4,-1,-3,-1,-1,-1,-2,4.075
816,-2,1,-2,-3,1,-2,-2,-1,4.08
817,-2,-2,-1,1,-3,-4,-3,0,4.085
818,-1,0,-3,1,-2,-3,1,-1,4.09
819,-1,1,-3,0,1,0,3,-1,4.095
820,0,-2,-3,-1,0,-2,-2,-3,4.1
821,-2,-2,1,-1,0,-3,-2,-2,4.105
822,-1,1,-2,-2,-1,1,-1,0,4.11
823,1,-2,-2,3,2,-1,-1,-3,4.115
824,0,-2,3,0,-2,-2,0,-2,4.12
825,0,5,-1,0,-5,-2,-2,1,4.125
826,-2,-1,-1,1,5,0,-2,0,4.13
827,-2,1,-2,-1,-1,-1,-2,1,4.135
828,-1,-1,-2,0,1,1,-2,1,4.14
829,0,-2,-1,3,-4,-1,-2,-1,4.1450000000000005
830,-1,-3,-2,-3,-5,-2,2,-1,4.15
831,-1,0,-4,-2,6,-1,1,-1,4.155
832,-1,6,3,1,-2,-1,1,-1,4.16
833,-3,-3,-4,-4,-1,0,-3,-1,4.165
834,-2,-2,-3,-2,-7,0,-1,-2,4.17
835,2,1,-2,-1,2,-1,-2,1,4.175
836,-1,1,7,2,4,-1,-4,-1,4.18
837,2,-3,2,0,2,1,-1,0,4.1850000000000005
838,0,-2,-2,-4,-1,-2,1,-1,4.19
839,-1,0,3,3,-4,-1,0,0,4.195
840,-2,0,-3,-1,-2,1,1,0,4.2
841,-2,1,-2,2,1,0,3,-2,4.205
842,-1,-6,-3,-2,-1,-1,2,-3,4.21
843,-1,-2,0,1,0,-2,0,-1,4.215
844,-2,-5,-2,-6,-2,-3,0,-2,4.22
845,-2,-1,1,0,0,-1,-1,1,4.225
846,0,-2,-1,-7,-5,-3,-3,0,4.23
847,-1,-3,-2,-1,-5,1,-3,-1,4.235
848,-2,-1,-1,-3,-4,4,-6,-2,4.24
849,-1,-4,-2,1,1,-1,-1,-2,4.245
850,-2,1,0,-1,2,0,2,-2,4.25
851,-2,-2,-5,-2,-2,-1,-1,-2,4.255
852,1,0,-3,-3,-1,0,-1,2,4.26
853,0,0,7,-2,-2,0,-1,1,4.265
854,-2,0,4,1,0,-2,0,1,4.2700000000000005
855,-1,-1,-1,1,-2,-2,2,-2,4.275
856,1,0,-3,1,1,-3,0,0,4.28
857,-1,4,-4,-5,-5,-3,0,-1,4.285
858,0,-2,-1,1,1,0,-1,-1,4.29
859,2,-2,1,-3,-2,4,-1,1,4.295
860,0,-2,-6,-4,-1,-1,-1,-3,4.3
861,0,-4,1,-1,2,-1,-1,0,4.305
862,-2,-2,0,0,-1,0,-2,-2,4.3100000000000005
863,2,-2,-2,-5,-8,-2,-1,-2,4.315
864,0,-1,1,0,12,2,-3,1,4.32
865,-3,2,1,3,-6,-1,1,0,4.325
866,-1,1,-1,-1,-6,-1,-1,0,4.33
867,-2,0,0,-2,4,-1,1,0,4.335
868,-3,-1,-3,-1,-4,-1,0,-2,4.34
869,-1,-2,-2,-5,-1,1,-2,-4,4.345
870,2,3,-1,0,0,-3,-3,-1,4.3500000000000005
871,-1,3,-4,0,-3,-3,-1,0,4.355
872,0,-4,0,-10,-4,0,1,-3,4.36
873,0,-4,-3,-3,2,0,0,-1,4.365
874,-2,-2,-2,-2,-4,-2,-3,0,4.37
875,-2,0,1,5,2,-1,-3,-1,4.375
876,1,-3,-1,5,-4,-1,0,1,4.38
877,-1,0,-1,2,3,-1,0,2,4.385
878,0,-4,3,1,2,0,3,1,4.39
879,-1,-2,3,1,2,-2,-3,1,4.3950000000000005
880,-2,0,-2,0,-1,-1,-3,0,4.4
881,-1,-1,-1,0,-1,0,0,-1,4.405
882,0,0,-4,0,2,1,-1,0,4.41
883,-2,1,-4,-2,1,-2,0,-1,4.415
884,-2,0,-1,-1,-9,-1,3,-2,4.42
885,-1,1,2,2,5,-1,-2,0,4.425
886,-3,-3,-1,2,0,-1,-2,-2,4.43
887,-1,-5,-2,-1,-3,0,-1,-1,4.4350000000000005
888,-1,-3,2,5,-7,-1,0,-2,4.44
889,1,1,-2,-2,7,5,0,0,4.445
890,1,-3,1,-3,-4,-1,-2,0,4.45
891,0,0,-1,-1,0,-1,-4,-2,4.455
892,0,-1,-4,-1,0,-2,0,-1,4.46
893,-1,1,0,0,-4,-1,-4,-1,4.465
894,0,2,-2,3,0,-2,0,-2,4.47
895,0,-4,0,0,-1,1,0,-1,4.4750000000000005
896,0,-1,0,3,6,0,0,2,4.48
897,-2,-1,-4,-4,-2,-2,1,-1,4.485
898,-2,-4,-4,0,3,0,1,-1,4.49
899,-2,11,-1,-2,-4,-2,-1,-3,4.495
900,-2,0,-1,0,2,-1,2,-1,4.5
901,-2,-7,-2,-4,-4,0,-2,-3,4.505
902,-1,-4,-2,-2,-6,-2,-1,-1,4.51
903,-2,-4,4,3,7,-2,0,0,4.515
904,-1,-1,0,-3,-1,0,-3,0,4.5200000000000005
905,-1,0,-3,1,-2,-1,1,1,4.525
906,0,-2,-3,-5,-4,0,0,0,4.53
907,-2,-5,-4,-5,-11,0,0,-1,4.535
908,0,0,1,1,14,-1,-2,-1,4.54
909,0,-3,0,-1,-8,-4,2,-1,4.545
910,-1,-3,-1,-4,-1,1,-2,0,4.55
911,0,-3,-2,-2,-1,-3,-4,-1,4.555
912,-4,-2,0,1,-3,0,1,-1,4.5600000000000005
913,-2,-2,-2,0,-3,-2,2,-1,4.565
914,2,4,3,0,1,-2,0,-1,4.57
915,-1,0,-4,-3,2,3,0,0,4.575
916,0,-1,-2,-2,-4,-2,-3,0,4.58
917,0,1,3,2,0,0,-2,0,4.585
918,0,5,-1,1,-2,1,-3,0,4.59
919,-4,-3,-2,-3,-1,0,1,-2,4.595
920,2,0,1,-4,-4,-3,-1,-2,4.6000000000000005
921,0,1,-1,1,6,0,-1,-2,4.605
922,-2,1,2,-1,-3,-1,-3,-1,4.61
923,0,-2,-2,-3,0,2,1,-1,4.615
924,-1,1,-2,-2,-2,2,0,1,4.62
925,0,1,1,-3,-3,0,-2,2,4.625
926,-1,0,-2,-3,2,1,-1,0,4.63
927,-3,1,1,0,0,-2,-3,-1,4.635
928,-1,-2,-1,1,-4,-2,-2,-2,4.64
929,-2,0,-2,4,0,0,1,-3,4.6450000000000005
930,-1,-3,2,1,5,-2,2,0,4.65
931,1,-1,0,-4,-4,-4,2,2,4.655
932,0,-2,-4,-1,-1,-1,0,-2,4.66
933,0,1,-3,-5,-5,-4,-3,1,4.665
934,-3,2,-5,-1,-1,0,-2,-1,4.67
935,-1,0,1,-1,-1,1,0,-2,4.675
936,0,-1,0,0,-3,0,1,0,4.68
937,-2,-1,1,-1,4,1,-1,-2,4.6850000000000005
938,0,0,2,0,-3,2,0,0,4.69
939,-1,-2,1,-2,-3,0,-1,1,4.695
940,-1,7,-3,1,3,0,-2,-1,4.7
941,-1,-1,-3,-4,-4,-3,-2,-1,4.705
942,2,-2,0,3,1,-1,-1,0,4.71
943,0,-4,-2,-1,-4,-2,1,-1,4.715
944,-3,-7,-2,-5,-2,1,1,0,4.72
945,-1,0,-2,-1,-1,-1,1,1,4.7250000000000005
946,-3,-3,-4,-4,0,-1,-4,-1,4.73
947,-1,-1,-2,0,2,0,-4,-1,4.735
948,1,0,3,3,-2,-1,-3,-2,4.74
949,0,5,0,-1,0,0,1,-1,4.745
950,0,-4,0,1,0,1,3,0,4.75
951,2,1,-1,-2,-1,1,0,2,4.755
952,0,-2,0,-1,-2,-1,0,0,4.76
953,-1,-3,1,-2,9,3,0,-2,4.765
954,-1,-1,-2,-1,-7,-2,-1,-2,4.7700000000000005
955,0,0,-2,1,-6,-3,-3,-1,4.775
956,-2,-1,2,0,2,-1,-4,0,4.78
957,1,-5,0,1,-4,0,-3,-2,4.785
958,0,0,0,-4,1,-1,0,-1,4.79
959,0,0,-3,-1,3,-2,0,-1,4.795
960,1,-1,-2,-6,-7,-4,1,-3,4.8
961,0,4,2,4,0,0,0,0,4.805
962,0,-5,-2,0,2,1,0,-2,4.8100000000000005
963,-3,-5,0,2,-2,3,0,-2,4.815
964,2,-2,0,1,-1,3,-1,1,4.82
965,-1,1,-3,-2,-1,-1,1,0,4.825
966,0,3,-1,-1,-2,-4,-14,0,4.83
967,-1,-1,1,1,4,-2,-10,0,4.835
968,-1,-1,-2,0,1,-1,-2,-3,4.84
969,-2,-5,-3,-1,-6,0,0,-2,4.845
970,-2,3,2,1,-2,-1,8,0,4.8500000000000005
971,-1,1,-1,-2,4,-2,5,2,4.855
972,-3,-3,-1,1,2,-2,0,0,4.86
973,0,-1,1,-3,-8,-2,1,-2,4.865
974,0,-1,-2,-3,3,-1,1,-4,4.87
975,1,-1,-1,1,-1,-1,2,-1,4.875
976,-1,0,-2,-1,-1,-2,1,0,4.88
977,0,-1,-2,-3,1,-2,-1,-1,4.885
978,-1,-1,2,1,-1,-2,-1,-1,4.89
979,1,0,1,-1,0,-3,-1,-2,4.8950000000000005
980,0,-2,-2,1,-6,0,-2,0,4.9
981,-1,-5,-2,-2,5,2,-3,1,4.905
982,-1,0,-4,3,-1,3,2,1,4.91
983,-3,-2,0,2,2,5,4,0,4.915
984,-2,-2,0,-5,-3,-1,-2,0,4.92
985,-1,-1,0,-1,-4,-3,-2,-2,4.925
986,0,3,-1,-2,-2,-1,0,0,4.93
987,-1,0,-3,-2,-1,-5,0,-3,4.9350000000000005
988,-2,-1,-3,-1,1,0,2,-2,4.94
989,-2,-3,0,1,-3,0,-2,-1,4.945
990,-3,-2,-2,-1,-1,-1,-1,0,4.95
991,-1,-3,-4,1,-7,-1,0,1,4.955
992,-1,1,-1,1,5,1,0,0,4.96
993,1,-2,-3,-1,2,-1,-1,-2,4.965
994,-2,-1,-1,0,-3,-3,-2,-2,4.97
995,1,5,2,-2,1,-2,-2,-2,4.9750000000000005
996,0,-2,-2,-4,-4,-3,-3,-1,4.98
997,0,-2,1,2,0,0,2,1,4.985
998,0,-8,-5,-3,0,0,0,-1,4.99
999,-1,-4,0,1,2,2,-1,1,4.995
1000,1,0,0,2,1,0,1,-1,5.0
1001,-1,-1,-3,-3,-4,-1,-1,0,5.005
1002,2,0,3,-1,-6,0,-3,-2,5.01
1003,0,0,0,0,7,2,-2,-2,5.015
1004,-2,-1,-1,-1,-4,0,0,-2,5.0200000000000005
1005,0,0,-1,3,-2,-2,2,-3,5.025
1006,1,1,0,-2,0,0,3,1,5.03
1007,-1,0,-2,-1,-1,-4,-2,0,5.035
1008,-2,-2,2,5,2,-2,-3,2,5.04
1009,-3,-1,-3,-4,-6,0,-4,-1,5.045
1010,1,4,-2,4,6,0,-2,0,5.05
1011,1,-1,-1,-4,-3,1,1,-2,5.055
1012,-1,-6,-4,-4,0,-1,-2,-2,5.0600000000000005
1013,0,-2,2,2,-2,0,0,1,5.065
1014,-2,1,0,-3,1,0,1,0,5.07
1015,-3,0,2,-1,-2,1,2,0,5.075
1016,1,3,-2,-1,-1,-1,1,-2,5.08
1017,0,0,-2,0,1,-4,-4,-1,5.085
1018,-1,-2,-2,0,0,-1,-4,-2,5.09
1019,0,-1,-1,1,-3,-1,-2,-3,5.095
1020,-3,5,1,-4,-4,-1,0,-1,5.1000000000000005
1021,0,4,1,3,3,0,-1,1,5.105
1022,0,-2,-4,4,0,-2,1,0,5.11
1023,0,-4,-3,0,-5,0,-3,-2,5.115
1024,0,-1,0,-2,1,1,0,-3,5.12
1025,-1,-1,-3,-1,0,0,0,0,5.125
1026,0,1,1,-5,-1,-1,-2,0,5.13
1027,0,7,0,-1,4,0,0,-1,5.135
1028,-2,-3,-1,2,-3,-2,2,0,5.14
1029,-3,-4,1,-1,-4,-1,0,-3,5.1450000000000005
1030,0,-4,-1,-1,4,-1,0,0,5.15
1031,-2,0,-1,-2,-3,-2,-2,0,5.155
1032,0,4,-1,0,2,-3,-5,1,5.16
1033,-2,-1,-4,-5,-4,-4,-1,0,5.165
1034,-2,-3,2,-2,-11,-2,1,0,5.17
1035,0,-3,-1,0,12,2,2,0,5.175
1036,-1,-3,-2,-2,-6,1,-1,2,5.18
1037,1,2,3,-1,0,-1,-1,-1,5.1850000000000005
1038,-3,2,-1,-2,-5,-2,-1,-1,5.19
1039,-2,-2,-2,-2,-5,-2,-1,-1,5.195
1040,-2,-2,-3,-2,0,2,1,-3,5.2
1041,1,0,-1,0,0,-2,3,-1,5.205
1042,1,-4,0,3,-1,0,0,-1,5.21
1043,0,-6,-2,1,-6,-2,-3,0,5.215
1044,1,-2,-5,-2,0,-2,-2,1,5.22
1045,-2,-1,-3,-2,0,1,-4,-2,5.2250000000000005
1046,-1,-4,-2,-2,4,-1,-2,-1,5.23
1047,-2,2,0,-3,-2,-1,-2,0,5.235
1048,1,0,0,-2,-7,-3,-1,-1,5.24
1049,0,0,0,2,6,-1,-1,-1,5.245
1050,-2,2,-2,1,-3,-1,0,-3,5.25
1051,-2,-2,0,0,0,1,1,1,5.255
1052,0,5,2,4,1,0,2,1,5.26
1053,-3,-2,-1,-3,-4,0,-2,1,5.265
1054,-1,-4,-3,-3,-2,0,-5,-1,5.2700000000000005
1055,3,1,1,2,0,0,1,-1,5.275
1056,1,1,-2,-3,0,-2,1,-2,5.28
1057,-1,0,-1,-2,-1,-2,1,0,5.285
1058,-2,2,-1,-1,0,2,1,0,5.29
1059,-1,-3,-1,-7,-2,-3,0,0,5.295
1060,-1,-7,2,-3,1,0,-1,-3,5.3
1061,1,0,0,1,-2,0,1,-1,5.305
1062,0,-1,-2,-2,-1,-2,-1,-1,5.3100000000000005
1063,-2,-3,-2,2,-2,-3,-3,-1,5.315
1064,-1,-3,2,2,2,-1,0,-1,5.32
1065,0,-1,1,-1,3,-2,-1,-2,5.325
1066,0,0,0,0,-1,-2,0,-2,5.33
1067,-2,3,-1,2,-3,-1,0,1,5.335
1068,-2,-4,-3,-2,-2,-2,0,0,5.34
1069,-1,-5,-1,-2,-2,2,0,0,5.345
1070,1,1,2,-2,3,-1,-1,0,5.3500000000000005
1071,-2,-3,-3,-1,-1,-1,-1,-1,5.355
1072,-1,3,0,3,-4,0,-2,1,5.36
1073,-1,1,-3,1,4,2,-2,-3,5.365
1074,-1,-4,-1,-4,-4,0,-1,-2,5.37
1075,0,-4,0,-1,-1,-1,-1,-2,5.375
1076,-1,0,0,1,-1,0,-1,-1,5.38
1077,0,-2,-3,-4,-4,-2,0,0,5.385
1078,-2,-1,-2,-1,-1,0,-1,0,5.39
1079,0,-1,-3,-1,2,-2,0,0,5.3950000000000005
1080,0,-5,-2,2,2,-1,0,0,5.4
1081,-2,-3,4,4,-1,-1,-3,-3,5.405
1082,0,-1,-2,3,-2,-2,-1,-2,5.41
1083,-1,0,0,-2,-4,0,1,1,5.415
1084,-1,1,-3,-1,-1,-3,-1,0,5.42
1085,0,2,-2,1,-2,0,0,1,5.425
1086,-1,0,0,0,-2,1,-2,-3,5.43
1087,1,3,-3,-1,0,-1,-2,-4,5.4350000000000005
1088,-1,-4,-3,-3,2,0,0,-4,5.44
1089,0,0,-1,1,1,0,0,-1,5.445
1090,1,2,0,-1,-1,-1,-1,1,5.45
1091,-1,-1,-1,-2,-3,-1,-2,1,5.455
1092,-2,-1,0,-2,1,-2,0,-1,5.46
1093,-1,-1,-1,1,-1,-3,1,-1,5.465
1094,-2,-4,0,2,2,0,-2,-1,5.47
1095,-2,-2,0,-4,-2,-1,0,-1,5.4750000000000005
1096,-1,2,1,-1,0,2,1,-1,5.48
1097,-1,-5,-3,-7,-6,1,-2,0,5.485
1098,-1,0,0,0,4,-1,0,1,5.49
1099,-1,-1,0,-1,-2,-1,-1,0,5.495
1100,-2,-1,-2,1,0,-1,-4,1,5.5
1101,0,2,-2,2,1,-2,0,0,5.505
1102,-3,1,-1,0,-2,-3,1,-1,5.51
1103,-4,-2,-4,1,-1,0,1,-3,5.515
1104,0,-1,-2,-2,-6,-3,-1,-1,5.5200000000000005
1105,-1,1,2,4,13,4,-2,0,5.525
1106,2,-1,1,-2,-6,0,-1,0,5.53
1107,0,-1,1,-1,-2,-1,1,1,5.535
1108,0,4,2,1,-3,-4,-1,1,5.54
1109,-2,2,0,-3,-5,-3,-1,2,5.545
1110,0,-2,-2,0,-1,2,1,1,5.55
1111,0,-2,-2,-2,1,2,-2,-1,5.555
1112,-2,-2,-1,-1,-1,0,-3,0,5.5600000000000005
1113,-1,-1,-2,-3,1,-2,-3,-1,5.565
1114,-1,4,0,-1,2,0,1,-4,5.57
1115,-1,1,-2,2,-2,-1,-2,-2,5.575
1116,2,2,-1,0,1,3,-1,1,5.58
1117,-2,-4,-1,-4,-5,-1,1,0,5.585
1118,-1,-4,0,1,4,0,1,0,5.59
1119,-1,1,2,-1,-3,-1,-3,-2,5.595
1120,-1,1,-1,-1,-1,-2,0,-3,5.6000000000000005
1121,-1,-6,-1,-1,-5,-5,-2,0,5.605
1122,0,-4,-3,-1,-3,1,-2,1,5.61
1123,-2,0,-2,0,1,1,0,1,5.615
1124,0,-3,0,-1,2,0,-1,-1,5.62
1125,-1,2,4,2,0,2,2,-3,5.625
1126,-3,-4,-3,-5,0,-4,-3,-3,5.63
1127,-1,-4,-2,0,-1,-2,0,-3,5.635
1128,-2,1,-5,1,-4,-2,-1,0,5.64
1129,1,-1,-4,-2,0,0,-1,-1,5.6450000000000005
1130,-1,4,2,0,-1,1,-2,-2,5.65
1131,0,-1,0,1,2,0,-2,0,5.655
1132,2,-2,1,-1,1,0,2,-3,5.66
1133,-1,-1,0,0,0,-1,0,-1,5.665
1134,-3,1,0,0,-1,-3,0,0,5.67
1135,-1,2,-1,-1,-5,-4,-3,-1,5.675
1136,-1,-2,-1,-2,1,2,0,0,5.68
1137,1,-2,-1,-3,4,1,1,1,5.6850000000000005
1138,-3,0,-4,0,-2,-2,1,2,5.69
1139,1,-1,0,2,3,0,0,-1,5.695
1140,-1,-2,-1,-1,-4,1,-2,0,5.7
1141,1,-1,-1,0,-4,1,-1,0,5.705
1142,1,-2,1,0,-1,1,-3,-2,5.71
1143,-1,0,1,2,0,0,-2,0,5.715
1144,-3,-1,-1,-4,-1,-3,0,-2,5.72
1145,-2,0,-4,-2,-2,-3,-1,-3,5.7250000000000005
1146,1,3,0,-2,-2,-3,-1,-2,5.73
1147,-1,-1,-2,-4,-1,-2,-1,0,5.735
1148,-2,-4,-2,-1,1,0,-1,1,5.74
1149,-1,1,1,2,-2,-3,-2,-1,5.745
1150,1,0,-3,-1,0,0,-1,0,5.75
1151,-1,-1,-2,-4,-2,0,-2,-3,5.755
1152,1,-1,1,-5,0,-2,0,-1,5.76
1153,2,-3,-3,-2,-2,-2,1,0,5.765
1154,0,-4,1,0,1,-2,1,0,5.7700000000000005
1155,1,0,2,-1,0,0,1,3,5.775
1156,-3,0,2,2,-2,0,-1,-1,5.78
1157,-1,1,-4,-3,-3,2,1,-1,5.785
1158,-2,-4,-2,1,3,-1,0,-2,5.79
1159,-1,2,-3,-1,-6,2,-1,0,5.795
1160,-1,0,-2,-2,12,2,-3,-1,5.8
1161,-1,1,-2,-3,-8,0,-2,1,5.805
1162,1,2,0,-4,-2,0,0,0,5.8100000000000005
1163,-1,-2,2,-4,0,-2,0,-2,5.815
1164,0,0,1,0,-3,-1,-4,-2,5.82
1165,0,-3,-2,0,1,0,-2,-1,5.825
1166,0,-3,-3,1,-3,-2,2,-2,5.83
1167,1,-6,0,2,0,-1,3,0,5.835
1168,0,1,0,4,-3,-3,2,-2,5.84
1169,-3,-1,0,-3,1,-2,-3,-2,5.845
1170,-2,-1,-2,-1,-1,0,-4,-1,5.8500000000000005
1171,-1,-2,-1,-2,1,-2,-2,-2,5.855
1172,-2,-3,-3,0,-3,1,0,-1,5.86
1173,-1,-2,2,0,-1,0,3,-1,5.865
1174,-2,-1,-2,-1,-3,-3,0,-1,5.87
1175,-1,-1,-3,2,-1,0,2,0,5.875
1176,1,-3,-2,-1,-5,-1,-1,0,5.88
1177,0,-3,-2,-3,1,0,-2,-1,5.885
1178,0,-1,3,-4,0,3,-2,-2,5.89
1179,-2,-1,0,-3,0,0,-2,-3,5.8950000000000005
1180,-1,2,-1,-1,-2,-1,0,-1,5.9
1181,-1,-1,-1,-1,-4,-1,1,-2,5.905
1182,-1,-3,-3,-2,-1,-1,-2,1,5.91
1183,-1,0,-3,1,2,-1,-2,0,5.915
1184,0,0,-1,-1,1,0,-1,-1,5.92
1185,-1,1,2,-2,1,-3,-2,0,5.925
1186,0,1,-1,-2,-1,-1,-2,0,5.93
1187,-2,0,-1,-3,-8,-2,-2,2,5.9350000000000005
1188,0,0,-1,-1,8,3,1,1,5.94
1189,-1,2,-1,2,-3,-2,0,1,5.945
1190,-1,-2,-1,-1,-3,-3,3,-2,5.95
1191,-1,-2,-2,0,-1,-1,2,-1,5.955
1192,1,-1,0,1,-3,-3,-1,-1,5.96
1193,-1,1,0,-3,2,2,-1,0,5.965
1194,1,2,1,-1,-3,1,-2,0,5.97
1195,-2,-2,-3,-3,2,0,0,0,5.9750000000000005
1196,-1,-1,-1,2,0,0,-1,-3,5.98
1197,0,-5,-3,0,-1,-3,1,-2,5.985
1198,0,1,-1,-2,-1,-3,-1,1,5.99
1199,2,0,3,-4,1,1,1,0,5.995
1200,-2,-1,0,-2,-3,-1,0,1,6.0
1201,-2,0,0,1,1,0,0,-2,6.005
1202,-1,-1,-1,1,-2,-1,0,-2,6.01
1203,0,-1,-2,-1,-1,-2,-3,-2,6.015000000000001
1204,-2,0,-3,-3,-1,-1,3,0,6.0200000000000005
1205,0,-2,-2,0,-1,0,-2,-2,6.025
1206,1,-3,-3,1,-1,-1,-2,0,6.03
1207,0,1,1,1,1,0,-2,-1,6.035
1208,-1,3,4,-2,-1,-1,1,1,6.04
1209,0,4,0,-2,2,-1,-1,-2,6.045
1210,-3,-5,0,0,1,1,0,-1,6.05
1211,1,-4,-4,0,-2,0,-3,-1,6.055
1212,0,-1,0,2,-5,-3,-3,0,6.0600000000000005
1213,-2,-1,-2,-1,-2,0,-2,1,6.065
1214,-4,0,-2,-3,1,0,-1,-2,6.07
1215,-2,-1,-1,1,0,0,1,0,6.075
1216,-1,-3,-2,-6,-1,0,3,-2,6.08
1217,1,0,-1,-1,-5,-1,1,0,6.085
1218,0,-1,-2,-2,7,-2,0,-2,6.09
1219,-2,-1,1,3,0,-3,-2,-2,6.095
1220,-1,-2,-6,0,-1,-5,-5,-1,6.1000000000000005
1221,-1,-2,1,-2,-5,-5,-1,1,6.105
1222,1,2,2,-2,-1,1,0,1,6.11
1223,2,0,1,0,0,0,0,-2,6.115
1224,1,-2,0,-2,-5,0,-2,-1,6.12
1225,-2,0,-1,-1,0,0,-2,1,6.125
1226,-2,0,-1,-3,-4,-1,0,0,6.13
1227,-1,-2,-2,-2,4,0,0,1,6.135
1228,-2,-2,1,0,2,-1,1,-2,6.140000000000001
1229,0,-1,-4,-2,0,-1,-1,1,6.1450000000000005
1230,-3,-3,-3,-1,-1,-2,1,0,6.15
1231,-1,-2,-1,0,-2,0,0,-3,6.155
1232,3,1,-1,0,0,0,-2,-3,6.16
1233,-1,-2,0,1,0,3,2,-3,6.165
1234,-1,0,-2,-1,-2,0,0,-2,6.17
1235,-1,1,1,0,-2,0,-1,2,6.175
1236,-2,-1,0,-1,-4,-1,-2,1,6.18
1237,-1,-2,3,4,-1,0,-2,0,6.1850000000000005
1238,1,-2,-2,-3,-4,-1,-2,-1,6.19
1239,-1,-2,-2,0,0,0,1,0,6.195
1240,-1,1,0,1,2,-1,-1,-1,6.2
1241,-4,-1,-2,-1,2,-2,-1,-1,6.205
1242,1,2,2,2,-2,-4,-1,-2,6.21
1243,1,2,-2,-3,-2,-3,0,-2,6.215
1244,-1,0,-2,-2,0,0,0,-1,6.22
1245,0,-3,-1,-1,-2,0,-3,0,6.2250000000000005
1246,0,-1,0,3,1,0,0,-1,6.23
1247,-1,-6,-3,-2,1,-2,-2,-2,6.235
1248,0,-1,-1,0,1,-1,-2,0,6.24
1249,0,0,-3,-2,-2,-1,1,-1,6.245
1250,0,-2,0,3,0,0,0,0,6.25
1251,1,6,1,2,1,1,-2,-2,6.255
1252,-2,-1,-3,-2,-2,-1,-2,-1,6.26
1253,0,0,0,0,1,-3,-1,-1,6.265000000000001
1254,-2,-2,0,0,-2,-3,-3,-2,6.2700000000000005
1255,-1,1,1,0,-2,-1,2,0,6.275
1256,-1,-4,-1,-1,0,2,3,-3,6.28
1257,0,-4,-6,-1,1,-1,-2,-1,6.285
1258,-1,3,0,-2,-11,-1,0,2,6.29
1259,-2,1,1,0,6,2,-3,2,6.295
1260,0,0,-2,0,2,-2,-2,-2,6.3
1261,-2,-2,1,-2,-1,0,-1,-2,6.305
1262,0,-1,0,1,2,1,0,0,6.3100000000000005
1263,0,-1,-1,-3,-10,-2,-2,-1,6.315
1264,1,1,1,2,-1,1,0,0,6.32
1265,0,3,1,1,0,-1,-1,-2,6.325
1266,2,0,-4,-2,-1,-3,-1,0,6.33
1267,-1,-2,-2,-4,-2,-1,-1,1,6.335
1268,-3,1,-1,1,2,0,-2,2,6.34
1269,0,-2,-2,-4,-5,-2,1,0,6.345
1270,1,-1,0,-3,3,2,1,0,6.3500000000000005
1271,1,-2,1,1,0,0,1,-3,6.355
1272,0,-1,2,-3,-4,0,2,1,6.36
1273,-3,-1,-1,-2,-3,0,1,0,6.365
1274,-2,-4,-1,1,2,-1,-2,0,6.37
1275,0,1,0,-2,-3,0,0,-1,6.375
1276,-2,-6,-4,-2,-2,-1,-5,-2,6.38
1277,1,-2,-1,-1,3,-2,-3,-1,6.385
1278,-3,-2,-3,-4,0,-3,0,-3,6.390000000000001
1279,-1,-5,-3,-3,-7,-1,1,-2,6.3950000000000005
1280,-1,-1,-3,-1,3,0,2,1,6.4
1281,-1,1,4,1,0,-1,-1,-1,6.405
1282,0,-1,0,-2,0,0,-2,0,6.41
1283,0,0,0,0,-1,-1,0,-1,6.415
1284,1,0,-1,1,-4,-2,1,0,6.42
1285,0,0,-3,-2,2,2,1,-1,6.425
1286,-2,-2,1,2,-2,1,-2,-1,6.43
1287,-3,-2,-1,0,-1,-1,-2,-1,6.4350000000000005
1288,-3,-2,-1,-3,-2,1,-1,-1,6.44
1289,-1,1,0,1,2,-1,-3,0,6.445
1290,-1,2,0,-2,-1,0,-4,1,6.45
1291,-2,-2,-4,-2,-1,-2,-3,0,6.455
1292,0,-2,-5,-3,-2,0,-1,-1,6.46
1293,0,-2,0,-1,-3,-2,0,0,6.465
1294,-3,2,-1,-3,-3,-4,1,-1,6.47
1295,-1,0,5,4,-5,0,2,-1,6.4750000000000005
1296,0,-2,-1,-3,9,-1,0,-2,6.48
1297,-1,0,-3,-1,-2,2,0,-1,6.485
1298,0,0,-3,19,-2,-2,0,-2,6.49
1299,0,0,-3,6,0,-2,0,3,6.495
1300,-3,3,4,2,-8,-4,-1,-2,6.5
1301,-2,-3,-2,-7,2,2,-2,0,6.505
1302,-3,-4,-2,-8,4,1,-1,-4,6.51
1303,6,1,0,-7,2,0,0,-2,6.515000000000001
1304,1,0,1,2,1,0,-2,-1,6.5200000000000005
1305,-1,0,0,-4,-4,-1,-1,0,6.525
1306,-1,4,2,-4,-3,1,0,1,6.53
1307,-6,0,-2,-1,2,-2,1,-1,6.535
1308,0,-4,-4,-4,-3,1,-3,-1,6.54
1309,0,-2,-1,0,-3,1,0,-1,6.545
1310,1,-3,1,-4,-2,-3,-1,-1,6.55
1311,-1,1,0,0,-1,-1,-1,-1,6.555
1312,1,1,-1,-3,-2,-1,0,-1,6.5600000000000005
1313,-2,-2,-1,2,-1,-4,-2,-2,6.565
1314,0,-1,-2,-4,-1,1,-1,-1,6.57
1315,-2,-4,-2,-5,-1,-1,-3,-1,6.575
1316,-3,-2,0,2,-3,1,0,0,6.58
1317,-4,-3,0,2,-1,1,0,-2,6.585
1318,5,3,1,-3,-1,0,1,-3,6.59
1319,0,0,1,2,1,-1,1,-2,6.595
1320,-1,0,0,0,0,-1,-2,0,6.6000000000000005
1321,1,2,0,0,-3,-3,-1,0,6.605
1322,-1,-5,-3,-6,1,-1,2,-1,6.61
1323,-1,1,-3,-3,0,0,-2,-2,6.615
1324,1,1,0,3,1,-1,-1,0,6.62
1325,1,1,-1,-1,2,-1,0,1,6.625
1326,0,-1,-3,0,0,0,0,1,6.63
1327,-1,-3,3,1,-2,-1,-2,0,6.635
1328,-2,-5,-2,-3,-1,-2,1,-1,6.640000000000001
1329,-1,1,-2,-1,0,1,-3,-3,6.6450000000000005
1330,-8,-3,1,4,0,1,-1,-1,6.65
1331,11,0,-3,-3,1,2,2,-2,6.655
1332,2,-2,1,0,-3,-1,-2,1,6.66
1333,0,0,3,2,0,-1,0,-1,6.665
1334,0,0,1,-2,-1,-2,0,0,6.67
1335,-8,0,-1,-1,0,0,0,-1,6.675
1336,-2,-3,0,0,-1,-3,0,1,6.68
1337,0,-3,-5,-6,-1,-3,-2,-2,6.6850000000000005
1338,-2,-2,-2,-4,-2,-2,-4,-1,6.69
1339,-5,0,-1,-2,-4,-1,-1,2,6.695
1340,0,2,3,2,-2,-2,1,0,6.7
1341,-5,-3,-1,0,-1,-1,0,-1,6.705
1342,0,-3,-2,1,0,0,0,-1,6.71
1343,0,-1,-2,-3,-2,0,-3,-1,6.715
1344,-1,3,1,2,-2,1,-1,-1,6.72
1345,1,-6,-3,-2,-9,-2,-1,-2,6.7250000000000005
1346,-1,-3,-4,-1,6,-1,-5,-2,6.73
1347,-2,-2,-1,0,-2,0,0,-2,6.735
1348,-1,0,-3,-1,-1,-1,-1,-2,6.74
1349,0,4,1,3,2,1,0,1,6.745
1350,2,-4,1,2,-2,0,-1,-2,6.75
1351,-2,1,0,5,2,-1,-2,1,6.755
1352,-2,-3,-2,-4,0,-2,0,-1,6.76
1353,1,1,-3,-10,0,0,0,2,6.765000000000001
1354,2,1,1,-7,-4,-2,0,0,6.7700000000000005
1355,-1,2,1,-2,1,0,1,0,6.775
1356,-2,-3,-4,-1,-4,0,-3,-3,6.78
1357,11,0,1,5,2,-2,0,-2,6.785
1358,-16,-1,0,3,-3,-1,1,-3,6.79
1359,-3,-1,-7,-1,-3,-1,1,0,6.795
1360,-12,-1,-1,-2,-2,-1,0,0,6.8
1361,12,-4,-3,-1,-1,-1,-4,-1,6.805
1362,3,1,0,2,0,-1,-3,-5,6.8100000000000005
1363,3,0,1,-1,-2,-1,0,-2,6.815
1364,-7,-3,-1,-2,-1,-3,-1,-2,6.82
1365,-9,2,-1,-1,-1,-4,-2,1,6.825
1366,4,-1,-3,0,-2,-1,0,2,6.83
1367,1,-3,-1,-2,-5,0,-2,-1,6.835
1368,6,-1,2,-1,2,0,2,0,6.84
1369,-6,-2,3,4,0,0,2,0,6.845
1370,4,1,-2,0,1,-1,0,-1,6.8500000000000005
1371,-2,-2,-1,2,4,0,1,-1,6.855
1372,1,1,-3,1,-3,1,-2,-2,6.86
1373,-4,-1,-4,-3,-1,-2,-3,-1,6.865
1374,-2,-2,2,-1,0,-1,1,2,6.87
1375,0,-3,-2,0,-1,-1,-1,-2,6.875
1376,3,1,-1,-2,-2,1,0,-2,6.88
1377,-3,-2,0,-1,-1,1,0,-2,6.885
1378,0,-4,-3,1,0,0,-2,1,6.890000000000001
1379,2,-2,3,-3,-2,-2,-2,1,6.8950000000000005
1380,2,-2,0,2,2,-2,-4,1,6.9
1381,-5,-4,0,0,-1,1,2,-2,6.905
1382,0,2,-1,-3,-1,-2,2,0,6.91
1383,-2,-2,-4,-2,-2,-2,-1,-2,6.915
1384,-1,2,1,-2,1,-1,-1,-1,6.92
1385,-1,-1,-3,-6,-2,-2,-1,0,6.925
1386,-1,-2,-3,1,-2,1,0,0,6.93
1387,0,2,0,3,1,0,0,-2,6.9350000000000005
1388,0,0,-2,1,-2,-2,-3,-1,6.94
1389,-2,2,-1,3,2,1,-2,-1,6.945
1390,3,3,2,0,-1,0,1,-1,6.95
1391,-3,-2,-2,-3,-1,-2,1,0,6.955
1392,2,2,2,-4,-8,-1,0,-2,6.96
1393,0,0,1,4,8,-1,-3,-2,6.965
1394,0,-1,-1,2,0,-2,-5,-1,6.97
1395,-2,-3,2,-2,1,0,-1,0,6.9750000000000005
1396,-1,-4,0,-2,-1,0,1,-1,6.98
1397,0,-1,0,-2,-3,-2,1,-1,6.985
1398,-1,0,-7,-2,1,0,0,-2,6.99
1399,1,0,-3,-4,0,2,-2,-3,6.995
1400,-15,-4,7,4,0,-2,-2,0,7.0
1401,30,1,0,3,-3,-1,0,-2,7.005
1402,4,-2,0,-6,-2,-2,-1,-1,7.01
1403,-7,-2,6,14,-2,-3,-4,4,7.015000000000001
1404,6,-2,-10,-17,0,-2,4,-10,7.0200000000000005
1405,-39,1,3,1,-1,-1,1,5,7.025
1406,-18,-2,8,6,-2,-2,1,-1,7.03
1407,18,-2,-9,-10,-1,1,1,16,7.035
1408,19,-5,12,15,3,0,-5,-26,7.04
1409,13,36,-25,6,-1,-2,-1,-6,7.045
1410,10,8,-4,-9,-2,0,-1,-4,7.05
1411,-17,-15,-10,-9,-1,-3,-1,-10,7.055
1412,-14,-8,-8,-1,0,1,-2,7,7.0600000000000005
1413,-12,-43,9,-13,-1,-1,-4,-1,7.065
1414,0,-18,-2,2,2,1,-3,1,7.07
1415,-1,-31,8,3,2,0,1,0,7.075
1416,5,26,-17,-16,-8,-3,-1,7,7.08
1417,3,-12,5,3,4,4,2,3,7.085
1418,1,-3,13,12,-2,-4,0,-2,7.09
1419,-7,12,2,-6,-2,-2,-3,-3,7.095
1420,3,-1,3,8,1,1,1,2,7.1000000000000005
1421,-23,-10,-8,-12,-4,-2,-1,-2,7.105
1422,-3,-14,-2,0,0,2,0,1,7.11
1423,5,3,4,-2,2,0,0,-6,7.115
1424,12,11,-3,7,0,-1,0,4,7.12
1425,-7,24,4,3,-2,-2,-2,1,7.125
1426,-7,8,-9,-6,0,-2,-1,-2,7.13
1427,-7,-4,3,4,-3,-2,-2,-1,7.135
1428,-3,-35,-16,-6,0,-1,0,2,7.140000000000001
1429,1,-27,-3,-5,-3,0,1,-1,7.1450000000000005
1430,3,-16,3,5,-2,-1,1,-2,7.15
1431,-1,-5,-6,-2,-2,2,1,-3,7.155
1432,-7,-16,5,0,2,2,-1,1,7.16
1433,8,20,4,8,0,1,2,-2,7.165
1434,0,24,-1,-6,-3,-2,1,-1,7.17
1435,4,22,-2,-5,-3,-1,-1,-2,7.175
1436,0,6,7,-1,0,-1,-1,1,7.18
1437,-4,13,-3,1,-1,-2,-4,0,7.1850000000000005
1438,0,16,-3,-4,-2,-1,-2,-3,7.19
1439,1,7,1,-4,-1,-3,-1,-2,7.195
1440,5,27,-6,3,3,-1,1,0,7.2
1441,0,-17,7,0,-3,1,0,-2,7.205
1442,-14,-1,-8,-8,-5,0,-1,2,7.21
1443,5,12,5,8,5,0,-2,1,7.215
1444,24,30,5,6,0,0,1,4,7.22
1445,14,-26,-5,-8,1,-2,-1,2,7.2250000000000005
1446,-7,19,1,1,0,-2,1,1,7.23
1447,9,-14,2,-1,-3,-2,-1,-2,7.235
1448,-17,10,-9,-4,0,3,0,-4,7.24
1449,29,-12,-4,-2,1,1,-2,5,7.245
1450,11,-5,20,16,-14,-5,-3,-1,7.25
1451,22,27,3,-19,6,4,7,4,7.255
1452,-26,20,-22,37,22,-3,-6,-8,7.26
1453,-20,-28,-1,-14,4,3,3,-6,7.265000000000001
1454,-22,-64,-6,-7,-4,-2,2,8,7.2700000000000005
1455,-40,25,-29,21,3,-2,-2,-14,7.275
1456,76,78,77,-7,-11,0,5,11,7.28
1457,36,0,84,46,5,-1,-3,-2,7.285
1458,-52,-57,-98,-51,-5,-5,-10,-22,7.29
1459,-14,-5,13,-4,-7,-2,-5,5,7.295
1460,-39,-128,-35,-31,-11,-6,-7,-1,7.3
1461,-4,76,-31,-8,-10,-10,-6,4,7.305
1462,-8,-50,52,11,7,6,5,7,7.3100000000000005
1463,54,63,-5,10,4,3,-2,-15,7.315
1464,-15,-28,17,-2,-2,0,3,-2,7.32
1465,-13,89,83,31,10,10,6,1,7.325
1466,84,-30,-90,-14,-2,-4,2,14,7.33
1467,-63,-58,0,-27,-9,-2,1,6,7.335
1468,62,-30,-15,3,-4,-1,7,17,7.34
1469,-67,-57,-7,-17,-11,-12,-8,-13,7.345
1470,44,53,47,9,5,2,-1,-6,7.3500000000000005
1471,-34,16,9,9,-2,-4,-9,-12,7.355
1472,0,-30,-6,-1,1,6,0,-7,7.36
1473,3,-16,-15,-10,-7,-4,-9,-6,7.365
1474,15,41,13,19,17,11,10,10,7.37
1475,70,55,37,20,-1,-4,2,16,7.375
1476,-72,-7,39,1,8,3,1,0,7.38
1477,-35,-29,-34,-22,-2,1,1,-5,7.385
1478,-31,-16,26,-17,-28,-6,-3,-10,7.390000000000001
1479,-1,-31,10,19,12,-2,-6,-3,7.3950000000000005
1480,29,74,9,26,14,1,2,15,7.4
1481,-9,2,-38,-8,4,-1,-1,-9,7.405
1482,-16,18,6,-23,-28,-1,4,-1,7.41
1483,-27,-24,39,54,42,10,19,4,7.415
1484,-54,22,-54,-22,-16,-13,-30,-19,7.42
1485,36,-41,-9,25,11,5,-4,13,7.425
1486,-20,7,-11,-8,3,1,-1,-2,7.43
1487,74,-10,-31,-21,-13,1,4,10,7.4350000000000005
1488,-89,44,-56,-20,-19,-9,-3,-19,7.44
1489,23,-66,-31,-29,-2,3,8,5,7.445
1490,-9,113,55,-54,0,-5,-6,-9,7.45
1491,-3,-77,17,68,13,4,4,-13,7.455
1492,127,62,-72,-14,-2,-3,2,31,7.46
1493,-72,-70,28,4,-6,0,6,0,7.465
1494,-1,49,-9,30,10,-1,1,14,7.47
1495,-74,-74,-13,-81,-27,-12,-22,-22,7.4750000000000005
1496,22,12,38,17,20,6,8,8,7.48
1497,68,5,19,0,-38,-10,4,-24,7.485
1498,43,10,29,73,59,12,10,18,7.49
1499,-22,58,0,-31,-18,-2,-11,8,7.495
1500,-59,-76,41,19,-20,-3,-8,-24,7.5
1501,-63,66,-36,-30,27,7,-8,6,7.505
1502,71,-51,-75,-9,-12,7,15,9,7.51
1503,-62,-50,-34,-42,15,-2,8,-12,7.515000000000001
1504,80,26,-34,-80,-8,5,-5,-9,7.5200000000000005
1505,77,-25,23,-18,-16,2,13,35,7.525
1506,-6,59,-21,43,41,-3,-17,-19,7.53
1507,26,95,17,82,11,3,5,22,7.535
1508,28,-76,35,-7,9,10,6,-19,7.54
1509,-17,54,-3,6,-5,-10,6,3,7.545
1510,-20,-128,-2,-30,-9,-6,-6,-4,7.55
1511,38,25,-111,-22,-11,4,-8,-14,7.555
1512,-36,-26,26,19,9,-7,0,16,7.5600000000000005
1513,2,54,53,21,-32,-6,-12,2,7.565
1514,-22,-7,30,16,21,0,0,-20,7.57
1515,-51,2,25,-34,-12,-7,-7,11,7.575
1516,-32,-2,25,30,1,0,-3,-6,7.58
1517,6,12,-68,-5,-12,1,1,-6,7.585
1518,19,48,35,15,-26,-18,-3,24,7.59
1519,40,6,41,7,11,2,8,-8,7.595
1520,15,-42,75,55,6,5,5,-5,7.6000000000000005
1521,6,-36,-19,-93,-18,-6,-8,-16,7.605
1522,34,90,-80,39,1,2,-2,7,7.61
1523,6,-9,79,-34,-23,-8,-3,0,7.615
1524,12,9,29,39,5,-6,2,9,7.62
1525,9,-57,-65,-11,9,2,-9,-20,7.625
1526,-23,-19,45,-11,-12,0,4,1,7.63
1527,4,-27,-22,-10,-9,1,2,6,7.635
1528,-13,25,-31,22,-6,4,1,-24,7.640000000000001
1529,26,45,32,29,15,-3,-6,20,7.6450000000000005
1530,30,-79,2,-8,-14,-3,-6,-2,7.65
1531,34,98,26,32,4,9,15,9,7.655
1532,-58,-21,-34,-35,3,-6,-15,-13,7.66
1533,1,89,-13,7,8,4,8,7,7.665
1534,-68,-59,42,-4,6,5,3,0,7.67
1535,69,61,42,-43,-21,-5,-7,4,7.675
1536,-63,-73,-34,-30,-1,3,0,0,7.68
1537,0,-52,-2,48,45,7,3,8,7.6850000000000005
1538,57,80,-59,48,-2,0,-4,4,7.69
1539,-5,-21,14,90,-3,-3,8,4,7.695
1540,-21,13,-42,-65,28,5,8,12,7.7
1541,-11,8,37,-38,-22,-3,-6,-24,7.705
1542,51,-8,29,-7,5,3,6,0,7.71
1543,-9,-72,-98,50,6,-1,-11,5,7.715
1544,65,26,47,-7,-26,-9,0,17,7.72
1545,-8,57,14,34,17,5,4,-2,7.7250000000000005
1546,-59,-38,-13,-77,-13,-7,-6,-16,7.73
1547,47,-87,-46,-46,-9,-1,3,7,7.735
1548,-7,21,12,41,14,-1,1,-4,7.74
1549,13,31,-6,-37,-4,-1,3,4,7.745
1550,24,-6,14,46,-1,0,-8,-6,7.75
1551,3,23,48,-26,11,-3,-9,-11,7.755
1552,15,5,-38,2,-2,2,11,12,7.76
1553,29,24,14,11,-1,-5,-5,6,7.765000000000001
1554,8,13,42,9,-6,0,0,0,7.7700000000000005
1555,-103,19,-65,-38,-25,-7,-5,-4,7.775
1556,35,4,2,-38,-8,-1,-2,-15,7.78
1557,-2,-109,-15,4,-14,-4,1,13,7.785
1558,-66,31,65,10,8,-5,-9,-15,7.79
1559,11,29,2,27,24,7,-8,-10,7.795
1560,-25,38,62,-2,-13,2,-1,-2,7.8
1561,-10,-43,-32,-24,-19,-7,3,0,7.805000000000001
1562,-46,-10,13,33,17,3,-26,-29,7.8100000000000005
1563,-24,-28,2,26,-7,-8,2,23,7.815
1564,-12,-2,-15,-28,13,0,-1,1,7.82
1565,-11,7,-5,-18,-18,-5,-2,-5,7.825
1566,85,56,3,45,23,8,15,16,7.83
1567,-38,-10,-34,4,-4,-10,-9,-17,7.835
1568,8,-32,-27,27,-15,-8,-7,-10,7.84
1569,-89,-10,16,-46,-7,6,8,-8,7.845
1570,58,6,-27,-51,16,1,9,34,7.8500000000000005
1571,15,78,18,10,-10,-4,-8,-21,7.855
1572,5,21,-59,-11,-17,-5,3,12,7.86
1573,-48,-22,3,4,7,3,-9,-24,7.865
1574,-15,-44,8,-7,-14,3,8,8,7.87
1575,-27,-76,-63,-7,4,1,3,2,7.875
1576,9,10,37,-15,0,-2,-11,-9,7.88
1577,65,5,6,-12,-3,0,3,15,7.885
1578,-40,-26,-11,-55,-20,-1,-5,-7,7.890000000000001
1579,15,-16,61,39,25,3,3,-2,7.8950000000000005
1580,4,-2,-57,33,-3,1,5,1,7.9
1581,28,4,-11,34,21,0,-4,-3,7.905
1582,-19,-29,-15,-7,-14,-3,0,-1,7.91
1583,26,41,-12,-98,4,4,-2,-17,7.915
1584,-19,-28,-20,48,3,-2,14,24,7.92
1585,20,-34,15,9,2,1,-11,8,7.925
1586,37,30,-27,-18,-7,-1,-4,-10,7.930000000000001
1587,-78,-10,33,-8,1,0,1,-1,7.9350000000000005
1588,42,23,50,-4,-1,4,1,8,7.94
1589,27,44,-43,8,3,-5,3,0,7.945
1590,-77,-56,30,-13,-17,-5,-4,0,7.95
1591,61,-5,5,-9,-7,3,4,-5,7.955
1592,-46,-25,1,-2,5,3,-9,-19,7.96
1593,39,17,-23,-30,3,-1,8,14,7.965
1594,-1,-7,-6,80,-2,-5,-3,-14,7.97
1595,-2,-15,48,-18,-3,0,0,0,7.9750000000000005
1596,-20,8,35,18,9,-3,-7,9,7.98
1597,51,-79,0,-17,-17,-4,-2,-1,7.985
1598,-32,65,3,-15,19,-1,1,-5,7.99
1599,-8,9,-4,35,-2,2,9,11,7.995
1600,16,-29,-13,-10,3,4,1,1,8.0
1601,5,71,58,59,5,0,0,-2,8.005
1602,-31,-38,-86,-57,-40,-7,-2,-12,8.01
1603,45,4,23,18,35,4,7,10,8.015
1604,10,16,-6,-24,-8,-3,-9,-15,8.02
1605,11,2,-8,-21,-1,-1,0,-4,8.025
1606,15,28,46,24,7,-2,-1,10,8.03
1607,13,-17,-36,32,0,-1,0,-1,8.035
1608,-43,-4,-39,-39,-13,-2,-11,-4,8.040000000000001
1609,21,6,-16,15,16,2,-5,-30,8.045
1610,-19,9,6,-5,1,-8,-5,18,8.05
1611,21,-33,-30,-55,-22,-3,-1,-1,8.055
1612,7,-23,14,1,10,-3,3,0,8.06
1613,-34,-3,-41,17,-3,2,0,-7,8.065
1614,-7,11,-25,-6,1,2,-1,-4,8.07
1615,-10,10,58,-9,-5,-2,0,-1,8.075
1616,17,3,7,3,-8,-3,2,1,8.08
1617,-53,-4,-21,12,3,-1,-2,-4,8.085
1618,7,-5,65,-9,4,2,2,-16,8.09
1619,-15,-13,-69,-21,-12,-5,-12,2,8.095
1620,-82,5,25,12,-2,-3,4,-19,8.1
1621,44,29,21,19,8,-4,-4,27,8.105
1622,57,-12,-24,-17,-3,-13,-19,65,8.11
1623,-75,-23,13,6,-4,24,42,-74,8.115
1624,-10,41,33,-11,4,-37,-5,19,8.120000000000001
1625,13,-11,-65,11,4,24,-31,-33,8.125
1626,-1,5,59,22,-5,7,-52,-65,8.13
1627,55,-5,-97,-20,0,-2,27,58,8.135
1628,-62,5,-8,-11,-4,41,5,0,8.14
1629,35,67,61,-21,-1,-23,1,22,8.145
1630,-35,-2,-13,-1,5,-6,-6,7,8.15
1631,69,-18,56,96,2,-14,-43,-24,8.155
1632,20,1,-23,-26,-12,-15,10,-21,8.16
1633,-52,-26,63,-3,6,5,19,5,8.165000000000001
1634,-6,-73,-119,-40,-10,0,8,12,8.17
1635,-47,-49,20,-22,1,-4,-6,2,8.175
1636,55,-41,-29,34,1,-8,1,25,8.18
1637,-34,-19,56,-21,-6,10,-8,-12,8.185
1638,17,21,-22,8,2,2,18,-16,8.19
1639,-38,-14,7,-6,-4,-7,-14,-12,8.195
1640,38,10,24,-12,-3,-19,-22,9,8.2
1641,24,13,110,3,2,-6,42,-13,8.205
1642,63,14,-17,-11,4,27,-26,55,8.21
1643,19,31,16,0,2,23,19,13,8.215
1644,53,22,-67,17,1,19,12,-35,8.22
1645,-39,12,-76,-27,-7,-26,3,4,8.225
1646,-33,23,61,22,1,-14,-16,-47,8.23
1647,12,30,-6,-3,4,4,-9,-42,8.235
1648,-52,0,23,-29,-6,8,2,62,8.24
1649,1,-14,-21,31,4,-6,-7,12,8.245000000000001
1650,46,6,-28,-38,-5,7,21,16,8.25
1651,-2,14,20,0,-2,-12,-13,-5,8.255
1652,56,-9,5,9,-3,-4,-1,-19,8.26
1653,-23,-21,36,15,-3,5,-7,2,8.265
1654,32,0,77,27,6,-2,14,9,8.27
1655,-38,-77,-54,-20,-10,-9,-3,13,8.275
1656,-17,-27,21,-39,-2,0,5,-2,8.28
1657,3,21,-66,15,2,6,-26,-6,8.285
1658,-44,13,55,-5,-4,-6,26,17,8.290000000000001
1659,-32,41,-40,-23,-3,-1,1,27,8.295
1660,56,10,-9,26,-1,12,-4,-19,8.3
1661,14,37,-68,1,6,1,-3,6,8.305
1662,-49,39,-10,12,1,-3,9,-24,8.31
1663,11,75,98,25,5,-3,-4,10,8.315
1664,-29,106,53,-8,-3,-7,-4,9,8.32
1665,-28,74,27,8,-2,1,4,-1,8.325
1666,-24,-43,-4,-3,-1,0,5,-13,8.33
1667,41,-30,31,3,5,2,-3,3,8.335
1668,-1,-34,-24,12,1,2,3,11,8.34
1669,43,4,-6,2,-2,-2,0,-8,8.345
1670,5,59,-16,-12,-4,-2,-2,-19,8.35
1671,27,51,-20,-31,-6,-3,-5,5,8.355
1672,-7,-9,-4,8,-1,-1,-3,-8,8.36
1673,-7,-43,0,-2,-6,-3,-1,1,8.365
1674,15,-42,1,-1,-4,1,3,6,8.370000000000001
1675,-19,-26,-32,-9,-2,1,-1,3,8.375
1676,24,-35,-21,-15,1,0,2,-3,8.38
1677,-26,-52,20,16,-2,1,0,2,8.385
1678,20,-45,-47,0,-4,1,3,-10,8.39
1679,-2,-45,-3,-8,-3,-4,2,0,8.395
1680,-6,-17,-3,20,4,-3,-2,-6,8.4
1681,-2,-29,-89,-11,-2,0,-4,1,8.405
1682,-17,-6,-110,9,-2,-2,1,-4,8.41
1683,0,10,-104,16,-1,-4,0,4,8.415000000000001
1684,15,1,69,-5,-1,0,1,2,8.42
1685,-17,-27,127,1,2,-2,-1,1,8.425
1686,-10,3,127,-1,-1,0,-2,-4,8.43
1687,3,-5,60,11,0,0,-3,3,8.435
1688,0,28,29,5,1,0,-2,-4,8.44
1689,7,1,-11,1,-6,3,1,0,8.445
1690,-13,-31,-20,3,6,-4,-3,-5,8.45
1691,5,3,-20,-3,-2,-2,-2,0,8.455
1692,-4,-9,-30,2,0,-2,-1,-2,8.46
1693,-9,12,-3,-3,-3,0,1,0,8.465
1694,3,4,-32,-15,-2,-2,1,1,8.47
1695,-1,-1,8,1,1,1,2,1,8.475
1696,-1,2,-11,5,0,1,-2,-1,8.48
1697,4,-10,-24,0,-1,-1,2,-3,8.485
1698,-10,-6,-5,0,-2,-1,3,-11,8.49
1699,-6,-11,3,-8,-2,-4,-8,27,8.495000000000001
1700,-1,-12,-25,0,-4,-2,-6,-4,8.5
1701,1,2,-25,-5,0,1,-2,9,8.505
1702,0,0,15,-5,-1,-3,4,-14,8.51
1703,-7,23,18,-1,-1,-4,-6,-5,8.515
1704,-14,6,-2,-4,0,5,12,1,8.52
1705,-4,-2,-10,5,2,-4,0,-1,8.525
1706,1,5,7,5,-1,2,5,3,8.53
1707,1,2,7,-2,-2,-1,1,-8,8.535
1708,-11,-7,-5,-2,-1,-4,-6,-1,8.540000000000001
1709,5,-7,-2,-3,0,0,-2,-8,8.545
1710,9,6,-13,-12,-2,-2,-5,5,8.55
1711,12,4,12,15,-2,-2,1,-6,8.555
1712,-4,0,-6,-6,0,1,0,2,8.56
1713,0,1,1,5,1,-2,1,1,8.565
1714,-3,3,1,7,0,-2,-3,2,8.57
1715,10,6,3,4,2,1,-1,0,8.575000000000001
1716,4,-1,-11,-11,-1,-2,-1,-1,8.58
1717,-28,3,4,-4,2,0,-2,0,8.585
1718,33,5,-5,-4,0,1,-3,-3,8.59
1719,-7,-23,1,1,-3,0,3,-7,8.595
1720,1,-2,-7,8,-2,0,-1,-3,8.6
1721,10,-4,-1,-3,2,0,-3,-1,8.605
1722,-17,-1,-2,-1,-3,0,-3,3,8.61
1723,-21,4,7,-7,-2,1,1,4,8.615
1724,36,6,8,19,-1,-2,-4,-3,8.620000000000001
1725,-4,-9,-16,-29,-3,-1,-3,-15,8.625
1726,-8,-3,5,-2,1,0,-1,22,8.63
1727,9,5,-3,1,2,0,-2,-2,8.635
1728,-24,-2,0,1,2,-3,2,2,8.64
1729,4,5,6,9,-3,1,-1,-4,8.645
1730,-5,4,1,0,-1,2,0,-3,8.65
1731,4,-2,-8,-8,-1,-2,1,-4,8.655
1732,-2,-4,2,3,0,0,-2,3,8.66
1733,11,-4,5,0,0,-3,1,0,8.665000000000001
1734,-18,-6,-16,-7,-3,-1,-1,-8,8.67
1735,-6,3,8,5,3,0,-3,0,8.675
1736,4,2,3,-5,0,-1,0,-5,8.68
1737,-1,0,-7,12,-2,-1,1,5,8.685
1738,1,3,-14,-28,-1,-3,2,0,8.69
1739,2,-3,9,9,1,1,0,-8,8.695
1740,-3,-7,7,-1,1,0,-2,-1,8.700000000000001
1741,3,7,11,8,0,0,-2,1,8.705
1742,-4,0,4,-5,0,-1,-2,1,8.71
1743,-3,1,-15,-9,-3,1,0,0,8.715
1744,1,-1,-3,-2,-2,0,-3,0,8.72
1745,-7,-4,-5,2,-3,1,-2,1,8.725
1746,2,0,1,7,-1,-2,1,-6,8.73
1747,1,1,10,-4,-6,-1,-2,1,8.735
1748,3,-3,-5,2,7,0,0,-4,8.74
1749,-15,0,-1,4,3,-1,4,1,8.745000000000001
1750,20,2,2,3,2,-1,0,-10,8.75
1751,8,-9,-12,-5,-4,1,-3,15,8.755
1752,0,-6,-23,-7,-6,0,-2,-1,8.76
1753,2,2,4,-2,0,-2,-2,-2,8.765
1754,-4,-2,0,8,0,0,-3,5,8.77
1755,-2,4,-8,0,2,-2,-2,-7,8.775
1756,0,4,9,-1,-3,-2,2,-3,8.78
1757,-3,-1,5,-3,-3,-3,-1,3,8.785
1758,0,-3,0,3,-1,-1,0,-7,8.790000000000001
1759,21,4,-2,-16,-2,-1,1,-6,8.795
1760,-17,-6,2,9,-2,-2,-1,3,8.8
1761,0,1,7,-1,-2,-3,-2,-3,8.805
1762,-6,3,6,-6,-2,-3,-1,1,8.81
1763,-3,4,-11,-3,-1,0,-2,-3,8.815
1764,8,0,-9,-5,-1,-1,-1,2,8.82
1765,-2,-3,-9,-2,-1,-1,0,-1,8.825000000000001
1766,1,-1,1,3,-2,0,-1,2,8.83
1767,-8,3,4,0,1,-1,0,-3,8.835
1768,-1,-1,0,-1,1,2,-2,-1,8.84
1769,1,3,7,2,-1,-1,-3,-2,8.845
1770,-12,-6,-3,-1,0,-2,1,-1,8.85
1771,6,-1,5,6,2,-2,0,-6,8.855
1772,-3,1,0,-7,-6,-5,0,1,8.86
1773,5,1,1,-4,6,1,0,1,8.865
1774,4,1,-2,5,-1,1,0,3,8.870000000000001
1775,-17,-5,1,1,2,4,0,-4,8.875
1776,15,0,1,6,1,0,-3,5,8.88
1777,1,-1,-6,0,-1,0,-1,1,8.885
1778,-9,-1,-2,3,-1,-1,-2,0,8.89
1779,-3,3,5,-2,1,-2,1,1,8.895
1780,-8,4,1,-3,0,-4,1,-4,8.9
1781,13,-4,-8,-9,-3,-2,1,-1,8.905
1782,-9,-2,3,11,1,-3,-3,-1,8.91
1783,4,-6,-6,-1,-1,1,-1,1,8.915000000000001
1784,4,0,0,-4,2,0,-2,-1,8.92
1785,-3,-3,-4,-3,-3,-1,-2,-1,8.925
1786,2,-6,-1,-8,-2,-2,-1,-3,8.93
1787,-2,4,2,-4,-4,2,0,0,8.935
1788,-6,-9,-15,-3,0,-3,-1,-3,8.94
1789,-6,2,10,2,-2,-1,0,-6,8.945
1790,-3,-2,-9,-2,-2,1,-4,1,8.950000000000001
1791,-6,4,-6,-11,-2,0,2,1,8.955
1792,2,-4,15,12,-2,2,-2,-1,8.96
1793,-1,-3,0,0,-2,-1,-1,1,8.965
1794,5,2,-6,-6,0,-1,-3,-3,8.97
1795,-2,-6,-6,-4,-2,-2,-4,-1,8.975
1796,2,6,5,3,-3,1,-2,-1,8.98
1797,-10,1,0,-2,5,-1,0,0,8.985
1798,31,5,1,5,-1,-1,1,-4,8.99
1799,-5,-5,-2,1,0,-3,0,2,8.995000000000001
1800,8,0,3,-5,-2,0,1,-2,9.0
1801,-4,2,0,3,-2,2,1,3,9.005
1802,-5,0,-3,-7,-1,0,2,1,9.01
1803,-5,-2,1,2,0,1,-2,-4,9.015
1804,-1,-3,-5,-8,0,-3,-2,-2,9.02
1805,2,3,-3,3,-3,-1,-1,0,9.025
1806,-4,-4,-5,-11,-1,-2,1,-18,9.03
1807,0,0,3,5,-2,-3,0,6,9.035
1808,-9,-3,-6,-8,-1,-1,-1,-5,9.040000000000001
1809,3,-3,1,-1,-1,-1,-3,5,9.045
1810,-4,-6,1,6,-1,-2,-1,-5,9.05
1811,-5,-4,2,4,0,-1,-1,-3,9.055
1812,9,4,-1,-2,0,0,1,0,9.06
1813,-15,-1,-1,-4,-3,-1,-3,-6,9.065
1814,-3,1,-10,1,-3,-1,-2,6,9.07
1815,-2,2,-1,0,0,-3,0,-1,9.075000000000001
1816,-2,2,2,-1,1,0,2,3,9.08
1817,4,-5,-2,-2,-2,0,0,-3,9.085
1818,-2,2,3,-5,-4,1,-1,5,9.09
1819,5,1,8,11,3,-2,-4,-3,9.095
1820,-7,3,-2,2,2,-3,0,-4,9.1
1821,10,-1,-4,2,0,-2,-1,0,9.105
1822,-14,3,5,5,0,-3,-2,3,9.11
1823,31,-6,-2,-15,-7,-1,1,-6,9.115
1824,-2,-3,-13,-8,-2,2,-2,1,9.120000000000001
1825,-2,-1,10,7,0,-1,-1,-3,9.125
1826,2,-3,-2,1,0,-1,-1,2,9.13
1827,-11,0,-4,-4,-2,0,0,-4,9.135
1828,-3,-3,2,-4,-2,0,0,2,9.14
1829,3,0,-10,-4,-2,-1,2,4,9.145
1830,2,-12,7,2,2,0,-2,2,9.15
1831,-9,0,-5,-1,-3,-1,0,-2,9.155
1832,-6,-1,0,-3,-1,-2,-4,-2,9.16
1833,4,1,-2,-1,-1,-2,-1,-3,9.165000000000001
1834,0,3,4,0,2,-2,-1,1,9.17
1835,-4,-2,0,1,1,1,-3,2,9.175
1836,5,3,2,-1,-8,-1,-1,0,9.18
1837,-7,-3,-5,0,5,-1,0,-5,9.185
1838,4,-1,0,3,0,1,0,-2,9.19
1839,-2,4,0,-10,-3,0,0,4,9.195
1840,-3,0,-14,12,0,-3,-1,-1,9.200000000000001
1841,-3,-4,6,-3,-3,0,-4,0,9.205
1842,0,0,-3,3,-2,-2,0,1,9.21
1843,-8,-1,-2,-6,0,2,2,-2,9.215
1844,2,3,6,1,1,1,2,3,9.22
1845,-1,-4,-5,-2,-2,-3,3,1,9.225
1846,1,0,0,2,1,1,-1,1,9.23
1847,-4,1,0,-2,-3,-2,-2,-1,9.235
1848,1,-4,0,-2,2,1,-1,-4,9.24
1849,-1,-1,-3,-2,0,1,-3,-6,9.245000000000001
1850,2,2,0,-3,-3,-1,2,-9,9.25
1851,-21,-2,0,5,0,-2,-3,28,9.255
1852,-11,-2,-3,-7,0,-1,-1,-1,9.26
1853,10,2,0,-1,-3,0,-1,1,9.265
1854,-17,-5,3,-5,-1,1,0,0,9.27
1855,23,2,2,7,-1,0,-1,-14,9.275
1856,5,-1,0,0,0,-2,-1,4,9.28
1857,-3,1,-1,-2,-2,-1,0,4,9.285
1858,-4,3,0,-6,-2,-2,-1,0,9.290000000000001
1859,-2,-8,-2,1,2,-1,0,-5,9.295
1860,-1,0,-1,4,1,0,-3,-3,9.3
1861,1,1,7,-7,-6,1,0,-3,9.305
1862,-2,-1,-2,6,7,2,-2,3,9.31
1863,-1,-5,0,5,0,-1,1,-3,9.315
1864,7,6,-3,-6,-2,-1,1,-2,9.32
1865,-10,-4,-1,2,0,-1,0,3,9.325000000000001
1866,-5,10,7,7,-2,-1,-1,-3,9.33
1867,1,-6,2,-1,-2,-3,-1,0,9.335
1868,-4,-5,0,-5,-1,-4,-1,-6,9.34
1869,-1,-3,-2,0,-2,-2,-2,-5,9.345
1870,0,0,-5,-9,-1,1,2,1,9.35
1871,-2,-1,-4,2,1,0,0,-5,9.355
1872,-6,-4,-1,-1,-4,-1,-2,0,9.36
1873,6,0,-5,-1,3,-1,1,1,9.365
1874,4,-3,0,-3,-3,-1,-3,0,9.370000000000001
1875,-2,0,-1,1,-2,-1,-1,-2,9.375
1876,7,1,6,-2,-1,-1,1,-1,9.38
1877,-8,-1,-2,-1,1,0,-1,-2,9.385
1878,-3,-3,0,5,0,-1,1,-4,9.39
1879,1,4,-1,-4,-3,0,0,1,9.395
1880,-3,0,-3,-3,-6,0,-1,-1,9.4
1881,2,-1,5,6,6,2,-1,-1,9.405
1882,4,-4,-4,-3,-1,2,0,3,9.41
1883,-3,-1,1,1,0,-2,-1,-3,9.415000000000001
1884,1,1,-2,-1,1,-3,-1,-2,9.42
1885,-2,-2,-3,-3,-4,-2,-2,0,9.425
1886,0,-3,-8,-10,-3,-4,-3,2,9.43
1887,0,-3,-5,0,0,-2,2,0,9.435
1888,-3,-2,9,2,-1,0,-1,-1,9.44
1889,7,1,-3,2,-2,-3,0,-1,9.445
1890,-15,0,-3,4,0,-1,-1,-6,9.450000000000001
1891,4,4,-3,-13,-2,1,-2,0,9.455
1892,-12,2,3,1,0,-1,-1,2,9.46
1893,26,1,-5,1,2,-1,-2,-3,9.465
1894,9,-4,-1,-5,-3,-3,-1,1,9.47
1895,10,3,-2,7,-1,0,-1,-3,9.475
1896,-3,-2,3,2,1,1,0,-5,9.48
1897,-11,-3,-3,-2,-3,-1,0,-1,9.485
1898,15,-3,-3,0,0,-1,1,-14,9.49
1899,-2,2,1,2,0,-1,-1,3,9.495000000000001
1900,0,-1,-7,-3,-3,1,-1,-1,9.5
1901,-4,-3,-3,-6,-3,1,0,3,9.505
1902,0,2,10,10,1,-2,-1,-3,9.51
1903,-18,-2,1,0,0,-3,-1,0,9.515
1904,-5,0,-2,3,2,-2,-1,-1,9.52
1905,-7,-1,-2,-7,-3,-3,-2,-2,9.525
1906,-1,1,-4,-8,0,2,1,5,9.53
1907,0,-2,0,5,2,0,-2,-3,9.535
1908,-1,-3,2,-10,-3,-3,0,0,9.540000000000001
1909,-3,-2,0,1,-2,-2,-1,-3,9.545
1910,-4,1,-3,-2,-3,2,0,5,9.55
1911,-9,3,3,-3,-1,-3,1,2,9.555
1912,10,-4,-8,4,0,2,-2,-6,9.56
1913,-4,-2,1,-1,0,0,-1,-1,9.565
1914,15,-6,2,4,-1,-2,0,4,9.57
1915,-6,-3,0,0,-1,0,-1,-2,9.575000000000001
1916,0,1,0,-2,-1,0,1,4,9.58
1917,-2,-1,-3,-5,-2,-3,-2,2,9.585
1918,-9,-2,-4,0,-2,0,-1,2,9.59
1919,3,0,2,-1,1,0,0,-1,9.595
1920,8,-2,-3,-4,3,1,1,3,9.6
1921,-13,0,5,1,-1,0,1,-4,9.605
1922,-1,-4,-6,-2,-5,0,-2,-3,9.61
1923,0,-9,-2,0,0,-2,-2,-6,9.615
1924,1,5,-5,-2,0,0,-3,-2,9.620000000000001
1925,-5,-5,0,1,1,-2,-1,0,9.625
1926,-3,0,5,1,-2,-2,-2,1,9.63
1927,6,1,-2,-1,2,2,-1,4,9.635
1928,0,2,-1,1,1,-2,-2,-3,9.64
1929,0,-2,-2,6,0,2,3,1,9.645
1930,-9,4,2,-8,-1,-4,-1,-1,9.65
1931,-2,-1,-2,-3,-1,-2,2,-3,9.655
1932,-1,-2,-6,5,0,-1,1,-4,9.66
1933,2,0,1,-9,-2,0,0,-1,9.665000000000001
1934,1,1,3,-2,0,0,0,8,9.67
1935,-6,6,-2,-4,-2,1,-1,-2,9.675
1936,1,-3,-5,-2,-2,-1,0,0,9.68
1937,5,-6,2,1,0,-2,-4,5,9.685
1938,-6,-1,2,1,2,-1,-2,-5,9.69
1939,12,-5,-5,-6,-5,-1,-1,-3,9.695
1940,-13,1,2,4,4,1,-1,1,9.700000000000001
1941,5,2,-1,1,0,1,-2,-3,9.705
1942,0,0,-1,-3,0,0,0,-1,9.71
1943,-4,0,-1,-2,-2,-2,0,1,9.715
1944,10,-1,0,3,-3,-3,1,-4,9.72
1945,-5,-2,-4,-1,-2,-4,-3,-5,9.725
1946,1,-3,-5,-1,1,-1,-1,-2,9.73
1947,0,0,3,0,-1,-1,3,1,9.735
1948,-7,-1,6,1,2,-2,1,-1,9.74
1949,-2,-2,-3,-1,0,-1,1,2,9.745000000000001
1950,-6,3,-2,-2,1,2,3,4,9.75
1951,17,0,-3,0,-2,-1,-3,-6,9.755
1952,-3,-6,-10,-5,-2,-2,0,1,9.76
1953,6,3,12,15,0,-1,-3,2,9.765
1954,-5,-2,3,-4,-3,-2,-4,-3,9.77
1955,-4,-1,-2,-3,-1,-1,-1,1,9.775
1956,-3,-5,-3,-3,-3,-1,-2,2,9.78
1957,-1,-3,-9,-9,-3,0,-1,-3,9.785
1958,-7,-1,4,4,2,-1,1,-5,9.790000000000001
1959,-1,-3,2,5,0,0,-1,3,9.795
1960,1,-1,-6,-7,-4,-3,0,-2,9.8
1961,4,4,-3,-1,-2,-1,0,0,9.805
1962,2,-3,0,-1,-3,-2,-2,-4,9.81
1963,-2,1,-2,-1,1,-1,0,-2,9.815
1964,0,-4,1,4,0,1,-1,1,9.82
1965,-5,-1,-1,-5,-7,0,-2,-2,9.825000000000001
1966,-6,1,-4,-4,5,-3,1,4,9.83
1967,-4,-2,1,-4,-3,0,0,-12,9.835
1968,-8,-2,1,-1,-3,1,-4,29,9.84
1969,2,3,-1,-3,-1,-3,1,-3,9.845
1970,6,1,-1,-6,-3,1,-1,0,9.85
1971,-7,0,-7,-2,0,-1,-2,1,9.855
1972,1,2,2,-2,0,-1,-1,-8,9.86
1973,-1,7,0,3,0,-2,-1,-2,9.865
1974,-4,-5,-6,2,0,0,0,2,9.870000000000001
1975,4,-3,3,11,3,0,1,-1,9.875
1976,-8,0,4,-9,-4,-1,0,-6,9.88
1977,-2,-2,0,2,3,1,-1,-1,9.885
1978,3,-1,1,-2,0,0,-3,-1,9.89
1979,2,3,-1,-2,-3,1,-1,1,9.895
1980,5,-2,-3,4,-1,-1,0,-5,9.9
1981,-2,-1,-3,0,-2,-2,0,0,9.905
1982,2,-3,1,1,0,-1,1,-3,9.91
1983,1,-2,-7,-6,-1,-2,0,-1,9.915000000000001
1984,4,-1,7,6,1,-2,-1,-5,9.92
1985,-7,-7,-3,-4,0,0,1,1,9.925
1986,-1,0,-9,-1,-8,-2,0,-1,9.93
1987,0,-4,4,1,3,1,-1,-2,9.935
1988,-2,2,4,4,-1,1,-1,-4,9.94
1989,3,1,0,2,0,0,-2,1,9.945
1990,-3,-2,-1,-1,-1,0,1,1,9.950000000000001
1991,-6,-6,-7,-7,-3,-1,0,2,9.955
1992,2,-2,-1,-3,-3,-1,-1,-2,9.96
1993,-4,0,-2,-3,1,0,0,0,9.965
1994,-3,3,-3,5,-1,0,-2,-1,9.97
1995,3,0,3,-8,-1,-2,0,-5,9.975
1996,0,0,-3,-1,-1,0,0,10,9.98
1997,11,-4,0,1,-2,-1,-1,-3,9.985
1998,0,0,-2,-5,0,0,1,-3,9.99
1999,1,0,-1,5,-2,-4,-3,4,9.995000000000001
2000,-1,-1,-1,-2,0,-1,2,-6,10.0
2001,-3,-1,1,2,-1,1,2,0,10.005
2002,5,-4,4,1,1,2,-3,1,10.01
2003,-4,2,6,4,-3,-1,-4,-8,10.015
2004,5,0,-2,-3,0,0,-1,-1,10.02
2005,-9,-4,-6,-6,-3,-2,-2,-4,10.025
2006,3,1,1,-6,-3,0,1,-2,10.03
2007,-8,-2,-2,-1,3,-1,-2,2,10.035
2008,-7,0,-10,0,1,-1,-1,-2,10.040000000000001
2009,-7,1,6,4,-1,-2,-1,-1,10.045
2010,3,-2,1,-3,-3,-1,-1,-4,10.05
2011,-2,6,-5,-8,-3,1,0,4,10.055
2012,5,0,3,9,0,0,0,-3,10.06
2013,-7,-4,1,-7,-1,-3,0,-4,10.065
2014,-3,6,-3,2,2,-2,-2,-1,10.07
2015,9,-8,3,4,0,-1,-1,4,10.075000000000001
2016,0,-6,3,-3,-1,1,-1,0,10.08
2017,-1,3,-7,-6,1,1,-1,2,10.085
2018,-2,3,1,4,-1,-2,-2,0,10.09
2019,-3,-2,1,-8,-5,-1,1,0,10.095
2020,1,-1,-2,-1,-4,2,-1,-1,10.1
2021,5,2,1,-1,0,0,-1,0,10.105
2022,-7,-2,-3,5,0,-1,-1,0,10.11
2023,4,-2,0,0,-2,0,-2,-2,10.115
2024,-1,-1,0,-5,-3,-5,-1,0,10.120000000000001
2025,2,-1,-2,4,6,2,1,0,10.125
2026,-16,-1,-2,-4,-2,-1,-1,-1,10.13
2027,9,1,-5,0,0,-3,1,-3,10.135
2028,-24,-2,1,0,0,0,0,-14,10.14
2029,-5,-1,1,10,-3,-1,-4,29,10.145
2030,10,-2,-5,-8,0,-2,-2,-1,10.15
2031,-11,-2,-3,-3,-1,-1,-1,2,10.155
2032,4,3,-1,-1,-1,-1,0,-1,10.16
2033,-2,-9,-7,-4,-3,-3,2,-10,10.165000000000001
2034,4,-4,-5,0,-2,0,0,-1,10.17
2035,-13,2,1,1,-1,-1,0,-2,10.175
2036,1,-7,-12,-4,1,-1,-1,1,10.18
2037,7,1,-2,-1,-1,0,0,-3,10.185
2038,-2,0,5,-1,-2,-2,-2,-1,10.19
2039,0,0,-6,-2,0,-3,-1,-5,10.195
2040,3,5,-5,-10,-5,-1,-2,0,10.200000000000001
2041,0,4,9,2,-3,-1,0,-4,10.205
2042,2,-1,-6,-4,-2,-1,1,0,10.21
2043,-2,3,0,6,2,-2,-1,0,10.215
2044,-8,-10,-3,-5,0,-1,-1,-3,10.22
2045,0,0,-2,-9,-2,-3,-1,1,10.225
2046,3,-3,-1,-3,-3,-2,-1,-1,10.23
2047,-8,1,5,2,3,-1,-2,1,10.235
2048,1,7,2,7,1,0,-1,-1,10.24
2049,18,0,-2,-1,1,2,-1,-10,10.245000000000001
2050,-13,-6,1,2,2,0,-1,0,10.25
2051,-2,-3,2,0,-3,1,-1,-2,10.255
2052,-6,6,8,3,1,0,1,6,10.26
2053,-6,-1,-9,-1,-3,0,-2,-1,10.265
2054,5,-4,-3,0,1,1,-1,0,10.27
2055,-1,-2,-11,-4,-1,-1,-2,-3,10.275
2056,5,0,6,7,1,1,-2,-1,10.28
2057,-4,3,0,-9,-1,-1,2,-4,10.285
2058,-1,-2,10,6,0,-3,0,-1,10.290000000000001
2059,2,-3,-2,-1,-3,-1,2,-1,10.295
2060,3,-6,0,-1,1,-2,-3,-4,10.3
2061,-2,-1,11,5,-1,-1,-2,4,10.305
2062,-2,-1,-11,-3,-1,0,-2,2,10.31
2063,3,-1,1,0,2,0,0,3,10.315
2064,1,-3,-5,-2,-3,-4,-2,-1,10.32
2065,-2,8,0,-1,-3,-2,0,-2,10.325000000000001
2066,2,2,4,9,6,-1,1,0,10.33
2067,0,2,-4,-9,-3,1,0,-1,10.335
2068,-1,1,-5,5,2,0,0,0,10.34
2069,-1,-2,-2,-7,-3,0,-3,-3,10.345
2070,4,1,-1,4,1,0,-1,0,10.35
2071,-9,-5,-3,-5,0,-1,1,0,10.355
2072,14,-2,-1,-3,-1,0,0,-2,10.36
2073,-2,-5,-9,-1,0,-1,1,4,10.365
2074,-7,4,8,-2,-1,-2,-1,1,10.370000000000001
2075,7,2,5,3,1,0,-5,-3,10.375
2076,-7,-8,0,0,-1,-2,0,2,10.38
2077,0,-10,-6,-3,1,-2,0,-2,10.385
2078,1,3,4,0,-1,0,-1,-1,10.39
2079,1,-5,4,6,0,0,-1,-2,10.395
2080,2,-1,1,2,-2,0,-1,-1,10.4
2081,-5,-1,-8,-4,-5,2,-1,5,10.405
2082,1,-6,3,5,5,-3,-1,0,10.41
2083,-4,0,7,0,-3,1,0,-13,10.415000000000001
2084,9,7,-8,-2,0,0,-3,29,10.42
2085,-22,-2,10,4,1,0,0,-2,10.425
2086,-11,0,-10,-8,-2,-1,-1,-1,10.43
2087,10,5,1,4,-1,0,0,1,10.435
2088,-7,-5,-10,-10,-2,-1,-1,-11,10.44
2089,7,-1,4,3,-3,-2,-2,-1,10.445
2090,-1,6,3,-1,-4,-2,0,3,10.450000000000001
2091,-7,2,-9,-3,2,-2,-1,5,10.455
2092,-12,0,6,-4,-2,0,3,-8,10.46
2093,2,-4,-3,-1,2,-1,-1,-4,10.465
2094,-3,-2,-4,0,-2,1,-2,-9,10.47
2095,16,-3,-3,-6,-3,-2,-3,3,10.475
2096,-3,5,5,0,0,-1,0,-3,10.48
2097,1,-1,-2,-1,1,-2,-3,-2,10.485
2098,2,-9,-7,-6,-4,-1,0,-2,10.49
2099,-8,-6,-7,-3,-7,-1,-1,0,10.495000000000001
2100,2,3,8,1,2,0,0,0,10.5
2101,2,-4,-10,-5,1,0,-1,-3,10.505
2102,2,-4,1,-6,-4,-1,0,1,10.51
2103,-3,0,0,12,2,-1,-1,0,10.515
2104,-2,-3,1,-3,-2,0,0,-5,10.52
2105,2,-3,2,4,-1,-2,0,-3,10.525
2106,0,-1,-5,-5,-2,1,2,-3,10.53
2107,-4,-1,-4,-6,-2,-1,-2,1,10.535
2108,-2,-1,-8,5,-2,-1,-4,-7,10.540000000000001
2109,2,-1,0,1,1,0,-1,0,10.545
2110,7,3,4,0,0,0,-1,-1,10.55
2111,-6,-5,2,-3,-2,-1,-1,-5,10.555
2112,9,-2,-1,0,0,2,-1,2,10.56
2113,-9,-2,4,3,1,-2,0,-3,10.565
2114,1,-1,0,-2,0,-2,1,1,10.57
2115,6,5,0,-3,-3,-1,1,1,10.575000000000001
2116,-11,3,9,7,7,1,0,-17,10.58
2117,13,4,0,1,0,3,-1,15,10.585
2118,0,-10,-3,1,-1,-1,-1,0,10.59
2119,-1,-2,1,-2,2,0,-1,-2,10.595
2120,-1,-2,-4,-2,-2,-3,1,-5,10.6
2121,-7,11,15,-3,-2,-2,-2,-4,10.605
2122,-1,-6,-18,1,-1,0,-1,-1,10.61
2123,-3,8,12,4,-1,0,1,1,10.615
2124,-2,1,-4,-6,-2,0,0,5,10.620000000000001
2125,5,0,-3,-4,1,-1,1,-4,10.625
2126,4,5,4,2,0,-2,-2,7,10.63
2127,-7,-7,-5,-6,-2,-1,1,-7,10.635
2128,3,1,0,-2,-1,-2,-1,3,10.64
2129,-4,-6,-2,0,-3,-2,-1,-5,10.645
2130,0,5,0,-1,0,0,0,-1,10.65
2131,3,-6,-4,1,2,1,-2,1,10.655
2132,-9,-2,-3,-2,-3,-3,-2,6,10.66
2133,3,-4,-5,-10,-6,-2,-2,-4,10.665000000000001
2134,-3,-4,-2,-1,3,0,0,-2,10.67
2135,-4,0,-2,0,0,-1,-1,4,10.675
2136,6,0,-3,-5,-4,-1,-1,-1,10.68
2137,-4,0,-2,6,-1,-2,-3,-6,10.685
2138,-12,-1,6,5,-5,-1,0,-1,10.69
2139,31,0,0,-1,-1,-1,-1,-5,10.695
2140,-9,-2,-1,3,-1,-1,-1,0,10.700000000000001
2141,-4,-1,-5,-3,-4,-1,0,0,10.705
2142,-5,1,-1,-3,-1,0,-3,0,10.71
2143,-1,2,-5,-4,2,0,-1,-2,10.715
2144,1,-1,-5,1,-1,-1,-1,0,10.72
2145,4,3,6,6,3,1,3,-1,10.725
2146,-1,-5,2,-6,-3,0,0,-3,10.73
2147,-8,-4,-12,-4,-2,-4,-2,-3,10.735
2148,6,-1,8,-1,0,-1,1,5,10.74
2149,5,0,-1,1,2,-1,-1,0,10.745000000000001
2150,0,1,-5,0,-5,-2,-2,-2,10.75
2151,-6,1,0,-1,5,3,-1,0,10.755
2152,-1,-7,-7,3,-2,0,-4,-4,10.76
2153,-5,1,-2,1,2,1,-2,1,10.765
2154,1,-2,9,5,-3,0,-1,-4,10.77
2155,0,0,4,2,-2,-3,-1,0,10.775
2156,-2,-3,-1,1,0,-1,-1,-4,10.78
2157,1,-4,-6,-7,-1,-3,1,8,10.785
2158,0,0,-3,-4,0,0,-1,1,10.790000000000001
2159,-26,-1,9,9,2,0,0,-16,10.795
2160,15,0,-13,-5,-2,1,-3,25,10.8
2161,1,-1,-6,3,-4,-1,-2,-4,10.805
2162,4,2,-3,-3,-1,0,1,-1,10.81
2163,-11,-4,1,-2,-2,-2,0,-2,10.815
2164,-2,-4,6,-5,-1,-2,0,-4,10.82
2165,-2,-1,-3,-4,-1,-1,-1,-2,10.825000000000001
2166,-8,3,4,2,1,1,0,1,10.83
2167,36,-2,-10,0,-3,-3,0,7,10.835
2168,-28,6,14,2,1,1,0,-7,10.84
2169,1,-4,0,-1,-3,2,-2,0,10.845
2170,3,-1,-3,-7,-3,0,1,-5,10.85
2171,-1,2,-3,-2,0,0,0,3,10.855
2172,8,-1,-4,0,-3,-3,0,-5,10.86
2173,-2,1,6,-1,2,0,0,-2,10.865
2174,-3,1,0,2,-1,-3,-3,0,10.870000000000001
2175,-7,1,-4,-5,-4,-1,-3,1,10.875
2176,6,4,3,-1,-4,-2,-1,0,10.88
2177,-6,-5,6,2,-2,-2,2,-3,10.885
2178,7,-4,-5,-4,-1,-1,-1,1,10.89
2179,-3,-1,-3,-5,0,-1,1,1,10.895
2180,-2,0,-1,-2,-1,1,0,-7,10.9
2181,0,1,-2,0,-1,2,-1,-4,10.905
2182,-1,3,0,5,1,2,-2,3,10.91
2183,-1,3,4,-2,-1,-2,-2,2,10.915000000000001
2184,-9,-5,-2,-3,2,-3,-1,-7,10.92
2185,19,0,-7,-4,0,-2,0,-2,10.925
2186,-8,-7,-4,-4,-3,-2,-1,-1,10.93
2187,-8,0,-3,1,-2,0,-3,-2,10.935
2188,-1,2,-3,-2,-2,1,1,-1,10.94
2189,6,-2,1,-2,1,-3,-1,1,10.945
2190,-19,-5,4,1,1,0,1,-5,10.950000000000001
2191,-6,0,-4,0,-5,-1,1,15,10.955
2192,10,-5,-8,-5,-1,0,-2,-3,10.96
2193,-2,2,3,6,4,0,-2,-1,10.965
2194,-6,3,2,1,-1,0,-1,5,10.97
2195,-6,-3,1,-3,-1,-1,2,-8,10.975
2196,0,-4,-3,5,-3,-4,0,0,10.98
2197,-3,-4,-2,-4,-3,-1,1,5,10.985
2198,6,-2,0,-5,1,-1,-1,-9,10.99
2199,0,-6,-5,1,0,1,-2,0,10.995000000000001
2200,-2,-4,4,2,2,-2,0,1,11.0
2201,-7,0,-2,-1,0,1,-3,-3,11.005
2202,7,-4,-5,0,-2,-3,-2,1,11.01
2203,-1,1,-3,4,2,-2,0,-2,11.015
2204,1,7,6,-1,0,-2,-1,1,11.02
2205,-7,-4,-8,-4,-3,-1,0,-1,11.025
2206,4,-3,0,-4,1,-3,2,-1,11.03
2207,3,-1,3,-1,0,2,1,-2,11.035
2208,-2,-3,-3,2,0,0,0,-4,11.040000000000001
2209,-5,0,-2,-2,-4,0,-2,-1,11.045
2210,8,4,2,3,-2,-1,1,1,11.05
2211,-10,1,-6,-2,-1,-2,1,-2,11.055
2212,-7,0,-2,-4,-1,0,-2,4,11.06
2213,-1,0,2,2,4,0,-1,2,11.065
2214,7,2,2,1,0,1,-2,2,11.07
2215,7,5,4,-1,-2,-1,-1,-1,11.075000000000001
2216,-1,10,5,3,-2,2,2,0,11.08
2217,2,-19,-7,2,1,-3,-2,-2,11.085
2218,-6,-10,-7,-2,2,0,1,-2,11.09
2219,-1,3,-1,5,1,0,-2,-3,11.095
2220,-3,-8,-4,-8,-2,-2,0,-3,11.1
2221,2,4,4,0,-5,-2,-1,-1,11.105
2222,4,10,-4,0,1,-2,-1,-5,11.11
2223,2,-3,-3,-2,-3,1,-2,2,11.115
2224,7,0,0,5,0,1,0,1,11.120000000000001
2225,-6,-8,-3,-2,-1,0,1,0,11.125
2226,-3,-6,0,3,-3,-2,-2,0,11.13
2227,3,18,1,-3,-1,0,-2,0,11.135
2228,0,-3,1,-4,2,0,-3,-1,11.14
2229,2,-5,2,-2,1,1,1,2,11.145
2230,-3,6,8,-4,-1,0,0,0,11.15
2231,-3,-9,-2,-2,0,-2,1,-2,11.155
2232,1,9,-6,-5,-2,-3,-2,-2,11.16
2233,1,11,1,-1,-5,0,-1,-1,11.165000000000001
2234,8,1,3,2,-1,0,0,0,11.17
2235,-3,-26,0,6,1,2,-3,0,11.175
2236,-5,-4,-5,-1,-1,-2,-3,-4,11.18
2237,-2,1,-2,-7,0,-2,-2,-4,11.185
2238,1,3,-6,3,-3,1,-1,1,11.19
2239,0,3,0,-1,-2,-1,-1,1,11.195
2240,0,0,-3,3,2,2,1,-1,11.200000000000001
2241,-1,12,2,3,-2,-3,-1,-1,11.205
2242,3,-4,-3,-2,1,0,0,1,11.21
2243,-2,-4,-1,0,0,-2,0,-1,11.215
2244,-4,-5,-1,-1,-1,0,-2,-2,11.22
2245,-1,3,-2,2,-3,0,-1,-3,11.225
2246,-3,-5,-2,-4,-1,0,-1,-2,11.23
2247,3,-3,-1,2,0,0,0,-2,11.235
2248,3,0,-3,-4,-1,-3,0,1,11.24
2249,-8,-4,-2,-2,1,-2,-2,-4,11.245000000000001
2250,-5,-1,-2,-3,0,-3,-2,-1,11.25
2251,4,1,-3,-4,-3,-1,1,0,11.255
2252,2,3,-1,1,-4,1,0,2,11.26
2253,5,4,2,-1,-1,1,1,0,11.265
2254,-4,3,-1,0,1,-2,2,39,11.27
2255,0,2,1,-1,-1,0,-1,-36,11.275
2256,-5,-14,-6,0,-2,-2,-1,-12,11.28
2257,13,-6,-1,-1,-1,-1,-3,0,11.285
2258,-15,-1,-3,0,1,0,-3,-12,11.290000000000001
2259,-1,-9,2,-3,-1,-2,0,17,11.295
2260,16,5,5,-3,-6,-3,2,8,11.3
2261,-5,-10,-2,3,1,-2,2,-6,11.305
2262,-13,-24,-3,0,-2,-1,-2,-4,11.31
2263,3,15,-2,-4,-1,0,0,6,11.315
2264,5,11,-2,-3,1,-1,-1,-3,11.32
2265,23,12,-3,-3,-6,-2,-2,4,11.325000000000001
2266,-31,3,-1,-4,0,1,-5,-10,11.33
2267,-13,-39,-7,-2,0,-1,-6,-6,11.335
2268,-13,-22,3,3,-4,0,-1,-3,11.34
2269,-10,3,-3,-1,4,-1,-3,3,11.345
2270,24,-31,1,0,0,2,5,-1,11.35
2271,26,-31,-5,23,-2,-2,-2,1,11.355
2272,12,11,-1,8,1,-1,-1,9,11.36
2273,-14,-21,1,6,2,2,-2,-12,11.365
2274,-10,22,-2,-12,-4,-3,-3,-12,11.370000000000001
2275,-5,40,2,-14,-5,-4,1,7,11.375
2276,-2,-12,0,-17,-6,3,0,4,11.38
2277,-22,8,-1,-7,1,2,6,-2,11.385
2278,18,3,1,32,2,-1,-1,0,11.39
2279,3,8,-4,-62,-2,1,0,2,11.395
2280,13,4,-1,20,6,-2,-1,-2,11.4
2281,11,-14,6,-4,-10,3,2,2,11.405
2282,-23,-30,-2,5,16,5,2,-1,11.41
2283,13,26,5,-19,-13,-4,2,1,11.415000000000001
2284,27,-1,3,-2,21,4,0,-14,11.42
2285,-20,-4,-20,50,7,-3,-1,-2,11.425
2286,10,45,-1,-42,-8,0,1,9,11.43
2287,-21,-52,1,35,3,-1,-3,8,11.435
2288,3,33,-7,-42,-21,-7,-7,0,11.44
2289,-8,31,7,-22,-16,-3,5,2,11.445
2290,-9,-52,-1,16,8,-7,-7,-12,11.450000000000001
2291,0,44,-4,40,11,3,3,3,11.455
2292,8,12,-7,-38,-19,-3,4,22,11.46
2293,-15,-30,-4,-20,13,4,1,-17,11.465
2294,54,57,3,-28,-13,-2,-12,-11,11.47
2295,38,-76,-2,10,0,2,-2,-5,11.475
2296,-16,12,0,35,-2,-5,0,9,11.48
2297,37,26,-7,-17,-7,-4,1,8,11.485
2298,-57,-1,-4,4,-10,0,5,-9,11.49
2299,76,111,11,-2,-1,3,10,16,11.495000000000001
2300,-29,-33,5,-23,0,3,-12,-13,11.5
2301,-16,-75,7,-37,-3,-6,-5,1,11.505
2302,4,98,-25,44,1,-8,8,9,11.51
2303,-75,-35,5,-53,-10,4,-27,-20,11.515
2304,32,12,1,28,-17,-10,-7,15,11.52
2305,17,11,26,28,-5,-2,-2,10,11.525
2306,76,-17,27,-106,-32,3,6,-15,11.53
2307,-77,-11,14,109,60,5,13,30,11.535
2308,31,-82,-36,-28,-10,-4,-3,-14,11.540000000000001
2309,-18,-46,13,-51,-24,3,-5,-4,11.545
2310,2,-20,-28,31,18,2,11,9,11.55
2311,-34,24,4,32,-34,-11,-6,-14,11.555
2312,-11,105,-2,17,-2,5,11,-8,11.56
2313,109,54,-9,-3,32,1,19,41,11.565
2314,-58,-12,1,-4,-3,7,2,-20,11.57
2315,16,11,16,-47,-9,-1,1,-13,11.575000000000001
2316,-2,-32,-24,-17,-8,-3,6,12,11.58
2317,-37,24,-18,43,5,0,4,-29,11.585
2318,8,-64,33,56,25,-2,-14,25,11.59
2319,25,-34,-83,-20,-10,0,5,7,11.595
2320,-85,-20,25,51,29,2,-9,-31,11.6
2321,19,3,29,-30,-36,-1,6,-3,11.605
2322,-16,-48,-42,-14,-24,-10,-10,-8,11.61
2323,24,59,37,-55,14,1,1,6,11.615
2324,-26,-102,7,4,8,1,-8,-17,11.620000000000001
2325,-22,11,14,42,-12,-6,-10,6,11.625
2326,-29,10,2,-10,-17,-4,-11,-12,11.63
2327,88,41,22,44,24,11,18,14,11.635
2328,-72,9,-17,-107,-27,-11,-22,0,11.64
2329,67,-25,38,56,22,-1,-11,-12,11.645
2330,73,95,40,20,-6,-10,-20,18,11.65
2331,-42,24,-5,-26,3,-1,-4,-30,11.655
2332,42,-7,28,-31,16,11,20,20,11.66
2333,-47,-117,1,93,5,0,-2,-8,11.665000000000001
2334,39,109,2,-108,-11,4,8,3,11.67
2335,-30,-72,13,93,6,-11,-5,-6,11.675
2336,-17,76,-45,3,13,2,6,-5,11.68
2337,85,22,2,-54,6,-2,-32,7,11.685
2338,-111,-87,17,27,-9,4,4,-38,11.69
2339,29,-14,-38,-10,-20,-2,-6,52,11.695
2340,53,46,-5,28,13,1,-5,-11,11.700000000000001
2341,-73,67,-17,-12,2,-6,10,-3,11.705
2342,50,-55,8,-31,-6,4,21,13,11.71
2343,-95,-61,-33,3,-4,-4,-16,-7,11.715
2344,4,25,12,35,7,-7,-1,-11,11.72
2345,-7,29,-24,-35,-50,-10,-2,-1,11.725
2346,-52,50,-10,-48,34,8,-8,5,11.73
2347,-25,-45,-57,65,-2,2,6,-31,11.735
2348,68,10,38,29,11,-7,0,26,11.74
2349,-116,-77,-44,-22,3,0,-4,-13,11.745000000000001
2350,36,13,17,7,5,3,6,-10,11.75
2351,13,93,70,-1,-16,-2,1,-4,11.755
2352,-6,-34,-13,-49,-9,1,0,18,11.76
2353,34,16,-16,-1,21,7,8,8,11.765
2354,11,-46,11,-1,-5,-1,5,-43,11.77
2355,-44,63,-23,-49,-13,-6,-4,23,11.775
2356,23,-53,22,71,22,0,-6,-2,11.78
2357,1,99,36,-18,4,3,1,-5,11.785
2358,61,-46,-23,61,8,5,-8,20,11.790000000000001
2359,21,18,5,-75,-39,-5,1,-11,11.795
2360,-54,2,44,89,13,4,5,-35,11.8
2361,-50,-68,-60,-52,-1,-2,-1,35,11.805
2362,-15,66,44,40,-2,-2,-4,1,11.81
2363,52,-13,-73,-101,13,2,3,-32,11.815
2364,19,40,28,-75,-29,-10,-9,24,11.82
2365,-12,-91,-24,96,22,4,2,-30,11.825000000000001
2366,25,65,-8,22,11,3,18,36,11.83
2367,-13,-53,26,-59,-10,-7,-36,-5,11.835
2368,4,3,-16,67,18,11,5,-40,11.84
2369,-6,56,-24,-109,-39,-5,9,21,11.845
2370,-57,-54,-21,93,28,-16,-31,24,11.85
2371,23,-65,3,65,26,8,6,-1,11.855
2372,22,31,-44,-24,-27,-4,-5,-13,11.86
2373,3,15,77,-13,16,5,5,-3,11.865
2374,-12,-41,-53,-22,-18,-5,6,3,11.870000000000001
2375,-14,-13,32,-50,-10,3,16,0,11.875
2376,6,36,-9,18,-4,0,5,7,11.88
2377,-24,77,-50,8,-13,-2,-23,-13,11.885
2378,27,2,-46,-18,34,12,5,5,11.89
2379,-53,-13,-25,33,-1,-18,-13,-7,11.895
2380,-26,-66,92,-37,2,3,4,8,11.9
2381,33,51,-7,44,0,-4,3,10,11.905
2382,3,-13,-16,-29,-12,-1,-4,-8,11.91
2383,-14,22,49,-78,-13,5,8,-7,11.915000000000001
2384,28,-5,-49,81,31,4,-5,2,11.92
2385,-18,-81,32,-11,-11,-4,6,3,11.925
2386,-29,-5,11,-17,-16,-6,-14,-21,11.93
2387,11,23,-4,54,32,8,20,19,11.935
2388,-16,10,6,-22,-38,-7,-6,-11,11.94
2389,76,-53,-16,-85,-7,7,15,1,11.945
2390,10,12,16,5,2,-8,-2,-2,11.950000000000001
2391,24,21,7,16,-5,-5,-7,0,11.955
2392,-20,-13,-44,-30,2,5,8,8,11.96
2393,-19,45,4,-21,-12,-1,-2,-25,11.965
2394,45,33,22,-14,-26,-9,4,-23,11.97
2395,-13,-23,-19,25,11,1,-1,40,11.975
2396,0,23,5,-34,-15,1,-3,7,11.98
2397,9,-14,34,58,10,0,-3,-13,11.985
2398,-23,-1,-28,-40,-11,3,16,10,11.99
2399,42,83,9,-48,-28,-10,-20,-12,11.995000000000001
2400,-69,-24,-2,67,31,2,-4,-4,12.0
2401,3,-22,-59,-69,9,-9,-2,-7,12.005
2402,-3,-2,7,-4,-5,2,-20,14,12.01
2403,21,-2,-1,-67,7,3,4,-7,12.015
2404,-59,9,-8,19,-27,-5,-2,12,12.02
2405,13,-5,83,45,0,2,-3,16,12.025
2406,-20,3,-22,-30,-5,1,14,2,12.030000000000001
2407,32,-48,4,-36,22,5,4,-35,12.035
2408,-39,-47,11,-45,-14,-2,2,23,12.040000000000001
2409,9,-24,44,-5,-16,-1,29,-26,12.045
2410,21,67,11,-45,0,-2,-33,40,12.05
2411,-11,5,14,45,-24,-10,-4,-7,12.055
2412,13,-8,-10,8,11,1,5,-26,12.06
2413,2,23,-2,4,11,4,10,30,12.065
2414,0,11,8,6,-28,-1,7,0,12.07
2415,-5,-40,6,31,45,8,9,-11,12.075000000000001
2416,30,3,-14,-11,-18,-5,10,-5,12.08
2417,38,68,-15,28,29,3,-12,18,12.085
2418,-7,-32,15,71,6,0,0,-11,12.09
2419,-14,21,-14,47,-17,-3,-22,19,12.095
2420,-16,9,32,-128,-14,0,-3,-16,12.1
2421,-11,36,-32,25,11,3,-11,-10,12.105
2422,-20,-9,-37,5,7,0,6,-20,12.11
2423,6,-42,14,-12,-30,-10,6,-15,12.115
2424,69,44,11,23,40,4,10,47,12.120000000000001
2425,-14,-26,-33,36,26,7,-20,-3,12.125
2426,-30,-4,26,-8,-8,-8,-12,-10,12.13
2427,8,27,-17,13,12,9,8,3,12.135
2428,8,-24,18,-18,-13,-3,-7,-25,12.14
2429,-23,-52,14,-47,-19,-11,2,-3,12.145
2430,14,-38,-42,11,13,6,29,23,12.15
2431,-1,3,32,-3,-5,-1,-17,-9,12.155000000000001
2432,6,32,-39,-6,-1,-4,-3,-11,12.16
2433,-10,14,0,0,-1,-3,-19,18,12.165000000000001
2434,-1,-14,-3,4,-4,1,13,-12,12.17
2435,-27,12,6,-19,-31,-6,1,5,12.175
2436,4,-19,1,-10,17,3,-7,3,12.18
2437,-6,-3,-2,10,-5,-2,6,-11,12.185
2438,-4,1,33,-2,-6,-5,-7,-6,12.19
2439,27,15,-63,-35,11,4,-4,7,12.195
2440,-1,-12,9,-29,-3,2,1,-13,12.200000000000001
2441,-1,8,-9,12,-19,-3,-6,10,12.205
2442,13,16,22,53,8,5,-2,-2,12.21
2443,-4,-6,41,27,3,-1,10,-1,12.215
2444,-13,-17,3,6,-2,-2,1,0,12.22
2445,9,11,-42,-25,-3,2,-1,-5,12.225
2446,-20,-13,-17,-49,-13,-3,-6,-4,12.23
2447,12,-6,48,17,3,-8,-2,3,12.235
2448,4,-8,-39,21,0,-12,6,9,12.24
2449,-16,-13,31,-17,-10,-3,-6,-27,12.245000000000001
2450,-16,-22,-2,7,12,12,-17,20,12.25
2451,38,-19,-15,9,9,8,25,1,12.255
2452,19,4,23,2,-5,12,-25,2,12.26
2453,-40,1,-3,6,5,4,-7,-12,12.265
2454,33,40,-11,-10,4,-10,17,-4,12.27
2455,-71,30,-5,7,4,-1,-6,1,12.275
2456,23,-3,-5,-9,-9,1,11,13,12.280000000000001
2457,-19,-22,-17,6,4,-6,-6,-6,12.285
2458,-8,-20,-35,-3,6,0,-2,-4,12.290000000000001
2459,2,-11,8,-3,-5,-5,-7,16,12.295
2460,-2,3,-17,15,0,-8,19,-11,12.3
2461,4,12,-8,2,4,1,10,-1,12.305
2462,1,-5,-3,-1,-8,-12,-60,1,12.31
2463,10,-25,-11,-9,0,27,35,-3,12.315
2464,-13,-17,40,5,4,0,-21,0,12.32
2465,28,25,70,9,3,3,5,24,12.325000000000001
2466,-12,-15,3,-8,-7,-9,4,-15,12.33
2467,-18,10,-7,9,2,-1,-12,-9,12.335
2468,-17,-3,20,10,-1,0,0,-6,12.34
2469,27,5,-6,-32,-2,-2,4,7,12.345
2470,-10,9,47,0,0,-6,2,-7,12.35
2471,0,1,-92,-10,-3,-6,-6,-3,12.355
2472,-12,-1,18,-5,-3,3,12,-6,12.36
2473,2,-1,18,3,4,-4,-9,-4,12.365
2474,3,8,-5,2,3,-1,-6,4,12.370000000000001
2475,-17,-6,42,14,0,0,10,-14,12.375
2476,42,13,-93,-17,-4,-8,14,20,12.38
2477,48,12,-44,-12,-5,8,-7,11,12.385
2478,1,4,-84,-11,-2,7,24,-5,12.39
2479,-1,16,36,-10,-5,-15,-10,7,12.395
2480,-5,-2,-24,20,4,9,1,3,12.4
2481,-44,-16,93,38,0,0,16,-51,12.405000000000001
2482,18,-18,-64,-13,1,11,-11,31,12.41
2483,-23,-16,36,13,-1,-9,-2,-10,12.415000000000001
2484,6,-24,-61,-19,-4,-7,-9,-8,12.42
2485,-2,-19,2,-15,2,-11,-20,12,12.425
2486,0,-28,37,2,3,11,24,22,12.43
2487,4,-29,-33,6,-2,-12,-10,-13,12.435
2488,-13,9,65,-3,1,4,0,-2,12.44
2489,-3,5,-45,23,-2,1,0,12,12.445
2490,-2,36,100,11,3,-9,-1,-11,12.450000000000001
2491,-30,35,3,4,3,11,-16,1,12.455
2492,23,34,28,-13,-3,-15,-17,0,12.46
2493,-8,24,-73,-17,-6,2,13,-4,12.465
2494,8,-3,-23,-12,-8,3,16,-11,12.47
2495,28,17,11,9,0,-8,4,11,12.475
2496,-36,75,-28,29,-1,-14,-38,-8,12.48
2497,-17,50,8,-13,-2,18,34,-1,12.485
2498,42,12,15,13,3,15,10,-4,12.49
2499,18,-57,-20,4,-4,-4,-14,-10,12.495000000000001
2500,2,-61,23,3,-2,0,-27,11,12.5
2501,-22,-36,-23,-9,-5,-19,12,6,12.505
2502,-9,-3,4,3,-1,-2,-22,-17,12.51
2503,42,14,-3,-6,2,17,16,-10,12.515
2504,1,-31,27,-18,-2,-5,12,-11,12.52
2505,-5,22,22,17,2,-6,-17,5,12.525
2506,-7,48,-7,-6,-2,-5,10,-6,12.530000000000001
2507,2,6,12,15,3,-1,6,-2,12.535
2508,-6,1,-13,-35,-7,-1,2,6,12.540000000000001
2509,-21,-2,17,4,2,4,-11,1,12.545
2510,17,12,3,0,-7,-10,-2,-7,12.55
2511,-9,54,-34,-9,6,0,-8,8,12.555
2512,33,11,-14,16,-2,8,16,4,12.56
2513,-52,-27,-2,7,3,1,-11,-5,12.565
2514,-20,-34,25,-12,-3,-6,-6,-5,12.57
2515,-13,-36,8,-12,-5,-1,0,5,12.575000000000001
2516,1,-44,18,11,4,2,8,-3,12.58
2517,29,-48,-12,-20,-1,-2,-5,-6,12.585
2518,-12,-37,-10,9,4,0,-2,0,12.59
2519,-5,-25,10,20,-2,2,4,0,12.595
2520,-1,-17,-27,-34,-3,1,3,-2,12.6
2521,15,-2,11,39,-3,-3,-7,1,12.605
2522,-10,-15,18,-20,6,1,1,1,12.61
2523,9,-5,48,-15,-2,-2,-6,5,12.615
2524,-17,6,63,36,2,2,1,-6,12.620000000000001
2525,26,6,-3,-22,-3,0,0,-2,12.625
2526,-6,-16,-13,14,-2,-2,-1,-3,12.63
2527,2,1,-25,-15,-3,-1,2,0,12.635
2528,-7,1,-22,1,2,0,2,0,12.64
2529,4,-1,-15,-7,0,-4,-2,-4,12.645
2530,0,0,-4,18,1,-1,2,1,12.65
2531,-1,4,-22,-34,1,1,-2,5,12.655000000000001
2532,-7,2,5,6,-4,1,4,-5,12.66
2533,11,-6,-44,-1,-2,-1,-5,3,12.665000000000001
2534,-3,-1,0,4,0,-3,-2,-3,12.67
2535,-4,6,-3,0,0,-4,-2,2,12.675
2536,3,1,-11,-1,-1,-1,-6,-9,12.68
2537,-15,4,11,4,1,-5,-7,9,12.685
2538,10,-5,-11,-14,-7,-2,-2,-25,12.69
2539,-7,-5,-4,5,1,6,3,4,12.695
2540,13,1,2,2,0,4,2,3,12.700000000000001
2541,-1,4,17,0,-1,3,6,-2,12.705
2542,-5,2,4,3,-1,0,-4,-2,12.71
2543,-33,-1,-2,-7,-2,-4,6,4,12.715
2544,50,5,6,11,0,-5,-21,-11,12.72
2545,8,-2,-13,-21,-4,-6,-5,0,12.725
2546,1,5,7,0,-3,-2,2,7,12.73
2547,10,-1,22,14,1,-1,-4,-2,12.735
2548,-39,5,9,11,8,-1,4,3,12.74
2549,12,1,-6,1,-3,-1,-3,-8,12.745000000000001
2550,-8,-5,-5,-9,0,1,0,-3,12.75
2551,1,6,-8,-4,-3,-3,-1,1,12.755
2552,-10,3,-8,-8,-3,1,4,-3,12.76
2553,9,4,9,7,-1,-2,-2,-6,12.765
2554,-18,-1,-8,-12,-1,0,4,2,12.77
2555,9,-2,18,5,-2,-3,-2,-1,12.775
2556,-1,-2,-41,-6,-1,-3,5,3,12.780000000000001
2557,1,6,-1,-1,3,1,1,-2,12.785
2558,-7,-1,7,1,-2,-1,-4,7,12.790000000000001
2559,3,-9,-5,2,-2,0,-6,-5,12.795
2560,-3,3,-5,-11,-2,0,3,3,12.8
2561,1,0,15,11,-2,0,1,-1,12.805
2562,-4,2,-11,-14,-3,-3,1,-1,12.81
2563,19,2,-1,0,1,-2,-3,-3,12.815
2564,-16,-1,4,-2,-3,1,1,8,12.82
2565,10,-1,-3,-6,0,-2,-4,-11,12.825000000000001
2566,4,4,7,-3,3,-1,-4,-4,12.83
2567,-11,6,-4,5,0,-3,3,-2,12.835
2568,4,-1,-1,7,-7,-1,0,-1,12.84
2569,-7,-2,-4,-10,5,-1,-6,4,12.845
2570,10,3,5,9,0,16,15,1,12.85
2571,-8,-2,-13,-8,-2,-4,-4,4,12.855
2572,-4,1,4,-9,-2,-1,1,0,12.86
2573,2,2,0,-5,-5,-6,-3,-5,12.865
2574,-7,0,13,21,3,-4,-7,2,12.870000000000001
2575,0,-2,-20,-8,-2,4,1,0,12.875
2576,-2,-2,10,2,2,0,2,-1,12.88
2577,-9,-2,-2,-9,-3,-1,1,3,12.885
2578,5,-1,-2,-5,-1,-4,-1,1,12.89
2579,3,2,-2,4,-1,2,-1,-1,12.895
2580,4,3,1,7,2,0,-1,-2,12.9
2581,-3,-4,7,1,-1,0,6,0,12.905000000000001
2582,1,2,-9,-7,-3,0,-3,0,12.91
2583,2,1,5,4,1,-1,-2,-5,12.915000000000001
2584,-5,-3,7,10,3,-3,-3,2,12.92
2585,-3,2,0,3,1,2,2,2,12.925
2586,7,-2,-5,-5,-4,-2,-2,0,12.93
2587,10,-1,6,-5,-2,0,-2,-1,12.935
2588,-17,-1,-6,-8,2,1,1,-3,12.94
2589,0,-1,-1,4,-2,0,0,2,12.945
2590,-1,0,5,0,-9,-6,-2,0,12.950000000000001
2591,-3,-2,-4,-2,8,0,0,-2,12.955
2592,2,-2,-3,-2,-1,0,3,0,12.96
2593,1,1,1,3,0,-3,-3,0,12.965
2594,-7,0,-8,-9,-4,-4,-2,-4,12.97
2595,-8,-3,-7,-2,-3,0,1,-1,12.975
2596,5,2,0,5,2,0,-1,3,12.98
2597,-5,1,-2,-4,-3,3,1,-1,12.985
2598,-2,1,8,-3,2,0,-6,-3,12.99
2599,-4,-6,-4,1,-1,-2,-2,13,12.995000000000001
2600,-1,-4,-3,-8,-2,-3,4,-5,13.0
2601,-2,-2,-3,-3,-3,-1,3,-1,13.005
2602,2,-1,-3,3,3,1,0,3,13.01
2603,-4,1,2,1,-3,0,-1,-6,13.015
2604,-3,-5,-4,-5,-1,-1,-1,-2,13.02
2605,3,1,1,2,-2,-1,-3,2,13.025
2606,-2,-2,-5,-4,-2,-1,2,-3,13.030000000000001
2607,1,0,0,2,4,-1,-1,-2,13.035
2608,5,0,-5,-2,-3,-1,-1,-2,13.040000000000001
2609,-1,-2,0,4,2,1,-1,-4,13.045
2610,-2,-3,2,3,1,0,-4,3,13.05
2611,-1,-1,-4,-4,-5,-1,-1,-5,13.055
2612,1,-2,0,-3,-2,-3,0,2,13.06
2613,-3,-4,0,0,-4,-2,0,-1,13.065
2614,-1,-3,-2,0,2,2,3,0,13.07
2615,1,1,1,0,4,3,-1,-1,13.075000000000001
2616,-2,0,1,-4,-3,-2,-2,-5,13.08
2617,1,-1,-1,3,-1,-4,-3,-1,13.085
2618,-1,-2,-4,-1,-7,-1,-3,2,13.09
2619,9,2,3,6,7,1,1,-3,13.095
2620,-11,-1,-1,7,-2,-1,-3,-1,13.1
2621,5,-4,-5,-12,-2,0,5,3,13.105
2622,0,-6,-6,-7,-2,-4,-9,-1,13.11
2623,2,1,5,-1,-3,-1,-1,-1,13.115
2624,1,-3,-8,6,2,1,1,-4,13.120000000000001
2625,-3,2,-2,1,0,0,0,2,13.125
2626,-6,2,23,10,-1,-2,2,-1,13.13
2627,-2,0,-21,-20,-5,0,0,-2,13.135
2628,1,2,4,-3,0,-3,-2,-3,13.14
2629,-1,-9,-15,7,1,0,-1,-3,13.145
2630,-5,-3,6,-1,2,-2,1,0,13.15
2631,-7,-3,-41,-15,-8,-4,0,0,13.155000000000001
2632,0,-3,-27,-30,-4,1,-2,3,13.16
2633,1,5,1,-4,3,-1,-1,0,13.165000000000001
2634,-2,1,-9,9,2,0,-1,-2,13.17
2635,2,-1,16,1,0,-1,-1,-2,13.175
2636,4,0,5,1,-3,2,-1,0,13.18
2637,-6,-1,5,1,1,2,-3,-2,13.185
2638,1,2,-1,4,4,0,-1,0,13.19
2639,-2,-3,7,9,-2,-2,-1,-3,13.195
2640,0,-2,4,3,1,-3,0,0,13.200000000000001
2641,1,8,7,2,-2,-1,-5,-1,13.205
2642,2,0,-3,4,-1,1,-1,0,13.21
2643,1,-5,3,-4,-2,0,-1,-2,13.215
2644,-4,-1,-2,-4,-8,-1,1,-1,13.22
2645,-2,-2,5,2,9,2,1,-5,13.225
2646,1,-1,-7,-9,-3,-2,0,4,13.23
2647,-2,1,1,8,-2,-3,-2,-1,13.235
2648,2,3,4,-2,-2,-2,-1,-1,13.24
2649,1,-4,1,-2,-5,-2,-2,-6,13.245000000000001
2650,0,-1,-2,8,2,-1,0,2,13.25
2651,7,-2,8,-8,0,0,-1,-22,13.255
2652,-15,-3,2,5,1,0,1,24,13.26
2653,-5,-1,-9,-1,-2,-4,2,-1,13.265
2654,1,1,-6,-8,-1,0,2,-1,13.27
2655,-3,2,2,6,-3,-2,-2,2,13.275
2656,10,1,5,3,0,-1,-4,-11,13.280000000000001
2657,0,4,5,3,5,1,0,0,13.285
2658,4,-1,-6,-2,0,-1,0,0,13.290000000000001
2659,1,-5,3,-5,0,-2,-1,6,13.295
2660,-3,-5,1,-3,0,0,-1,-5,13.3
2661,-2,-3,1,0,-4,-4,-3,4,13.305
2662,-2,3,-4,-2,-1,-1,-1,-9,13.31
2663,-6,3,5,1,3,1,0,4,13.315
2664,0,-4,-8,-1,1,0,2,0,13.32
2665,3,-3,-1,1,-2,0,0,-3,13.325000000000001
2666,2,-2,2,-5,-3,-2,1,0,13.33
2667,-26,0,-5,1,-4,-4,-1,-3,13.335
2668,23,5,4,-2,1,0,0,1,13.34
2669,4,-5,4,4,-2,1,1,0,13.345
2670,-1,-3,-2,-4,0,-1,-1,-1,13.35
2671,0,-1,-1,-2,-2,-2,-1,2,13.355
2672,-6,-2,1,0,-1,-1,-1,-4,13.36
2673,-1,1,-7,-5,-2,-1,-3,-4,13.365
2674,1,3,-3,0,1,1,-3,2,13.370000000000001
2675,3,-1,-5,3,-1,0,-2,0,13.375
2676,-8,14,24,5,-9,-2,2,2,13.38
2677,8,-7,0,2,15,1,1,-9,13.385
2678,-4,-4,1,2,-5,-3,-1,2,13.39
2679,6,3,-6,-3,0,-1,-1,4,13.395
2680,-7,-1,-11,-11,0,1,-1,-7,13.4
2681,-7,5,1,6,-7,0,2,2,13.405000000000001
2682,4,4,4,-4,0,0,0,-2,13.41
2683,-5,-4,-1,5,4,-1,0,-1,13.415000000000001
2684,8,-3,-3,-1,-3,-3,-1,-1,13.42
2685,-15,2,2,-6,-3,1,-1,-1,13.425
2686,-2,-6,-9,-2,2,-1,1,-3,13.43
2687,4,2,1,-1,-4,1,-1,0,13.435
2688,-3,-5,-8,0,3,-3,-3,-3,13.44
2689,0,2,-3,-1,-3,-2,-1,3,13.445
2690,-1,0,3,0,-3,-1,-1,-1,13.450000000000001
2691,0,-2,3,-5,-1,0,-3,-8,13.455
2692,2,0,2,1,2,0,-1,-2,13.46
2693,3,0,-12,-12,-5,-3,0,1,13.465
2694,-5,-2,2,7,-3,-4,-3,2,13.47
2695,3,-5,2,-8,-3,-1,1,-2,13.475
2696,-1,-1,-12,1,4,1,2,-1,13.48
2697,-2,-1,6,-2,-5,0,-2,4,13.485
2698,-3,0,-2,-7,-1,1,-1,-9,13.49
2699,-6,-4,-8,2,1,-1,0,0,13.495000000000001
2700,-16,1,4,-2,-2,0,0,8,13.5
2701,35,-7,-8,-6,-6,-1,0,-4,13.505
2702,2,-3,-1,1,-2,-2,-1,1,13.51
2703,-1,0,2,3,-2,-2,0,0,13.515
2704,-7,-3,-1,-2,0,-1,-2,-1,13.52
2705,-10,-4,-3,-3,0,0,-1,-2,13.525
2706,5,1,1,0,4,1,2,-1,13.530000000000001
2707,-2,0,-2,3,-1,-2,-2,3,13.535
2708,-1,-3,-1,0,-1,0,-2,-7,13.540000000000001
2709,4,0,0,3,-2,0,-3,1,13.545
2710,-15,-2,-1,-2,-1,-1,0,-1,13.55
2711,-7,-3,-3,-1,-1,-1,0,0,13.555
2712,1,-1,1,-1,1,-2,-1,-2,13.56
2713,0,3,2,0,-8,-1,3,0,13.565
2714,0,0,-4,-7,10,3,1,3,13.57
2715,4,-2,2,5,-4,-1,-2,-1,13.575000000000001
2716,6,-2,-8,-1,-1,-1,-3,0,13.58
2717,-10,-1,0,1,-5,-1,0,-3,13.585
2718,-1,0,-2,-3,1,-1,1,-1,13.59
2719,2,-1,-1,-4,3,1,1,1,13.595
2720,2,1,5,2,2,-1,0,-2,13.6
2721,-8,4,-6,-14,2,-1,-2,1,13.605
2722,0,-1,1,-1,-4,-3,-1,-7,13.61
2723,9,-3,-3,-1,-1,-4,-2,0,13.615
2724,-1,-4,-6,-11,-2,1,-1,0,13.620000000000001
2725,-3,0,2,12,1,-1,-3,0,13.625
2726,1,-5,-1,-2,-3,2,-2,1,13.63
2727,-3,-2,6,2,0,1,1,-1,13.635
2728,0,-3,-3,0,-4,-3,-2,-2,13.64
2729,-3,-2,1,-1,2,-1,-2,2,13.645
2730,6,1,-3,2,-2,-1,-1,-1,13.65
2731,-4,-1,-5,-4,-4,0,-2,-2,13.655000000000001
2732,3,1,4,0,-1,0,-1,-4,13.66
2733,-1,0,-4,2,2,0,1,3,13.665000000000001
2734,13,-3,0,1,-2,-4,-2,-1,13.67
2735,-2,2,-10,-7,0,-2,0,-1,13.675
2736,0,-5,-4,-5,0,0,2,1,13.68
2737,-2,1,5,0,-5,-2,-1,0,13.685
2738,-6,1,5,8,4,2,0,-1,13.69
2739,5,-1,0,4,0,1,2,-1,13.695
2740,-1,-5,-8,-2,-3,-2,-2,-2,13.700000000000001
2741,-4,0,-4,3,1,0,-2,-3,13.705
2742,-1,1,0,-11,-3,0,-3,0,13.71
2743,7,5,5,5,3,-1,1,-2,13.715
2744,-9,3,2,0,-2,-2,0,4,13.72
2745,0,-2,-1,-4,1,-2,-1,-1,13.725
2746,-3,-1,-1,0,-3,-2,-4,-2,13.73
2747,0,-3,0,5,2,-4,-1,1,13.735
2748,0,4,1,-7,-10,-2,0,-1,13.74
2749,-2,0,6,3,16,4,1,-1,13.745000000000001
2750,-3,-4,-1,0,-5,0,1,-3,13.75
2751,-4,-2,2,-5,-6,1,1,0,13.755
2752,3,2,2,5,0,0,-2,-2,13.76
2753,0,1,-6,-4,-5,0,-1,-1,13.765
2754,-2,-2,-2,-2,0,-2,0,1,13.77
2755,0,3,-4,-2,1,-1,-1,-2,13.775
2756,-1,-5,-3,-1,-1,0,2,-1,13.780000000000001
2757,4,0,9,14,4,-1,2,-5,13.785
2758,-1,-4,-4,-4,-2,1,-4,4,13.790000000000001
2759,-2,-2,2,-3,-2,0,-2,1,13.795
2760,-8,1,-2,4,5,-1,-1,-1,13.8
2761,13,-4,-5,-7,-2,-3,0,-8,13.805
2762,-14,-3,0,1,-2,-3,2,3,13.81
2763,-2,2,3,5,1,1,-2,-1,13.815
2764,-4,-1,-6,-7,3,2,-1,-2,13.82
2765,-9,-1,-3,-1,-4,-2,0,3,13.825000000000001
2766,10,6,1,1,-2,0,0,-7,13.83
2767,-1,-7,-1,-4,-3,0,0,0,13.835
2768,4,0,-1,4,4,-2,-2,-1,13.84
2769,-3,0,2,-1,-4,-1,-4,0,13.845
2770,-1,0,-10,-12,1,-1,0,-2,13.85
2771,-4,3,10,7,-3,-4,-2,1,13.855
2772,5,1,3,4,1,1,4,-2,13.86
2773,-5,-1,2,0,1,1,1,-1,13.865
2774,-5,-2,-3,2,2,1,2,1,13.870000000000001
2775,2,-1,-5,-3,0,-1,-1,-2,13.875
2776,-3,-3,-2,3,-4,-4,-4,0,13.88
2777,-3,3,-3,-12,-2,0,-3,1,13.885
2778,-3,2,6,5,-1,0,-2,-3,13.89
2779,-1,-1,-8,-6,0,-1,-1,-4,13.895
2780,-1,0,4,6,-1,-1,2,2,13.9
2781,6,2,-9,-13,-2,-4,-3,-1,13.905000000000001
2782,-9,2,2,2,0,0,-1,-2,13.91
2783,-1,1,1,7,1,1,1,1,13.915000000000001
2784,-1,0,3,-6,-2,0,-2,-2,13.92
2785,-1,-2,-2,-4,-4,0,0,-3,13.925
2786,4,-1,-1,0,-3,-1,0,-2,13.93
2787,-2,-5,-3,-2,-2,0,-3,-2,13.935
2788,-4,-3,2,-2,-2,-1,-4,-5,13.94
2789,0,-2,1,0,-4,-3,0,3,13.945
2790,1,1,1,-2,-1,-3,0,-1,13.950000000000001
2791,5,4,-4,-4,-1,-1,2,1,13.955
2792,-16,-3,0,0,1,2,0,0,13.96
2793,-1,-1,-4,-1,-1,-1,-2,-4,13.965
2794,-5,-4,0,1,-3,-1,-2,-2,13.97
2795,-1,-2,-7,-4,-3,-4,1,1,13.975
2796,2,1,3,4,-3,1,2,-4,13.98
2797,-3,-4,1,4,12,3,1,0,13.985
2798,2,-3,-2,-1,-3,1,-1,-1,13.99
2799,-1,3,-4,-2,1,0,-2,-1,13.995000000000001
2800,1,0,-4,-7,-4,-3,-1,0,14.0
2801,-3,-3,1,8,-5,-4,-1,0,14.005
2802,4,-2,-4,-9,1,-3,0,0,14.01
2803,-11,4,-1,-2,0,0,-3,-2,14.015
2804,4,0,-1,-5,1,0,0,3,14.02
2805,-1,-1,6,8,1,2,2,-1,14.025
2806,5,0,-1,-2,0,-1,-2,-1,14.030000000000001
2807,0,-4,2,-1,-5,0,-1,-2,14.035
2808,-9,-3,-7,-2,7,1,-1,0,14.040000000000001
2809,-3,-4,0,-2,-3,-2,-2,-2,14.045
2810,1,-1,-1,1,-2,1,1,0,14.05
2811,2,-2,-6,-17,-2,0,1,-1,14.055
2812,-16,4,5,8,-1,-1,0,-13,14.06
2813,1,-5,-12,-2,-2,-2,-3,33,14.065
2814,-3,-2,8,5,-1,-3,-2,-1,14.07
2815,5,1,2,10,2,1,-2,1,14.075000000000001
2816,6,-1,-4,-12,-2,0,0,-1,14.08
2817,-2,3,-2,0,-3,-1,3,-11,14.085
2818,-6,2,-1,-3,-9,-3,-1,-1,14.09
2819,-1,-4,1,1,13,1,-2,2,14.095
2820,7,-2,-1,4,-4,-2,-1,1,14.1
2821,-4,-2,1,3,3,-1,-1,-9,14.105
2822,3,-3,-5,-10,-2,-1,1,5,14.11
2823,-2,-8,6,2,-3,-3,1,-6,14.115
2824,2,-1,-3,2,0,0,-3,-3,14.120000000000001
2825,0,0,3,0,-3,1,-1,-1,14.125
2826,0,4,-1,3,5,2,-1,-2,14.13
2827,-3,0,-3,-1,0,0,0,0,14.135
2828,1,0,-3,-3,0,0,-2,0,14.14
2829,-2,3,-1,-3,-5,-3,-1,-4,14.145
2830,0,0,-4,1,-2,1,0,-2,14.15
2831,-3,4,-1,2,-2,-1,0,2,14.155000000000001
2832,4,0,0,1,1,0,0,2,14.16
2833,-3,-2,-1,-2,-1,3,-1,-1,14.165000000000001
2834,-3,1,-2,1,0,3,-1,-4,14.17
2835,1,0,1,-7,-5,-2,-2,4,14.175
2836,11,0,-6,2,-2,-3,0,-1,14.18
2837,-11,-9,1,-3,0,-2,-3,-1,14.185
2838,-1,-1,3,6,3,-5,-4,-2,14.19
2839,-3,-3,-1,2,-2,-2,0,-2,14.195
2840,1,-1,3,-3,-3,-3,-2,0,14.200000000000001
2841,5,2,-3,-4,-9,-1,1,-1,14.205
2842,1,1,0,1,14,0,0,1,14.21
2843,-1,1,1,-2,-4,0,-1,-3,14.215
2844,0,-4,-2,-3,0,-2,0,1,14.22
2845,2,2,0,-1,0,0,-2,-3,14.225
2846,-2,-1,1,0,-5,-2,-3,0,14.23
2847,1,-1,0,2,2,-1,-1,-1,14.235
2848,-3,4,0,-2,-2,-1,-1,-2,14.24
2849,-1,-2,-1,3,0,0,2,2,14.245000000000001
2850,2,-3,-6,-8,-3,-2,2,-4,14.25
2851,-8,-6,-1,13,2,0,-1,0,14.255
2852,0,3,2,-10,-2,0,-2,2,14.26
2853,1,-3,2,0,2,-1,-3,-4,14.265
2854,-4,-2,-6,0,-1,1,-1,-1,14.27
2855,5,2,-3,0,-2,-2,-2,-3,14.275
2856,-2,-3,-2,4,-1,-1,1,0,14.280000000000001
2857,3,5,0,20,-2,0,0,1,14.285
2858,0,-5,-3,1,-3,-2,-1,1,14.290000000000001
2859,7,4,3,-7,-4,-1,-3,-1,14.295
2860,-11,0,1,-12,-5,-1,-3,-1,14.3
2861,-1,2,-1,-18,11,0,-3,-1,14.305
2862,-3,1,3,-2,-6,-2,1,-2,14.31
2863,1,-3,-3,-3,2,0,1,0,14.315
2864,2,0,1,3,-1,-2,0,0,14.32
2865,-4,-7,-6,-6,-5,-1,-2,0,14.325000000000001
2866,-2,-2,0,4,2,0,0,-2,14.33
2867,-7,-7,-2,-1,-3,-2,-4,0,14.335
2868,2,-1,-2,5,2,1,0,0,14.34
2869,-1,2,-11,-3,-2,-2,0,-1,14.345
2870,3,1,14,5,2,1,1,1,14.35
2871,-4,0,-2,0,-1,-1,2,-2,14.355
2872,-2,0,4,4,-4,2,-1,-1,14.36
2873,3,2,5,13,6,0,2,-6,14.365
2874,-2,-1,-17,-31,-1,0,2,-2,14.370000000000001
2875,1,-3,-4,1,-3,-2,2,5,14.375
2876,-6,-3,0,-8,2,-1,-2,-3,14.38
2877,15,0,-2,0,0,2,-3,0,14.385
2878,-14,-2,12,8,0,-3,-3,-2,14.39
2879,-2,0,-16,-5,-5,-2,0,-4,14.395
2880,3,0,-2,2,9,-1,-2,-3,14.4
2881,-4,0,0,-3,-4,0,0,1,14.405000000000001
2882,2,-3,2,5,-1,-1,-1,0,14.41
2883,3,0,7,4,2,-1,0,-2,14.415000000000001
2884,-2,2,-2,5,-3,0,1,2,14.42
2885,-3,1,0,-3,1,-3,-1,-2,14.425
2886,3,4,-4,0,-2,-1,-2,1,14.43
2887,-4,3,5,0,1,2,1,-2,14.435
2888,2,-5,-4,1,2,0,1,2,14.44
2889,-5,5,4,-3,2,-1,0,1,14.445
2890,-1,-3,-2,0,-2,-2,-2,-1,14.450000000000001
2891,-2,-1,-4,-7,-9,-1,0,0,14.455
2892,-2,1,1,2,4,-2,3,-2,14.46
2893,0,-5,-2,-5,-6,0,1,1,14.465
2894,1,0,-1,6,-2,1,-2,1,14.47
2895,0,-1,-1,-6,0,-3,-5,-1,14.475
2896,0,-4,-2,-3,-4,-2,-3,1,14.48
2897,-5,-4,0,-3,-2,-1,-1,-1,14.485
2898,1,1,-4,1,0,-1,0,-2,14.49
2899,0,-1,3,13,0,-1,-2,-3,14.495000000000001
2900,-1,-5,-9,-13,-2,0,-1,-2,14.5
2901,-1,-6,2,-4,-2,0,0,-6,14.505
2902,-2,-4,4,6,-1,1,1,2,14.51
2903,-3,0,0,-2,3,-1,0,2,14.515
2904,-14,-2,5,4,-1,-2,-1,0,14.52
2905,18,3,-5,-1,-1,-2,-1,2,14.525
2906,3,-2,1,2,0,-2,1,-7,14.530000000000001
2907,-7,0,1,0,2,-1,0,2,14.535
2908,-1,-1,-1,2,1,2,1,-17,14.540000000000001
2909,-2,-5,-1,0,-2,0,0,25,14.545
2910,-9,1,1,0,-2,0,-3,-3,14.55
2911,24,0,8,-7,1,1,-1,-4,14.555
2912,-2,-3,-16,-5,-2,-2,-2,1,14.56
2913,3,2,9,1,0,-3,0,-7,14.565
2914,-5,-3,-6,6,-5,-4,-1,4,14.57
2915,-2,-1,2,-8,-3,-1,-1,3,14.575000000000001
2916,2,3,3,2,10,5,-1,2,14.58
2917,-7,-1,-1,-4,-6,0,0,-6,14.585
2918,1,-2,-5,-2,1,0,0,2,14.59
2919,-5,-3,-3,-2,-2,0,1,-11,14.595
2920,5,-2,-3,-4,-6,-2,-3,3,14.6
2921,-6,-4,-2,-2,2,0,-2,-5,14.605
2922,2,0,2,-3,2,0,-2,-2,14.61
2923,-2,-2,-4,4,-3,1,-1,-1,14.615
2924,2,0,6,5,-3,-4,1,1,14.620000000000001
2925,-1,-1,1,0,0,-3,-1,-1,14.625
2926,3,2,-2,-2,-1,0,0,0,14.63
2927,2,2,-2,6,3,0,1,3,14.635
2928,0,0,-2,-2,-3,-2,-2,3,14.64
2929,-4,-1,-2,-4,-2,-3,-1,-5,14.645
2930,0,-2,-3,3,0,-1,0,-2,14.65
2931,-4,2,-3,-7,0,0,-4,-1,14.655000000000001
2932,1,-2,5,-2,-3,-1,1,-2,14.66
2933,-3,3,-3,-4,-4,2,0,0,14.665000000000001
2934,2,1,-1,-5,4,1,0,-1,14.67
2935,-1,-3,-1,2,0,-1,0,4,14.675
2936,6,-3,-1,6,0,-1,1,0,14.68
2937,-7,-3,-3,-1,-8,-2,-2,-4,14.685
2938,1,-3,-2,-5,7,-1,-2,1,14.69
2939,-1,-3,-1,-4,-6,-3,0,-1,14.695
2940,-4,1,0,-1,-1,-2,2,-2,14.700000000000001
2941,0,0,-1,3,1,-4,2,-2,14.705
2942,-2,-1,0,-7,-6,-1,2,-2,14.71
2943,-5,-2,-3,1,2,0,-3,-2,14.715
2944,2,-3,3,4,2,1,-1,2,14.72
2945,-2,0,-1,1,2,0,-1,-2,14.725
2946,-2,0,-3,-4,-2,0,-4,-2,14.73
2947,0,0,2,0,2,2,-3,-1,14.735
2948,-1,-3,-4,-1,-2,-1,-2,-1,14.74
2949,-3,-3,-2,0,3,-2,-2,-3,14.745000000000001
2950,-3,-8,-1,-1,-6,-7,0,-1,14.75
2951,-1,-3,2,-5,-6,0,2,0,14.755
2952,-2,1,-1,-6,1,-1,-1,2,14.76
2953,-2,2,5,3,2,2,-1,-3,14.765
2954,2,0,-5,-4,1,-2,-1,4,14.77
2955,-2,4,-4,0,-2,-3,1,-1,14.775
2956,-4,-4,-1,-2,-5,-5,-1,-3,14.780000000000001
2957,2,2,-3,1,0,-1,0,-1,14.785
2958,6,0,2,2,0,2,1,-1,14.790000000000001
2959,-14,-2,-2,1,3,0,2,-4,14.795
2960,2,6,3,2,-4,2,0,1,14.8
2961,7,-3,-2,0,7,0,-2,9,14.805
2962,3,-2,0,0,-1,1,-3,-4,14.81
2963,-2,-4,-1,-2,-1,-2,-2,0,14.815
2964,1,2,2,-1,2,-1,-1,-3,14.82
2965,-13,-4,-5,-5,-5,0,0,-2,14.825000000000001
2966,15,1,-1,-4,-3,0,-1,-3,14.83
2967,-2,-2,-3,4,1,-1,0,-2,14.835
2968,8,-1,1,2,-3,0,-1,2,14.84
2969,-6,-5,-15,-8,-3,-1,0,-2,14.845
2970,-6,1,4,5,1,-1,4,-23,14.85
2971,0,0,-1,-7,-1,1,-1,13,14.855
2972,-2,-3,-3,0,-1,0,-4,1,14.86
2973,-4,5,2,-3,-1,-1,-3,0,14.865
2974,-7,1,-5,0,-1,0,0,-2,14.870000000000001
2975,1,-3,-3,0,-1,0,0,-8,14.875
2976,-6,-3,-5,-3,1,2,1,-2,14.88
2977,7,-2,-1,-5,-2,-2,-1,-4,14.885
2978,-3,0,2,-1,-4,-2,-1,8,14.89
2979,3,-4,1,-1,-3,-3,-2,-2,14.895
2980,-5,-1,-1,3,-1,-1,0,3,14.9
2981,-1,-2,-1,0,-7,-1,-2,-5,14.905000000000001
2982,-1,7,0,1,12,0,0,11,14.91
2983,-3,0,1,1,-3,-2,-1,0,14.915000000000001
2984,0,-1,2,-2,-1,-2,-1,-6,14.92
2985,0,-1,4,0,-1,0,-1,-1,14.925
2986,-3,0,-8,-7,-3,-3,-1,3,14.93
2987,2,-3,-7,-4,-1,0,1,-2,14.935
2988,-1,-2,1,-3,-4,-1,-2,1,14.94
2989,2,-1,5,5,2,-1,-1,0,14.945
2990,0,0,-2,-2,-5,0,-1,3,14.950000000000001
2991,-2,5,2,-2,3,-2,-3,-5,14.955
2992,-2,0,-1,-4,0,-4,-1,-7,14.96
2993,5,-2,1,1,2,1,2,3,14.965
2994,-4,-3,0,2,-3,2,-2,-5,14.97
2995,-12,-5,-4,8,-2,-2,-1,0,14.975
2996,-1,-4,-1,-8,0,0,-1,-1,14.98
2997,-4,-1,2,3,1,-2,-2,1,14.985
2998,0,0,-4,-2,-2,-4,-2,1,14.99
2999,7,4,4,-1,-3,3,0,-2,14.995000000000001
3000,-3,-2,-2,3,-1,-3,1,0,15.0
3001,1,-2,1,2,1,-1,0,0,15.005
3002,-2,-7,-1,1,0,1,0,-1,15.01
3003,2,1,-2,2,-6,-1,-2,-2,15.015
3004,0,-1,-3,-1,10,2,-2,-1,15.02
3005,0,0,1,-1,0,0,0,-2,15.025
3006,1,2,1,-1,-3,-1,-1,-1,15.030000000000001
3007,-2,-2,-3,-3,1,-1,-3,0,15.035
3008,1,-3,-2,1,-4,-1,0,3,15.040000000000001
3009,-2,-1,-3,-5,-5,-3,-1,-3,15.045
3010,-3,-5,-4,0,0,-2,-1,0,15.05
3011,3,-3,0,1,-2,-3,1,-2,15.055
3012,0,1,-2,1,-4,0,1,0,15.06
3013,-4,2,-1,0,1,0,1,0,15.065
3014,-3,-1,0,-2,-2,0,1,-1,15.07
3015,2,4,1,-4,0,1,-2,-1,15.075000000000001
3016,0,0,-1,-1,-1,1,-1,-1,15.08
3017,0,-3,0,-1,1,0,-1,1,15.085
3018,4,-3,-1,-2,-4,-1,-1,0,15.09
3019,-10,-8,-1,0,0,-5,-2,-3,15.095
3020,1,3,0,-3,-5,0,-3,-1,15.1
3021,1,-1,2,3,5,1,0,-5,15.105
3022,-3,-3,-6,-6,-10,-3,-1,-1,15.11
3023,3,-1,-2,1,11,1,0,0,15.115
3024,1,0,0,0,-4,1,0,2,15.120000000000001
3025,-3,-1,-4,-2,-3,-3,-2,0,15.125
3026,-3,-1,-1,-2,2,-1,1,-1,15.13
3027,1,0,-2,-4,-4,2,-1,-1,15.135
3028,-3,-3,-4,1,-2,-3,-2,-5,15.14
3029,1,-3,0,0,-1,-1,-1,1,15.145
3030,-4,-4,4,3,1,1,-3,-3,15.15
3031,3,-1,-2,-2,-2,0,-3,-2,15.155000000000001
3032,-1,0,-1,4,3,2,-1,0,15.16
3033,-5,-1,-1,-6,-4,1,-2,-3,15.165000000000001
3034,1,2,5,3,1,0,-2,-2,15.17
3035,1,-1,3,0,-1,-1,1,0,15.175
3036,4,1,-8,-2,-1,-5,0,0,15.18
3037,0,1,3,6,-2,-4,1,-3,15.185
3038,4,-4,-2,-9,4,1,1,0,15.19
3039,-14,-1,-2,-1,-2,0,0,1,15.195
3040,7,-1,1,-2,-1,-2,-1,1,15.200000000000001
3041,-14,-3,-4,0,-7,0,-1,1,15.205
3042,-9,6,1,3,2,0,0,4,15.21
3043,21,1,-5,-3,1,-4,-1,-2,15.215
3044,-2,1,3,1,-3,0,0,-3,15.22
3045,3,0,-3,4,0,-2,-1,0,15.225
3046,-1,0,1,-1,-4,-3,-4,-2,15.23
3047,-4,-2,-3,-1,-2,-3,-2,1,15.235
3048,-6,0,2,2,1,-2,2,0,15.24
3049,4,2,1,0,-1,0,-1,-1,15.245000000000001
3050,-1,-1,-2,0,-1,0,1,-3,15.25
3051,1,-2,-4,-4,-2,0,1,-5,15.255
3052,2,-1,1,-3,0,-3,0,0,15.26
3053,-4,-4,-1,-1,1,-1,0,-1,15.265
3054,1,0,0,4,-2,0,0,1,15.27
3055,-2,2,2,-2,-1,0,0,-1,15.275
3056,-5,-4,-1,1,-2,2,-3,-3,15.280000000000001
3057,2,6,0,-3,-3,1,-1,-1,15.285
3058,5,0,1,-2,0,-2,-2,-1,15.290000000000001
3059,-9,-1,1,2,1,0,1,-1,15.295
3060,-1,-1,-4,-1,0,-1,1,0,15.3
3061,2,0,3,-2,1,-2,-2,-1,15.305
3062,2,-3,-3,-1,-3,-1,-2,-1,15.31
3063,-1,-3,2,4,1,2,0,0,15.315
3064,-2,-3,-3,0,1,-1,-1,0,15.32
3065,-2,-4,-7,14,-3,-4,0,-1,15.325000000000001
3066,-1,1,-3,-15,-2,-1,0,-2,15.33
3067,1,-3,1,-12,6,-3,0,2,15.335
3068,-1,2,1,-10,-3,-2,-2,-1,15.34
3069,2,-2,-2,-4,1,2,2,-1,15.345
3070,-4,-3,-3,1,-3,0,-1,-1,15.35
3071,1,3,-1,6,-3,-3,-2,-3,15.355
3072,-2,-4,-3,0,0,-2,-2,1,15.36
3073,2,1,0,-3,-1,0,0,0,15.365
3074,0,1,-3,7,2,2,2,-1,15.370000000000001
3075,1,4,1,-1,-3,2,0,0,15.375
3076,0,1,3,2,-3,1,0,-3,15.38
3077,0,-4,-4,-2,4,-2,-3,0,15.385
3078,-4,-2,0,1,1,-3,-3,-2,15.39
3079,0,-2,-4,-2,-2,-1,-3,0,15.395
3080,-2,1,-4,-2,-7,-1,-2,-4,15.4
3081,-1,-2,-2,-7,-1,0,0,-1,15.405000000000001
3082,-1,0,3,4,1,0,1,0,15.41
3083,0,0,0,3,-2,-2,1,-1,15.415000000000001
3084,4,1,0,1,0,-1,-2,1,15.42
3085,-4,-2,-3,-5,-1,-2,-3,0,15.425
3086,-1,-4,-3,0,-1,-2,-4,-3,15.43
3087,-2,-2,-1,-1,-11,0,-1,3,15.435
3088,-1,0,1,-1,14,3,0,2,15.44
3089,1,-5,1,-2,-6,1,-3,-2,15.445
3090,-3,-3,-2,-5,-4,0,-1,0,15.450000000000001
3091,-2,-2,-2,-5,-1,-3,0,-2,15.455
3092,-1,-6,-5,-2,0,-2,1,-3,15.46
3093,-2,-2,1,0,0,-2,1,0,15.465
3094,-1,2,1,-2,-2,1,2,0,15.47
3095,0,-2,0,-2,-2,-1,0,0,15.475
3096,7,-1,2,6,0,1,0,2,15.48
3097,-17,-2,0,-1,0,-1,-3,-5,15.485000000000001
3098,2,0,1,2,2,0,-4,-1,15.49
3099,0,1,-2,3,2,0,-3,-1,15.495000000000001
3100,-3,-3,0,0,-3,-1,-3,-1,15.5
3101,3,2,1,0,-2,0,0,-3,15.505
3102,-4,-3,-5,-1,0,-2,-3,6,15.51
3103,1,3,-2,0,2,-1,1,0,15.515
3104,-5,-2,-2,-3,-4,-3,-2,-2,15.52
3105,1,-3,-1,-1,-3,-2,0,1,15.525
3106,-2,-5,0,0,-1,0,0,-3,15.530000000000001
3107,4,-3,-1,-1,-1,1,-1,-3,15.535
3108,1,1,-3,0,-2,-1,1,6,15.540000000000001
3109,-5,4,4,-4,-1,-3,1,0,15.545
3110,25,-1,-1,2,-4,-3,-1,-2,15.55
3111,-4,-3,-2,1,7,0,2,3,15.555
3112,1,3,-1,0,3,2,0,-8,15.56
3113,11,3,-6,2,2,1,-1,2,15.565
3114,-8,3,-1,-2,-2,-1,0,1,15.57
3115,-3,-2,1,0,-3,0,-3,-2,15.575000000000001
3116,-2,1,-2,-8,-7,-4,-5,-1,15.58
3117,2,1,-3,-1,7,-2,-1,-1,15.585
3118,-6,1,0,-1,-1,0,0,-4,15.59
3119,0,-1,2,3,0,1,-2,0,15.595
3120,-7,-1,-1,-2,-1,-1,-2,-1,15.6
3121,1,-7,-8,-4,-4,1,1,1,15.605
3122,-4,-1,5,1,0,1,0,0,15.610000000000001
3123,-3,-4,-3,-3,0,-1,-1,2,15.615
3124,-2,-2,1,-1,2,0,3,-2,15.620000000000001
3125,2,2,0,-1,-1,2,1,-2,15.625
3126,0,1,0,3,5,-3,-3,1,15.63
3127,0,-3,-8,-6,-3,-2,0,-2,15.635
3128,-1,-1,4,1,-3,0,0,-1,15.64
3129,-2,0,6,3,-2,0,0,1,15.645
3130,-5,1,0,-1,-1,-1,2,-1,15.65
3131,-1,-2,-1,-2,-2,2,-2,-2,15.655000000000001
3132,4,0,-2,-1,-2,-1,-1,-1,15.66
3133,-7,-3,-3,-2,-7,0,-3,-1,15.665000000000001
3134,-2,-2,-7,-2,4,2,-1,0,15.67
3135,-1,2,0,7,-1,-1,-1,0,15.675
3136,1,2,1,0,1,-2,0,1,15.68
3137,1,-2,-2,-4,-3,-4,-3,-2,15.685
3138,-3,-1,2,-6,-3,-2,-1,-2,15.69
3139,-2,-2,-1,-4,0,-1,0,0,15.695
3140,-2,-2,1,1,1,1,-1,2,15.700000000000001
3141,2,1,-1,-2,0,-3,-2,1,15.705
3142,2,0,-3,-4,-3,-1,-1,1,15.71
3143,-7,-2,-1,-2,-1,-1,-1,-5,15.715
3144,-1,-4,2,0,-2,-2,-2,-3,15.72
3145,-1,-2,-5,2,-1,-3,-2,-1,15.725
3146,0,1,-2,0,1,-2,0,-3,15.73
3147,1,4,2,-1,-3,-1,0,0,15.735000000000001
3148,-1,-1,2,1,-1,2,2,-1,15.74
3149,-9,-10,-5,-4,-1,0,-1,-4,15.745000000000001
3150,-2,1,2,1,-1,-2,-1,-3,15.75
3151,14,-3,-2,0,-3,0,-1,-1,15.755
3152,-8,2,-2,-5,-1,0,1,2,15.76
3153,-7,-1,2,1,0,1,-1,-2,15.765
3154,7,1,-3,-4,0,0,-1,2,15.77
3155,0,0,2,1,0,-2,-4,2,15.775
3156,44,5,-2,-2,4,-3,-2,6,15.780000000000001
3157,-1,7,-1,0,-2,-4,-3,-5,15.785
3158,-18,-18,-1,3,-9,-2,-2,-7,15.790000000000001
3159,-9,6,-1,-6,8,5,2,-3,15.795
3160,20,-4,-3,-3,-9,0,2,3,15.8
3161,-26,-25,1,-5,3,1,0,4,15.805
3162,-20,-25,-5,-2,0,-3,-7,-3,15.81
3163,7,9,-2,1,-4,-2,0,-2,15.815
3164,-20,-9,-1,0,-2,-2,0,-5,15.82
3165,36,-14,2,-8,-1,0,0,-13,15.825000000000001
3166,-17,-25,2,13,1,4,6,3,15.83
3167,36,-19,2,2,1,-1,-2,-1,15.835
3168,-1,27,0,3,-1,2,-2,7,15.84
3169,-3,-78,3,16,-3,-2,3,12,15.845
3170,-16,-6,-12,-24,-3,-2,-7,-13,15.85
3171,-30,2,1,19,-5,0,0,0,15.855
3172,51,30,3,-20,13,2,0,2,15.860000000000001
3173,-23,-15,-1,5,-3,-2,-2,-1,15.865
3174,20,-9,2,-35,-5,-3,4,6,15.870000000000001
3175,-21,-2,-3,31,6,-2,-4,-9,15.875
3176,-11,-16,1,0,-11,1,0,0,15.88
3177,1,14,0,3,8,2,-2,2,15.885
3178,42,-5,3,11,10,4,4,8,15.89
3179,0,12,0,-12,-16,-7,-3,8,15.895
3180,-58,-3,-4,-6,5,2,2,-21,15.9
3181,21,44,2,-12,-14,-6,-3,1,15.905000000000001
3182,-37,57,0,8,0,-1,-5,-3,15.91
3183,38,48,4,-23,5,-1,9,17,15.915000000000001
3184,-51,-8,-5,31,8,-4,-4,-12,15.92
3185,-22,76,-8,-1,-5,-5,-11,-15,15.925
3186,-8,-50,5,24,-6,2,2,0,15.93
3187,1,-11,4,12,-6,-3,-9,-12,15.935
3188,-70,-54,-15,-75,3,-2,-2,-11,15.94
3189,23,13,2,43,12,3,5,11,15.945
3190,25,15,-5,19,-14,-4,-12,-14,15.950000000000001
3191,41,26,-9,-50,18,9,11,19,15.955
3192,-28,-20,4,60,-13,-10,-4,-9,15.96
3193,-8,-6,-1,34,26,5,8,13,15.965
3194,36,59,-2,-62,-21,-1,2,-1,15.97
3195,-23,-76,3,64,16,4,-2,-9,15.975
3196,25,13,-15,-4,-24,-5,-15,-15,15.98
3197,17,36,-21,-20,0,7,14,7,15.985000000000001
3198,-46,-26,7,-9,37,0,-3,-18,15.99
3199,2,58,-37,13,-11,-5,-9,18,15.995000000000001
3200,28,17,56,-33,-13,1,4,2,16.0
3201,58,36,6,78,30,2,-12,-2,16.005
3202,9,31,-67,-11,-47,-5,3,3,16.01
3203,61,-17,18,77,51,9,14,-30,16.015
3204,-25,71,10,-18,-19,-9,1,29,16.02
3205,3,-78,18,40,-16,3,12,-25,16.025
3206,-44,-65,3,-39,-5,-9,-12,2,16.03
3207,-30,39,-7,-110,-26,5,3,-55,16.035
3208,53,3,12,104,36,-1,-54,26,16.04
3209,74,-13,5,-33,2,-9,5,45,16.045
3210,3,9,-48,-18,-1,-2,4,5,16.05
3211,-98,-60,0,-78,-50,-10,3,-4,16.055
3212,15,-74,-34,-2,34,5,1,-9,16.06
3213,30,29,-3,-125,-44,-10,0,-1,16.065
3214,5,-20,34,114,16,2,1,-13,16.07
3215,-51,16,9,-90,-15,-2,-24,45,16.075
3216,-9,-46,-12,80,-7,2,16,-26,16.080000000000002
3217,-28,49,47,97,34,2,-6,-19,16.085
3218,51,26,-25,38,9,6,-4,26,16.09
3219,-13,31,-29,-45,-4,7,25,12,16.095
3220,57,-42,55,-1,-20,-5,-13,11,16.1
3221,-13,26,-91,-128,-12,-10,-25,-15,16.105
3222,-45,59,55,-65,-15,-5,6,-19,16.11
3223,32,-6,3,88,-14,-15,-17,-37,16.115000000000002
3224,-83,31,-20,0,40,8,39,29,16.12
3225,-28,43,20,-39,-15,5,16,-7,16.125
3226,-41,6,19,65,11,0,-33,18,16.13
3227,27,-101,13,-26,64,7,-12,3,16.135
3228,-29,5,-14,-58,-69,-10,11,5,16.14
3229,17,55,11,17,-18,-11,-25,-26,16.145
3230,77,82,53,76,39,14,2,61,16.15
3231,-24,-43,13,-86,-36,-4,-5,-35,16.155
3232,28,89,0,90,35,4,-1,-13,16.16
3233,-68,-104,65,-91,-37,10,39,9,16.165
3234,-88,-13,-28,-103,-12,-12,-14,-29,16.17
3235,30,-13,15,127,18,-4,-18,22,16.175
3236,67,36,49,13,41,11,11,1,16.18
3237,-45,-64,-59,-12,-3,0,10,11,16.185
3238,49,-24,-4,-78,-30,-17,-35,-7,16.19
3239,-3,13,-9,-14,-1,15,25,-26,16.195
3240,0,-22,57,15,-30,-12,-22,7,16.2
3241,-34,3,-47,-9,35,2,-12,30,16.205000000000002
3242,1,-107,18,-17,3,13,38,12,16.21
3243,-73,-42,-24,-65,-45,-19,12,-60,16.215
3244,-3,20,16,34,48,7,-15,37,16.22
3245,-7,-48,72,7,5,2,-13,-16,16.225
3246,-6,77,25,28,-37,-13,-12,-22,16.23
3247,0,-55,-1,45,-10,5,18,84,16.235
3248,-51,63,-18,61,-9,3,29,-45,16.240000000000002
3249,-38,-25,-24,102,59,8,3,-8,16.245
3250,94,23,-55,-61,-28,-3,-1,15,16.25
3251,14,15,46,126,46,8,4,-34,16.255
3252,29,10,-79,-127,-17,-16,-36,7,16.26
3253,51,-34,37,36,-21,1,12,19,16.265
3254,-80,-44,-37,-15,12,1,12,-42,16.27
3255,47,74,-77,-90,1,2,-10,17,16.275
3256,-13,-48,1,-4,-17,-6,18,10,16.28
3257,39,91,18,-12,20,5,-12,-17,16.285
3258,-63,-57,3,105,23,-4,-4,8,16.29
3259,89,-67,38,-41,-31,-10,-13,15,16.295
3260,49,81,-17,-29,-32,-1,18,46,16.3
3261,35,-4,-1,14,9,2,-47,9,16.305
3262,-59,56,-47,-31,-22,-6,4,-21,16.31
3263,-34,-43,-72,-38,-2,-2,-3,-30,16.315
3264,41,-10,20,-18,37,2,6,38,16.32
3265,83,-11,-22,-58,-58,-14,5,-45,16.325
3266,80,-40,1,-95,-6,6,1,17,16.330000000000002
3267,-7,61,35,13,-9,0,-6,16,16.335
3268,0,-59,-26,22,27,-1,1,-49,16.34
3269,12,32,-68,1,13,2,3,22,16.345
3270,11,49,31,13,22,1,1,25,16.35
3271,-32,5,14,16,-19,-12,-13,-14,16.355
3272,-31,-43,-21,-56,-21,8,26,-42,16.36
3273,-8,-19,39,60,11,-3,-7,29,16.365000000000002
3274,-18,-1,-56,-15,-2,2,-1,-71,16.37
3275,41,72,18,27,-54,-8,21,78,16.375
3276,13,44,34,-8,52,10,-4,-7,16.38
3277,-108,-64,-21,17,-14,-5,5,0,16.385
3278,18,-6,3,-10,0,2,10,-37,16.39
3279,12,64,52,35,7,-6,-26,44,16.395
3280,-26,-3,10,-58,-20,2,-6,-29,16.4
3281,-65,-19,-23,-28,-24,-9,-9,-3,16.405
3282,29,-10,62,56,16,2,2,9,16.41
3283,-19,-8,-43,-33,23,1,-7,-26,16.415
3284,-7,10,-45,-4,-21,-3,10,26,16.42
3285,-3,-18,61,-33,0,0,-7,-14,16.425
3286,19,-46,-32,15,-1,7,12,-23,16.43
3287,-29,-23,11,16,18,2,12,-1,16.435
3288,1,2,1,1,-14,-7,-19,12,16.44
3289,-5,12,-44,-15,-7,0,14,-9,16.445
3290,-4,13,32,43,20,-1,4,6,16.45
3291,45,51,-20,4,3,-2,-1,3,16.455000000000002
3292,-11,-43,5,-46,-29,0,0,-11,16.46
3293,-9,-5,-30,-30,-12,-2,-8,-22,16.465
3294,19,28,-40,56,60,11,6,24,16.47
3295,-27,-18,51,1,8,-3,-13,3,16.475
3296,-5,-21,-120,-55,-9,-3,-5,-13,16.48
3297,6,18,46,-29,-20,-4,2,2,16.485
3298,14,-2,-24,1,-13,0,-1,17,16.490000000000002
3299,-20,-6,12,-4,5,-6,1,-17,16.495
3300,6,-19,4,18,-8,0,-1,-11,16.5
3301,11,29,-35,15,16,-4,-24,6,16.505
3302,-6,-10,26,-28,-12,-16,5,17,16.51
3303,-67,-40,-19,16,10,32,16,-27,16.515
3304,44,-3,-19,-8,-5,2,-11,19,16.52
3305,39,8,31,16,7,5,5,-5,16.525
3306,19,0,16,0,-14,1,-18,6,16.53
3307,5,1,-34,-21,-1,0,19,-7,16.535
3308,15,-26,28,18,-2,-22,-68,25,16.54
3309,-20,0,6,12,3,15,23,-21,16.545
3310,2,-7,21,-13,-2,-10,13,0,16.55
3311,32,12,50,7,3,-4,-5,-3,16.555
3312,9,-11,-32,-2,6,1,8,-11,16.56
3313,2,-8,-8,0,-12,-16,-16,0,16.565
3314,-8,19,-64,-27,-6,2,-23,10,16.57
3315,-6,24,-4,-6,2,1,1,7,16.575
3316,-17,-5,-27,9,-2,-7,1,-21,16.580000000000002
3317,-7,10,-14,6,-2,-5,-4,6,16.585
3318,-10,-51,28,6,-7,5,17,-2,16.59
3319,-28,-25,-11,-3,1,-9,1,3,16.595
3320,23,6,7,6,-1,-2,-1,-15,16.6
3321,18,18,28,0,-2,4,12,0,16.605
3322,-6,28,8,-13,0,-4,-3,5,16.61
3323,49,17,10,9,4,-1,-4,-4,16.615000000000002
3324,-106,16,-8,-9,-6,9,16,4,16.62
3325,40,29,13,6,2,2,5,6,16.625
3326,1,27,38,7,-1,-1,-7,-17,16.63
3327,18,45,-34,-21,-6,-10,-25,-2,16.635
3328,-2,9,65,33,5,4,36,22,16.64
3329,-24,1,56,12,8,-5,-16,-24,16.645
3330,3,12,-23,-6,2,17,8,3,16.65
3331,8,-12,-80,7,6,29,28,14,16.655
3332,-8,-6,60,7,1,0,4,-11,16.66
3333,12,12,-3,21,3,-17,-10,12,16.665
3334,7,-18,32,8,-5,2,-4,-22,16.67
3335,-74,-20,10,-24,-3,-15,-13,-4,16.675
3336,-3,-31,-101,-29,-4,-2,-4,-14,16.68
3337,-13,-63,28,-2,-2,0,9,6,16.685
3338,15,-1,12,16,1,5,7,1,16.69
3339,-22,-19,-38,15,-2,-3,-10,-1,16.695
3340,-6,6,54,8,-1,-2,-5,6,16.7
3341,13,39,-48,-2,1,-5,-6,-7,16.705000000000002
3342,0,11,48,-23,-1,3,6,26,16.71
3343,31,-23,11,28,-2,-13,-1,-32,16.715
3344,-2,-20,29,-52,-5,-1,-13,5,16.72
3345,18,-13,-2,17,-1,5,12,5,16.725
3346,-27,-15,-12,-1,1,-2,1,2,16.73
3347,20,26,21,14,1,-6,-27,-9,16.735
3348,-6,55,101,22,4,20,32,20,16.740000000000002
3349,-9,69,46,-27,-3,6,1,-31,16.745
3350,11,51,-77,6,-2,3,5,-4,16.75
3351,-26,40,58,17,1,-13,-10,-6,16.755
3352,8,-8,-65,6,-3,-6,-5,-7,16.76
3353,-14,-15,-7,-23,-2,-1,1,16,16.765
3354,-32,-27,12,-2,-3,-14,-9,5,16.77
3355,46,-31,3,16,3,5,9,1,16.775
3356,-1,-32,-6,-39,3,-2,-8,-9,16.78
3357,-2,-59,-86,7,0,4,3,3,16.785
3358,17,-42,61,18,-4,-6,-8,2,16.79
3359,-52,-36,-23,-28,-3,1,7,5,16.795
3360,27,-2,31,13,-2,2,-3,-5,16.8
3361,-15,-8,-33,9,0,0,-3,1,16.805
3362,3,1,24,7,3,0,-1,2,16.81
3363,6,-16,-44,-14,-3,5,5,6,16.815
3364,2,-2,60,21,2,-4,-2,-5,16.82
3365,-14,-11,-60,-25,-3,0,3,1,16.825
3366,9,-11,-17,9,-3,-2,-4,2,16.830000000000002
3367,-22,14,42,-8,3,-1,4,-1,16.835
3368,-5,-9,-38,-20,-5,-7,-9,-10,16.84
3369,0,-3,-2,20,-6,0,3,8,16.845
3370,-4,-2,-41,-3,10,-1,0,0,16.85
3371,11,-6,-84,-21,-4,-2,0,5,16.855
3372,5,2,44,6,-4,0,2,-2,16.86
3373,-10,-1,106,5,5,0,-1,2,16.865000000000002
3374,-1,3,65,-4,-6,-1,1,-3,16.87
3375,11,0,84,-2,3,2,0,-1,16.875
3376,-4,-2,-50,9,3,1,-2,-3,16.88
3377,7,11,-25,-2,-3,-1,0,2,16.885
3378,-10,-1,-28,-27,-3,-4,-2,-3,16.89
3379,8,2,-4,17,3,0,2,1,16.895
3380,3,3,-25,4,-5,-2,-4,-5,16.9
3381,-10,-6,-37,11,1,-4,-28,-17,16.905
3382,0,0,-17,-4,-2,-7,8,14,16.91
3383,1,-3,-15,-14,-6,-12,9,4,16.915
3384,4,2,7,17,3,26,21,2,16.92
3385,-13,6,-21,-1,-1,-1,31,8,16.925
3386,9,2,-46,-10,-1,14,-23,-9,16.93
3387,12,3,-5,-6,2,1,-4,-2,16.935
3388,-14,2,-11,1,-4,-11,-4,1,16.94
3389,25,6,-5,-12,1,-3,-9,-1,16.945
3390,6,2,30,-2,-6,-4,-5,0,16.95
3391,3,0,20,11,-1,-2,11,-17,16.955000000000002
3392,-3,1,-2,9,1,-4,-8,3,16.96
3393,-8,-1,-1,-5,-2,1,0,2,16.965
3394,-5,3,-7,-2,-3,-5,0,1,16.97
3395,5,13,25,2,2,6,-3,-5,16.975
3396,-2,-4,-50,-17,-4,-9,-8,-6,16.98
3397,-5,-1,9,10,-5,0,-4,3,16.985
3398,-4,5,4,-4,2,0,8,1,16.990000000000002
3399,-1,-1,2,2,-1,-1,-6,5,16.995
3400,3,1,-5,1,1,-3,-2,-1,17.0
3401,0,3,2,-4,3,0,4,4,17.005
3402,-9,-8,-6,-7,-3,-1,0,-7,17.01
3403,1,-5,5,5,-3,0,-4,6,17.015
3404,1,-6,0,5,-2,-2,-2,-2,17.02
3405,-2,-4,12,-11,0,0,-1,-4,17.025
3406,-4,1,7,3,0,-1,-2,-2,17.03
3407,2,1,-13,-6,-3,-2,-5,5,17.035
3408,1,-1,11,5,-6,-3,0,-2,17.04
3409,-3,-1,-2,-3,13,-2,-1,2,17.045
3410,-2,-2,-8,10,-6,-3,1,-1,17.05
3411,-4,-2,-17,-9,-5,-2,0,3,17.055
3412,-2,1,6,-3,7,0,-4,-3,17.06
3413,2,3,7,15,-2,0,2,1,17.065
3414,-6,2,9,-8,0,-7,-3,-6,17.07
3415,9,-2,-2,-3,-2,-8,-5,1,17.075
3416,-1,4,-7,-4,-1,19,7,3,17.080000000000002
3417,-5,0,0,6,-3,5,14,-1,17.085
3418,-7,-15,-14,-5,1,-3,-2,0,17.09
3419,0,4,9,4,-1,4,5,2,17.095
3420,-3,-3,-8,-9,2,-6,0,-4,17.1
3421,1,-8,-5,-5,-3,-1,-5,0,17.105
3422,-4,1,1,8,-2,2,2,-1,17.11
3423,-3,0,1,-5,1,0,-4,-2,17.115000000000002
3424,3,-2,-4,-1,0,-6,-6,-1,17.12
3425,-1,2,3,-1,0,2,-3,-2,17.125
3426,-4,-2,-4,0,-2,-3,-2,-1,17.13
3427,-6,-2,13,6,2,1,-4,0,17.135
3428,3,-2,-2,-4,1,-1,-3,-1,17.14
3429,4,-2,-1,1,-3,-5,-3,-1,17.145
3430,-8,5,-3,-4,-12,0,2,-3,17.150000000000002
3431,1,2,-6,-2,13,4,2,0,17.155
3432,1,2,12,14,-6,-2,1,-2,17.16
3433,0,1,1,-13,-4,-2,-1,-1,17.165
3434,3,5,-5,6,4,1,-1,1,17.17
3435,-3,-10,-4,0,-7,0,-2,0,17.175
3436,-2,-2,-4,-6,1,-5,-1,-1,17.18
3437,-1,-5,4,2,1,-2,1,1,17.185
3438,0,0,0,-5,-2,-1,0,2,17.19
3439,2,-7,-6,-4,-6,-11,-10,-8,17.195
3440,-1,3,-2,-2,1,0,4,4,17.2
3441,4,1,-3,0,-2,10,5,0,17.205000000000002
3442,3,-1,-2,-1,5,2,-1,-1,17.21
3443,-11,1,-3,0,-2,-6,-2,0,17.215
3444,21,1,3,-6,-3,-7,-10,-6,17.22
3445,7,3,-4,0,-3,2,9,0,17.225
3446,-21,-2,-3,-2,0,-1,0,0,17.23
3447,13,1,7,3,-4,-1,-2,-3,17.235
3448,-2,1,-6,-6,-10,-3,-2,-4,17.240000000000002
3449,-4,2,1,-1,16,-1,-6,0,17.245
3450,8,-3,1,-4,-1,-2,-1,-2,17.25
3451,-4,1,5,1,0,-1,4,-1,17.255
3452,-12,-4,-7,1,-1,2,5,1,17.26
3453,1,-5,-1,-1,-6,-2,-2,-2,17.265
