slno,emg1,emg2,emg3,emg4,emg5,emg6,emg7,emg8,Time
0,-2,-1,0,0,-1,0,-1,0,0.0
1,-1,1,0,1,0,-2,0,0,0.005
2,0,-1,-2,-1,-1,-3,-2,1,0.01
3,1,0,-1,-2,-2,-5,-1,-3,0.015
4,-1,-1,-1,0,-3,1,-1,-1,0.02
5,-2,-1,-1,-1,0,2,-1,0,0.025
6,0,-2,2,-4,-4,0,-3,-3,0.03
7,1,-2,0,-1,-3,1,-2,-1,0.035
8,-1,1,-1,1,7,0,-2,-2,0.04
9,-1,-2,-1,1,-6,-4,0,-1,0.045
10,0,-2,-1,2,13,2,2,0,0.05
11,-1,-2,-2,-1,-4,0,-1,0,0.055
12,-1,-1,-2,0,-4,-3,-1,0,0.06
13,0,-1,-1,-1,2,0,-1,-3,0.065
14,0,1,-4,0,-3,2,-2,-1,0.07
15,1,0,0,-1,1,1,-1,1,0.075
16,0,-1,0,-1,0,-2,1,0,0.08
17,0,-1,-2,-2,-1,-2,0,0,0.085
18,-2,-2,1,-1,-5,-3,-1,-2,0.09
19,-3,1,-1,1,4,2,1,0,0.095
20,-1,0,-1,2,9,2,0,-1,0.1
21,0,0,1,-2,-2,0,-2,-1,0.105
22,1,-1,-1,3,1,-3,-2,-2,0.11
23,-2,0,-1,-2,-7,-3,-1,-2,0.115
24,-2,-2,-1,-4,2,0,1,-1,0.12
25,-2,-1,0,-2,3,0,-1,-1,0.125
26,-1,-1,1,-1,-4,1,0,0,0.13
27,2,0,0,2,1,0,-1,-2,0.135
28,-1,0,1,1,-5,0,-3,-1,0.14
29,-1,-1,-1,0,-1,1,-4,-3,0.145
30,-1,0,-4,-3,-3,-1,-3,-1,0.15
31,-2,-1,0,-2,2,-1,-1,-1,0.155
32,-2,0,1,0,-2,-5,0,-2,0.16
33,-1,0,0,1,-2,-2,0,-2,0.165
34,0,0,-1,2,1,-1,-2,-1,0.17
35,1,-1,-3,-3,-3,-1,0,0,0.17500000000000002
36,0,0,-3,-4,-4,0,0,0,0.18
37,0,-1,-2,3,0,-1,1,0,0.185
38,-3,-2,-2,-1,1,2,1,1,0.19
39,-2,1,-3,1,2,1,-1,-1,0.195
40,-1,1,1,0,-3,-1,-1,-1,0.2
41,-3,-3,0,-1,-4,-3,0,-2,0.20500000000000002
42,-1,-1,-2,-4,-6,-2,2,-2,0.21
43,0,-2,2,-1,6,0,-2,-1,0.215
44,0,0,-2,0,1,3,-2,-3,0.22
45,-2,0,1,0,-1,3,2,-1,0.225
46,-1,-1,-2,-2,-1,-1,1,1,0.23
47,-3,-2,-3,-1,-5,-1,-3,-1,0.23500000000000001
48,-2,-3,-1,0,-2,-3,-3,-1,0.24
49,1,0,-1,-2,1,1,-1,1,0.245
50,2,0,0,-3,-2,-1,-1,-3,0.25
51,-1,0,-2,-1,0,-2,-1,0,0.255
52,-1,-1,-2,-1,-2,1,-1,1,0.26
53,-1,-2,-2,-2,-7,0,1,3,0.265
54,-2,-2,0,3,4,0,-2,0,0.27
55,-2,0,0,-2,-3,-3,-3,-3,0.275
56,-1,-1,0,-1,4,1,2,2,0.28
57,0,0,-2,-2,-4,-3,-1,-2,0.28500000000000003
58,-2,0,-1,0,0,-1,-1,-1,0.29
59,1,-1,-1,1,1,1,0,-3,0.295
60,-1,0,-1,-1,-5,-5,-2,0,0.3
61,0,1,-1,1,3,1,-1,2,0.305
62,0,-2,0,2,-1,1,-1,-2,0.31
63,0,-1,0,-1,-1,1,-1,1,0.315
64,-2,0,-1,-1,-6,-2,-1,-2,0.32
65,-2,1,-2,0,1,0,0,-2,0.325
66,-1,1,0,-4,7,0,0,-4,0.33
67,-2,0,0,-3,-4,0,4,-1,0.335
68,0,-1,-1,0,1,1,0,1,0.34
69,0,0,0,0,-2,-4,-2,1,0.34500000000000003
70,0,-3,-3,0,-1,-1,-3,-1,0.35000000000000003
71,-2,-4,-1,29,0,-2,-4,-2,0.355
72,0,1,0,14,0,-2,-1,-2,0.36
73,-1,-1,-3,0,-1,-1,0,-2,0.365
74,0,-3,0,-30,-3,1,1,-1,0.37
75,0,-2,1,-29,1,1,-1,-2,0.375
76,-1,-3,0,-10,-1,-2,-2,-1,0.38
77,-1,0,1,0,1,-2,-4,-1,0.385
78,-1,2,0,6,0,-1,-1,2,0.39
79,0,0,-3,1,-3,-1,0,0,0.395
80,2,0,-1,1,2,0,0,-2,0.4
81,0,-2,-2,-1,-1,-1,1,-2,0.405
82,1,-3,0,5,-4,-2,-2,3,0.41000000000000003
83,-2,2,1,-1,0,-1,1,2,0.41500000000000004
84,0,-2,0,3,-1,-2,-2,-1,0.42
85,1,-1,-1,0,2,-1,0,-2,0.425
86,-2,-2,-1,5,-4,-2,-1,-4,0.43
87,-2,-2,0,0,-2,-1,-2,-1,0.435
88,-1,1,-6,-4,-1,1,-4,-3,0.44
89,-3,0,1,0,-1,0,-2,-2,0.445
90,-1,0,0,5,-1,1,1,-1,0.45
91,0,-2,-2,-2,-1,-2,-1,0,0.455
92,0,-2,-2,-3,0,0,2,1,0.46
93,1,-2,0,-5,-1,-2,-2,0,0.465
94,-2,-1,0,3,1,-2,-1,0,0.47000000000000003
95,-1,-2,1,-2,-5,-1,-1,-1,0.47500000000000003
96,-3,0,0,-4,5,0,-1,-1,0.48
97,0,0,-2,1,-1,-1,-2,-1,0.485
98,-1,-1,-5,1,0,0,-2,-1,0.49
99,-1,-1,-2,-1,1,-3,-1,1,0.495
100,-1,-1,-2,0,-3,2,1,0,0.5
101,0,-1,-1,-2,-3,1,-1,2,0.505
102,1,0,0,0,0,-4,-2,-1,0.51
103,-1,-1,0,2,1,1,-1,-2,0.515
104,0,-1,0,1,-3,-2,3,-2,0.52
105,0,-1,0,-2,0,-2,0,0,0.525
106,-1,-3,1,0,-2,-1,0,-1,0.53
107,-1,-1,-2,-4,1,-1,-4,1,0.535
108,-1,1,0,0,-1,-1,0,0,0.54
109,-1,-1,-1,-2,-1,0,0,1,0.545
110,2,0,-1,-2,-2,0,-1,-1,0.55
111,2,2,-2,-2,3,-1,2,1,0.555
112,-1,-1,-2,-1,-3,-1,1,-1,0.56
113,-3,-2,-1,1,0,0,-1,0,0.5650000000000001
114,-1,1,1,1,-1,0,-3,0,0.5700000000000001
115,-1,-1,-1,-1,0,3,2,-4,0.5750000000000001
116,-2,-2,-3,-2,-2,0,-1,0,0.58
117,0,-1,-3,-2,-2,-2,0,-1,0.585
118,0,-1,-1,1,-5,0,0,1,0.59
119,0,0,0,1,0,1,-2,-1,0.595
120,-1,-1,0,1,-2,-1,-2,-2,0.6
121,0,-2,1,-3,0,-1,1,-2,0.605
122,-2,1,-2,-2,0,-4,1,0,0.61
123,-4,-2,-1,1,-2,-2,2,2,0.615
124,2,-4,-1,-1,-2,0,-2,0,0.62
125,0,-2,-3,2,-2,-3,4,0,0.625
126,1,-1,-2,-5,-1,0,-10,-2,0.63
127,-1,2,0,-4,1,0,-4,-1,0.635
128,7,2,-1,0,3,-2,1,0,0.64
129,-1,-1,-1,3,-1,1,-3,-5,0.645
130,-10,-2,0,2,0,-1,2,0,0.65
131,9,2,-1,-1,-2,0,-4,-2,0.655
132,-4,-4,1,-4,-2,-1,-1,-1,0.66
133,6,0,0,0,0,0,-1,-1,0.665
134,-6,0,-1,2,2,0,1,0,0.67
135,-21,-1,-3,0,-1,-2,2,-1,0.675
136,18,-1,1,-1,-1,-1,2,-7,0.68
137,12,-1,0,-3,1,0,-2,7,0.685
138,-4,-1,0,-1,0,-1,4,-2,0.6900000000000001
139,11,-1,1,2,1,-1,-9,3,0.6950000000000001
140,-3,-1,-3,0,-3,-4,-4,0,0.7000000000000001
141,-9,-2,-3,-4,-1,1,-4,-1,0.705
142,14,-2,-1,1,1,-4,-8,-3,0.71
143,-18,-3,-2,-7,-3,2,19,-2,0.715
144,26,3,-1,0,-2,-1,-4,-2,0.72
145,-12,-3,-1,-3,1,0,-2,-4,0.725
146,3,1,0,-2,-1,2,-11,1,0.73
147,-3,-3,0,3,0,-3,6,-1,0.735
148,-4,4,-2,9,1,2,0,4,0.74
149,-14,3,0,-9,0,2,6,-1,0.745
150,-6,3,-4,-5,-3,0,-6,-7,0.75
151,9,-4,1,4,-2,-4,-6,0,0.755
152,10,-2,2,-8,-1,3,1,3,0.76
153,-37,-4,-1,2,-1,-7,-8,5,0.765
154,61,-1,-3,-2,-2,0,3,-8,0.77
155,-70,-13,-8,-4,-1,3,2,0,0.775
156,-12,1,-5,0,0,-3,3,-5,0.78
157,29,3,7,6,0,1,-3,-8,0.785
158,-46,-3,0,-9,-3,-6,1,-2,0.79
159,49,4,3,2,0,6,6,0,0.795
160,-3,-5,0,-2,2,0,0,1,0.8
161,-1,-4,-13,1,1,2,-1,1,0.805
162,20,-2,-1,4,-3,-1,24,12,0.81
163,-16,-5,-3,2,-2,-1,-44,-6,0.8150000000000001
164,-25,-1,-2,-9,1,-1,-14,0,0.8200000000000001
165,18,1,3,-5,-1,-3,-11,0,0.8250000000000001
166,-10,0,-4,4,2,0,7,7,0.8300000000000001
167,25,5,-7,-3,0,-2,13,0,0.835
168,-36,3,10,18,0,1,-3,5,0.84
169,4,-7,5,-1,-5,-6,-4,-13,0.845
170,20,-1,-3,0,-1,1,-3,14,0.85
171,-24,-5,4,2,-2,-6,-5,-27,0.855
172,-14,-3,-11,-7,3,1,4,-4,0.86
173,-6,2,-1,4,2,4,17,6,0.865
174,-15,-3,0,-3,0,-1,0,-7,0.87
175,43,5,-9,-4,-1,0,-3,4,0.875
176,-10,-1,-1,2,-3,-2,0,-8,0.88
177,-19,0,-9,3,-2,-2,0,18,0.885
178,0,5,6,-8,1,1,-6,-5,0.89
179,-14,1,7,3,0,-3,1,13,0.895
180,22,1,-2,-5,-2,1,17,2,0.9
181,17,1,4,1,1,-2,-9,-4,0.905
182,-9,0,-4,4,-2,-1,-7,-1,0.91
183,7,2,5,-2,-2,0,4,5,0.915
184,17,1,1,-3,-3,-1,-3,-2,0.92
185,-67,-2,-5,0,0,2,-3,-8,0.925
186,3,0,2,5,1,0,-3,-6,0.93
187,4,0,0,-7,0,2,9,-3,0.935
188,-2,-1,1,-2,0,2,-2,1,0.9400000000000001
189,31,0,-1,6,0,-4,3,-5,0.9450000000000001
190,-5,-4,0,-2,-1,-2,-7,-1,0.9500000000000001
191,-4,2,-4,-8,-1,-3,3,-3,0.9550000000000001
192,7,0,5,9,-3,-5,-6,3,0.96
193,-1,0,-2,-5,-3,1,2,1,0.965
194,-9,-3,1,6,-2,1,-4,-3,0.97
195,0,-1,2,-7,-3,-3,-1,-1,0.975
196,-9,0,-4,-4,1,0,-14,0,0.98
197,3,0,1,-3,-1,1,3,0,0.985
198,-7,-4,-3,-5,0,-1,4,-2,0.99
199,13,-1,-3,2,-1,-2,-8,3,0.995
200,-21,-4,-1,0,-2,-2,-2,-4,1.0
201,7,-2,3,-3,0,-2,3,-3,1.0050000000000001
202,-11,1,-4,2,2,2,-3,-4,1.01
203,-18,0,1,6,1,-3,1,5,1.0150000000000001
204,1,-1,0,-3,-2,-2,3,-2,1.02
205,14,2,-3,-9,-1,2,-4,1,1.025
206,-7,-3,0,5,0,-1,1,-1,1.03
207,5,-2,2,2,-2,0,12,-1,1.035
208,-1,-2,-4,-1,-2,2,-6,0,1.04
209,-1,-1,-2,3,-2,0,-1,-1,1.045
210,4,-1,5,2,1,-2,1,-1,1.05
211,-1,-1,1,1,1,-3,1,-2,1.055
212,3,-1,-1,0,0,-1,3,-2,1.06
213,-1,-1,-5,-2,0,0,-1,-3,1.065
214,-1,-3,-1,-7,-2,-3,-3,-2,1.07
215,-8,1,0,8,2,4,-4,3,1.075
216,8,-3,-1,-9,-2,-1,-3,-2,1.08
217,2,2,0,3,-2,-3,-4,-2,1.085
218,-2,-1,-3,-1,-2,4,9,1,1.09
219,10,-1,-2,-8,1,1,-5,-4,1.095
220,-19,-2,-3,-3,3,-4,-2,0,1.1
221,13,2,1,0,-2,-2,-2,-1,1.105
222,-3,0,-3,0,-2,0,-1,1,1.11
223,0,-1,2,1,-3,-1,-3,1,1.115
224,6,-1,-3,1,-1,-2,2,-1,1.12
225,0,-1,3,-1,-2,-2,0,-2,1.125
226,-8,2,2,-4,-2,-1,4,0,1.1300000000000001
227,8,0,-4,0,-1,1,-1,-3,1.135
228,-7,-1,-3,1,-2,-1,0,4,1.1400000000000001
229,-7,-4,-2,-2,1,-2,4,1,1.145
230,2,-1,-2,0,0,0,-7,-2,1.1500000000000001
231,0,0,-2,0,-4,1,1,-1,1.155
232,7,0,1,-2,-1,-1,-2,-1,1.16
233,0,1,0,-1,0,-2,0,1,1.165
234,2,0,-1,1,-1,-2,-1,-2,1.17
235,-3,0,-4,-1,-2,-2,-2,-3,1.175
236,4,0,2,0,-1,-1,3,-2,1.18
237,-3,-3,4,-1,-1,0,-3,-2,1.185
238,0,-1,-1,-2,0,-1,0,-1,1.19
239,-7,-3,-3,-3,-1,0,-7,1,1.195
240,-5,-1,-2,-2,-1,-1,5,-1,1.2
241,-8,1,-2,6,1,-1,-5,0,1.205
242,4,-3,0,-6,-3,-2,-3,0,1.21
243,-14,-3,-3,5,0,0,2,2,1.215
244,11,1,-2,-8,0,1,0,-2,1.22
245,-3,-2,8,-3,-1,0,-1,-2,1.225
246,1,-1,-4,6,-2,-1,-3,-4,1.23
247,-14,3,3,-10,0,-2,0,-3,1.235
248,3,-1,-3,8,-1,1,-2,6,1.24
249,-1,-4,-8,-8,-1,0,2,0,1.245
250,9,2,-1,-3,1,-2,1,-1,1.25
251,17,-2,-2,-2,-1,-3,-5,-3,1.2550000000000001
252,-19,2,3,4,-2,-3,6,-8,1.26
253,21,0,-3,-3,-2,3,2,-1,1.2650000000000001
254,14,-1,2,1,-2,1,0,-3,1.27
255,-12,-1,-3,0,0,1,1,3,1.2750000000000001
256,20,1,0,-1,0,-2,-4,-9,1.28
257,-2,-1,-4,1,-1,-1,3,-4,1.285
258,-1,-2,-3,0,-1,0,3,4,1.29
259,-2,-1,1,4,0,0,-2,-4,1.295
260,-1,-3,-2,-2,-3,-2,-4,3,1.3
261,-3,-2,1,-3,-1,-9,-13,0,1.305
262,-14,1,-1,-1,-2,7,7,3,1.31
263,11,1,0,-3,2,4,1,2,1.315
264,-4,-2,1,0,0,2,-4,0,1.32
265,0,-1,-3,0,0,1,7,-6,1.325
266,-39,-3,-2,-2,-1,-4,1,1,1.33
267,34,-2,-5,-1,-1,-7,-17,-3,1.335
268,7,1,1,0,1,-3,-1,1,1.34
269,6,3,2,0,-1,-2,-7,-2,1.345
270,-14,-1,-1,1,-1,-5,-5,-3,1.35
271,0,-1,-1,4,-2,1,6,1,1.355
272,-4,1,-5,-6,-4,1,-6,-1,1.36
273,-11,1,1,1,-2,2,5,-1,1.365
274,11,-2,-3,-6,2,0,0,0,1.37
275,-37,0,-1,-3,0,0,1,2,1.375
276,59,1,0,-1,1,0,-1,-5,1.3800000000000001
277,-15,-4,-2,-3,-2,-1,0,6,1.385
278,32,4,2,2,2,2,2,-4,1.3900000000000001
279,-15,-2,-1,-1,-3,-5,1,2,1.395
280,-29,-5,-2,1,1,-1,0,4,1.4000000000000001
281,-15,0,-1,2,-2,1,-1,-1,1.405
282,16,-1,1,-1,0,-2,-8,-4,1.41
283,16,-1,2,-1,-1,-3,-2,-2,1.415
284,-9,-4,-2,-3,-2,-1,3,-1,1.42
285,5,-3,-2,1,1,-4,-2,-2,1.425
286,-28,-1,-1,-3,-2,-1,-2,-6,1.43
287,-5,2,1,2,0,2,7,-3,1.435
288,2,-3,-2,0,-3,0,-6,1,1.44
289,15,0,-2,-2,-1,1,16,-2,1.445
290,2,1,-2,-3,-1,0,-15,1,1.45
291,-2,-1,1,0,-3,-2,-2,-8,1.455
292,24,1,0,3,0,1,4,3,1.46
293,-16,-3,-4,-5,0,0,-9,3,1.465
294,-21,-4,-1,1,0,0,0,-3,1.47
295,-15,-2,-1,-3,1,-2,-4,1,1.475
296,7,-2,-2,0,1,-1,-17,-4,1.48
297,2,-3,-1,2,-1,3,5,8,1.485
298,9,-2,-2,0,-1,-3,6,-4,1.49
299,31,2,-2,-3,-3,-4,-24,-2,1.495
300,-29,-1,1,-3,-3,2,22,2,1.5
301,-1,0,1,0,0,1,-6,-3,1.5050000000000001
302,-2,-3,0,-6,-2,1,5,4,1.51
303,-6,2,-3,-1,-1,0,-1,1,1.5150000000000001
304,2,-2,-2,2,0,0,-3,-6,1.52
305,0,-1,0,2,-2,-6,-4,0,1.5250000000000001
306,8,0,-2,2,-3,-7,5,1,1.53
307,-18,0,1,-2,0,4,3,0,1.5350000000000001
308,-3,4,0,-2,-4,-2,10,-5,1.54
309,-13,3,1,-3,3,11,-6,-1,1.545
310,0,5,0,0,-2,-3,-7,4,1.55
311,-18,1,-2,-3,-2,-2,7,-5,1.555
312,-8,2,-2,-1,-2,-4,-9,-2,1.56
313,7,5,-1,-2,-2,-3,2,-3,1.565
314,20,-1,2,5,2,-4,-1,-7,1.57
315,-5,1,0,0,-1,-2,-18,-2,1.575
316,-9,16,5,0,2,-2,11,2,1.58
317,-16,16,5,-3,-1,1,8,-7,1.585
318,9,16,8,-4,-1,-2,1,21,1.59
319,26,54,9,-2,-1,-1,-5,-3,1.595
320,-14,92,4,-4,-1,-2,0,2,1.6
321,10,126,-12,3,0,-6,-12,-3,1.605
322,-9,127,-15,4,1,-1,-6,-9,1.61
323,-4,-73,-16,3,1,-1,2,-2,1.615
324,-10,-109,-12,0,2,0,-7,2,1.62
325,7,-55,-7,-2,-1,-1,-1,-6,1.625
326,0,-14,-16,-2,-5,1,-1,-1,1.6300000000000001
327,1,0,4,2,-1,0,17,2,1.635
328,-10,-25,9,2,0,3,2,2,1.6400000000000001
329,6,-77,10,1,-1,0,2,3,1.645
330,-4,-72,10,-1,-3,2,1,-3,1.6500000000000001
331,-1,-36,4,-2,-3,1,5,6,1.655
332,2,-53,-2,-4,-2,-1,-2,-1,1.6600000000000001
333,2,-48,-2,0,-2,-2,1,3,1.665
334,-8,-66,-4,-3,-2,-1,-2,-4,1.67
335,5,-46,-10,-1,-1,-1,2,-2,1.675
336,6,-27,-9,-5,-1,0,-2,0,1.68
337,2,-26,-1,-1,0,-2,-3,1,1.685
338,7,-34,4,0,-1,3,-1,-3,1.69
339,1,-13,3,26,-1,1,2,1,1.695
340,0,7,2,12,-1,2,-5,0,1.7
341,-4,-9,-2,1,-1,0,1,-2,1.705
342,3,-24,-1,-30,2,-1,0,4,1.71
343,-1,4,1,-27,3,0,0,-5,1.715
344,-6,-22,-1,-10,-2,-2,-6,-5,1.72
345,2,-11,-1,-1,-3,1,-1,-1,1.725
346,-7,-9,3,8,-2,1,3,0,1.73
347,-16,24,-2,-1,-2,-1,-1,-1,1.735
348,8,21,1,4,-1,-2,-2,-5,1.74
349,3,11,1,1,0,-1,1,-3,1.745
350,-9,19,1,8,1,-2,2,-3,1.75
351,3,20,0,1,0,-6,-24,-1,1.7550000000000001
352,-8,11,0,2,0,0,-1,-1,1.76
353,-1,35,-2,2,1,3,2,3,1.7650000000000001
354,2,22,-4,0,-1,1,-4,-5,1.77
355,-1,2,-1,-1,0,3,13,-2,1.7750000000000001
356,12,0,-3,0,0,-2,0,4,1.78
357,-3,-2,-3,-2,-2,-4,-3,-3,1.7850000000000001
358,-5,21,-4,-1,-1,0,3,4,1.79
359,2,-1,-4,-3,-3,-1,-1,-1,1.795
360,-5,1,-4,-5,-2,1,-2,-6,1.8
361,5,-25,-2,-2,0,0,1,-2,1.805
362,-17,-29,-2,4,0,-2,-2,3,1.81
363,-1,-10,-2,4,-1,-3,4,1,1.815
364,-6,-10,-7,-1,0,-3,-2,-1,1.82
365,0,-14,-1,2,0,-4,0,0,1.825
366,4,-18,0,1,-3,0,-2,-1,1.83
367,0,-5,-2,-1,1,1,1,0,1.835
368,-5,-1,-7,-1,1,0,4,-2,1.84
369,4,-4,0,-2,0,-3,-5,1,1.845
370,-3,-7,-6,-1,-1,1,1,-6,1.85
371,6,-3,3,-3,-1,-1,0,5,1.855
372,3,8,3,-1,1,-1,-4,1,1.86
373,0,6,-3,-2,-1,0,-2,-2,1.865
374,-4,0,-1,1,2,-2,-1,-4,1.87
375,-1,1,0,3,-1,-3,2,-1,1.875
376,-2,2,1,0,1,0,-1,2,1.8800000000000001
377,-7,0,2,-2,-1,0,-2,1,1.885
378,7,-11,3,-1,-3,0,-2,-1,1.8900000000000001
379,-18,-11,1,-2,-3,-1,0,-6,1.895
380,5,-9,2,-3,-2,-1,1,1,1.9000000000000001
381,-4,-12,0,-1,-1,-2,-3,-3,1.905
382,0,-6,4,2,1,2,1,2,1.9100000000000001
383,9,3,3,1,-1,-1,1,0,1.915
384,-2,10,6,10,-1,-2,-1,-4,1.92
385,-2,5,-4,-21,-2,-1,-1,7,1.925
386,19,24,-2,-3,-2,-3,-5,-2,1.93
387,4,30,0,-2,-1,1,0,1,1.935
388,-2,40,-5,0,-3,-1,2,-1,1.94
389,1,36,3,10,0,-1,-1,-3,1.945
390,-5,18,2,-1,-1,3,8,-1,1.95
391,-2,26,-1,-2,-1,-1,-5,-4,1.955
392,5,98,-7,-3,-1,0,1,-1,1.96
393,0,24,-2,-3,-2,-2,-1,-1,1.965
394,-2,18,-3,-1,-2,-4,-2,1,1.97
395,1,-17,-1,0,0,0,2,3,1.975
396,-2,-45,-4,-5,0,2,3,2,1.98
397,-3,-30,3,4,-2,-2,-1,-5,1.985
398,-4,-28,0,-1,-1,-7,-15,-2,1.99
399,-5,-24,-3,-3,-1,0,7,3,1.995
400,10,-25,-2,-3,0,4,4,-29,2.0
401,0,-16,-6,2,1,5,4,-3,2.005
402,4,-15,1,3,0,-2,-4,-1,2.0100000000000002
403,-17,2,-5,-2,1,-2,-7,-1,2.015
404,-2,-7,5,1,-3,-3,-8,4,2.02
405,-3,-4,3,3,0,-1,-2,-4,2.025
406,3,2,0,-3,0,0,-1,2,2.0300000000000002
407,13,9,-1,-2,-3,-3,-3,5,2.035
408,-19,-9,-1,-2,-4,-2,2,5,2.04
409,1,10,0,3,1,2,-8,-5,2.045
410,-4,5,-2,1,2,1,3,-2,2.05
411,-2,-1,-1,-1,-1,-4,-2,-3,2.055
412,10,0,-4,-4,0,-9,-5,3,2.06
413,28,4,-4,-5,-2,3,9,2,2.065
414,-12,-7,0,0,-3,-1,2,1,2.07
415,-10,-28,-4,0,-3,0,-3,-19,2.075
416,-9,-26,4,5,-3,1,-2,3,2.08
417,5,-12,-2,-1,-3,-4,0,1,2.085
418,-12,3,0,-2,2,-1,-3,-3,2.09
419,6,19,3,1,0,-1,-3,-14,2.095
420,4,13,0,-1,-1,-4,-8,19,2.1
421,0,15,-3,-4,1,-2,-1,-2,2.105
422,-5,6,-8,-1,-4,0,3,-4,2.11
423,-2,11,1,0,-1,-1,-1,-2,2.115
424,0,-2,2,-2,1,1,1,-4,2.12
425,-25,-6,1,-2,-2,0,-10,1,2.125
426,10,-2,2,1,1,2,-3,2,2.13
427,0,-7,-2,-1,1,0,2,5,2.1350000000000002
428,4,-8,-3,-6,-1,0,3,-6,2.14
429,-9,-4,1,-2,1,-3,1,0,2.145
430,-5,-2,1,0,1,-5,-2,-3,2.15
431,7,-2,0,0,0,2,-1,10,2.1550000000000002
432,-4,-3,-1,3,1,5,0,-1,2.16
433,-9,-2,-2,1,-2,-3,-1,-3,2.165
434,13,-3,-2,-2,-3,-2,0,4,2.17
435,-2,-3,-1,-3,-1,0,2,9,2.1750000000000003
436,23,-5,1,-3,-1,-4,-3,-2,2.18
437,13,-1,-2,1,-1,-2,0,-4,2.185
438,7,26,1,3,0,1,0,0,2.19
439,-3,3,-1,1,1,0,2,-3,2.195
440,-17,-4,0,-2,-3,-1,0,-25,2.2
441,6,-8,-3,-4,-1,-1,-3,13,2.205
442,-12,11,-2,-4,-2,-1,0,-3,2.21
443,8,3,-2,-1,0,-3,-2,3,2.215
444,-6,-12,-5,-2,0,0,0,-9,2.22
445,-8,-20,-1,1,0,2,2,5,2.225
446,-4,-22,-2,-2,0,-1,0,-7,2.23
447,-1,-14,-1,-2,-2,-1,-3,3,2.235
448,7,3,2,2,1,0,-1,8,2.24
449,-17,-3,1,3,-3,-3,-1,0,2.245
450,0,-6,-1,-1,1,-2,-2,2,2.25
451,-7,-2,-3,-2,-2,1,0,-7,2.255
452,-2,4,0,0,0,-4,-1,3,2.2600000000000002
453,4,12,-5,-3,-2,-1,-3,-8,2.265
454,10,7,2,2,0,2,0,-3,2.27
455,-26,9,0,1,1,-1,4,-5,2.275
456,-3,8,0,2,-1,1,-1,8,2.2800000000000002
457,-2,9,-1,-2,1,1,-2,-1,2.285
458,0,-7,-3,-1,-3,-2,1,3,2.29
459,9,-2,0,-1,-1,0,-2,-3,2.295
460,4,-3,-3,-1,-3,0,-1,-7,2.3000000000000003
461,-14,-4,0,-2,0,-2,-1,23,2.305
462,-2,-9,-2,-4,1,-1,-1,0,2.31
463,4,0,0,-1,-3,-1,0,-1,2.315
464,-18,-7,-1,0,2,2,-1,3,2.32
465,23,-1,0,1,-2,-1,-1,-10,2.325
466,-8,-3,3,1,-1,0,2,-3,2.33
467,3,2,-3,-2,0,-1,0,5,2.335
468,3,3,-3,-2,0,0,-1,-4,2.34
469,0,4,-1,0,1,-1,0,2,2.345
470,-1,3,-3,0,-1,-2,0,-3,2.35
471,-2,5,2,2,0,-1,-1,1,2.355
472,6,0,0,-2,-3,-2,-2,-4,2.36
473,0,0,3,-1,-2,-3,1,-8,2.365
474,-2,-2,1,-1,-2,-3,-4,4,2.37
475,1,-5,-2,-3,0,3,-2,-6,2.375
476,25,-3,-2,-4,-1,-1,-5,3,2.38
477,-1,-3,-1,1,0,0,-1,-2,2.3850000000000002
478,-5,-6,-2,-1,-1,1,-2,-6,2.39
479,-2,2,-2,-1,-1,-2,-1,5,2.395
480,-2,1,0,-1,1,-2,1,-8,2.4
481,-3,3,-2,0,0,0,0,31,2.4050000000000002
482,-2,0,1,0,0,0,1,4,2.41
483,9,0,-2,-2,-1,1,2,1,2.415
484,-6,3,8,3,-1,-1,-1,-5,2.42
485,-9,1,0,-1,0,-3,0,-17,2.4250000000000003
486,13,-2,-4,-2,-2,-2,1,-1,2.43
487,-6,0,3,1,-1,1,-1,2,2.435
488,3,3,-9,-1,-1,-2,0,2,2.44
489,-11,0,0,3,-3,-1,-2,-6,2.445
490,-7,0,7,6,-1,-1,-3,2,2.45
491,-12,-2,-3,-5,-3,-2,-1,-9,2.455
492,2,-1,1,-5,-4,1,3,8,2.46
493,1,-2,-3,0,0,0,-1,-7,2.465
494,5,-1,-6,-7,-1,-2,0,-4,2.47
495,-9,-2,-1,1,-1,-1,1,-5,2.475
496,-13,-2,-3,-1,0,0,-1,6,2.48
497,2,0,-4,-3,-1,0,0,1,2.485
498,-4,-5,3,-2,0,0,2,-1,2.49
499,10,0,-3,1,2,-3,-1,1,2.495
500,-9,-2,1,11,2,1,-3,1,2.5
501,12,-2,-10,-10,-2,1,1,-24,2.505
502,-26,-3,3,0,-3,-1,-3,4,2.5100000000000002
503,8,0,1,-5,0,-1,1,4,2.515
504,-3,-1,-1,1,0,-2,0,1,2.52
505,-18,3,4,4,0,0,-1,-7,2.525
506,0,-2,-5,1,0,1,2,-1,2.5300000000000002
507,6,1,4,-1,-2,-2,-1,0,2.535
508,-10,-3,0,-5,-3,-1,-3,0,2.54
509,17,1,-2,0,-2,-3,-4,4,2.545
510,5,2,-8,-6,1,3,0,-4,2.5500000000000003
511,4,-1,-3,1,-1,-2,-1,0,2.555
512,3,1,5,9,1,-1,3,-1,2.56
513,-2,0,-2,-7,-2,0,-2,-4,2.565
514,5,2,-2,-4,-1,0,-5,7,2.57
515,-3,2,2,5,1,-1,-2,8,2.575
516,-7,-3,-5,-11,-1,-4,-4,-13,2.58
517,-12,-2,3,5,0,-4,2,2,2.585
518,9,2,1,4,-1,0,0,-5,2.59
519,4,3,-3,-7,0,0,0,3,2.595
520,-1,2,-1,-3,-4,-2,1,4,2.6
521,-2,-4,2,1,-1,-1,0,1,2.605
522,12,-4,-1,1,0,-1,0,-3,2.61
523,-30,-7,0,0,-1,0,1,-6,2.615
524,10,0,-1,1,-1,0,-1,0,2.62
525,0,-2,0,2,0,1,-2,-5,2.625
526,-6,-6,-3,3,-1,-1,-4,1,2.63
527,5,-1,-1,1,-3,1,-2,-2,2.6350000000000002
528,-9,-2,-3,-8,0,0,-1,5,2.64
529,0,0,-2,-6,0,-3,2,3,2.645
530,2,3,-2,-1,-1,-2,1,-1,2.65
531,5,-2,0,-1,2,-3,0,-1,2.6550000000000002
532,2,-1,2,0,0,0,1,0,2.66
533,4,7,3,1,1,0,2,2,2.665
534,-6,3,1,-1,-3,-1,-1,-2,2.67
535,1,0,-3,1,-3,0,-1,-4,2.6750000000000003
536,-4,-5,-4,-2,-2,1,-1,2,2.68
537,-2,-5,-3,-1,-2,0,-1,-1,2.685
538,-6,-5,1,30,3,-1,-1,-1,2.69
539,3,-1,-2,16,1,1,-4,-5,2.695
540,0,-5,1,4,-2,-2,-5,2,2.7
541,2,-2,2,-4,-3,-1,-3,0,2.705
542,-2,0,1,-35,-3,-3,3,0,2.71
543,-4,-2,1,-28,-1,-2,1,-1,2.715
544,7,0,-3,-10,-2,0,1,-4,2.72
545,6,0,-2,-3,-2,-1,0,6,2.725
546,-17,1,-2,5,-2,0,-2,0,2.73
547,-7,2,-2,3,-2,-2,-1,0,2.735
548,3,3,0,0,-2,0,1,0,2.74
549,-8,-1,-1,7,0,-1,1,-2,2.745
550,3,-5,2,5,2,1,1,-3,2.75
551,-1,0,-3,2,-2,-1,3,3,2.755
552,13,-2,1,11,0,-1,-3,0,2.7600000000000002
553,3,2,-2,-6,-3,-2,-2,-3,2.765
554,-3,0,-2,-2,-3,-3,-2,-1,2.77
555,-1,-1,-7,-4,0,0,-1,-5,2.775
556,-4,-1,2,-3,-1,0,-1,0,2.7800000000000002
557,-2,-2,1,1,-1,1,0,-1,2.785
558,0,-1,2,4,-1,0,-1,0,2.79
559,7,2,-4,-9,-5,-2,-1,-2,2.795
560,-4,7,-4,0,-1,-3,-4,-2,2.8000000000000003
561,-1,-1,-1,-3,0,0,-2,3,2.805
562,-2,-1,2,0,-1,-1,1,-20,2.81
563,-1,-7,1,9,1,2,-2,43,2.815
564,0,0,-3,-4,0,3,2,3,2.82
565,-16,-2,4,3,0,-1,-1,-4,2.825
566,0,-3,6,-8,0,-1,-2,0,2.83
567,1,-4,-19,-11,-6,0,-1,-13,2.835
568,-9,-3,14,4,4,-1,-1,4,2.84
569,-19,-1,-18,6,-3,-1,1,7,2.845
570,37,-2,13,-11,-1,-1,1,6,2.85
571,-1,0,3,2,0,0,0,-9,2.855
572,-3,0,1,-4,-2,-1,0,0,2.86
573,4,11,-6,-1,0,2,-2,-10,2.865
574,-12,6,-8,2,1,-2,-2,3,2.87
575,1,1,3,1,0,-3,-2,-6,2.875
576,-1,13,-8,-1,-2,-5,-2,-3,2.88
577,8,-1,6,0,1,-3,0,0,2.8850000000000002
578,-5,-5,-8,-3,-2,2,-4,1,2.89
579,6,-8,8,0,-2,1,-2,-2,2.895
580,-5,-13,-2,-1,-1,-3,-1,-4,2.9
581,1,-4,4,3,-2,-1,-1,-1,2.9050000000000002
582,-4,3,-1,-4,-1,1,0,2,2.91
583,-3,-2,-5,-1,0,1,0,-7,2.915
584,-4,-6,-1,2,-1,1,1,-2,2.92
585,5,-10,-4,-9,-1,-3,-2,-1,2.9250000000000003
586,-1,-4,-5,1,1,1,-1,-1,2.93
587,-3,2,8,4,1,1,1,-1,2.935
588,-1,3,0,0,-2,-1,-1,1,2.94
589,3,1,1,3,-1,2,-3,1,2.945
590,-2,1,2,4,-2,-1,-3,-1,2.95
591,2,6,-3,-5,0,-2,-1,-3,2.955
592,-1,-2,0,-7,-1,-1,-2,-2,2.96
593,-1,-2,-5,-2,-2,-1,0,-3,2.965
594,-11,0,-2,2,1,-1,-1,-3,2.97
595,1,2,2,2,-1,-3,1,-6,2.975
596,8,-1,-1,4,3,2,0,-1,2.98
597,-13,2,6,-2,1,0,-1,-2,2.985
598,-11,2,-5,-5,-1,-2,-1,-1,2.99
599,4,2,0,-6,-4,-1,-1,-8,2.995
600,1,-1,-6,-3,-5,-2,0,-6,3.0
601,6,2,-3,3,3,0,-1,0,3.005
602,-3,0,-3,2,-3,-2,1,2,3.0100000000000002
603,-3,-5,2,-1,1,1,-4,-1,3.015
604,6,-3,0,3,0,-1,-2,-4,3.02
605,0,-2,4,-5,-3,-3,-2,1,3.025
606,16,-5,-3,4,-1,-2,-2,0,3.0300000000000002
607,-4,-1,-5,4,2,-1,-1,-8,3.035
608,-12,-1,7,0,0,2,0,-2,3.04
609,6,-1,-8,-3,0,0,1,-1,3.045
610,-6,-1,2,7,-2,0,0,3,3.0500000000000003
611,-1,-3,-1,20,-1,2,0,6,3.055
612,5,-3,-3,7,0,0,-3,4,3.06
613,1,-4,6,9,0,-3,-3,0,3.065
614,0,0,-7,-12,0,-3,1,-3,3.0700000000000003
615,0,-2,6,-30,0,-1,0,3,3.075
616,-5,-3,3,-26,0,-3,2,1,3.08
617,9,-1,2,-12,-1,0,0,-1,3.085
618,-15,-1,-5,0,-2,1,0,-2,3.09
619,2,2,1,9,0,-1,-1,1,3.095
620,-6,0,-8,7,-3,0,2,0,3.1
621,-5,-1,-3,4,0,-1,0,-1,3.105
622,13,0,2,8,1,-3,-1,0,3.11
623,-1,0,-2,3,0,-3,0,0,3.115
624,-6,-1,1,-3,-4,2,-3,-1,3.12
625,-14,-2,-3,-3,-2,3,1,1,3.125
626,9,-1,1,0,-2,0,-8,-7,3.13
627,1,0,0,-6,-2,-1,-2,-4,3.1350000000000002
628,1,0,-4,3,-1,-4,-3,-2,3.14
629,-2,0,4,3,1,-1,1,1,3.145
630,-5,-2,-2,-4,-1,-1,1,4,3.15
631,-2,-3,-1,2,-3,1,0,0,3.1550000000000002
632,2,0,-1,-2,0,0,0,-1,3.16
633,2,1,-2,2,5,-2,-4,-1,3.165
634,-2,1,3,-5,1,0,0,2,3.17
635,3,2,-4,0,-2,0,-2,-10,3.1750000000000003
636,-5,-1,-3,1,-1,-3,0,0,3.18
637,16,-3,-1,-2,0,-3,0,-2,3.185
638,-5,-1,-2,0,4,1,3,-22,3.19
639,-3,-3,1,0,-1,-1,-1,46,3.1950000000000003
640,-2,-2,-3,-1,-3,0,-1,2,3.2
641,2,-4,-2,-6,-4,-3,-5,-1,3.205
642,-2,-2,0,-3,-1,5,2,-7,3.21
643,-28,1,1,0,-5,-2,3,-4,3.215
644,20,-2,-2,2,1,1,3,-3,3.22
645,-1,-2,-1,3,-1,0,1,4,3.225
646,2,-4,0,-2,-2,-6,-2,6,3.23
647,-5,-3,-1,2,2,-2,-1,-4,3.235
648,-7,1,-2,-1,1,-1,-6,1,3.24
649,-4,0,-1,-3,-2,1,-1,-7,3.245
650,-3,-1,-3,-4,-6,-2,-1,5,3.25
651,7,-2,-1,-1,3,2,1,-4,3.255
652,8,-4,-1,1,-2,0,1,-2,3.2600000000000002
653,-12,-9,2,2,-3,-3,-1,-3,3.265
654,-4,-1,-1,2,2,1,-1,4,3.27
655,3,1,-3,1,-3,-2,-4,-8,3.275
656,-1,4,1,-3,0,-1,1,-8,3.2800000000000002
657,-2,3,0,-4,-4,2,-1,12,3.285
658,1,1,-3,-5,-1,-2,0,3,3.29
659,4,1,0,-4,0,0,-3,-9,3.295
660,-8,-1,1,0,1,-1,-3,0,3.3000000000000003
661,-6,1,-2,0,-1,-4,3,-12,3.305
662,2,2,1,4,0,-3,-1,2,3.31
663,8,1,-1,1,-1,0,0,0,3.315
664,-2,-1,0,1,-1,-1,-2,0,3.3200000000000003
665,-2,-1,-1,-1,1,2,0,0,3.325
666,3,3,-1,-2,-1,-1,0,-1,3.33
667,-2,-1,-2,-2,1,0,1,-4,3.335
668,-20,-3,0,-2,-3,-1,-2,6,3.34
669,27,0,-1,-3,-1,-1,-4,-3,3.345
670,-2,-3,0,-1,-2,0,-1,-1,3.35
671,2,-4,-1,1,-3,-2,-1,1,3.355
672,-7,-2,0,1,-3,-1,2,-8,3.36
673,-3,2,-1,27,0,-1,2,5,3.365
674,0,-4,-3,15,1,-5,-1,3,3.37
675,8,-3,0,5,2,-4,1,-2,3.375
676,-4,-5,-5,-4,-3,0,0,-13,3.38
677,-3,1,0,-37,-1,3,-3,-6,3.3850000000000002
678,5,2,1,-21,-2,3,-1,-2,3.39
679,-7,1,-2,-7,-1,-1,0,6,3.395
680,2,-1,1,2,1,0,2,2,3.4
681,-3,-2,-3,2,-5,0,-1,-2,3.4050000000000002
682,0,2,-1,0,-1,-1,-3,0,3.41
683,-5,0,-2,-1,0,-1,1,-9,3.415
684,4,2,-2,0,1,-2,1,1,3.42
685,-6,-1,-2,1,1,-1,1,2,3.4250000000000003
686,-2,0,1,0,0,1,1,3,3.43
687,-1,-1,2,3,-2,0,-2,-2,3.435
688,13,-1,1,-3,0,0,-2,3,3.44
689,-14,1,-3,0,2,-3,-1,-1,3.4450000000000003
690,-2,0,0,4,2,-3,-2,-4,3.45
691,-1,-3,-2,0,0,-1,-2,-5,3.455
692,4,-3,1,3,0,-3,0,8,3.46
693,3,-1,2,-1,-4,-1,2,-5,3.465
694,-3,0,-1,1,-3,2,-1,-1,3.47
695,0,0,0,-3,-2,0,-3,-2,3.475
696,-13,0,-4,-3,-3,1,-3,1,3.48
697,10,1,4,5,-1,1,1,3,3.485
698,0,0,-1,-2,-1,-4,0,1,3.49
699,3,-1,-2,1,-2,-3,-3,0,3.495
700,-2,-2,-3,1,0,1,0,-5,3.5
701,-3,-2,-2,-2,-1,0,1,1,3.505
702,-7,-5,1,-2,0,1,1,-2,3.5100000000000002
703,-3,-1,-2,-6,-1,0,-1,-2,3.515
704,-3,2,2,-4,-2,-2,-1,3,3.52
705,-1,-1,-2,4,3,-1,-2,0,3.525
706,2,0,-1,1,-2,-2,-1,0,3.5300000000000002
707,3,0,-1,-4,-1,-4,-1,0,3.535
708,-2,0,0,-1,-2,-1,-3,-3,3.54
709,3,1,-2,-1,-1,-2,-2,-1,3.545
710,2,-3,0,-5,-2,0,-4,-3,3.5500000000000003
711,-4,0,-2,-3,-3,2,0,-3,3.555
712,1,2,-2,1,-3,1,2,1,3.56
713,1,-3,-3,3,-3,1,-1,-1,3.565
714,-5,-2,0,1,0,-1,-1,2,3.5700000000000003
715,4,1,5,2,-1,2,-3,-17,3.575
716,5,2,0,-3,1,-2,0,0,3.58
717,-4,1,-3,-4,-2,-2,-1,-8,3.585
718,-1,-1,-3,0,-1,-2,0,6,3.59
719,-1,-2,-3,1,2,-1,1,4,3.595
720,-5,1,-1,0,2,-2,-2,-2,3.6
721,-9,-1,1,-1,-1,-2,-2,-1,3.605
722,-5,0,-2,1,-3,-1,1,-6,3.61
723,1,-3,-1,1,-3,0,-2,1,3.615
724,2,-3,2,0,-1,3,2,-3,3.62
725,3,-3,-2,-5,1,-1,0,5,3.625
726,-2,-2,2,2,1,1,0,-1,3.63
727,0,0,-3,-2,-1,-1,-1,3,3.6350000000000002
728,4,0,-1,-1,1,0,-1,-5,3.64
729,-1,-3,0,2,-3,-1,-1,-1,3.645
730,2,0,-2,-1,1,0,-1,-2,3.65
731,-3,-1,-1,-1,0,0,2,1,3.6550000000000002
732,0,0,-2,-1,0,-2,-2,1,3.66
733,-3,-2,-3,-4,1,-2,-2,-1,3.665
734,-1,-1,-1,22,-4,-3,-2,2,3.67
735,2,-1,3,8,-5,-2,-2,0,3.6750000000000003
736,6,-2,1,7,4,-2,-3,6,3.68
737,-2,0,-1,-17,-2,1,1,-3,3.685
738,0,0,-2,-32,0,0,-1,0,3.69
739,-3,0,-1,-19,0,3,0,2,3.6950000000000003
740,-4,0,-1,-11,-3,0,-2,2,3.7
741,6,2,0,5,0,-1,-3,0,3.705
742,1,-4,-3,2,0,-2,0,-2,3.71
743,-2,-2,-3,2,0,-1,2,-1,3.715
744,3,-2,-6,-2,-2,0,-1,-4,3.72
745,0,0,1,3,0,-3,-5,1,3.725
746,-3,-2,1,3,-3,0,-2,-1,3.73
747,-3,1,0,3,2,0,0,2,3.735
748,-2,-1,0,6,-3,0,1,-1,3.74
749,-1,0,-3,1,-2,1,3,-4,3.745
750,-3,0,-2,0,-1,-1,1,-4,3.75
751,-3,0,-1,1,3,-2,-1,2,3.755
752,-3,-2,1,-5,2,-2,-3,1,3.7600000000000002
753,2,-1,3,-7,-4,-1,-1,-2,3.765
754,3,-2,-1,2,3,0,1,-9,3.77
755,2,-1,0,1,-1,-1,0,-5,3.775
756,-10,-1,0,1,-1,-2,2,6,3.7800000000000002
757,8,0,-2,0,1,1,-5,-3,3.785
758,-2,0,-2,-2,-2,1,-3,1,3.79
759,3,1,-3,1,-4,0,-1,-4,3.795
760,-8,-3,-1,3,-2,2,0,-1,3.8000000000000003
761,-1,-1,0,10,-1,-4,-1,4,3.805
762,2,-3,0,2,1,-2,-1,1,3.81
763,-8,-3,0,-3,-2,-3,-2,0,3.815
764,4,-1,-1,-8,-1,1,-1,-2,3.8200000000000003
765,-2,-1,-3,-2,0,-2,1,-2,3.825
766,-1,2,-3,-5,0,-3,-3,-3,3.83
767,-2,-2,-1,-4,-1,0,-2,-2,3.835
768,0,-5,-1,-2,-2,0,0,-4,3.84
769,-6,-3,-1,-2,2,3,3,-2,3.845
770,-1,-2,-1,-3,0,0,2,-3,3.85
771,4,-3,1,0,1,0,1,10,3.855
772,-4,2,0,-1,-2,-2,-4,0,3.86
773,3,0,0,-4,-3,0,3,-3,3.865
774,0,0,2,-1,0,1,0,0,3.87
775,9,-1,-3,-3,-3,-2,-1,-3,3.875
776,-12,-2,-1,-3,-2,-3,-1,-8,3.88
777,1,0,0,0,-2,-3,-4,9,3.8850000000000002
778,-2,1,-3,-4,-1,-2,-1,1,3.89
779,-2,-1,-1,2,-1,-2,-2,-6,3.895
780,6,0,-3,2,0,-4,-2,-2,3.9
781,-2,0,1,0,1,-2,-1,-1,3.9050000000000002
782,0,-3,0,-1,-5,-1,-1,2,3.91
783,-3,1,1,0,0,1,-2,2,3.915
784,2,1,1,2,2,3,2,-3,3.92
785,-7,-6,-1,-1,-1,2,0,-3,3.9250000000000003
786,7,0,-2,-1,-1,2,0,0,3.93
787,-3,-1,-1,-3,1,0,-3,0,3.935
788,1,-1,-1,-1,-2,0,0,0,3.94
789,-4,-2,0,-4,0,-2,0,0,3.9450000000000003
790,-5,-1,-2,-2,-2,-1,-1,-9,3.95
791,2,-1,-3,0,1,0,-2,-2,3.955
792,1,0,-3,0,0,1,-3,2,3.96
793,1,-1,1,-2,0,2,-1,-2,3.9650000000000003
794,-6,-2,1,3,-1,-4,2,2,3.97
795,-5,-1,-3,-1,0,0,3,-1,3.975
796,2,-2,2,-1,-2,-3,-1,-2,3.98
797,0,-1,-1,-2,-4,0,-2,1,3.985
798,2,2,0,1,-1,-1,-3,0,3.99
799,0,0,1,1,-1,-1,-3,-5,3.995
800,-1,-2,-1,-1,-2,0,4,2,4.0
801,-2,0,-3,0,-2,0,0,-1,4.005
802,-3,-2,-1,0,3,-2,-2,3,4.01
803,-2,-3,-2,1,1,-1,-3,1,4.015
804,-1,1,-1,-2,0,3,-2,1,4.0200000000000005
805,-3,1,0,0,0,2,-3,-3,4.025
806,0,-1,-1,-1,-3,1,-1,-1,4.03
807,0,-2,-2,1,-5,-5,0,-3,4.035
808,0,-1,-1,1,-2,-2,-3,-3,4.04
809,8,0,-1,27,-1,-1,2,-3,4.045
810,-22,-2,1,6,1,-3,2,2,4.05
811,-4,-3,1,-3,0,-4,4,3,4.055
812,0,-2,2,-28,1,-5,-1,-13,4.0600000000000005
813,0,-1,1,-30,-1,-1,0,0,4.065
814,5,2,-1,-12,0,0,-4,2,4.07
815,-2,0,1,-2,-1,0,0,0,4.075
816,-5,-1,-2,7,1,2,1,1,4.08
817,0,-2,-2,3,0,1,-3,-3,4.085
818,3,-3,1,2,-1,4,-3,-2,4.09
819,-1,1,0,0,-2,2,-3,-2,4.095
820,4,0,-1,12,4,2,-2,0,4.1
821,-4,0,0,2,0,1,-2,-3,4.105
822,3,-3,-2,-2,-2,1,3,1,4.11
823,1,-1,-2,-2,-5,-2,1,-2,4.115
824,-1,-1,1,0,-5,-3,-1,1,4.12
825,-3,1,-3,-2,1,-3,-2,1,4.125
826,2,-1,-1,2,3,-3,0,0,4.13
827,4,2,2,-1,0,1,-3,1,4.135
828,-8,0,-2,-1,-1,-2,0,10,4.14
829,-4,-2,-2,-3,-3,-2,0,-11,4.1450000000000005
830,16,0,-2,-3,-2,1,1,-3,4.15
831,-22,-5,-2,-1,0,1,0,-3,4.155
832,4,-4,1,1,0,1,-1,0,4.16
833,0,1,0,3,-2,-3,-3,4,4.165
834,-3,-1,-2,-1,-1,-1,-1,-1,4.17
835,4,3,1,1,1,-2,-2,-2,4.175
836,-2,0,-3,-5,-2,0,-4,-3,4.18
837,-6,1,1,0,2,-1,0,1,4.1850000000000005
838,2,0,1,-2,-3,0,1,-2,4.19
839,2,0,-2,-3,-4,-1,0,0,4.195
840,2,-1,-2,3,1,-1,-1,-3,4.2
841,3,-2,-4,0,0,-3,1,1,4.205
842,-1,0,0,1,-3,-1,-3,3,4.21
843,-3,-1,2,1,-3,-3,1,8,4.215
844,1,-2,-1,-2,-4,0,0,-3,4.22
845,0,-4,0,-1,-3,1,1,-2,4.225
846,-9,-3,0,1,0,2,-1,0,4.23
847,0,-1,-3,0,-1,4,-3,-2,4.235
848,0,1,-2,0,-3,-1,-2,0,4.24
849,-1,-1,-2,-2,-2,-3,-3,5,4.245
850,-6,-1,-2,-3,-1,-5,-4,-1,4.25
851,10,0,-2,-2,2,-2,-1,-11,4.255
852,-14,1,0,1,0,0,0,1,4.26
853,2,0,1,-3,-1,0,1,0,4.265
854,-1,-1,1,0,-2,0,-1,-3,4.2700000000000005
855,2,0,1,-1,1,1,-1,-1,4.275
856,4,-3,-2,-1,-1,-2,0,1,4.28
857,-4,-3,-2,-3,-4,-2,-2,-3,4.285
858,0,1,-2,0,-3,-2,-2,-1,4.29
859,-4,-1,1,2,0,-2,-2,3,4.295
860,6,-2,1,1,-5,-2,0,1,4.3
861,-5,-1,1,1,5,1,-1,-11,4.305
862,2,-2,-1,-1,-3,1,2,0,4.3100000000000005
863,-2,-2,-1,-2,-2,0,-2,1,4.315
864,0,-2,0,2,2,1,-2,-3,4.32
865,0,-3,-4,-3,1,0,-2,-4,4.325
866,0,-1,-2,-6,0,-2,0,1,4.33
867,-2,-1,0,-3,0,-1,-1,-2,4.335
868,-1,3,2,-1,-3,-1,0,-4,4.34
869,2,2,-1,1,-1,-2,-2,2,4.345
870,-4,-2,-1,0,3,0,-2,-1,4.3500000000000005
871,4,0,-3,-2,0,-2,0,-4,4.355
872,10,-1,-2,-3,0,-4,2,2,4.36
873,-1,0,2,1,1,-1,3,5,4.365
874,2,-1,-2,2,-2,1,-1,4,4.37
875,-4,-3,0,2,-3,0,-2,2,4.375
876,1,-2,1,0,-1,0,-2,-2,4.38
877,-11,-1,1,2,0,0,-1,-2,4.385
878,-2,-3,-1,-1,1,-2,-2,-4,4.39
879,0,1,-3,-1,1,0,-2,4,4.3950000000000005
880,-4,-1,-5,0,1,1,-2,2,4.4
881,0,-1,1,-3,-5,0,2,3,4.405
882,0,3,0,4,3,0,-1,-4,4.41
883,-1,-3,-2,-1,-2,2,1,0,4.415
884,-2,0,1,-2,0,-2,2,-1,4.42
885,3,-1,-3,-1,-2,-2,0,1,4.425
886,5,0,-2,1,-6,-1,-1,1,4.43
887,-8,-1,-4,0,-2,-1,-3,-1,4.4350000000000005
888,-4,-2,-2,0,0,-1,-4,-7,4.44
889,1,-3,1,-2,0,1,-4,1,4.445
890,-2,1,1,-3,2,-3,-1,-1,4.45
891,-4,-1,2,-3,2,-1,3,-2,4.455
892,0,-2,1,-3,-1,-3,4,0,4.46
893,1,0,-2,-3,-4,-2,1,0,4.465
894,-1,-1,-2,0,-3,-1,-1,-1,4.47
895,3,0,-3,-4,-3,-3,-2,-2,4.4750000000000005
896,0,0,-1,-5,-3,-4,-3,-1,4.48
897,6,0,-1,0,1,1,-2,-2,4.485
898,-3,-4,-1,-1,1,3,0,-2,4.49
899,-3,0,-1,-1,-4,-1,0,1,4.495
900,-2,-3,0,-5,-5,-4,0,-1,4.5
901,-2,0,0,1,5,-2,-1,-1,4.505
902,1,2,0,-6,-2,1,-4,-5,4.51
903,1,-2,1,1,-1,0,-1,-1,4.515
904,-1,-1,-1,1,-1,0,-2,2,4.5200000000000005
905,1,-1,-3,1,-3,-2,-3,-1,4.525
906,-3,1,2,1,-1,0,4,1,4.53
907,1,0,1,0,-2,-1,3,0,4.535
908,-2,-2,-4,1,-1,1,2,3,4.54
909,1,-3,-3,2,-1,2,-3,0,4.545
910,0,-2,-2,2,3,-3,-1,-2,4.55
911,1,-1,0,1,1,0,-4,-1,4.555
912,0,-1,-1,-1,0,1,-2,-6,4.5600000000000005
913,-2,1,-2,-2,2,0,-1,1,4.565
914,-8,-2,0,-1,-2,-3,-3,2,4.57
915,6,-3,3,3,-3,-2,-1,0,4.575
916,-6,-4,0,3,-3,-1,0,-7,4.58
917,6,2,1,2,2,0,0,6,4.585
918,1,-1,-1,-3,-2,0,2,-1,4.59
919,2,1,-5,-2,2,0,2,-2,4.595
920,0,0,0,-1,0,1,-2,-6,4.6000000000000005
921,-3,-2,-1,-3,-6,-4,0,-3,4.605
922,-1,1,-2,-1,0,-1,-2,-4,4.61
923,-2,-1,-1,-1,0,-3,0,-2,4.615
924,2,0,-3,1,-1,2,0,2,4.62
925,0,-3,-1,-1,-4,0,0,-1,4.625
926,10,-2,1,-1,1,1,-4,2,4.63
927,-16,-1,-3,-2,-3,-3,-4,-4,4.635
928,1,4,-1,2,1,-4,-4,-1,4.64
929,-2,0,-2,-1,-2,-1,2,-2,4.6450000000000005
930,4,0,1,-2,-2,1,3,-2,4.65
931,3,-1,-2,-3,-1,-1,0,-1,4.655
932,-1,-1,0,-4,0,2,0,4,4.66
933,-1,1,2,2,1,-1,1,-3,4.665
934,-2,-2,1,3,0,-2,-3,-4,4.67
935,0,-2,2,2,-2,0,-2,-1,4.675
936,-2,-1,-3,-4,-1,-2,1,1,4.68
937,1,0,-2,-1,-2,0,1,0,4.6850000000000005
938,-5,-1,-5,-2,-2,-3,3,1,4.69
939,-1,-2,-1,0,-1,1,-1,-1,4.695
940,3,-3,-1,22,-3,0,-3,2,4.7
941,-4,-2,1,12,-2,-1,-4,-11,4.705
942,4,-1,-2,4,1,0,-1,1,4.71
943,-4,-1,-2,-14,1,1,-2,2,4.715
944,-1,-4,-3,-28,-1,3,1,-1,4.72
945,-2,-2,-1,-18,-3,1,0,2,4.7250000000000005
946,-2,-1,-2,-6,-2,-4,-2,1,4.73
947,2,3,-3,4,-1,-2,-4,-1,4.735
948,-2,2,0,2,0,-3,-3,1,4.74
949,0,-1,-1,3,-1,-1,-2,0,4.745
950,-2,1,1,3,-1,0,-2,-1,4.75
951,2,1,4,3,-1,1,3,0,4.755
952,0,-1,0,1,2,0,0,0,4.76
953,-2,-2,0,1,-3,-3,0,1,4.765
954,-2,-2,-1,-4,0,-1,-2,1,4.7700000000000005
955,-1,-1,-1,0,0,-1,-3,-2,4.775
956,1,-1,-1,0,-1,-1,-1,-3,4.78
957,0,1,-3,-3,-5,0,-1,-1,4.785
958,-2,2,-1,-3,-4,-3,0,1,4.79
959,-1,-2,-3,2,-1,0,1,4,4.795
960,-3,0,2,-4,0,0,-1,-4,4.8
961,-1,0,-1,-2,-1,0,-2,0,4.805
962,-1,1,1,0,-2,-1,-1,-3,4.8100000000000005
963,0,-1,1,1,1,-2,-3,0,4.815
964,9,-3,-3,2,1,0,-1,-10,4.82
965,-19,-3,-1,0,1,1,3,4,4.825
966,-2,-2,0,-1,-4,2,-2,1,4.83
967,2,-1,-2,1,-1,1,-1,-7,4.835
968,5,3,1,-1,-4,-4,-1,7,4.84
969,5,1,1,-2,-1,-5,-2,-7,4.845
970,-3,-3,-3,-1,0,-2,-1,1,4.8500000000000005
971,-2,-1,-2,-1,1,-1,-1,0,4.855
972,-2,-1,-2,-1,0,0,-2,-1,4.86
973,3,-4,-1,0,2,-1,-1,-1,4.865
974,-5,-3,0,-3,-3,-3,2,0,4.87
975,3,-1,0,0,-2,-1,1,-1,4.875
976,-3,0,-3,0,2,2,-2,0,4.88
977,-1,-1,-1,-2,-3,3,-1,0,4.885
978,-1,-2,-2,-3,-1,0,1,-2,4.89
979,0,-1,-3,-1,1,-1,1,1,4.8950000000000005
980,-3,3,0,-4,-4,-3,-1,-1,4.9
981,1,1,-2,0,1,0,-3,-2,4.905
982,-1,1,3,-1,-1,-2,0,-3,4.91
983,2,1,1,-3,-1,-4,0,-1,4.915
984,-3,-5,0,0,1,-2,-1,7,4.92
985,3,-2,-2,-4,-2,-2,-4,-4,4.925
986,1,-1,-2,1,0,0,0,-1,4.93
987,-2,0,0,0,0,-1,-1,-1,4.9350000000000005
988,-3,-1,0,-1,0,0,1,-5,4.94
989,0,2,0,2,0,-1,1,0,4.945
990,-1,-2,-1,0,2,0,-2,-3,4.95
991,-2,-1,-2,-1,-1,2,-6,0,4.955
992,2,0,-3,1,0,1,-2,0,4.96
993,0,2,0,-3,-1,-3,1,3,4.965
994,-3,-1,-2,-2,-2,1,2,-1,4.97
995,2,1,1,-2,-5,-6,0,-4,4.9750000000000005
996,5,0,1,-2,-5,-5,2,-3,4.98
997,-6,-3,-2,0,0,-1,-1,-1,4.985
998,-3,-1,-2,0,2,0,-1,1,4.99
999,-4,-3,0,-3,-2,-1,-2,1,4.995
1000,0,-3,0,3,7,3,-1,0,5.0
1001,1,-1,-1,-2,-3,0,-1,1,5.005
1002,-1,0,1,2,-3,0,1,-4,5.01
1003,1,-2,-2,-2,-4,0,1,-2,5.015
1004,-3,0,-2,-5,-4,-1,-6,0,5.0200000000000005
1005,0,-2,-4,0,3,1,-3,0,5.025
1006,0,-2,-2,1,0,-2,-2,1,5.03
1007,-1,-1,-1,0,1,-1,0,0,5.035
1008,-3,2,0,-2,-2,-1,4,-1,5.04
1009,-5,1,0,0,-2,-1,0,-1,5.045
1010,2,1,-1,-3,0,0,0,4,5.05
1011,0,0,-1,-1,1,-1,0,1,5.055
1012,-3,0,0,-3,-1,0,-1,-2,5.0600000000000005
1013,1,0,0,-1,-1,1,-3,-3,5.065
1014,0,0,-2,-2,-1,-3,-2,-1,5.07
1015,-2,2,-2,2,2,-2,-2,-2,5.075
1016,-4,0,-2,4,0,1,0,-1,5.08
1017,-2,1,-3,-3,-4,0,-2,1,5.085
1018,-2,-5,-2,-2,-5,1,-4,-6,5.09
1019,2,-4,-1,4,3,0,1,-1,5.095
1020,2,-1,1,-1,-1,-1,0,-2,5.1000000000000005
1021,4,1,-1,0,1,-2,3,-1,5.105
1022,-1,-2,0,-2,-2,0,0,-2,5.11
1023,-1,-5,-1,-6,0,-1,-1,-1,5.115
1024,-2,-2,0,-2,3,-2,-4,3,5.12
1025,1,-4,0,-3,0,3,-1,-2,5.125
1026,1,-1,0,-1,0,-2,0,-2,5.13
1027,-2,-2,-1,-1,-3,-3,0,0,5.135
1028,-3,-1,-2,1,-2,-2,-1,2,5.14
1029,-1,-2,2,0,-2,-1,-1,2,5.1450000000000005
1030,2,1,-2,4,0,0,-1,0,5.15
1031,0,1,-1,0,0,-2,0,-5,5.155
1032,-5,0,0,-1,-2,-1,2,-2,5.16
1033,1,0,-2,-1,0,-5,0,3,5.165
1034,-4,-1,-1,1,1,1,1,-1,5.17
1035,1,-2,-1,-4,-2,1,-2,-1,5.175
1036,9,-2,0,-1,-3,-1,-3,0,5.18
1037,-17,-3,0,-2,-4,-1,-2,-3,5.1850000000000005
1038,1,-3,-1,-3,-3,-2,-3,1,5.19
1039,-4,-2,0,0,-1,1,0,2,5.195
1040,-1,0,1,-1,-3,-3,1,-3,5.2
1041,4,0,-1,-1,0,0,1,-2,5.205
1042,-1,1,-3,-1,1,1,0,0,5.21
1043,-3,-1,-2,0,1,-1,-2,0,5.215
1044,-2,0,0,3,1,-1,-3,1,5.22
1045,2,2,2,0,1,-2,0,-4,5.2250000000000005
1046,-2,2,-1,-1,-1,-1,1,1,5.23
1047,0,0,0,-3,-2,1,-1,0,5.235
1048,-1,0,-4,-4,-4,-2,1,-3,5.24
1049,1,0,1,1,-3,-1,-3,-1,5.245
1050,-2,1,-1,-1,0,-1,-1,0,5.25
1051,-5,0,0,1,-1,-1,-2,1,5.255
1052,-3,-3,-1,1,-3,-1,-1,3,5.26
1053,0,-4,-1,2,2,2,-2,-4,5.265
1054,-1,-2,0,-1,0,1,0,-3,5.2700000000000005
1055,1,-1,-1,1,1,0,-1,4,5.275
1056,-5,-2,0,-3,0,-2,-2,0,5.28
1057,5,0,0,-5,-4,-3,0,-6,5.285
1058,-2,1,3,1,4,-1,0,-2,5.29
1059,-1,0,0,-3,-4,-1,0,-1,5.295
1060,7,1,-3,2,-1,0,-1,-1,5.3
1061,-2,-1,-2,1,-1,0,-3,1,5.305
1062,-1,-3,-1,-2,-1,-4,-2,1,5.3100000000000005
1063,-3,0,0,-5,-3,0,0,-3,5.315
1064,-3,-1,-1,-5,1,0,2,-5,5.32
1065,3,-1,-1,-3,2,-1,1,-2,5.325
1066,1,0,-1,-2,-2,0,-1,-1,5.33
1067,-1,-4,-5,-1,-2,-2,-1,0,5.335
1068,3,-1,-2,-2,-1,1,-1,-1,5.34
1069,0,2,-1,0,-1,0,-3,-3,5.345
1070,0,1,0,2,0,-1,0,3,5.3500000000000005
1071,0,1,0,-2,-3,0,-3,-1,5.355
1072,-5,-3,0,-2,-1,-3,-1,0,5.36
1073,-3,-4,-2,-2,2,-2,0,-1,5.365
1074,0,-1,0,-1,-2,-2,0,4,5.37
1075,1,-1,-2,-1,-2,-3,-1,-2,5.375
1076,-2,-2,-4,1,1,-1,0,-1,5.38
1077,-3,1,-2,-1,-1,0,2,2,5.385
1078,9,1,0,-1,-6,-1,-2,0,5.39
1079,-15,2,0,1,3,0,-1,2,5.3950000000000005
1080,2,-3,1,0,-3,0,-1,-2,5.4
1081,-3,-1,1,0,-1,1,-1,1,5.405
1082,1,0,1,1,2,0,-3,-6,5.41
1083,6,1,0,2,1,-2,0,-6,5.415
1084,-2,1,0,-1,-1,-2,-1,0,5.42
1085,3,-3,-2,1,-2,-1,2,1,5.425
1086,-1,-3,-3,-3,-4,-1,-3,-1,5.43
1087,1,-3,1,-2,1,0,-1,-2,5.4350000000000005
1088,1,0,-1,-2,1,-1,2,0,5.44
1089,0,1,0,0,-2,-2,-3,0,5.445
1090,-4,1,0,-1,-3,-2,0,-4,5.45
1091,0,4,-3,2,0,0,-1,0,5.455
1092,0,2,-3,-2,-1,0,-1,0,5.46
1093,-1,-1,2,1,2,1,-2,2,5.465
1094,-2,-2,-1,-1,0,0,-3,-5,5.47
1095,4,0,1,2,-4,-3,-1,2,5.4750000000000005
1096,-7,-2,-2,-1,-3,-2,-2,0,5.48
1097,1,0,0,0,0,-3,0,-3,5.485
1098,2,-5,0,-2,-1,-2,0,-1,5.49
1099,1,-2,-1,-7,-2,-2,2,-10,5.495
1100,2,-2,1,3,5,0,0,-1,5.5
1101,0,-2,-1,-1,1,0,-1,2,5.505
1102,4,-2,-3,2,-1,-1,-3,-3,5.51
1103,-6,0,-2,-5,-3,3,0,3,5.515
1104,-3,-3,0,-4,-3,-1,-2,-1,5.5200000000000005
1105,-2,-1,-1,0,-1,0,1,0,5.525
1106,-1,3,3,2,-2,0,-1,2,5.53
1107,1,0,1,1,-1,2,1,1,5.535
1108,10,2,-1,0,-2,0,0,0,5.54
1109,-18,-3,-2,-2,0,-1,-1,-1,5.545
1110,-5,1,-1,-1,1,-2,-1,-2,5.55
1111,1,-2,1,-1,0,-4,-2,-3,5.555
1112,-3,0,0,1,-2,-1,-1,-1,5.5600000000000005
1113,4,-3,-4,-1,-2,-2,-2,-5,5.565
1114,1,1,-1,0,1,-1,-4,6,5.57
1115,1,-3,-1,0,-1,-1,-2,-1,5.575
1116,1,-1,3,-4,-1,2,-1,4,5.58
1117,1,1,-2,-2,-1,-3,1,3,5.585
1118,-5,0,-2,-3,-1,1,2,-3,5.59
1119,3,0,0,-2,0,0,3,4,5.595
1120,1,-2,-3,-2,-2,-4,-1,4,5.6000000000000005
1121,-9,0,-2,2,-3,0,-1,2,5.605
1122,-8,-1,-5,-4,0,-1,0,-4,5.61
1123,2,-1,3,0,0,-1,-3,4,5.615
1124,-1,-3,-4,1,-4,-1,1,-9,5.62
1125,14,3,1,-3,5,0,1,-1,5.625
1126,-5,-3,1,0,-1,-1,0,1,5.63
1127,-2,-4,2,-1,-2,-4,-2,-5,5.635
1128,-7,1,2,4,-1,1,-2,-8,5.64
1129,2,0,-2,2,-2,-1,1,3,5.6450000000000005
1130,-8,0,-2,3,1,0,2,3,5.65
1131,15,-1,-3,0,1,3,-1,-7,5.655
1132,-1,0,2,-1,-3,-3,-2,10,5.66
1133,9,-2,-4,-7,-2,0,-1,-1,5.665
1134,-13,-5,6,-1,-1,3,0,-8,5.67
1135,-10,-3,-7,-10,-2,-2,-1,0,5.675
1136,5,2,-2,-3,-1,-3,-2,-9,5.68
1137,2,-2,3,4,1,-3,-3,-3,5.6850000000000005
1138,6,-3,-1,0,1,-2,-2,1,5.69
1139,2,1,0,7,0,-2,2,4,5.695
1140,-14,-2,-9,-5,0,1,2,0,5.7
1141,6,-1,2,-3,-1,0,1,-34,5.705
1142,9,3,3,-2,-2,-2,-2,12,5.71
1143,-17,1,-2,7,-1,2,3,0,5.715
1144,-11,-2,0,-12,-2,-2,0,10,5.72
1145,-11,-2,0,6,0,-4,-1,-1,5.7250000000000005
1146,10,-1,2,-8,-4,-3,-2,-1,5.73
1147,-3,-2,-6,22,-5,-2,-4,-6,5.735
1148,4,-2,-6,15,-1,2,-1,-7,5.74
1149,0,-5,-7,2,-5,1,-1,5,5.745
1150,-8,0,-4,3,5,-1,1,-4,5.75
1151,-5,-3,1,-34,3,-2,1,10,5.755
1152,8,-2,7,-12,1,0,-1,-16,5.76
1153,6,-2,-1,-15,-5,1,-3,8,5.765
1154,0,3,-2,0,-3,0,0,-3,5.7700000000000005
1155,-3,7,-2,1,0,1,0,-3,5.775
1156,0,-1,-2,6,1,-3,-1,0,5.78
1157,-4,-2,3,6,0,-2,2,6,5.785
1158,0,-5,-5,4,-1,1,4,-7,5.79
1159,5,-3,-1,-3,-1,1,-1,-4,5.795
1160,-3,1,3,2,-1,-2,0,-1,5.8
1161,-1,-3,1,3,0,-4,-2,3,5.805
1162,3,-3,-7,1,-1,-2,-4,-1,5.8100000000000005
1163,4,-1,0,1,-1,-1,-2,0,5.815
1164,-2,2,-3,-1,-1,1,-1,1,5.82
1165,-6,4,2,-1,-2,-1,0,1,5.825
1166,2,0,0,-1,-4,-1,0,0,5.83
1167,2,0,3,4,5,-1,-4,-1,5.835
1168,-2,1,2,-1,-1,2,-2,1,5.84
1169,-2,2,-2,-4,0,2,2,0,5.845
1170,0,0,-2,-6,-1,0,1,-2,5.8500000000000005
1171,0,0,-1,4,-1,-2,-2,-4,5.855
1172,1,-4,-3,-2,3,-1,0,-1,5.86
1173,-3,-1,-1,1,2,0,-1,0,5.865
1174,1,1,-1,-2,-1,-1,0,2,5.87
1175,1,-2,-2,-3,-3,-1,0,-1,5.875
1176,3,0,-2,-2,-2,-2,1,1,5.88
1177,-1,-2,-1,-1,-4,0,-2,2,5.885
1178,-1,-1,0,6,0,0,-3,0,5.89
1179,1,0,1,-3,-2,2,1,-2,5.8950000000000005
1180,-1,-2,-7,-7,-4,-1,-1,-3,5.9
1181,6,1,-1,-4,2,-2,-1,3,5.905
1182,-4,0,-3,0,0,-1,0,0,5.91
1183,4,-2,0,0,1,-1,-1,-2,5.915
1184,-9,0,4,3,3,2,4,8,5.92
1185,-3,0,0,-2,-5,0,0,-10,5.925
1186,2,-1,1,5,-2,1,-1,2,5.93
1187,-4,-4,-2,-4,-3,-2,-1,2,5.9350000000000005
1188,2,-2,-4,0,1,-3,-2,4,5.94
1189,7,-1,-4,-3,0,-1,1,-1,5.945
1190,-1,-1,3,-5,2,-1,-1,-2,5.95
1191,-2,0,-2,-2,-1,-1,-3,2,5.955
1192,-7,0,3,4,-3,0,-1,-2,5.96
1193,16,1,-1,0,0,1,-2,3,5.965
1194,-17,-2,-2,-4,0,-4,-3,-4,5.97
1195,7,-1,-1,-1,1,-3,2,-2,5.9750000000000005
1196,-5,-1,-2,1,1,-1,0,-1,5.98
1197,-2,3,4,1,-1,-2,2,2,5.985
1198,-7,0,-1,-2,0,-2,2,3,5.99
1199,-5,-2,-1,-2,-5,-3,-7,-15,5.995
1200,3,-3,1,1,3,-2,-2,-1,6.0
1201,-7,-3,-4,-1,-2,0,-3,-1,6.005
1202,9,-2,-1,-2,-4,2,0,-4,6.01
1203,-4,-1,0,-1,-2,2,0,-1,6.015000000000001
1204,5,-5,-3,2,-1,-1,2,7,6.0200000000000005
1205,-2,-1,1,-7,-1,-3,1,-5,6.025
1206,3,-1,1,-2,-1,-3,-2,2,6.03
1207,0,1,-1,0,-2,-2,1,3,6.035
1208,12,0,-1,1,-5,-2,0,-8,6.04
1209,-15,-3,-3,3,1,0,0,-1,6.045
1210,1,-1,-2,-2,-1,0,0,-2,6.05
1211,1,0,3,0,0,0,-2,3,6.055
1212,-5,0,2,-4,-3,0,-4,-3,6.0600000000000005
1213,-2,0,-1,2,0,-1,-3,2,6.065
1214,5,-1,-6,5,0,0,-1,-1,6.07
1215,0,-1,0,3,1,-2,0,2,6.075
1216,-7,1,2,-3,-4,0,-1,-4,6.08
1217,11,1,-4,-1,5,0,1,-8,6.085
1218,10,-1,0,-2,-2,0,-2,-3,6.09
1219,0,-2,-4,3,1,0,1,-1,6.095
1220,1,-1,-3,-7,-3,0,-1,1,6.1000000000000005
1221,-9,-2,1,0,-3,-2,-3,0,6.105
1222,-5,2,3,3,2,-1,-1,6,6.11
1223,1,-1,2,-1,-1,-4,-1,-2,6.115
1224,1,-1,-3,-2,-2,-2,-2,-3,6.12
1225,7,0,-6,-2,-2,2,0,5,6.125
1226,-20,-3,2,1,1,-1,0,-8,6.13
1227,-6,-1,-4,-1,-1,-2,-2,4,6.135
1228,-1,0,-2,5,1,-1,1,-2,6.140000000000001
1229,-4,-2,0,-1,-2,-1,0,1,6.1450000000000005
1230,14,0,0,-2,-3,-1,0,6,6.15
1231,1,-1,-2,-9,1,-2,1,-7,6.155
1232,-12,-2,0,-4,1,0,1,1,6.16
1233,-2,0,2,0,0,-2,-2,-20,6.165
1234,0,-2,-4,-1,1,0,-1,34,6.17
1235,-6,0,1,2,0,1,-3,5,6.175
1236,9,3,-2,-3,-1,0,-2,2,6.18
1237,-12,0,1,-2,-2,-2,1,-1,6.1850000000000005
1238,9,1,5,4,-2,-4,0,-11,6.19
1239,-7,-2,-2,-6,-1,0,1,-6,6.195
1240,-2,-3,-3,0,-2,-2,-1,10,6.2
1241,-7,-3,-1,-2,-3,1,-1,7,6.205
1242,-4,-2,-8,-4,-3,-1,-2,-9,6.21
1243,3,-1,-2,4,2,1,1,-3,6.215
1244,-4,2,0,0,-2,-4,-2,-5,6.22
1245,8,1,-5,2,0,-5,2,4,6.2250000000000005
1246,3,0,6,-1,-1,3,1,2,6.23
1247,6,-1,6,1,-4,-2,-2,-2,6.235
1248,-2,-2,-8,-4,0,1,2,-5,6.24
1249,-1,-4,-3,-9,0,0,-1,6,6.245
1250,13,-3,-3,-1,-3,-2,-3,-5,6.25
1251,-4,2,3,2,0,-1,0,-2,6.255
1252,-4,-3,-4,0,0,-1,-2,-3,6.26
1253,12,2,1,3,-2,-1,-3,-3,6.265000000000001
1254,-3,-1,-12,-15,1,-1,-1,-16,6.2700000000000005
1255,-31,0,2,8,0,1,0,11,6.275
1256,18,0,3,3,2,-1,-2,7,6.28
1257,7,-3,0,1,1,0,-5,0,6.285
1258,-11,1,6,2,-3,-3,0,-11,6.29
1259,16,-2,-7,-7,-3,-3,-1,2,6.295
1260,8,-2,-5,1,3,-2,0,-4,6.3
1261,-3,-1,-2,1,-1,-2,-2,-2,6.305
1262,-7,-1,3,-6,0,-1,1,1,6.3100000000000005
1263,13,-6,-3,-1,0,0,2,-2,6.315
1264,-10,-8,-4,-4,0,1,1,-5,6.32
1265,-10,-2,12,2,-2,-1,-4,1,6.325
1266,6,-3,-1,1,-1,-3,-4,-2,6.33
1267,-4,0,-7,1,-1,1,0,1,6.335
1268,-3,2,4,-1,-2,0,-1,-6,6.34
1269,3,1,-8,-3,1,1,1,7,6.345
1270,-13,-26,-3,-2,0,-3,-1,2,6.3500000000000005
1271,3,-28,3,3,-3,-2,-1,-9,6.355
1272,-4,-2,-3,-2,0,0,-2,4,6.36
1273,-9,10,-7,-1,-2,2,-1,-1,6.365
1274,-6,28,8,7,-2,-1,-4,-5,6.37
1275,4,20,-4,-5,-1,-3,0,1,6.375
1276,-2,26,2,-2,-3,-1,-1,-3,6.38
1277,-3,15,1,3,0,0,0,1,6.385
1278,1,4,-7,-2,1,0,0,3,6.390000000000001
1279,4,0,0,-1,1,-2,-4,-2,6.3950000000000005
1280,-5,-9,2,-1,-2,-1,-2,-2,6.4
1281,-3,-8,-4,-6,-2,-3,0,-4,6.405
1282,5,-5,-4,-6,0,3,0,-2,6.41
1283,-5,-1,-1,-5,0,0,2,1,6.415
1284,1,-1,1,1,-3,-4,-1,-1,6.42
1285,1,-6,1,4,1,-1,-2,0,6.425
1286,-1,-2,0,0,-1,-2,0,0,6.43
1287,-1,5,-2,-2,-3,0,0,0,6.4350000000000005
1288,-2,-2,-1,0,-1,-1,2,1,6.44
1289,0,-5,4,1,-3,1,0,-2,6.445
1290,1,2,-3,1,-2,-2,1,0,6.45
1291,-2,2,-3,0,0,-1,-4,-1,6.455
1292,2,-6,0,1,-1,0,-3,-3,6.46
1293,-3,-9,-1,-4,-2,-2,-2,-2,6.465
1294,3,0,-11,-2,-2,-2,0,-1,6.47
1295,0,-1,2,-1,3,2,3,-2,6.4750000000000005
1296,-3,-4,4,2,1,-1,-2,1,6.48
1297,-2,0,-2,-4,1,-3,-2,3,6.485
1298,2,-3,4,1,1,1,-4,-5,6.49
1299,-4,-3,-2,1,-3,0,-3,-2,6.495
1300,-1,-1,-2,-2,1,0,-1,-1,6.5
1301,-5,-2,0,-1,0,2,0,3,6.505
1302,6,2,-5,-4,-3,-2,0,2,6.51
1303,-2,2,-1,-5,-5,-2,2,3,6.515000000000001
1304,-3,-4,-2,0,1,-1,1,-7,6.5200000000000005
1305,5,-2,4,-1,1,-3,-3,5,6.525
1306,-6,-2,-3,-1,0,-2,-2,1,6.53
1307,1,1,-2,0,0,-1,-4,-3,6.535
1308,0,1,-2,-4,-3,1,-5,3,6.54
1309,-10,0,-8,-1,1,0,-1,-7,6.545
1310,16,-3,4,2,0,1,0,-4,6.55
1311,-2,-2,-3,0,-1,-1,1,2,6.555
1312,3,-1,9,2,0,-1,1,2,6.5600000000000005
1313,4,0,-5,2,0,-4,0,0,6.565
1314,-17,0,0,0,0,-1,-1,2,6.57
1315,-2,-2,-4,-2,-1,-4,2,-1,6.575
1316,1,-1,-7,-6,-1,-1,1,0,6.58
1317,3,0,7,0,-2,0,0,-12,6.585
1318,-5,0,0,0,-4,-1,-2,0,6.59
1319,10,-1,-6,-2,-2,-1,-4,-3,6.595
1320,-4,0,9,1,-2,0,-3,2,6.6000000000000005
1321,-3,-2,-12,-5,0,-1,-2,-1,6.605
1322,2,1,8,8,0,0,-3,-2,6.61
1323,-6,-3,-7,-1,-3,-3,1,9,6.615
1324,5,1,1,-3,-1,-2,4,-25,6.62
1325,17,2,1,-5,0,0,3,8,6.625
1326,-21,-4,-4,-2,-2,0,3,-5,6.63
1327,4,0,3,3,3,1,0,8,6.635
1328,2,1,-4,1,1,1,-4,0,6.640000000000001
1329,-2,-1,-8,-8,-5,-1,-1,6,6.6450000000000005
1330,-5,-1,3,4,6,-3,-3,-5,6.65
1331,-5,0,3,1,-1,-3,-3,-13,6.655
1332,-11,-4,-3,0,-4,-4,2,4,6.66
1333,-18,-1,-1,1,-1,0,-1,-4,6.665
1334,27,-1,4,-9,-2,2,1,1,6.67
1335,0,0,3,4,1,-1,-2,-1,6.675
1336,5,0,-13,-8,1,0,-2,3,6.68
1337,1,-1,1,4,0,0,-1,-5,6.6850000000000005
1338,-8,3,-12,-5,-3,-2,0,0,6.69
1339,6,0,9,-1,-1,-3,1,-4,6.695
1340,-6,2,2,-4,-2,-1,-2,4,6.7
1341,19,-3,-3,8,-1,3,-1,-1,6.705
1342,-2,0,4,5,0,-1,-3,2,6.71
1343,0,-2,-3,24,0,0,-3,-2,6.715
1344,-12,-4,-3,12,-2,0,-2,-1,6.72
1345,-7,-3,-4,-8,-1,0,1,0,6.7250000000000005
1346,-3,-1,-9,-27,-3,-1,1,-1,6.73
1347,-3,-3,2,-29,-2,1,1,5,6.735
1348,-1,-1,4,-5,2,-1,0,-2,6.74
1349,-5,0,4,-7,1,-4,-4,-2,6.745
1350,7,-1,7,5,-3,-2,-1,-17,6.75
1351,-14,-1,-5,0,-1,2,-3,38,6.755
1352,1,-1,-1,8,-1,1,-1,1,6.76
1353,1,0,3,4,-4,-2,-3,0,6.765000000000001
1354,-6,0,-2,3,3,-1,0,7,6.7700000000000005
1355,-1,1,-2,-3,2,-3,1,-13,6.775
1356,-17,2,0,2,-2,-2,-2,-1,6.78
1357,5,-2,3,3,-2,1,-1,2,6.785
1358,2,-1,-5,1,-6,1,-1,-5,6.79
1359,3,3,-2,-1,-2,1,2,-11,6.795
1360,-4,-1,-4,-6,-1,0,1,0,6.8
1361,-5,0,-6,-3,-1,-2,0,-9,6.805
1362,3,-3,-6,-2,2,-1,-3,4,6.8100000000000005
1363,-10,-7,11,3,2,-3,-1,-20,6.815
1364,28,-2,-5,-2,-3,0,-3,7,6.82
1365,-20,-13,7,-4,-1,0,-4,-10,6.825
1366,-7,-8,14,15,0,-1,-1,4,6.83
1367,-4,-3,-52,-18,-2,-1,-5,-1,6.835
1368,20,-3,0,-4,0,-2,1,5,6.84
1369,-16,5,-3,0,0,1,2,-8,6.845
1370,-14,5,-6,-4,-3,-1,-1,-3,6.8500000000000005
1371,8,5,14,4,-1,-2,-2,0,6.855
1372,10,3,-2,1,-2,-4,-2,-3,6.86
1373,6,5,-4,-3,-2,-1,2,11,6.865
1374,-8,4,-2,-1,6,1,0,4,6.87
1375,23,1,-1,2,-1,2,-2,-7,6.875
1376,-27,-2,21,1,-2,0,1,-16,6.88
1377,-20,1,-6,2,-3,-1,-1,41,6.885
1378,9,-4,-3,-2,-5,-1,-1,-3,6.890000000000001
1379,7,7,-1,0,-1,-3,2,-7,6.8950000000000005
1380,15,6,-5,0,1,-1,-1,6,6.9
1381,-4,-3,-3,2,-1,-1,2,-14,6.905
1382,-1,-1,-1,-1,-1,-1,1,-1,6.91
1383,-8,-5,16,6,-1,0,-3,1,6.915
1384,-10,-7,-2,1,0,0,-1,2,6.92
1385,14,-3,3,0,1,-1,-2,-8,6.925
1386,6,-5,-5,2,-1,-1,-2,3,6.93
1387,-2,-4,-2,-5,-2,-1,0,-5,6.9350000000000005
1388,-10,0,6,-3,-2,1,-1,0,6.94
1389,11,-2,-7,2,1,2,-1,0,6.945
1390,0,2,-2,3,2,-3,-1,3,6.95
1391,-11,4,2,-5,-3,0,0,0,6.955
1392,-6,-4,-7,-3,-3,0,-1,-1,6.96
1393,15,-3,-2,0,1,-1,-2,-2,6.965
1394,4,-3,9,2,-3,1,1,-4,6.97
1395,1,-1,-2,3,-2,-2,-2,5,6.9750000000000005
1396,-16,-1,-13,-8,-1,-1,-2,-1,6.98
1397,5,1,20,14,4,-2,0,-15,6.985
1398,-4,2,-8,-16,-4,-1,0,0,6.99
1399,1,3,5,-1,1,0,2,2,6.995
1400,3,-6,-7,0,0,-3,-2,-3,7.0
1401,-12,2,-1,-3,-1,-2,-1,-3,7.005
1402,3,2,1,2,-4,1,-2,3,7.01
1403,-5,-4,-4,1,-1,-1,-3,-7,7.015000000000001
1404,22,2,-9,-9,-1,-1,2,19,7.0200000000000005
1405,-44,-2,4,0,1,-2,1,-5,7.025
1406,10,3,-9,7,2,-1,-3,-5,7.03
1407,0,-1,-2,-15,-3,-2,0,4,7.035
1408,-18,-8,-8,6,1,-1,-2,-7,7.04
1409,14,-6,-2,-2,-1,-1,0,-5,7.045
1410,-3,-8,7,4,1,1,-2,3,7.05
1411,-7,1,-2,9,1,0,-1,-9,7.055
1412,9,11,-3,-8,0,-2,0,-8,7.0600000000000005
1413,5,14,-4,-1,-3,-1,1,4,7.065
1414,-6,-5,-7,-17,-4,-1,-2,-2,7.07
1415,2,-1,5,0,-5,-1,0,2,7.075
1416,3,-3,4,2,3,1,-1,0,7.08
1417,6,-7,-7,-2,-3,0,-2,7,7.085
1418,-6,5,4,1,0,-1,-3,-10,7.09
1419,1,11,3,0,2,1,-2,-2,7.095
1420,-5,4,-2,3,0,1,-1,-4,7.1000000000000005
1421,3,-2,-5,-2,0,0,-1,-7,7.105
1422,5,-8,3,2,1,0,-1,2,7.11
1423,-13,-13,0,-1,0,-2,-3,1,7.115
1424,-5,-6,1,-1,-2,-2,-1,-10,7.12
1425,17,0,5,4,0,-3,1,7,7.125
1426,-2,3,-5,-2,-2,-3,2,2,7.13
1427,4,-1,-5,-1,2,-1,0,1,7.135
1428,-3,1,2,1,0,0,-1,-1,7.140000000000001
1429,-22,-5,-10,-9,-3,1,0,7,7.1450000000000005
1430,17,2,5,0,-3,-3,0,-1,7.15
1431,9,-1,-5,-3,-2,0,2,2,7.155
1432,12,-9,2,1,0,-1,-5,-13,7.16
1433,9,-6,9,5,0,-1,-1,-6,7.165
1434,14,4,-2,2,1,-1,-2,-2,7.17
1435,-5,-3,0,-1,0,-2,-1,-1,7.175
1436,6,-1,0,-8,-3,-1,1,7,7.18
1437,2,1,-5,-5,1,2,0,-5,7.1850000000000005
1438,-14,-2,-2,0,-4,-2,3,-1,7.19
1439,5,-2,-1,2,5,0,1,4,7.195
1440,-3,0,0,3,-3,1,-2,-3,7.2
1441,1,1,2,-1,-1,-3,-4,-3,7.205
1442,-12,0,0,-1,0,1,-4,9,7.21
1443,-10,1,-1,1,-4,-2,-1,7,7.215
1444,1,-1,9,-2,-3,-3,-1,-9,7.22
1445,-10,3,3,2,-1,0,3,-1,7.2250000000000005
1446,-13,-5,-13,-10,-2,0,3,-1,7.23
1447,2,-3,-9,-1,1,-1,2,-5,7.235
1448,15,6,8,3,3,-2,0,11,7.24
1449,11,-2,-10,-4,-1,-3,-2,1,7.245
1450,-18,2,18,3,0,-2,-1,-19,7.25
1451,-24,-3,-5,1,-4,2,-1,5,7.255
1452,-4,-2,1,2,0,0,-1,3,7.26
1453,4,2,-4,0,-1,1,-3,-22,7.265000000000001
1454,14,-6,10,3,-1,0,-4,33,7.2700000000000005
1455,6,-7,-1,-11,-2,-1,0,-2,7.275
1456,-12,3,3,0,-3,-2,1,1,7.28
1457,-7,7,-8,-7,-5,-3,0,-4,7.285
1458,3,10,9,5,0,-1,-4,-13,7.29
1459,-11,-2,4,6,-1,-3,-1,-4,7.295
1460,28,3,-7,-10,-4,-1,4,5,7.3
1461,8,6,0,2,8,0,0,8,7.305
1462,-8,-4,-9,-12,-3,-2,2,3,7.3100000000000005
1463,20,5,0,6,6,-2,-2,2,7.315
1464,-10,6,-8,5,-1,0,0,1,7.32
1465,5,-1,5,-3,-4,-4,-4,-1,7.325
1466,10,-19,-6,-4,-3,0,-5,-13,7.33
1467,-35,-14,-5,-6,-3,-2,-4,-9,7.335
1468,-13,10,6,-3,-1,-1,-2,-2,7.34
1469,12,3,3,1,1,4,4,7,7.345
1470,-2,-6,-8,2,0,0,4,2,7.3500000000000005
1471,24,-4,-1,3,-2,1,0,1,7.355
1472,-15,-12,7,23,-6,-2,-2,-1,7.36
1473,-1,47,-18,-23,1,-3,-3,6,7.365
1474,-16,-1,25,-8,3,-3,0,-8,7.37
1475,-8,-44,-9,0,2,0,0,0,7.375
1476,7,15,1,-6,-1,-2,-5,1,7.38
1477,8,-4,0,4,-5,0,-1,2,7.385
1478,27,13,-6,2,-2,2,4,2,7.390000000000001
1479,-57,-4,8,-9,-3,-3,-3,-11,7.3950000000000005
1480,5,1,-2,2,0,-1,-1,-7,7.4
1481,-11,-10,-1,1,-3,1,-3,-7,7.405
1482,-4,6,4,2,1,2,-8,0,7.41
1483,35,18,-2,4,-2,2,-6,8,7.415
1484,8,-26,-9,0,7,3,1,0,7.42
1485,-51,6,7,1,1,1,4,-2,7.425
1486,14,-20,-17,-4,-2,-6,5,-2,7.43
1487,-2,38,7,-5,-8,-4,0,-9,7.4350000000000005
1488,28,38,-6,-2,0,1,4,9,7.44
1489,5,-83,6,3,2,1,1,-1,7.445
1490,58,0,0,0,2,2,5,9,7.45
1491,23,7,-9,7,-4,-5,-1,-4,7.455
1492,-75,0,1,-17,-6,-4,1,-3,7.46
1493,-1,-17,-1,-1,-9,-9,-7,-1,7.465
1494,-46,-2,-8,17,-3,-1,-5,-2,7.47
1495,33,11,2,-19,1,0,-1,-6,7.4750000000000005
1496,-18,-23,-2,4,-12,-1,-3,-10,7.48
1497,7,53,-1,-39,-10,-3,0,1,7.485
1498,10,73,3,17,7,2,6,19,7.49
1499,54,-34,5,27,5,9,7,8,7.495
1500,-3,-21,17,-12,8,4,-2,-18,7.5
1501,55,-62,-20,33,-4,-4,1,-1,7.505
1502,-40,-63,27,-27,-11,-7,-12,-20,7.51
1503,42,55,-37,2,1,-3,-2,20,7.515000000000001
1504,-15,38,-7,-1,3,-1,3,23,7.5200000000000005
1505,-34,-31,6,3,0,-1,-10,-22,7.525
1506,-37,39,-14,-2,4,-2,3,-9,7.53
1507,-37,-23,9,-11,-3,-1,0,-2,7.535
1508,-49,-58,-14,-18,-12,-2,3,0,7.54
1509,51,80,17,16,10,-3,0,12,7.545
1510,26,24,-3,-8,-11,-4,-6,-6,7.55
1511,16,0,0,-32,-12,-3,6,20,7.555
1512,36,122,6,-8,-12,-2,-1,-11,7.5600000000000005
1513,-93,-108,-4,24,13,3,-15,-5,7.565
1514,-15,22,3,28,-20,-4,-8,-28,7.57
1515,34,31,12,-54,-2,5,5,6,7.575
1516,-61,1,-2,-38,1,0,-3,-2,7.58
1517,-11,24,10,52,2,7,5,-2,7.585
1518,44,-32,-6,-62,3,-6,-7,-4,7.59
1519,-73,-117,35,127,20,7,-1,-9,7.595
1520,84,-34,16,8,14,3,13,16,7.6000000000000005
1521,-16,-22,-2,-67,-10,-8,9,-1,7.605
1522,-48,-8,12,65,11,-4,-18,13,7.61
1523,-1,54,9,-70,-20,-8,-9,-5,7.615
1524,-17,-12,-14,-31,-15,-6,-6,-23,7.62
1525,59,119,34,56,4,9,18,19,7.625
1526,-16,-72,-12,-6,-4,-1,-10,-14,7.63
1527,-55,-19,-3,16,8,-4,2,8,7.635
1528,14,-49,1,36,7,-3,-10,-14,7.640000000000001
1529,-18,-33,-29,-12,-9,3,4,24,7.6450000000000005
1530,-13,1,-16,-39,-5,2,10,-21,7.65
1531,25,37,-17,-48,-17,1,-7,0,7.655
1532,27,58,-25,42,14,-4,1,4,7.66
1533,-8,-63,31,-78,-20,-1,3,3,7.665
1534,21,38,29,63,17,10,8,13,7.67
1535,6,-77,-40,-3,0,-7,-9,-19,7.675
1536,20,28,9,-32,-1,-2,-8,30,7.68
1537,19,39,7,70,-25,-4,-8,-48,7.6850000000000005
1538,-29,-104,5,-4,30,7,9,32,7.69
1539,25,-31,27,98,20,-1,-5,-4,7.695
1540,-52,10,-72,-43,16,2,-6,2,7.7
1541,-23,-38,-12,-83,7,-3,-2,10,7.705
1542,65,72,-40,-12,4,-5,-1,-31,7.71
1543,62,45,21,-32,-5,-1,4,10,7.715
1544,-29,22,67,-47,-21,-1,7,-5,7.72
1545,41,80,-66,52,15,-3,-10,42,7.7250000000000005
1546,-34,-57,-32,-43,-15,2,4,-49,7.73
1547,6,33,-18,-29,-10,1,1,1,7.735
1548,-7,72,25,32,-15,-11,-22,-19,7.74
1549,-18,-10,20,-16,2,-1,-6,-26,7.745
1550,77,30,56,-33,-4,-1,20,86,7.75
1551,-14,87,12,-24,-24,-11,-13,-37,7.755
1552,74,-88,-24,15,2,0,4,-24,7.76
1553,15,66,-8,82,0,1,6,2,7.765000000000001
1554,-17,14,-24,-1,1,-3,-19,-7,7.7700000000000005
1555,-11,-50,-6,-19,11,5,12,-2,7.775
1556,42,40,21,-59,-29,-2,0,17,7.78
1557,7,-30,-11,22,26,8,-2,-31,7.785
1558,-45,11,32,31,-8,-8,3,10,7.79
1559,-53,42,-64,10,11,0,-18,0,7.795
1560,24,-42,34,0,-2,0,-1,-5,7.8
1561,45,-61,-8,-24,2,2,-1,20,7.805000000000001
1562,-2,59,47,-13,-13,0,-5,-15,7.8100000000000005
1563,-74,29,11,-31,12,5,14,22,7.815
1564,50,-51,16,86,23,9,22,36,7.82
1565,1,24,-50,-41,-2,-5,6,1,7.825
1566,46,-69,-18,-34,-11,0,2,-10,7.83
1567,37,110,3,-40,-20,-14,-17,25,7.835
1568,-44,-69,28,81,33,7,1,-28,7.84
1569,-4,21,44,-40,-10,-5,-4,-1,7.845
1570,-52,-23,-44,-55,-7,4,-4,-25,7.8500000000000005
1571,64,-9,37,-25,-7,0,8,20,7.855
1572,-15,25,-26,65,45,5,0,8,7.86
1573,-73,21,-7,4,-7,-9,-11,-21,7.865
1574,9,22,-13,37,-6,0,10,14,7.87
1575,-6,-32,-6,-27,24,9,4,-12,7.875
1576,0,-17,-32,-62,-32,-7,-4,-4,7.88
1577,-17,13,-54,-16,7,-5,-6,-12,7.885
1578,-9,70,41,28,2,-2,-10,9,7.890000000000001
1579,-86,-105,-71,29,2,-2,2,-15,7.8950000000000005
1580,5,50,-14,-29,-10,-1,-8,-11,7.9
1581,7,-55,21,-13,1,0,-4,-28,7.905
1582,14,32,-3,-6,-3,3,9,36,7.91
1583,-36,-29,-10,21,-7,-8,-14,-19,7.915
1584,28,23,-26,-3,-8,0,5,-6,7.92
1585,-18,-8,43,-43,-10,6,20,16,7.925
1586,54,2,-4,27,13,-6,-21,18,7.930000000000001
1587,12,36,20,17,-25,-6,-7,-35,7.9350000000000005
1588,-31,-64,-7,-36,11,2,3,12,7.94
1589,33,86,10,-12,8,2,-23,6,7.945
1590,-23,-67,13,64,6,3,14,-23,7.95
1591,33,-13,28,38,1,1,6,23,7.955
1592,-6,-4,-18,-112,-38,-13,-19,-8,7.96
1593,21,2,-60,47,18,5,16,10,7.965
1594,40,16,-13,-38,-5,-2,2,-8,7.97
1595,-2,-29,-1,-27,13,4,14,25,7.9750000000000005
1596,-8,-1,39,85,1,-3,-3,-5,7.98
1597,-11,-10,41,9,5,-1,1,16,7.985
1598,-34,6,-40,0,-6,-6,-6,-11,7.99
1599,19,25,37,32,0,-1,5,-10,7.995
1600,-47,-5,-50,-14,-5,2,1,8,8.0
1601,-39,-44,16,34,-10,-6,-16,-17,8.005
1602,-14,-11,11,-29,8,7,17,19,8.01
1603,-7,31,-23,-97,-15,-9,8,-10,8.015
1604,-69,-48,7,105,20,2,-1,14,8.02
1605,14,52,23,-11,-19,-15,-21,-12,8.025
1606,-15,-53,-1,-5,4,3,-1,0,8.03
1607,-12,-2,-25,-54,-32,-3,-2,-9,8.035
1608,69,3,-39,47,35,9,27,24,8.040000000000001
1609,0,-6,44,-27,-4,-4,-17,-10,8.045
1610,-10,31,-4,-6,-5,-2,-6,-4,8.05
1611,5,-36,6,55,8,-1,4,4,8.055
1612,1,44,0,-67,-22,-6,-8,-20,8.06
1613,-3,-3,-2,-3,-14,3,21,7,8.065
1614,8,0,-2,22,24,0,-3,14,8.07
1615,-14,-7,19,47,16,7,-9,-12,8.075
1616,17,24,12,15,-22,-6,5,-22,8.08
1617,-21,-23,15,50,5,3,1,13,8.085
1618,-20,-4,20,-66,-17,-6,4,-29,8.09
1619,-31,45,-27,69,27,0,1,7,8.095
1620,11,-29,21,-45,-8,-4,-16,-14,8.1
1621,-2,9,-57,-33,-6,1,3,22,8.105
1622,3,-6,10,6,-7,-3,-1,5,8.11
1623,9,-22,45,6,-2,4,1,-5,8.115
1624,9,20,28,-1,-1,1,-1,-7,8.120000000000001
1625,-12,-6,20,-26,-4,-3,-1,-5,8.125
1626,4,13,-86,12,1,-1,-6,-6,8.13
1627,24,-2,16,-1,2,-1,1,3,8.135
1628,-33,-5,5,-16,-6,-3,-2,0,8.14
1629,37,2,6,5,-1,4,6,2,8.145
1630,15,-16,1,17,7,-1,-6,-2,8.15
1631,6,-12,-2,-8,-4,4,-1,-1,8.155
1632,0,-4,15,41,-4,0,-1,6,8.16
1633,-5,-11,18,-39,9,4,4,3,8.165000000000001
1634,-6,23,1,8,0,-1,0,-8,8.17
1635,-1,-3,-47,-9,-1,-4,-6,4,8.175
1636,13,1,27,-6,1,-5,-4,4,8.18
1637,24,3,2,7,0,-6,5,-5,8.185
1638,7,-25,-16,-4,-6,0,-1,1,8.19
1639,-36,-23,26,3,2,-17,8,-4,8.195
1640,-1,-37,-87,-17,4,10,-16,7,8.2
1641,71,-4,9,4,-4,13,-3,26,8.205
1642,-39,2,9,-12,-2,5,-11,-46,8.21
1643,12,-67,103,12,1,4,-1,12,8.215
1644,-31,2,-31,-6,0,-14,-2,16,8.22
1645,-6,4,16,5,5,9,4,-21,8.225
1646,6,52,-67,1,-3,9,5,-30,8.23
1647,41,33,-69,-17,-2,-3,-3,-5,8.235
1648,-3,45,16,2,-1,-4,1,-17,8.24
1649,-54,-46,-21,0,0,-9,-7,-30,8.245000000000001
1650,38,116,91,12,-1,-8,4,18,8.25
1651,4,127,58,8,0,2,-3,9,8.255
1652,40,126,-77,-27,-8,-1,1,8,8.26
1653,-59,127,-2,-1,-1,-3,-3,0,8.265
1654,-2,-19,28,-11,-2,-15,-6,12,8.27
1655,7,-98,-73,-25,3,18,2,6,8.275
1656,-37,-128,85,17,-5,-3,8,1,8.28
1657,3,-99,-5,9,-4,-5,-8,8,8.285
1658,-17,-87,-21,-6,-1,3,5,2,8.290000000000001
1659,-54,-12,-17,-5,0,-1,-2,-35,8.295
1660,26,-19,-19,-17,1,1,3,1,8.3
1661,15,-16,-8,0,-2,-10,-8,53,8.305
1662,-8,-91,42,5,-1,8,14,15,8.31
1663,-30,-119,15,2,-3,-2,-5,-74,8.315
1664,78,-128,24,10,5,3,-9,-45,8.32
1665,6,-22,-54,18,1,-32,-15,-2,8.325
1666,9,43,-21,-20,-4,11,-3,7,8.33
1667,-42,58,85,-2,-4,26,13,-9,8.335
1668,-18,16,12,9,-6,-30,2,-17,8.34
1669,46,23,32,-8,-1,35,18,77,8.345
1670,14,14,-73,-26,-4,3,4,32,8.35
1671,30,32,-6,17,2,0,-10,-32,8.355
1672,40,34,50,9,0,-14,-17,26,8.36
1673,-44,1,1,11,9,8,27,-81,8.365
1674,-13,8,38,12,0,5,-7,-39,8.370000000000001
1675,-10,6,-37,-22,-3,-13,-6,43,8.375
1676,-1,7,31,0,-2,11,-2,-3,8.38
1677,26,-29,-104,-15,-3,-9,16,15,8.385
1678,-14,-20,38,9,-5,10,2,5,8.39
1679,22,4,-11,12,1,-16,-7,3,8.395
1680,-4,28,66,5,2,-2,-6,-2,8.4
1681,-12,38,-16,-15,-7,-1,1,-16,8.405
1682,0,9,-33,5,0,-4,-2,10,8.41
1683,-3,-2,-10,0,-3,-17,-12,17,8.415000000000001
1684,-10,19,-2,-13,0,12,11,10,8.42
1685,10,-6,28,-4,2,14,-6,4,8.425
1686,-8,-10,20,22,5,-17,-11,-4,8.43
1687,27,8,-4,10,-2,-1,0,9,8.435
1688,-36,1,-36,-10,1,12,9,7,8.44
1689,-1,-5,32,-11,-2,-3,-9,-20,8.445
1690,6,-14,8,20,3,-8,-3,8,8.45
1691,10,-7,-51,-21,-9,1,3,5,8.455
1692,-2,-14,-9,-1,0,8,3,3,8.46
1693,6,-21,-5,-7,-1,-10,-11,-7,8.465
1694,25,13,16,9,4,-3,2,4,8.47
1695,-6,-1,-14,1,-1,6,4,15,8.475
1696,-11,5,-44,-12,-1,-1,0,6,8.48
1697,0,-6,-8,12,-4,-5,-4,-13,8.485
1698,-38,35,1,-19,-5,1,3,26,8.49
1699,-5,-26,13,11,-4,2,-2,-29,8.495000000000001
1700,-18,-12,-36,16,-1,-6,-1,1,8.5
1701,-14,-3,-6,5,3,-2,0,2,8.505
1702,7,-18,-23,-13,-5,-2,-3,-5,8.51
1703,-4,4,27,-33,3,-5,-5,6,8.515
1704,-9,3,16,-24,-4,3,3,2,8.52
1705,7,-4,1,-4,-1,2,0,-4,8.525
1706,-6,-1,-41,-6,0,-7,-4,-11,8.53
1707,26,17,17,16,0,-1,1,15,8.535
1708,-6,-5,-25,-2,-2,1,0,-15,8.540000000000001
1709,-32,-4,25,10,2,0,-1,6,8.545
1710,37,-1,-6,-3,1,-1,-2,-8,8.55
1711,1,4,6,10,2,2,2,6,8.555
1712,5,3,-11,-1,3,1,1,3,8.56
1713,-15,-10,-10,-6,-7,-4,-7,-5,8.565
1714,-8,-13,18,9,1,-1,-1,3,8.57
1715,13,9,-13,-16,-3,-4,-1,6,8.575000000000001
1716,-17,7,13,8,0,-3,-5,3,8.58
1717,16,5,-4,1,0,1,3,-10,8.585
1718,-13,-5,30,3,-1,-2,-3,0,8.59
1719,26,5,-6,9,-1,1,1,-4,8.595
1720,-1,5,-7,-9,-1,-1,-1,2,8.6
1721,2,7,5,-7,-2,1,-1,0,8.605
1722,1,-10,-3,4,0,3,1,-11,8.61
1723,-12,-6,-5,1,-4,-2,-4,21,8.615
1724,-4,2,-12,-9,-1,-2,1,25,8.620000000000001
1725,-10,-1,8,1,3,-2,-3,-41,8.625
1726,6,5,-18,-5,0,-2,1,-2,8.63
1727,7,1,5,3,1,1,5,8,8.635
1728,-11,-10,8,-5,-6,0,3,-15,8.64
1729,-10,5,21,7,5,-2,-5,-3,8.645
1730,4,-5,-11,-2,-3,-7,-3,-23,8.65
1731,5,-1,-4,3,2,2,-2,-2,8.655
1732,-2,7,3,4,-3,3,0,5,8.66
1733,2,3,-16,-4,-5,0,-1,5,8.665000000000001
1734,0,1,-5,0,-1,-2,-5,-5,8.67
1735,24,2,-13,0,-3,0,-3,-12,8.675
1736,-2,-1,2,-7,0,1,1,-4,8.68
1737,3,-7,-4,-6,-2,-1,2,5,8.685
1738,-3,-2,5,0,3,2,0,15,8.69
1739,-16,-1,13,-2,1,-4,-3,6,8.695
1740,7,0,-2,5,3,-5,-1,-7,8.700000000000001
1741,16,0,-8,-3,0,-2,-1,-14,8.705
1742,-17,2,10,14,-1,-1,1,50,8.71
1743,-12,-8,-12,-14,-3,1,-3,-4,8.715
1744,0,21,-2,-2,-2,-1,-3,-11,8.72
1745,7,-11,10,-8,-1,-1,0,13,8.725
1746,-8,9,9,-2,-2,-1,2,-8,8.73
1747,-5,-20,-35,-3,0,3,-1,-8,8.735
1748,5,2,4,5,4,0,-2,-2,8.74
1749,-6,2,5,1,-2,0,-2,12,8.745000000000001
1750,-1,-6,-2,-2,1,0,1,7,8.75
1751,-16,5,14,12,1,0,1,-29,8.755
1752,-18,-7,-8,-2,-3,-5,0,-15,8.76
1753,29,0,-7,-3,3,-1,5,12,8.765
1754,15,-5,10,-7,-4,-3,-5,-6,8.77
1755,-52,5,-2,1,-1,-2,2,-4,8.775
1756,-4,-8,-5,-2,-2,1,-2,27,8.78
1757,-5,7,15,2,0,1,-2,1,8.785
1758,6,0,-2,0,0,1,2,0,8.790000000000001
1759,19,-4,-8,-6,0,0,-2,6,8.795
1760,1,0,-2,-6,-2,3,0,1,8.8
1761,-9,-5,2,7,-3,-3,-3,2,8.805
1762,13,-2,-6,-8,0,-1,1,-9,8.81
1763,-8,3,2,9,1,-2,-1,-6,8.815
1764,19,0,-11,-1,2,0,-1,-8,8.82
1765,-5,2,-9,-5,0,0,-3,4,8.825000000000001
1766,-8,2,-6,3,-1,-4,-1,-3,8.83
1767,9,6,2,-1,-1,-1,0,1,8.835
1768,-2,-5,5,5,-6,-1,-1,3,8.84
1769,-2,-4,-5,-2,1,-2,1,3,8.845
1770,-5,-3,-1,1,-2,-1,0,-13,8.85
1771,-6,-1,-10,-4,-1,2,-1,6,8.855
1772,12,0,3,0,-1,0,-4,2,8.86
1773,3,4,8,5,-2,0,-4,-11,8.865
1774,-19,-7,0,-4,-1,0,-2,-9,8.870000000000001
1775,13,2,21,4,1,0,-1,-2,8.875
1776,-7,-1,-6,-2,-2,-1,3,4,8.88
1777,1,1,0,-4,-2,-1,0,-1,8.885
1778,2,0,-6,-6,2,-1,0,5,8.89
1779,4,2,-5,-4,-3,-2,1,2,8.895
1780,-8,-2,-9,-1,2,1,1,8,8.9
1781,-20,-1,7,4,-2,-1,0,-36,8.905
1782,17,-4,-9,2,-4,-2,1,29,8.91
1783,-19,1,10,-6,-4,-2,0,8,8.915000000000001
1784,-3,-5,15,6,1,-2,-7,-13,8.92
1785,-25,-8,-19,-6,0,-2,0,-8,8.925
1786,19,5,2,4,0,1,0,2,8.93
1787,19,-2,-16,-6,2,-1,-1,0,8.935
1788,2,-3,-1,-6,-5,0,-1,1,8.94
1789,-20,-4,6,5,0,2,-3,-2,8.945
1790,-6,4,2,2,-1,2,-2,-18,8.950000000000001
1791,-6,-7,-11,-2,-1,-1,0,-3,8.955
1792,6,0,19,6,-2,-3,1,-7,8.96
1793,15,-5,-25,-3,2,-4,-1,14,8.965
1794,-3,-4,-9,-3,-2,3,-1,-5,8.97
1795,4,-1,1,0,-1,-1,-4,10,8.975
1796,-3,3,1,-3,-1,0,-2,-3,8.98
1797,12,-2,-3,-6,0,-2,1,8,8.985
1798,-15,2,2,3,0,-3,-1,-3,8.99
1799,11,3,9,5,-1,-2,1,-3,8.995000000000001
1800,3,0,-2,-5,-3,-1,-3,-4,9.0
1801,0,-7,5,-3,-1,-2,-3,4,9.005
1802,-2,0,-7,5,-1,-3,-1,-8,9.01
1803,1,0,-16,-14,-2,2,-1,-3,9.015
1804,3,4,10,9,-1,-2,4,2,9.02
1805,11,4,4,-5,-3,0,2,5,9.025
1806,-21,5,-5,-4,1,0,1,3,9.03
1807,32,-6,0,2,-2,-2,1,-1,9.035
1808,-8,-3,-8,-1,0,-2,-1,11,9.040000000000001
1809,-1,2,2,-5,-5,-1,0,-1,9.045
1810,12,-3,1,2,4,-1,-1,-7,9.05
1811,1,5,-2,1,0,4,0,8,9.055
1812,-10,-7,-15,-4,4,1,3,-9,9.06
1813,1,1,4,4,-4,-2,-1,-1,9.065
1814,6,-3,-2,-4,-3,-3,-3,0,9.07
1815,-31,-1,4,-1,0,-2,-3,-7,9.075000000000001
1816,35,-4,-2,-1,-2,-1,-1,14,9.08
1817,-25,0,1,3,1,1,0,-1,9.085
1818,-2,-4,7,6,0,-1,-3,1,9.09
1819,-16,-4,-8,-10,1,-1,3,0,9.095
1820,-3,-4,-7,-1,2,2,1,-13,9.1
1821,13,7,17,6,-2,1,-2,9,9.105
1822,-5,-1,-4,-7,-4,0,2,-4,9.11
1823,8,-1,7,9,-1,-2,-1,-1,9.115
1824,-4,4,4,1,-2,-3,-1,0,9.120000000000001
1825,3,0,-13,-3,1,0,-2,5,9.125
1826,-5,-5,3,0,0,-3,-2,-3,9.13
1827,5,-3,-1,-2,-2,-4,-2,3,9.135
1828,-9,-1,-2,-1,-1,2,0,-22,9.14
1829,4,-3,1,2,-1,0,-2,40,9.145
1830,-3,-1,1,-1,-1,1,-1,0,9.15
1831,3,3,-7,0,-1,-3,1,5,9.155
1832,-3,1,9,-4,-1,0,-3,-4,9.16
1833,-4,-3,-8,-5,0,1,0,-16,9.165000000000001
1834,-8,-2,7,24,-3,1,0,-12,9.17
1835,6,2,1,11,-1,1,0,5,9.175
1836,-4,1,-3,4,0,0,1,-2,9.18
1837,5,3,-1,-13,-2,-4,2,-10,9.185
1838,1,-2,-10,-25,-1,3,-3,7,9.19
1839,0,1,3,-18,0,-1,-2,-6,9.195
1840,1,3,-6,-14,-3,-1,-3,0,9.200000000000001
1841,-8,-6,1,-7,-2,-2,-2,1,9.205
1842,-10,2,-6,-4,-3,-2,-2,-1,9.21
1843,9,-2,-2,5,-3,0,-4,-5,9.215
1844,-16,-2,9,11,-1,-1,-2,-5,9.22
1845,13,1,-6,0,2,0,1,1,9.225
1846,6,0,-10,0,2,2,3,-1,9.23
1847,-1,-3,7,5,2,-1,1,3,9.235
1848,-2,-3,-8,-5,2,-1,-1,7,9.24
1849,-1,-2,2,7,-2,-2,-1,-10,9.245000000000001
1850,2,-3,1,3,1,-3,-2,5,9.25
1851,4,2,-4,-3,1,-1,-2,-2,9.255
1852,17,-5,-14,1,-2,-1,-3,-4,9.26
1853,-7,1,6,0,-2,0,-2,5,9.265
1854,13,-4,-9,-5,-1,-2,-1,-7,9.27
1855,-21,-3,1,-4,-1,2,4,4,9.275
1856,-16,2,2,-1,-3,-1,2,6,9.28
1857,17,6,7,10,6,1,3,-21,9.285
1858,9,-9,-1,-3,-1,-4,-2,7,9.290000000000001
1859,-3,-1,-4,-6,-5,-4,-4,-11,9.295
1860,-6,-5,4,1,1,-3,-3,5,9.3
1861,-4,-8,-8,-2,-3,-1,-2,-1,9.305
1862,-2,8,5,3,-2,0,-1,-9,9.31
1863,-3,-2,-5,4,3,-2,0,9,9.315
1864,-14,-1,-1,-6,1,-2,-1,4,9.32
1865,3,1,9,5,-1,-1,0,1,9.325000000000001
1866,-9,1,-4,-6,-1,0,0,-7,9.33
1867,6,-3,-1,-2,-3,1,2,-2,9.335
1868,3,0,-3,0,-1,2,-2,-2,9.34
1869,1,3,-1,0,-2,2,-1,-5,9.345
1870,-4,-8,-7,-2,-3,1,-1,-1,9.35
1871,8,-4,-2,-6,-3,0,-1,-5,9.355
1872,-15,-4,-1,1,0,-1,1,-22,9.36
1873,-7,-4,-9,-1,-2,0,-4,46,9.365
1874,-1,3,10,0,-1,0,-3,-1,9.370000000000001
1875,3,-1,3,6,-2,-2,-1,-1,9.375
1876,-1,-2,-6,-5,-4,1,2,6,9.38
1877,-2,-2,-7,-2,4,-3,2,-17,9.385
1878,-4,4,7,0,0,-1,-2,3,9.39
1879,-3,3,7,3,2,1,-1,4,9.395
1880,3,-2,-2,-3,-2,1,-5,-6,9.4
1881,-6,-3,-2,2,0,-2,-1,-8,9.405
1882,4,-2,-7,-7,3,0,1,6,9.41
1883,-13,4,2,-3,2,-2,-4,-10,9.415000000000001
1884,9,4,-6,1,2,-1,3,4,9.42
1885,-7,-9,2,-7,-3,-1,-1,-4,9.425
1886,-9,-4,1,5,-1,1,0,2,9.43
1887,20,0,-4,-4,-6,-2,-1,-1,9.435
1888,-7,6,3,0,0,-1,0,7,9.44
1889,-5,-1,-1,0,-2,1,1,-3,9.445
1890,-11,-1,2,1,-3,-1,1,-3,9.450000000000001
1891,-2,-5,-4,3,0,-2,2,-2,9.455
1892,9,-3,-6,-4,-2,-2,-3,0,9.46
1893,8,3,18,4,0,-1,-4,-5,9.465
1894,2,-2,-13,-3,0,-3,-1,-4,9.47
1895,-3,-2,-1,0,1,1,-2,-1,9.475
1896,2,-5,2,1,2,-1,2,-20,9.48
1897,-2,0,-17,-7,-3,0,1,5,9.485
1898,-1,2,11,1,1,-1,-2,-2,9.49
1899,6,3,-7,4,0,0,-2,3,9.495000000000001
1900,-2,2,6,-1,-2,0,-2,-2,9.5
1901,3,4,6,4,-3,-2,-2,-2,9.505
1902,4,2,-1,-6,-4,-2,-1,-3,9.51
1903,-25,-3,0,0,-2,1,-3,2,9.515
1904,20,-2,-5,1,2,2,0,10,9.52
1905,1,-2,-7,-4,0,-1,-2,-4,9.525
1906,4,-5,-5,-2,-2,0,1,5,9.53
1907,-6,-2,4,0,-2,-1,2,-1,9.535
1908,3,0,0,0,-3,-1,-4,4,9.540000000000001
1909,-14,0,-1,-1,-2,1,1,0,9.545
1910,12,3,3,4,0,-1,-2,-16,9.55
1911,-10,1,-5,-9,-1,-4,1,-5,9.555
1912,-3,-1,-4,-1,-1,-1,-1,9,9.56
1913,-2,-1,1,0,1,-1,-1,-12,9.565
1914,-10,3,3,2,1,-2,-1,-1,9.57
1915,15,1,3,3,-4,-1,-1,-6,9.575000000000001
1916,2,-11,-11,-2,-1,0,-1,-9,9.58
1917,5,0,9,1,-3,-1,-3,49,9.585
1918,-3,-2,-17,-6,-2,0,1,10,9.59
1919,-6,3,13,3,-1,-1,0,4,9.595
1920,-5,-1,10,6,0,-1,0,-7,9.6
1921,-6,-6,-8,-8,2,0,0,-15,9.605
1922,21,-2,8,3,-1,-1,-2,-1,9.61
1923,-7,-2,-9,-2,0,-2,-1,-1,9.615
1924,-4,-1,3,28,-3,-1,0,0,9.620000000000001
1925,0,-1,-4,9,1,0,1,-1,9.625
1926,-8,-2,-1,3,0,0,-6,2,9.63
1927,13,-2,-7,-12,1,4,-5,-2,9.635
1928,2,0,1,-18,-1,-2,-1,5,9.64
1929,-2,0,1,-15,-2,-3,-2,-22,9.645
1930,-1,1,-1,-20,-1,-2,3,-7,9.65
1931,1,-4,-5,-5,-1,-1,-1,-1,9.655
1932,-6,-1,2,-9,-2,-1,-2,3,9.66
1933,6,0,-4,7,-2,-1,-1,-6,9.665000000000001
1934,-7,-2,-1,5,-1,0,0,1,9.67
1935,-1,2,-2,7,-1,-2,1,2,9.675
1936,10,1,1,5,1,-1,-2,9,9.68
1937,-15,-2,-2,-2,2,0,1,-3,9.685
1938,-7,-4,3,-1,-1,-2,-1,4,9.69
1939,4,-4,8,7,-1,0,1,-1,9.695
1940,-2,1,-4,-3,-2,1,-1,-17,9.700000000000001
1941,11,1,0,2,-5,-2,-1,29,9.705
1942,-10,0,-5,1,2,-2,2,5,9.71
1943,0,-1,4,-1,2,-3,-1,2,9.715
1944,-7,-2,2,-2,-2,-3,2,-4,9.72
1945,-4,0,-3,-3,-1,-1,0,-12,9.725
1946,19,-6,-3,3,-5,-2,-4,-12,9.73
1947,-7,-3,11,2,-2,0,3,7,9.735
1948,-1,0,-3,-3,-2,2,-4,1,9.74
1949,3,-3,-1,2,-2,1,-1,-2,9.745000000000001
1950,-8,3,-2,-4,0,0,2,4,9.75
1951,1,-4,-7,-1,0,1,-2,-13,9.755
1952,0,6,5,4,-3,-2,0,-1,9.76
1953,-9,-4,-7,-3,2,-1,-3,-8,9.765
1954,17,2,-3,-2,0,0,-5,3,9.77
1955,-12,2,0,-12,-2,0,-1,3,9.775
1956,-6,-1,2,-1,3,1,0,9,9.78
1957,-4,-4,-6,-6,-3,-3,0,-5,9.785
1958,7,-5,17,15,-1,1,-1,1,9.790000000000001
1959,4,-2,-5,-5,1,0,-1,-3,9.795
1960,2,0,-1,-2,0,0,-1,-4,9.8
1961,3,-1,4,-2,-3,0,-1,-5,9.805
1962,-10,0,-11,-1,5,2,-1,-2,9.81
1963,-10,-2,-4,3,-3,-2,-1,-19,9.815
1964,14,-3,-2,-5,-2,-4,-1,27,9.82
1965,3,-3,4,2,-1,-1,-2,-3,9.825000000000001
1966,-6,0,-1,1,-2,0,1,-3,9.83
1967,3,2,-8,0,-1,-1,-1,-2,9.835
1968,-6,-2,-10,-10,0,0,-2,-12,9.84
1969,3,2,-3,-4,0,-4,0,-2,9.845
1970,-2,3,4,7,0,-2,1,-1,9.85
1971,-5,-7,2,-8,-2,0,0,2,9.855
1972,0,0,7,5,-2,-1,-3,-6,9.86
1973,3,1,0,1,-2,-1,-1,-1,9.865
1974,-6,0,0,-4,0,-4,0,1,9.870000000000001
1975,1,-1,-3,7,0,-1,0,2,9.875
1976,2,0,-6,-1,-2,0,2,-3,9.88
1977,-12,2,1,0,0,4,4,-5,9.885
1978,17,-3,-3,-4,-4,0,-4,-3,9.89
1979,1,2,-3,-2,-1,-1,-1,5,9.895
1980,-3,1,-1,-6,0,1,-2,-11,9.9
1981,-1,6,5,1,-3,-3,-1,-6,9.905
1982,-4,-8,-12,-9,-4,-1,3,-1,9.91
1983,2,-3,5,6,4,2,0,3,9.915000000000001
1984,-7,-6,5,8,-2,-1,-3,-2,9.92
1985,3,1,-4,-5,1,-3,1,3,9.925
1986,-3,1,2,-3,-1,-1,-4,-1,9.93
1987,-9,-3,-5,-2,0,-3,0,-1,9.935
1988,19,-3,-11,-7,0,-1,2,-4,9.94
1989,3,-5,0,1,-1,0,-4,-4,9.945
1990,3,-2,-4,-4,-2,1,-1,1,9.950000000000001
1991,-18,0,0,1,0,-1,-1,-2,9.955
1992,-6,-1,2,-1,-2,-1,-1,3,9.96
1993,-1,-6,-2,-5,-2,0,-1,-25,9.965
1994,-13,0,0,2,2,2,0,6,9.97
1995,18,2,1,6,-3,1,-3,3,9.975
1996,-3,0,-3,-8,-3,-4,0,0,9.98
1997,2,-1,-7,-1,-3,-3,0,5,9.985
1998,-9,0,-6,-8,-1,-2,2,-6,9.99
1999,3,-1,11,12,1,-1,0,-6,9.995000000000001
2000,-8,-1,-1,-9,1,0,0,-5,10.0
2001,-4,4,-1,-2,1,-2,-3,7,10.005
2002,4,-9,-2,-1,-2,-2,2,4,10.01
2003,2,0,-5,-4,0,0,-1,4,10.015
2004,1,0,8,11,1,-1,0,1,10.02
2005,5,0,0,1,-4,2,-2,3,10.025
2006,-6,0,4,2,2,-1,-5,-3,10.03
2007,-1,1,-2,-8,-3,-2,-3,-7,10.035
2008,-6,-1,-6,26,2,1,-1,2,10.040000000000001
2009,-9,-1,1,15,2,-1,0,6,10.045
2010,-2,4,5,7,-3,1,-1,-8,10.05
2011,-1,0,1,-7,-5,-1,-2,5,10.055
2012,2,-1,-6,-20,1,-1,-3,-3,10.06
2013,1,-2,3,-16,4,1,-3,1,10.065
2014,-3,4,-4,-20,-1,-3,1,-26,10.07
2015,0,-4,-11,-21,-2,-3,0,24,10.075000000000001
2016,-4,-2,2,-2,-2,-1,-1,-3,10.08
2017,7,-3,-1,1,-1,-2,-1,-3,10.085
2018,-5,3,8,4,2,-1,0,-5,10.09
2019,-4,-6,0,6,0,1,1,-5,10.095
2020,-2,-1,-2,6,-4,2,-2,1,10.1
2021,-5,2,0,4,1,-1,0,3,10.105
2022,3,7,-9,0,2,-1,-2,7,10.11
2023,4,-2,10,12,-2,-2,-3,-6,10.115
2024,3,-12,-6,1,0,-2,1,3,10.120000000000001
2025,-10,-2,5,-1,-2,-1,0,-5,10.125
2026,-3,-6,-3,-2,-6,0,-3,6,10.13
2027,-2,-1,-8,-11,-3,-1,0,-6,10.135
2028,-5,2,5,0,7,0,0,-7,10.14
2029,-2,-2,-3,-6,0,0,0,-2,10.145
2030,-10,-2,-6,3,1,-3,1,9,10.15
2031,22,2,6,1,2,0,-2,-3,10.155
2032,3,4,4,0,0,-1,-3,-5,10.16
2033,-3,-5,-9,-4,-5,-1,2,3,10.165000000000001
2034,1,4,-4,3,-2,1,-2,-2,10.17
2035,-3,-4,-11,-3,-2,1,-1,-4,10.175
2036,-6,2,1,-1,-3,-2,-2,1,10.18
2037,2,-1,8,5,0,-2,-1,1,10.185
2038,3,-5,6,9,2,-2,-1,-2,10.19
2039,-7,3,-4,-2,-1,2,-1,0,10.195
2040,-1,0,-6,-10,-1,0,-1,-11,10.200000000000001
2041,2,0,-3,1,0,-2,-1,39,10.205
2042,3,-1,4,-4,-1,0,0,-1,10.21
2043,7,-2,-5,-3,0,0,1,-2,10.215
2044,-11,-8,-2,4,-2,1,-1,5,10.22
2045,3,-3,-7,-9,1,1,1,-11,10.225
2046,-1,-1,10,-2,-5,-2,2,3,10.23
2047,2,3,4,7,3,0,-1,0,10.235
2048,1,3,-5,-6,-4,-1,-2,-6,10.24
2049,1,-2,-1,2,0,-1,-2,3,10.245000000000001
2050,2,-2,1,-2,2,-2,0,4,10.25
2051,-12,3,-2,-2,-3,-2,-1,-10,10.255
2052,0,4,2,-1,-2,1,-1,3,10.26
2053,23,-3,-2,6,1,1,-5,-12,10.265
2054,-8,-2,-17,-8,-2,-1,0,1,10.27
2055,5,-3,18,12,-1,-4,-2,-8,10.275
2056,-9,-1,2,0,1,-1,0,10,10.28
2057,-1,-1,-1,-3,-1,0,0,-3,10.285
2058,5,-3,-5,-3,-3,1,-3,-2,10.290000000000001
2059,-10,-2,-8,-4,-1,0,1,2,10.295
2060,0,-4,0,-1,-3,-1,1,1,10.3
2061,2,4,3,6,-2,1,-2,-8,10.305
2062,-11,-1,-4,-7,-2,-2,1,-2,10.31
2063,-6,5,19,6,2,-1,-1,2,10.315
2064,2,-6,-17,-10,-4,1,0,-3,10.32
2065,-3,-5,-2,-1,2,-1,-3,-5,10.325000000000001
2066,3,-3,-3,2,-4,0,-1,1,10.33
2067,4,2,-3,-2,-2,-1,1,0,10.335
2068,-1,3,7,8,5,-1,2,10,10.34
2069,-4,4,0,0,-2,0,2,-8,10.345
2070,-1,-5,3,1,1,-3,-1,-5,10.35
2071,-3,-2,-9,-2,-4,-3,-1,4,10.355
2072,-3,0,-5,-6,-2,1,-4,-3,10.36
2073,-9,0,8,3,-1,1,0,-5,10.365
2074,5,1,-4,-1,-1,1,1,-1,10.370000000000001
2075,5,-1,-7,-8,-1,1,1,-2,10.375
2076,-4,3,6,-1,0,-3,2,0,10.38
2077,3,-1,-2,-3,0,-4,-2,4,10.385
2078,-12,-1,0,1,1,0,-4,-3,10.39
2079,-3,-6,0,3,-2,0,0,5,10.395
2080,5,-2,-7,-5,-1,-1,0,-4,10.4
2081,-5,1,-14,-5,-1,1,-2,0,10.405
2082,3,1,6,7,1,1,0,-4,10.41
2083,-6,-1,-13,-5,-4,1,3,-6,10.415000000000001
2084,-6,0,13,7,2,1,2,5,10.42
2085,10,2,3,-2,-2,-1,1,-9,10.425
2086,-1,-3,-2,-1,0,-3,0,-3,10.43
2087,-2,1,-5,-3,-1,-2,-4,-1,10.435
2088,7,-2,0,3,-4,-5,-1,-3,10.44
2089,-7,-7,-9,-8,-3,-3,0,2,10.445
2090,5,-1,-2,2,0,-1,0,-15,10.450000000000001
2091,-8,1,2,-2,-2,2,-1,30,10.455
2092,8,-6,-3,-1,-2,1,-3,0,10.46
2093,0,1,2,2,0,0,0,1,10.465
2094,2,3,3,-1,0,-2,-2,-3,10.47
2095,-7,-2,-1,-2,1,-2,0,-6,10.475
2096,-2,2,-2,-5,0,0,-3,-5,10.48
2097,-6,-1,-1,0,-2,0,1,4,10.485
2098,6,-1,-2,-4,-2,-1,-1,7,10.49
2099,-1,3,-2,5,1,0,1,-6,10.495000000000001
2100,2,-6,0,0,1,0,1,-2,10.5
2101,1,0,1,1,2,-2,-3,-11,10.505
2102,-4,-4,3,1,1,1,1,8,10.51
2103,-2,2,2,0,5,-4,0,-3,10.515
2104,16,3,-6,2,-3,-1,-2,-1,10.52
2105,-5,-1,-5,-8,0,-1,0,-1,10.525
2106,2,1,-3,-4,-3,-3,-5,-7,10.53
2107,-1,1,9,6,-4,-1,-4,-6,10.535
2108,-4,-4,5,1,0,1,-1,-1,10.540000000000001
2109,-3,0,-5,-2,-1,0,-1,5,10.545
2110,3,-2,-1,18,2,-2,2,-1,10.55
2111,0,-4,-7,13,1,0,1,-8,10.555
2112,-5,2,-3,2,-4,-1,-1,0,10.56
2113,-3,-1,-1,-2,-2,1,0,-1,10.565
2114,1,0,-3,-15,-2,1,2,2,10.57
2115,4,-7,0,-20,-3,1,-1,-3,10.575000000000001
2116,-7,4,3,-20,0,-4,-2,-2,10.58
2117,-1,-3,4,-8,-2,1,1,-15,10.585
2118,9,4,2,-9,-5,0,-1,11,10.59
2119,-1,-3,0,8,2,1,-1,0,10.595
2120,6,-2,-3,6,-3,-2,-3,1,10.6
2121,-2,-7,-9,3,-1,-3,-2,-4,10.605
2122,-8,-4,0,8,1,-2,-1,-6,10.61
2123,5,-2,-6,-2,-2,-1,-1,1,10.615
2124,-5,0,-4,2,-1,2,0,-7,10.620000000000001
2125,1,2,1,6,-1,0,-2,3,10.625
2126,-4,0,-3,-2,-3,-2,0,2,10.63
2127,-2,-2,-3,-8,1,-1,0,1,10.635
2128,-5,-1,-2,0,2,-3,3,6,10.64
2129,-3,1,1,4,-3,-2,-2,-1,10.645
2130,-1,0,1,1,1,1,-2,5,10.65
2131,2,1,0,-2,0,1,-5,-6,10.655
2132,-3,-2,-2,-1,0,0,-3,0,10.66
2133,6,6,-1,1,-2,1,-2,5,10.665000000000001
2134,4,-9,-13,-4,-2,1,1,-4,10.67
2135,-9,-2,1,-1,-2,-1,0,-3,10.675
2136,-14,-1,7,-1,-4,-3,2,-1,10.68
2137,14,2,-1,4,1,-2,0,8,10.685
2138,-7,1,-8,-11,2,-2,-2,-13,10.69
2139,-3,2,-6,-2,-8,-2,3,1,10.695
2140,12,-2,14,-4,1,1,0,-25,10.700000000000001
2141,-7,-4,4,1,-2,-1,-1,25,10.705
2142,-4,-1,5,5,2,0,-1,5,10.71
2143,3,-3,-12,-1,-2,-4,-2,-3,10.715
2144,-5,4,-4,-4,-4,-3,0,-1,10.72
2145,-5,3,10,11,-1,-4,-1,-3,10.725
2146,3,-1,-5,-7,2,4,-4,1,10.73
2147,-3,-1,2,-6,-1,1,-2,7,10.735
2148,1,-6,-6,1,-2,1,-2,5,10.74
2149,-3,-4,-8,-2,-4,1,-1,-2,10.745000000000001
2150,-2,0,3,5,-2,-2,-1,4,10.75
2151,12,1,4,0,1,-2,0,-6,10.755
2152,-9,2,-6,0,0,0,0,5,10.76
2153,-1,-2,-4,-2,1,0,1,-7,10.765
2154,-5,-1,8,6,-2,1,2,0,10.77
2155,-1,-6,-5,-2,1,0,-1,-3,10.775
2156,10,-1,-2,3,1,-1,-1,-7,10.78
2157,-7,-3,2,-3,0,-1,-1,5,10.785
2158,1,1,-4,-6,-4,-2,-1,1,10.790000000000001
2159,-2,0,6,3,0,-2,0,2,10.795
2160,-6,6,-2,0,0,-2,-1,6,10.8
2161,-3,-5,-8,-10,-3,-5,-1,-3,10.805
2162,0,3,3,-1,1,-3,-4,2,10.81
2163,0,-2,2,-5,-2,3,0,-3,10.815
2164,-5,3,7,3,-4,3,-1,-19,10.82
2165,-11,-5,-11,-10,0,2,-3,44,10.825000000000001
2166,8,-4,-3,-3,-5,-2,-1,-3,10.83
2167,-6,1,-3,3,0,-2,0,-2,10.835
2168,5,-1,-1,2,0,-2,-2,1,10.84
2169,8,1,4,6,-1,1,0,-17,10.845
2170,-5,1,1,2,0,-1,0,2,10.85
2171,-3,-4,-3,-3,-1,-5,-2,5,10.855
2172,-10,0,1,-3,3,-1,0,-1,10.86
2173,25,0,-3,-1,-1,0,2,-2,10.865
2174,-3,1,6,3,2,2,0,-4,10.870000000000001
2175,-1,2,5,1,-5,-2,-1,-1,10.875
2176,5,-3,-8,-1,-2,0,-1,9,10.88
2177,-12,1,-2,-2,0,2,0,-10,10.885
2178,-4,-3,6,2,0,2,1,2,10.89
2179,-1,1,-2,0,-1,-2,0,-6,10.895
2180,9,-1,-1,9,-2,-3,-1,4,10.9
2181,-3,5,0,-9,1,-2,-1,-8,10.905
2182,-13,-1,-6,2,-2,-2,-1,1,10.91
2183,22,-4,4,-13,-4,0,-2,1,10.915000000000001
2184,-4,-3,1,0,2,-1,2,5,10.92
2185,0,-1,3,4,0,-1,-2,-8,10.925
2186,5,3,-3,1,-1,-1,-2,-3,10.93
2187,-7,0,-3,-2,-1,0,2,0,10.935
2188,-2,-6,-3,-3,1,1,-1,2,10.94
2189,-3,-4,2,5,-2,0,-2,-14,10.945
2190,6,-2,-6,-1,-1,-1,0,-4,10.950000000000001
2191,-3,3,-1,3,0,1,0,3,10.955
2192,1,-1,-6,-6,-3,0,1,3,10.96
2193,-3,1,8,2,1,-4,0,-6,10.965
2194,-10,0,-3,-3,1,-4,-2,-22,10.97
2195,5,2,0,4,2,-2,-1,6,10.975
2196,-3,1,-1,-2,3,1,2,0,10.98
2197,1,0,-3,-6,-4,0,1,3,10.985
2198,-2,-3,0,9,-2,0,1,-3,10.99
2199,-8,-10,-7,-3,-3,1,-1,-5,10.995000000000001
2200,-1,3,-2,-7,-4,-2,-5,-1,11.0
2201,1,2,0,-2,-3,-2,-2,-4,11.005
2202,-7,-2,6,-3,1,0,-5,8,11.01
2203,-3,4,2,4,-2,0,-2,-3,11.015
2204,1,-5,-6,2,3,-1,-1,-1,11.02
2205,-1,-4,-2,-3,-2,-1,3,-6,11.025
2206,2,-1,-3,2,-1,-2,1,5,11.03
2207,7,1,-3,-2,3,-1,-2,4,11.035
2208,-6,8,4,-4,-3,-3,-3,-1,11.040000000000001
2209,-2,-4,4,0,1,-1,-2,-1,11.045
2210,1,4,-2,-2,-1,-1,-2,2,11.05
2211,0,2,3,3,0,0,2,-4,11.055
2212,5,-10,-4,-1,-3,-2,2,0,11.06
2213,-1,1,-3,0,-1,-1,-2,0,11.065
2214,4,2,1,-2,-1,0,0,4,11.07
2215,-4,4,6,-4,1,-3,-2,-1,11.075000000000001
2216,-7,-10,-4,-4,-2,0,-2,-1,11.08
2217,-8,0,-6,-2,-1,1,-3,-1,11.085
2218,3,-5,-5,-7,-2,0,-1,-5,11.09
2219,-3,-3,-1,1,-3,-1,-2,2,11.095
2220,-3,2,3,0,-1,-1,0,-1,11.1
2221,-4,-3,2,2,1,-1,-2,-6,11.105
2222,-2,4,-1,-5,-2,-1,1,-2,11.11
2223,-1,-1,0,5,5,-2,0,-3,11.115
2224,1,0,0,-1,-3,-1,1,4,11.120000000000001
2225,1,-1,-4,-1,0,0,2,2,11.125
2226,-3,0,1,-1,-3,0,0,0,11.13
2227,-1,0,-5,0,-2,0,0,2,11.135
2228,0,1,8,5,1,0,-5,-6,11.14
2229,-3,-2,-1,3,-1,0,0,-1,11.145
2230,14,-4,2,-2,-1,1,-2,-9,11.15
2231,-21,3,-10,-2,-4,2,-2,-7,11.155
2232,1,-5,1,2,1,2,-1,-4,11.16
2233,3,7,12,3,-1,0,0,9,11.165000000000001
2234,-6,-14,-10,-1,-2,-3,2,-7,11.17
2235,5,0,2,1,1,1,0,-1,11.175
2236,-1,2,-6,-4,-1,-1,-1,2,11.18
2237,-1,-1,-2,-1,-1,-5,-4,-10,11.185
2238,1,3,4,2,-1,-4,-2,6,11.19
2239,4,1,-8,0,-2,-4,-3,3,11.195
2240,-2,0,-3,-4,-3,-2,0,1,11.200000000000001
2241,3,2,3,0,-4,0,1,-1,11.205
2242,-3,-1,2,0,2,1,1,2,11.21
2243,-4,-8,-1,-2,-1,0,0,0,11.215
2244,-2,4,-1,1,0,0,-1,-3,11.22
2245,0,1,-4,-2,1,0,-2,2,11.225
2246,-1,0,0,-3,-2,-2,-2,4,11.23
2247,-2,-6,-1,-1,0,-2,0,-7,11.235
2248,3,-2,0,1,2,-1,-5,0,11.24
2249,2,7,-1,0,0,-2,0,-2,11.245000000000001
2250,-2,-14,-4,-1,-1,-4,-2,1,11.25
2251,2,-1,0,-2,0,0,0,0,11.255
2252,-3,-3,-3,-2,-2,-1,2,-2,11.26
2253,-2,-1,0,-3,0,0,2,1,11.265
2254,-3,-2,2,-1,-3,2,-4,1,11.27
2255,2,-4,-2,-3,0,-1,-2,1,11.275
2256,0,7,3,1,0,-2,1,2,11.28
2257,-2,-3,-2,-3,-2,-1,0,-1,11.285
2258,1,2,0,1,1,-2,1,0,11.290000000000001
2259,-1,-5,4,2,-3,0,-3,-2,11.295
2260,-2,-4,-3,-3,0,4,-2,0,11.3
2261,2,-3,-2,2,0,1,-2,4,11.305
2262,4,0,-4,-2,-4,-1,1,-13,11.31
2263,-8,0,2,-1,-2,-2,-1,-2,11.315
2264,0,-1,-6,-2,-2,-3,1,4,11.32
2265,-1,-2,1,-2,-2,-3,0,-4,11.325000000000001
2266,-3,0,-1,-2,-1,0,-2,4,11.33
2267,5,1,0,-4,-4,1,0,-27,11.335
2268,3,-5,-2,0,-2,-3,-4,44,11.34
2269,-7,-4,-6,-4,-2,-3,-4,-1,11.345
2270,-7,1,1,3,2,0,0,1,11.35
2271,20,-3,-1,-4,-2,0,1,-1,11.355
2272,-4,-1,0,2,-2,2,-1,-11,11.36
2273,-4,1,2,-1,1,-1,0,0,11.365
2274,-3,3,-5,-5,-3,-1,-2,7,11.370000000000001
2275,-7,0,-2,-1,-2,-1,-1,4,11.375
2276,3,-5,0,-3,0,-1,-1,-11,11.38
2277,5,-3,-2,1,-1,-2,-3,2,11.385
2278,-3,-2,1,1,2,-1,-2,-2,11.39
2279,-2,2,3,-1,-1,1,-2,5,11.395
2280,-2,-3,-4,-2,2,-1,0,-4,11.4
2281,3,3,3,1,0,0,-1,-4,11.405
2282,1,3,-1,-4,0,1,1,3,11.41
2283,0,-3,-3,3,-2,-4,-3,7,11.415000000000001
2284,0,3,-1,0,-6,-2,4,-6,11.42
2285,-1,-1,-6,-1,0,-1,1,-4,11.425
2286,1,-6,-2,3,0,0,1,-1,11.43
2287,-2,3,2,0,0,0,-1,5,11.435
2288,-2,-1,1,-3,0,-2,-3,-10,11.44
2289,-8,-10,-3,-1,-2,-1,0,-2,11.445
2290,10,9,3,-2,-3,-2,-3,-3,11.450000000000001
2291,-5,3,4,-1,1,-1,0,0,11.455
2292,-5,-14,-15,-3,0,-1,-2,-5,11.46
2293,-4,-4,1,-1,-1,0,-3,-2,11.465
2294,-11,-12,-4,-2,-3,1,-3,-3,11.47
2295,5,2,-4,3,2,3,0,2,11.475
2296,14,19,7,-3,-2,1,2,2,11.48
2297,8,0,0,2,-2,-1,1,2,11.485
2298,-6,1,1,2,1,1,2,1,11.49
2299,-16,-11,-1,-3,-1,-3,-3,-5,11.495000000000001
2300,6,8,-3,5,2,-1,-1,-3,11.5
2301,10,7,-2,-3,-2,1,0,0,11.505
2302,11,-13,4,21,4,-1,1,1,11.51
2303,-13,-11,-5,14,-1,1,2,1,11.515
2304,-7,6,2,3,-2,2,2,3,11.52
2305,-5,1,-3,-2,-1,1,-4,-2,11.525
2306,2,9,-5,-15,-6,-2,-3,-2,11.53
2307,3,-9,-3,-14,-1,-4,0,-2,11.535
2308,1,4,2,-20,0,-3,-1,-4,11.540000000000001
2309,-3,-6,0,-16,-1,0,1,4,11.545
2310,5,1,3,-8,1,1,-1,1,11.55
2311,-11,-7,-5,1,-3,-3,-2,-5,11.555
2312,-11,-10,-1,3,-3,-2,-3,-4,11.56
2313,5,-7,-8,1,-3,-3,-2,-4,11.565
2314,-1,4,3,3,1,-1,1,4,11.57
2315,16,5,-7,1,-1,-3,-1,7,11.575000000000001
2316,-7,-10,0,8,4,2,-4,1,11.58
2317,17,5,0,0,-1,0,-2,-2,11.585
2318,-5,30,1,8,-1,0,1,0,11.59
2319,-35,-3,3,-7,-4,-2,0,-2,11.595
2320,-16,-37,-5,-1,-5,-5,-3,-8,11.6
2321,16,5,-6,3,1,-1,-1,1,11.605
2322,-33,-15,-3,-7,-4,-6,-5,-10,11.61
2323,-4,45,3,0,-5,-1,1,-3,11.615
2324,-18,-26,3,0,3,0,0,-4,11.620000000000001
2325,42,46,2,4,3,2,3,11,11.625
2326,13,-27,-6,0,3,-1,2,0,11.63
2327,6,33,-1,3,3,2,-1,5,11.635
2328,21,20,45,9,1,3,6,2,11.64
2329,-21,-23,27,-9,-3,-4,-6,-12,11.645
2330,-21,-67,-67,-6,-1,-1,1,-1,11.65
2331,31,37,-12,0,-6,-3,-3,0,11.655
2332,27,-11,-74,-19,-2,-1,-3,1,11.66
2333,-45,-13,10,2,-2,-4,-3,-5,11.665000000000001
2334,13,14,31,-7,-2,0,0,8,11.67
2335,10,-52,-1,-3,-2,-2,-5,-8,11.675
2336,-70,36,7,4,-4,0,1,9,11.68
2337,42,-60,17,-6,-5,-1,-2,-10,11.685
2338,-67,22,3,1,1,-5,-4,-8,11.69
2339,14,13,7,2,3,1,6,4,11.695
2340,18,41,15,5,4,-1,2,4,11.700000000000001
2341,-72,40,-20,0,-5,-6,-6,-11,11.705
2342,27,55,14,15,-1,-1,-6,2,11.71
2343,-24,-63,-16,-20,0,2,-1,-6,11.715
2344,26,9,-7,-10,-7,-3,-2,3,11.72
2345,-18,-64,-9,-34,-10,0,4,7,11.725
2346,90,36,1,43,11,1,-1,8,11.73
2347,-11,-32,0,-36,-3,-5,-5,-11,11.735
2348,-58,-41,24,58,13,0,-1,-10,11.74
2349,31,-19,-39,-75,-21,-3,6,18,11.745000000000001
2350,-32,44,35,45,20,3,-3,-5,11.75
2351,18,31,-4,10,0,2,6,7,11.755
2352,-22,-85,0,11,-15,-4,-3,-1,11.76
2353,-19,47,-46,27,37,10,0,-8,11.765
2354,44,-18,-16,-41,-17,-1,3,7,11.77
2355,18,-6,35,7,-11,0,4,5,11.775
2356,27,54,-48,-36,-2,-2,-3,-9,11.78
2357,-3,-86,29,0,-8,-3,0,18,11.785
2358,17,-76,21,18,-18,-5,-12,-23,11.790000000000001
2359,-96,-109,-17,38,15,9,9,14,11.795
2360,51,65,46,-2,-10,-9,-3,-6,11.8
2361,3,-6,-12,16,8,10,10,40,11.805
2362,-55,9,-5,-29,1,1,10,-23,11.81
2363,55,51,1,15,-16,-12,-18,3,11.815
2364,-59,0,-58,-20,35,7,-3,-18,11.82
2365,-5,17,19,-7,-6,-3,-5,-1,11.825000000000001
2366,-33,74,-3,-8,11,-1,-2,-2,11.83
2367,30,15,13,-18,-15,1,11,-6,11.835
2368,31,36,-4,30,-16,-3,8,4,11.84
2369,-6,74,24,9,15,-1,-3,-2,11.845
2370,32,-21,31,-20,-24,-2,-10,-4,11.85
2371,-53,-46,2,23,34,-3,-13,3,11.855
2372,28,-6,26,65,-23,-4,-12,-4,11.86
2373,19,58,-11,-28,0,5,-7,-15,11.865
2374,12,-69,-54,-31,-1,2,19,-8,11.870000000000001
2375,-63,38,20,11,-6,-6,1,29,11.875
2376,33,6,-11,-70,8,10,5,8,11.88
2377,-24,12,9,49,1,-6,7,-5,11.885
2378,-13,-60,18,-49,-5,6,1,12,11.89
2379,91,32,1,-41,2,-3,-6,15,11.895
2380,-81,-32,-9,-10,7,-2,3,-8,11.9
2381,56,87,1,55,7,4,9,-4,11.905
2382,0,31,-16,37,-3,-6,-12,-22,11.91
2383,57,-8,26,-32,-6,1,-2,-2,11.915000000000001
2384,-31,18,36,17,-11,1,5,3,11.92
2385,16,-21,-56,-4,19,5,-5,-5,11.925
2386,12,72,70,-6,-9,-6,-5,0,11.93
2387,-41,-18,-78,2,-20,2,8,3,11.935
2388,68,8,43,56,16,-6,-11,-7,11.94
2389,-67,-65,-4,-53,-27,-9,-12,-17,11.945
2390,27,-30,7,67,24,9,13,25,11.950000000000001
2391,70,18,67,-19,-14,0,-3,-10,11.955
2392,-98,15,-46,-18,-3,-5,-13,-15,11.96
2393,-20,-71,2,53,0,1,7,10,11.965
2394,-7,59,-31,-38,-10,-8,-12,-15,11.97
2395,61,61,-10,-21,12,0,-3,-12,11.975
2396,2,-43,-4,-27,0,2,7,14,11.98
2397,99,2,42,-9,-8,-6,0,-3,11.985
2398,-67,-25,-67,-85,-26,-2,-2,-1,11.99
2399,-128,-77,-48,56,29,8,7,-14,11.995000000000001
2400,127,91,11,16,-22,-5,-3,-6,12.0
2401,-75,5,-30,-36,9,-4,-5,-9,12.005
2402,17,-27,19,23,-2,-1,7,23,12.01
2403,-36,21,-39,-84,-25,-5,-9,-9,12.015
2404,40,-116,7,68,40,18,16,24,12.02
2405,8,29,32,-30,-35,-10,-2,0,12.025
2406,-39,5,24,38,24,8,0,-4,12.030000000000001
2407,-30,-56,-24,-40,2,3,8,1,12.035
2408,35,-11,-16,14,-6,-6,-11,6,12.040000000000001
2409,-62,19,0,-50,-17,-8,-18,-37,12.045
2410,30,0,6,33,25,-6,-18,12,12.05
2411,73,30,41,43,8,-5,-1,38,12.055
2412,-51,15,16,-63,-15,-3,-5,-16,12.06
2413,13,-6,0,10,4,3,14,12,12.065
2414,-26,66,0,45,-3,-7,-8,-28,12.07
2415,19,26,24,5,-3,5,9,5,12.075000000000001
2416,39,-85,-15,-74,15,6,8,14,12.08
2417,-15,-1,86,104,9,-4,-15,-16,12.085
2418,2,-63,-20,-6,3,3,9,14,12.09
2419,-17,38,65,8,-11,-6,-9,-14,12.095
2420,-34,35,-52,8,-3,-6,-4,-21,12.1
2421,14,4,12,-1,7,10,10,12,12.105
2422,7,-15,-9,-7,-7,-1,4,11,12.11
2423,0,-51,21,86,25,3,-6,-11,12.115
2424,-43,44,8,-42,-12,-5,0,-2,12.120000000000001
2425,-29,-7,-16,-8,-4,-7,-2,-2,12.125
2426,12,42,19,28,-10,-8,-10,5,12.13
2427,46,42,-30,-80,-2,6,17,-23,12.135
2428,-63,-36,31,0,-22,-9,-9,31,12.14
2429,30,47,3,13,14,-1,-9,0,12.145
2430,-36,27,-36,-68,-6,4,6,2,12.15
2431,45,-3,75,52,-2,-3,-8,-9,12.155000000000001
2432,42,11,-68,-38,-12,0,8,2,12.16
2433,-22,13,-7,5,-6,-5,3,-11,12.165000000000001
2434,24,-35,15,-5,10,1,3,8,12.17
2435,16,-1,-5,5,7,0,-9,-5,12.175
2436,7,9,81,46,6,2,-19,-7,12.18
2437,14,-61,-10,-48,-17,3,3,11,12.185
2438,21,-22,8,1,7,0,4,-3,12.19
2439,-25,16,-51,-4,-5,-3,12,21,12.195
2440,-6,-25,9,-81,-8,-1,6,-16,12.200000000000001
2441,-3,-5,-38,14,6,2,-12,2,12.205
2442,17,27,60,57,2,-2,-9,-24,12.21
2443,-18,-31,-105,-42,-11,0,16,14,12.215
2444,-68,14,6,30,2,-3,-18,-11,12.22
2445,-21,17,-30,-20,-1,0,-18,-5,12.225
2446,33,1,-2,-51,-19,-5,-6,0,12.23
2447,-37,-11,-23,17,13,3,-12,-13,12.235
2448,8,20,10,35,8,-4,9,10,12.24
2449,31,-29,-7,-4,-3,-3,8,1,12.245000000000001
2450,-17,16,35,-84,-15,-2,0,0,12.25
2451,-3,8,-6,110,11,3,3,0,12.255
2452,16,-6,-8,-47,-8,0,-4,-19,12.26
2453,-33,-45,48,-4,3,1,10,16,12.265
2454,-16,50,-79,13,3,-4,3,4,12.27
2455,1,5,-9,-59,-14,-8,-26,-17,12.275
2456,-2,17,-10,-26,-3,0,-5,-10,12.280000000000001
2457,6,-1,14,94,17,6,9,1,12.285
2458,-10,-60,-10,-9,-13,-2,-4,16,12.290000000000001
2459,-17,7,46,0,8,2,10,0,12.295
2460,15,-3,-76,18,-9,-8,-6,21,12.3
2461,8,32,20,-27,-5,2,0,-8,12.305
2462,-6,-23,-73,-34,-2,3,8,-3,12.31
2463,-10,9,42,23,5,-5,-4,-3,12.315
2464,1,-14,13,-2,15,3,6,-1,12.32
2465,16,18,31,-51,-11,-2,3,-8,12.325000000000001
2466,-3,-10,18,46,8,1,0,2,12.33
2467,4,-7,-4,-3,-2,-5,-9,-6,12.335
2468,0,3,-11,11,0,1,4,-5,12.34
2469,13,1,-54,1,-1,-3,-1,2,12.345
2470,-13,-6,-40,-6,0,0,0,-6,12.35
2471,-17,15,10,-14,-8,0,-4,-4,12.355
2472,7,24,75,25,5,3,7,6,12.36
2473,-25,13,-19,6,-3,-14,-6,-9,12.365
2474,-16,7,51,-7,2,-5,2,-5,12.370000000000001
2475,31,3,-15,-18,-4,0,4,25,12.375
2476,-58,-105,17,17,1,-9,9,17,12.38
2477,75,36,15,-10,-1,36,-7,-45,12.385
2478,33,28,-62,1,4,-25,2,36,12.39
2479,-52,74,47,-1,-3,16,-2,-35,12.395
2480,-1,79,21,-2,0,14,15,-55,12.4
2481,-8,-24,-2,-2,-4,-5,14,30,12.405000000000001
2482,-37,5,18,14,2,18,-7,-45,12.41
2483,38,60,51,-2,-7,-25,-15,-9,12.415000000000001
2484,55,53,-52,-11,-3,11,2,27,12.42
2485,3,46,15,-7,2,-12,1,30,12.425
2486,11,106,52,11,0,1,0,-48,12.43
2487,-17,102,-110,-27,-3,-11,-7,14,12.435
2488,16,108,41,13,2,3,3,12,12.44
2489,-44,-49,-37,6,1,-5,-4,-3,12.445
2490,-32,-115,65,-1,0,0,1,24,12.450000000000001
2491,-8,-124,17,6,-5,-1,-2,-34,12.455
2492,23,-59,5,12,-2,-14,-7,37,12.46
2493,41,-62,-80,-10,0,12,-7,-35,12.465
2494,4,-81,-17,13,-4,-3,-1,-13,12.47
2495,-10,-112,-22,-22,-4,5,8,-2,12.475
2496,-10,-48,-12,5,2,0,-2,-13,12.48
2497,-7,-41,-6,-7,0,-10,-2,12,12.485
2498,-1,-55,19,-10,3,1,1,14,12.49
2499,-8,-99,11,2,-1,0,0,0,12.495000000000001
2500,27,-121,19,19,1,-7,-4,-13,12.5
2501,-11,-107,19,2,-2,3,2,39,12.505
2502,7,-30,38,-3,0,7,2,9,12.51
2503,-22,-32,-17,1,1,-2,-2,8,12.515
2504,4,-45,-20,-18,-3,-3,-13,-3,12.52
2505,-33,8,37,15,2,-5,-2,-16,12.525
2506,29,28,-21,-3,-2,0,-15,2,12.530000000000001
2507,18,36,14,3,0,15,17,10,12.535
2508,8,49,-27,-7,-3,-6,-2,-1,12.540000000000001
2509,-2,45,86,7,-1,-23,-6,-6,12.545
2510,2,57,-69,1,0,-33,2,2,12.55
2511,-20,32,4,-4,0,85,25,-16,12.555
2512,4,34,-6,4,2,0,-6,4,12.56
2513,20,69,-15,-11,-3,-3,-3,-3,12.565
2514,-4,34,5,7,-3,-16,-4,1,12.57
2515,19,-3,9,12,0,-33,-13,2,12.575000000000001
2516,-32,4,2,-9,-2,7,3,-5,12.58
2517,-2,21,6,-9,-6,-6,0,2,12.585
2518,10,-3,31,-1,-2,3,-16,-4,12.59
2519,-12,-13,-93,-16,0,-12,-7,-2,12.595
2520,-4,14,74,13,3,3,2,-3,12.6
2521,1,14,-31,-1,1,-8,-8,-5,12.605
2522,-12,-21,-10,-7,-4,13,5,10,12.61
2523,34,-11,14,-23,-4,-5,-10,-2,12.615
2524,56,2,4,0,-5,-17,-9,-3,12.620000000000001
2525,-6,1,34,28,8,21,23,11,12.625
2526,-1,5,28,-11,-3,10,21,11,12.63
2527,17,16,39,23,-3,-21,-7,13,12.635
2528,5,-19,-54,-27,-4,-21,-39,-42,12.64
2529,-27,-5,10,9,-4,26,35,-19,12.645
2530,26,23,-9,20,5,37,-8,-9,12.65
2531,-29,-9,6,-14,0,-26,-7,4,12.655000000000001
2532,9,-2,-5,-3,-4,2,1,12,12.66
2533,0,0,-47,-15,-3,-22,-13,-5,12.665000000000001
2534,-43,0,-6,-2,-3,-9,-3,2,12.67
2535,35,4,14,9,-1,1,-3,7,12.675
2536,-9,4,35,1,0,-1,25,13,12.68
2537,4,-21,-42,-7,-3,9,-3,-6,12.685
2538,16,-3,1,-6,-1,-2,3,-1,12.69
2539,-13,10,-1,9,1,-3,-9,-2,12.695
2540,-28,2,10,-1,-2,8,9,2,12.700000000000001
2541,27,14,-4,-3,1,-4,-4,8,12.705
2542,-8,-1,-21,-14,-2,-2,-3,0,12.71
2543,-14,8,11,8,-3,-9,3,-3,12.715
2544,-10,1,6,-6,1,6,5,-3,12.72
2545,-5,4,2,5,1,0,-5,3,12.725
2546,6,-4,-15,-1,0,-2,-1,-5,12.73
2547,10,6,7,11,-1,4,2,0,12.735
2548,-10,-11,-30,5,0,4,1,4,12.74
2549,-3,7,-27,-15,0,-3,-8,3,12.745000000000001
2550,-8,-12,13,1,1,-2,2,-2,12.75
2551,0,7,-18,-4,3,-2,3,0,12.755
2552,-13,-6,-10,-6,1,0,-1,3,12.76
2553,0,0,21,-4,1,-3,-4,-1,12.765
2554,4,-12,18,3,-1,-4,-1,-3,12.77
2555,-6,-1,28,-3,-2,2,0,-1,12.775
2556,-12,-4,-5,7,-1,0,0,-1,12.780000000000001
2557,1,2,6,1,-2,1,-1,-2,12.785
2558,1,3,1,0,0,1,0,-1,12.790000000000001
2559,-8,-4,-19,-5,-2,-1,-4,-3,12.795
2560,-6,2,-5,-1,-1,-2,1,1,12.8
2561,7,2,-10,0,1,-4,-2,3,12.805
2562,2,4,10,7,-1,-2,0,-17,12.81
2563,-7,2,-15,-1,0,-2,1,46,12.815
2564,-6,-4,-8,2,-2,-5,1,-8,12.82
2565,-5,3,6,6,-1,-1,-8,-5,12.825000000000001
2566,-11,4,-25,-8,-1,-3,8,12,12.83
2567,46,2,10,2,0,0,-7,-27,12.835
2568,-7,-2,-7,-4,-1,19,8,-1,12.84
2569,15,5,-4,7,1,-5,-1,-7,12.845
2570,-5,-8,18,1,-4,-2,-3,4,12.85
2571,-12,0,-11,-7,1,-4,0,-7,12.855
2572,5,-3,16,3,1,-6,-2,8,12.86
2573,-20,-8,1,-9,0,-2,-2,-4,12.865
2574,1,-5,-54,-9,-4,0,-3,0,12.870000000000001
2575,-4,-13,4,2,0,-4,2,-9,12.875
2576,-5,1,-2,-4,-3,-4,-4,-9,12.88
2577,1,2,6,-2,-1,2,5,5,12.885
2578,5,5,9,4,1,-2,0,-2,12.89
2579,-17,1,4,-7,-5,-1,3,-4,12.895
2580,-1,4,-10,6,0,0,-1,-3,12.9
2581,7,5,7,-1,0,0,-4,2,12.905000000000001
2582,-3,-9,-10,-7,-4,1,-4,-3,12.91
2583,3,7,2,6,-1,0,1,3,12.915000000000001
2584,3,3,5,-1,-1,-1,1,5,12.92
2585,0,3,18,1,-2,-1,3,-12,12.925
2586,0,-2,-3,1,0,-3,0,43,12.93
2587,-38,-4,-19,-9,4,5,1,3,12.935
2588,22,0,13,3,-2,-6,-10,-32,12.94
2589,1,-4,8,11,-1,-4,-7,9,12.945
2590,-1,-1,2,9,1,0,2,-14,12.950000000000001
2591,15,-3,-10,-6,-3,-1,-6,-7,12.955
2592,-39,-5,-16,-9,-3,0,7,6,12.96
2593,3,9,-10,-8,-2,13,-4,-1,12.965
2594,1,-16,5,3,2,-2,-4,-14,12.97
2595,-10,-8,-1,3,1,-3,2,7,12.975
2596,12,-2,-4,-4,-2,-6,-4,-1,12.98
2597,6,-8,1,4,-2,-4,0,1,12.985
2598,-3,1,0,0,-2,-1,0,-2,12.99
2599,0,6,5,1,0,1,-2,-3,12.995000000000001
2600,3,6,7,1,-1,1,-1,8,13.0
2601,-6,0,-23,-7,1,0,4,2,13.005
2602,-2,7,-11,-14,-4,-3,0,0,13.01
2603,2,-1,25,15,2,-4,0,-8,13.015
2604,-2,13,-9,7,3,2,0,1,13.02
2605,-4,-6,6,-7,-2,-5,-3,6,13.025
2606,-2,5,-5,1,2,0,0,-14,13.030000000000001
2607,2,5,-1,-2,-2,0,-1,-8,13.035
2608,-9,-4,-9,-5,-1,-1,1,12,13.040000000000001
2609,14,-2,0,4,-3,-3,-1,-23,13.045
2610,-3,-4,3,-3,-4,-4,-4,36,13.05
2611,8,-1,6,-6,-2,1,1,2,13.055
2612,-1,4,-7,-2,0,0,0,-1,13.06
2613,-6,-5,-9,-5,0,-2,4,-2,13.065
2614,-7,-2,4,-2,1,2,1,-13,13.07
2615,3,-1,-9,0,-2,0,1,-4,13.075000000000001
2616,10,-5,-4,-4,-2,-4,-4,9,13.08
2617,4,-4,17,9,0,-2,-8,-11,13.085
2618,4,18,3,0,1,4,0,-2,13.09
2619,-22,0,-7,-5,-2,0,0,7,13.095
2620,15,-16,7,-2,-2,0,3,-7,13.1
2621,3,-5,7,13,0,-2,2,1,13.105
2622,1,-1,-18,12,0,-1,-3,-2,13.11
2623,-2,4,-1,-3,0,-1,-1,-3,13.115
2624,-5,-5,19,7,0,0,0,0,13.120000000000001
2625,-4,0,-21,-19,1,-1,4,6,13.125
2626,0,-2,-1,-10,-1,-3,1,-9,13.13
2627,-1,2,2,-8,-4,-3,0,-1,13.135
2628,-3,1,7,-5,-1,0,-4,-2,13.14
2629,-14,0,9,0,-2,1,-2,8,13.145
2630,-13,-8,-17,-2,-3,-2,-4,-13,13.15
2631,34,2,-2,-16,5,-3,-2,-11,13.155000000000001
2632,-10,-3,0,-13,-1,0,0,13,13.16
2633,-11,-3,0,-2,0,2,-3,-4,13.165000000000001
2634,4,3,3,-5,-3,0,0,-2,13.17
2635,-6,-2,0,10,-2,-3,-1,11,13.175
2636,-3,5,-7,8,1,-1,-4,-11,13.18
2637,2,10,-2,2,0,2,1,2,13.185
2638,1,-5,14,7,1,4,1,0,13.19
2639,0,-6,-3,4,-1,1,0,-6,13.195
2640,2,2,-4,2,1,-5,2,-2,13.200000000000001
2641,-2,-1,2,3,2,-4,-1,4,13.205
2642,5,9,12,8,1,-1,-2,-4,13.21
2643,-7,-4,-8,-7,-7,-2,0,-1,13.215
2644,-2,4,-14,-6,-4,1,-1,-1,13.22
2645,2,0,20,11,-1,-1,-2,4,13.225
2646,1,-2,2,-4,0,0,0,-1,13.23
2647,-4,0,-7,3,-1,2,-2,0,13.235
2648,2,7,5,-1,-1,0,-1,9,13.24
2649,-13,-5,-1,1,-4,-6,-2,-6,13.245000000000001
2650,18,-4,-5,-3,2,-3,0,-6,13.25
2651,-6,-5,0,3,-1,-2,-1,4,13.255
2652,2,-6,-7,-1,0,0,2,-1,13.26
2653,-5,3,-4,-1,1,1,2,1,13.265
2654,6,-3,7,3,-4,-5,-2,1,13.27
2655,0,-4,-4,-2,-3,0,-2,-25,13.275
2656,3,10,2,3,2,1,-3,12,13.280000000000001
2657,8,-9,-9,-2,-2,2,2,0,13.285
2658,-5,0,-1,1,0,-4,0,8,13.290000000000001
2659,2,-1,-1,-3,1,0,0,-10,13.295
2660,-4,-3,-17,-7,-3,2,2,-8,13.3
2661,3,3,20,4,0,0,0,1,13.305
2662,-8,1,4,8,-3,-1,-3,-3,13.31
2663,1,1,-3,-10,-2,-4,-2,8,13.315
2664,-5,-4,0,-1,-2,0,-3,-4,13.32
2665,2,-4,-20,-10,-2,2,-1,6,13.325000000000001
2666,2,0,2,-4,2,4,3,-3,13.33
2667,-2,-1,3,8,1,-1,-1,-1,13.335
2668,-5,-7,-6,-2,-3,-4,0,-4,13.34
2669,4,11,3,-3,-2,-5,-1,-4,13.345
2670,-8,-4,1,-4,-1,-2,-2,-1,13.35
2671,-1,-6,-4,-2,-1,-1,1,6,13.355
2672,-1,-5,0,4,2,1,-2,-2,13.36
2673,-2,0,-13,-3,0,0,0,7,13.365
2674,3,3,5,-2,0,-1,-2,-5,13.370000000000001
2675,-1,-4,-5,-2,0,-2,1,10,13.375
2676,0,1,16,7,-3,-1,0,-5,13.38
2677,-6,-2,-2,-4,-1,-3,-4,0,13.385
2678,8,0,-7,2,1,2,-3,-2,13.39
2679,-3,-2,-1,-3,0,5,2,0,13.395
2680,-1,-1,7,1,1,-1,1,-1,13.4
2681,3,4,-9,-4,-2,-1,-7,-2,13.405000000000001
2682,-19,7,-6,-4,-3,2,4,0,13.41
2683,0,-7,7,1,-1,1,0,-26,13.415000000000001
2684,4,2,7,0,3,1,1,16,13.42
2685,8,-6,0,3,-1,0,0,-2,13.425
2686,-13,-8,-5,-4,0,-3,-3,2,13.43
2687,-5,3,-4,-5,-2,-2,1,-3,13.435
2688,1,4,2,-3,-4,-2,-3,0,13.44
2689,-1,-3,-6,-6,-1,0,0,-3,13.445
2690,6,-2,5,-10,-4,-3,-5,0,13.450000000000001
2691,0,2,-3,6,3,-1,-3,9,13.455
2692,-4,-4,-3,1,-2,-4,-2,-3,13.46
2693,3,2,18,14,-1,-1,1,4,13.465
2694,2,-1,-12,-8,-1,1,2,0,13.47
2695,-3,0,10,3,-2,-2,-4,11,13.475
2696,-9,3,-10,-5,1,-1,-3,-5,13.48
2697,-3,-5,-12,-6,0,-1,0,-6,13.485
2698,9,1,-1,5,1,2,0,4,13.49
2699,-10,-2,-8,-5,-2,-1,-1,6,13.495000000000001
2700,-2,2,5,1,-4,1,-2,-4,13.5
2701,-2,3,2,-3,-2,-1,2,-3,13.505
2702,-1,-6,-4,-3,0,-4,-1,-1,13.51
2703,3,1,-6,4,0,-4,-2,1,13.515
2704,2,-3,-2,1,3,-1,-1,-4,13.52
2705,0,1,0,1,0,0,2,-4,13.525
2706,10,-2,-5,-3,-2,0,-3,0,13.530000000000001
2707,-15,-1,-7,0,-2,2,0,-3,13.535
2708,-2,2,5,-2,-1,-1,2,1,13.540000000000001
2709,-3,-4,14,-3,-7,1,-2,0,13.545
2710,-11,-6,-9,-1,-4,1,0,-6,13.55
2711,15,-5,-3,0,4,-2,0,5,13.555
2712,-6,-2,-12,-4,-1,1,2,-2,13.56
2713,5,4,0,-2,2,-3,-1,-4,13.565
2714,-5,4,3,-5,0,-3,2,6,13.57
2715,-1,0,-6,-3,-2,1,-2,-23,13.575000000000001
2716,-5,-4,-3,0,1,0,0,25,13.58
2717,-1,-5,1,4,1,0,0,0,13.585
2718,-2,-4,-2,0,-2,0,-1,4,13.59
2719,-6,2,5,2,1,-2,0,-3,13.595
2720,9,-8,1,4,-2,-4,-4,-15,13.6
2721,-9,-3,-4,-10,-3,-1,0,-3,13.605
2722,2,-1,-1,3,4,1,0,2,13.61
2723,-2,4,4,-1,-1,0,0,6,13.615
2724,8,5,0,0,-5,1,1,-6,13.620000000000001
2725,-7,-4,-8,-6,-3,0,-2,1,13.625
2726,-5,3,-1,-3,0,1,-3,-9,13.63
2727,4,2,6,1,-1,0,0,4,13.635
2728,-1,1,1,-3,0,-1,-4,-9,13.64
2729,6,5,-8,13,4,-1,0,-4,13.645
2730,-2,-8,3,-10,2,0,0,7,13.65
2731,-2,-3,3,0,-2,-2,-1,4,13.655000000000001
2732,4,0,1,-2,-1,-1,-3,0,13.66
2733,-1,-2,-8,-2,-2,0,1,-1,13.665000000000001
2734,0,-2,0,4,-4,-2,-2,-2,13.67
2735,4,-1,0,0,1,-1,-2,7,13.675
2736,-11,-3,-3,-5,-1,0,0,-6,13.68
2737,7,5,1,-1,0,1,1,8,13.685
2738,-12,3,3,4,1,0,-2,-4,13.69
2739,12,-5,-2,-2,-4,-3,0,-9,13.695
2740,4,-1,-2,2,2,1,7,3,13.700000000000001
2741,13,1,-4,-2,0,1,-8,-3,13.705
2742,11,3,0,-2,-3,-4,-1,-2,13.71
2743,-22,-7,-4,3,4,3,0,-25,13.715
2744,-1,-2,4,4,-1,-2,0,32,13.72
2745,-3,-2,5,0,1,-1,3,1,13.725
2746,-1,-1,-2,-3,0,-1,2,-1,13.73
2747,4,3,-1,4,-3,-1,0,4,13.735
2748,0,-2,-16,-10,-3,-2,-1,-9,13.74
2749,-4,6,19,-4,-3,-2,1,2,13.745000000000001
2750,3,-1,-3,-8,-3,-2,-2,0,13.75
2751,0,-3,0,0,2,-1,-1,4,13.755
2752,-1,-2,-8,6,1,-1,0,-7,13.76
2753,-2,-2,0,-5,-3,-1,-4,-2,13.765
2754,0,0,1,3,2,1,0,-7,13.77
2755,5,4,4,-2,-3,0,-4,8,13.775
2756,1,0,-3,-2,-3,1,-3,-6,13.780000000000001
2757,-3,-5,-3,1,-3,-3,1,-3,13.785
2758,-1,4,1,3,-1,-2,4,-1,13.790000000000001
2759,-1,-6,-3,-2,0,-1,1,2,13.795
2760,-4,-1,6,1,2,2,-1,-4,13.8
2761,-6,-12,-10,-3,-4,-1,-2,-1,13.805
2762,4,-1,10,3,5,-2,-4,-3,13.81
2763,-10,0,-12,-3,0,-2,5,-1,13.815
2764,-15,-4,4,0,0,-1,-6,-5,13.82
2765,1,3,4,5,0,0,-1,4,13.825000000000001
2766,3,3,0,8,-4,2,0,5,13.83
2767,8,2,-5,-14,-4,-1,-2,3,13.835
2768,5,-1,10,0,-2,-1,-1,0,13.84
2769,-8,-1,-4,-2,1,0,2,-8,13.845
2770,2,-2,-1,3,-3,-3,-1,5,13.85
2771,-2,1,0,0,-1,-1,-4,-3,13.855
2772,-3,0,-4,-1,1,-3,-1,-4,13.86
2773,2,4,-2,0,0,-3,-1,-3,13.865
2774,-1,-8,-2,4,2,0,0,-1,13.870000000000001
2775,0,-5,-3,1,-1,-1,3,-15,13.875
2776,-2,-3,7,-4,-2,-1,0,34,13.88
2777,15,4,-15,-3,-2,-1,3,-6,13.885
2778,-21,0,0,2,-1,1,-2,-8,13.89
2779,-7,0,15,1,0,-1,-3,0,13.895
2780,2,-2,0,-2,-3,-1,-2,-13,13.9
2781,-4,-4,-2,3,7,1,-3,7,13.905000000000001
2782,-4,-1,-6,-10,-3,0,-2,4,13.91
2783,2,5,-5,4,-1,-1,-1,-2,13.915000000000001
2784,-6,-4,-3,-2,0,-1,1,-15,13.92
2785,18,1,-1,-6,-4,-1,0,10,13.925
2786,1,-7,-12,-8,-2,-2,-2,-5,13.93
2787,-1,1,-6,0,2,1,-4,3,13.935
2788,0,2,-4,7,-1,0,-2,-6,13.94
2789,-6,4,3,-6,-2,-1,0,-4,13.945
2790,-4,0,25,6,0,-2,1,-1,13.950000000000001
2791,3,1,-2,-4,-3,-2,2,3,13.955
2792,5,0,-9,-11,-2,-1,1,-2,13.96
2793,-11,-7,-4,3,2,0,4,-4,13.965
2794,5,-1,-9,1,-2,-2,-10,0,13.97
2795,-2,-1,-1,0,-1,0,-1,7,13.975
2796,4,2,0,0,-1,-2,-3,-8,13.98
2797,8,-1,-1,3,-2,-1,-1,0,13.985
2798,-19,-1,-5,-4,-1,0,-1,-10,13.99
2799,-4,1,2,0,-4,-2,-2,-5,13.995000000000001
2800,-3,-8,3,0,4,2,0,-30,14.0
2801,-1,12,5,-1,-1,0,-2,20,14.005
2802,2,-6,-19,-1,0,-2,2,0,14.01
2803,-6,-5,15,11,2,-1,-3,8,14.015
2804,-16,1,8,2,-2,0,2,-4,14.02
2805,37,-4,-14,-3,2,-1,-3,-12,14.025
2806,6,3,6,-4,-2,0,2,-3,14.030000000000001
2807,-1,2,-8,-5,-4,0,0,3,14.035
2808,5,-5,-5,-3,-3,0,2,8,14.040000000000001
2809,-17,-4,4,4,-1,0,0,-4,14.045
2810,0,2,-3,-1,-2,-1,0,6,14.05
2811,4,-2,-5,-3,2,-2,0,-3,14.055
2812,3,5,5,3,2,-1,-3,4,14.06
2813,-10,-3,-3,-4,0,0,-3,-4,14.065
2814,10,10,3,-1,1,2,1,-5,14.07
2815,-7,-3,4,-1,0,2,-2,-3,14.075000000000001
2816,3,0,-5,4,3,2,1,6,14.08
2817,-12,-12,-6,-6,-2,-3,-3,-8,14.085
2818,-1,-1,3,4,-3,0,-1,-3,14.09
2819,9,1,10,1,-5,-4,-1,3,14.095
2820,3,6,1,4,3,-2,-1,6,14.1
2821,-5,-1,2,-7,-1,-2,-2,-2,14.105
2822,-2,0,1,-2,1,-1,2,-6,14.11
2823,1,-1,-12,-5,-3,0,6,-1,14.115
2824,5,-4,-2,-5,-2,-1,-9,-4,14.120000000000001
2825,-7,-1,-2,-1,-2,-3,0,-1,14.125
2826,0,-2,-5,-2,-3,-1,-3,1,14.13
2827,3,-1,-3,1,0,0,-3,0,14.135
2828,0,1,0,-2,-1,0,1,-1,14.14
2829,-3,-1,7,5,0,3,-1,-2,14.145
2830,-1,1,-2,3,2,-2,-1,3,14.15
2831,1,0,-2,-2,1,-2,0,0,14.155000000000001
2832,-1,3,-3,-3,-2,-2,-1,0,14.16
2833,-5,-3,3,-7,-5,-2,-3,-2,14.165000000000001
2834,3,-1,4,1,-1,-1,1,0,14.17
2835,0,5,-4,9,1,0,-1,-22,14.175
2836,-11,-6,-2,-9,-3,-1,-1,42,14.18
2837,-2,-6,8,9,-1,-5,1,-7,14.185
2838,-1,-4,-14,-9,2,-2,-1,-4,14.19
2839,8,0,13,-3,-4,0,0,0,14.195
2840,-2,0,-11,-2,3,2,3,-15,14.200000000000001
2841,-6,-1,-2,5,0,4,0,5,14.205
2842,3,0,2,6,-2,1,0,3,14.21
2843,-5,-1,-1,-5,-1,-1,-4,1,14.215
2844,-3,3,-1,-3,-5,-2,-2,-6,14.22
2845,13,-2,3,-3,2,0,-4,-6,14.225
2846,-8,-4,-2,1,2,3,-1,-5,14.23
2847,4,-1,-3,-4,-2,1,-1,4,14.235
2848,5,0,4,1,-2,-2,0,-10,14.24
2849,1,2,-6,-3,0,0,5,8,14.245000000000001
2850,-5,-3,8,6,-1,-4,-6,-5,14.25
2851,-2,-4,-12,-16,-1,-2,0,4,14.255
2852,-1,-2,3,2,-1,-1,-1,-2,14.26
2853,-5,1,0,3,-2,-2,-3,-2,14.265
2854,6,-6,-2,2,-1,-1,2,2,14.27
2855,-7,-2,-8,-11,-2,-3,1,6,14.275
2856,0,1,9,10,-1,0,0,-8,14.280000000000001
2857,8,8,1,-7,-2,1,-1,2,14.285
2858,-11,-1,-8,-2,-4,-1,2,2,14.290000000000001
2859,-1,1,4,-2,0,-1,0,-3,14.295
2860,-4,-4,-5,-4,1,0,1,-6,14.3
2861,0,-2,3,2,-2,-3,0,-1,14.305
2862,2,1,2,-8,-1,-1,2,3,14.31
2863,0,-7,-2,4,-1,-2,-1,-11,14.315
2864,-1,-2,-4,2,-1,1,-1,36,14.32
2865,-6,2,6,4,1,0,-4,2,14.325000000000001
2866,-1,-2,-8,-5,-3,-1,-3,-7,14.33
2867,-2,-1,0,1,-1,0,0,1,14.335
2868,-2,-5,1,-4,-2,-2,-2,0,14.34
2869,-6,-7,-13,0,0,-1,-3,-7,14.345
2870,6,4,14,5,-2,-3,-1,3,14.35
2871,2,10,-2,5,2,-1,1,0,14.355
2872,0,-6,-3,0,0,-1,0,-7,14.36
2873,-6,1,8,2,-3,1,3,2,14.365
2874,-1,-5,-1,-6,1,2,0,-8,14.370000000000001
2875,10,-5,-3,-2,0,0,-2,-1,14.375
2876,3,2,-9,-6,-5,-3,-4,-7,14.38
2877,-2,0,11,4,-1,0,-4,1,14.385
2878,-4,-2,1,6,0,-2,-1,-2,14.39
2879,-10,-2,-1,-3,0,-2,-2,3,14.395
2880,10,1,4,-5,1,-1,-1,-5,14.4
2881,-6,-2,-12,-1,0,-2,0,-2,14.405000000000001
2882,-1,1,-3,-5,0,1,2,4,14.41
2883,-3,-4,0,7,4,0,1,2,14.415000000000001
2884,0,0,5,2,-1,1,1,-7,14.42
2885,-6,-2,-3,-4,-1,2,0,-1,14.425
2886,3,0,-4,-2,-3,-2,0,0,14.43
2887,-5,-3,-3,-4,-5,-1,1,-3,14.435
2888,9,4,-8,0,2,-1,1,-5,14.44
2889,-19,-11,-7,-1,3,0,1,-8,14.445
2890,-1,1,8,9,0,-3,-2,3,14.450000000000001
2891,-2,-2,-1,-10,-3,-1,-3,-1,14.455
2892,-1,0,5,1,-2,-1,-1,-2,14.46
2893,7,0,-1,-7,-3,-2,0,1,14.465
2894,-1,-3,-9,-4,0,-1,0,-2,14.47
2895,-12,0,2,4,1,-2,-1,-5,14.475
2896,8,4,3,4,0,-2,-4,4,14.48
2897,8,2,-11,-6,1,0,-4,-4,14.485
2898,-12,-6,6,0,-4,1,2,-3,14.49
2899,7,-2,-9,-2,0,3,0,-6,14.495000000000001
2900,-9,3,17,5,-1,-1,4,-5,14.5
2901,2,0,-3,0,-1,-2,0,-2,14.505
2902,5,0,-1,-3,2,-2,-2,-6,14.51
2903,-1,-3,-2,0,0,-2,-3,5,14.515
2904,-3,-6,-7,-4,-2,-2,-2,-2,14.52
2905,0,0,0,0,0,-1,-1,3,14.525
2906,3,3,-3,1,-1,1,-3,2,14.530000000000001
2907,0,0,3,1,-5,2,2,4,14.535
2908,-6,1,-7,1,3,0,2,-1,14.540000000000001
2909,1,3,6,8,-1,2,3,2,14.545
2910,5,0,-9,-10,1,1,-1,7,14.55
2911,-2,-1,11,10,-1,0,-1,3,14.555
2912,0,-5,-8,-9,-4,0,-1,-7,14.56
2913,-7,-3,0,-5,-2,0,0,-3,14.565
2914,3,0,0,-2,0,-2,-4,0,14.57
2915,1,-1,-4,-3,2,-1,-2,-2,14.575000000000001
2916,-3,0,-1,1,-2,0,2,5,14.58
2917,5,0,1,2,-3,0,-1,-3,14.585
2918,-4,2,-4,-1,-5,-1,-1,-1,14.59
2919,6,3,0,2,-1,-2,-2,-2,14.595
2920,-10,-4,-4,0,1,0,-1,-1,14.6
2921,-2,1,-2,0,2,-2,1,1,14.605
2922,0,3,-1,1,-1,-2,2,-20,14.61
2923,-15,-7,-6,0,-1,-2,-1,23,14.615
2924,28,5,8,-1,-1,-1,-2,-4,14.620000000000001
2925,-3,-15,-8,-4,1,-3,1,8,14.625
2926,-11,-1,4,-2,-2,0,0,-4,14.63
2927,9,-1,-5,-2,2,-1,-3,-7,14.635
2928,-10,1,-5,-2,-4,0,-1,0,14.64
2929,-1,4,0,2,-1,2,-3,0,14.645
2930,6,-3,-4,1,0,2,2,3,14.65
2931,-7,0,2,0,-3,0,0,-4,14.655000000000001
2932,-6,-2,-6,-2,0,-2,0,0,14.66
2933,3,3,-1,-2,0,-2,-1,-4,14.665000000000001
2934,-2,-3,-5,-5,2,0,-1,6,14.67
2935,11,6,16,-3,-2,-1,-1,-1,14.675
2936,-8,-3,-2,5,0,-1,-1,-6,14.68
2937,-3,3,1,-6,0,-1,0,-3,14.685
2938,2,0,-2,0,-3,-2,-1,0,14.69
2939,-1,0,-5,1,0,0,0,1,14.695
2940,0,-4,-1,-2,-1,0,0,-3,14.700000000000001
2941,-5,-1,-2,2,-1,-2,-2,3,14.705
2942,-1,-3,3,0,-4,0,-1,1,14.71
2943,1,2,0,0,-2,-1,0,-5,14.715
2944,-3,-2,-5,-5,-6,-2,-2,-1,14.72
2945,-1,-1,1,4,4,1,-1,-2,14.725
2946,-1,-2,4,0,0,0,-1,0,14.73
2947,6,-2,-2,3,0,1,-1,-1,14.735
2948,-14,-3,-3,-3,-1,0,-2,-4,14.74
2949,4,0,-1,-4,-3,-3,-2,0,14.745000000000001
2950,1,1,1,0,1,-5,-2,0,14.75
2951,-4,2,-4,-3,-1,0,0,-4,14.755
2952,2,-5,-5,-6,1,1,3,-5,14.76
2953,-4,-12,4,1,-1,0,-1,20,14.765
2954,4,4,-7,2,3,0,-2,0,14.77
2955,-4,-6,0,1,-3,1,-1,-5,14.775
2956,2,1,14,1,1,0,-1,3,14.780000000000001
2957,-1,-1,-18,-5,-1,-3,0,-1,14.785
2958,0,2,11,4,-1,-1,0,-17,14.790000000000001
2959,4,1,1,7,0,-3,1,6,14.795
2960,1,3,-3,-7,-1,-1,2,-4,14.8
2961,-5,-11,-7,1,-3,-2,-2,-6,14.805
2962,1,-2,-12,8,-4,-1,0,8,14.81
2963,-6,0,2,-1,2,0,-1,-11,14.815
2964,-19,-3,-4,1,0,0,-5,-2,14.82
2965,7,7,4,-10,0,0,1,-3,14.825000000000001
2966,-2,-5,1,-11,-1,-1,0,6,14.83
2967,-7,-1,1,2,-2,-1,1,1,14.835
2968,5,3,-5,-12,-2,-3,-3,3,14.84
2969,-2,-4,1,-2,-3,-4,-2,-4,14.845
2970,-4,-3,-4,-6,-1,0,0,-2,14.85
2971,-7,-1,-3,-3,1,2,0,3,14.855
2972,2,2,6,2,1,1,-2,2,14.86
2973,7,6,2,1,0,1,-2,-6,14.865
2974,1,-4,-3,1,0,1,0,6,14.870000000000001
2975,2,3,-1,-3,0,0,-1,-5,14.875
2976,8,-6,-5,6,-1,0,-3,4,14.88
2977,-4,3,-4,-2,0,-1,0,-3,14.885
2978,-6,-5,8,2,2,-1,-1,-1,14.89
2979,0,-4,-9,-6,-2,-5,-2,1,14.895
2980,7,-2,0,2,0,-1,4,-1,14.9
2981,-3,1,7,4,-3,-1,1,-3,14.905000000000001
2982,-2,3,-4,1,2,0,1,2,14.91
2983,2,-3,3,-5,-3,-1,2,-6,14.915000000000001
2984,-2,-5,1,3,0,-2,4,-1,14.92
2985,7,-4,4,5,-5,-1,-1,-9,14.925
2986,1,-1,0,-1,0,1,0,-2,14.93
2987,1,-2,1,-1,1,1,-2,6,14.935
2988,-19,1,-7,-3,-1,0,0,-3,14.94
2989,29,6,0,-3,1,0,-3,-4,14.945
2990,0,-6,4,-1,-6,-4,-6,3,14.950000000000001
2991,2,4,-2,-1,1,1,-2,-9,14.955
2992,1,-1,-1,1,-1,1,0,2,14.96
2993,-12,3,-1,-2,2,2,0,-2,14.965
2994,-4,3,13,7,0,-2,0,-1,14.97
2995,7,2,-10,-5,0,-3,-2,8,14.975
2996,-5,0,9,-2,-1,1,-3,-1,14.98
2997,-8,-5,-11,4,-2,-1,1,4,14.985
2998,1,-3,2,-5,-3,-2,-2,-8,14.99
2999,-4,-4,0,-1,-4,-1,2,0,14.995000000000001
3000,4,0,-3,-1,0,-1,0,-2,15.0
3001,0,-3,0,-1,-1,0,-2,-2,15.005
3002,3,1,-5,1,0,-1,-3,-1,15.01
3003,-4,-5,0,4,1,0,-4,-1,15.015
3004,6,1,-4,-5,-3,-1,-3,-4,15.02
3005,-4,4,6,4,-2,-1,-1,9,15.025
3006,-11,-1,-7,-5,-1,1,0,1,15.030000000000001
3007,9,3,0,0,-2,-2,-4,-1,15.035
3008,6,1,-3,0,-4,-3,0,0,15.040000000000001
3009,-6,-4,-2,-1,2,-3,-1,0,15.045
3010,-3,0,-1,-1,2,-2,3,2,15.05
3011,1,8,4,-1,2,1,2,-2,15.055
3012,-2,-6,-4,5,2,-1,0,1,15.06
3013,-8,-6,-8,-10,-8,-1,2,-4,15.065
3014,7,5,1,-3,-4,-4,-3,-13,15.07
3015,-15,-8,7,2,3,0,-3,6,15.075000000000001
3016,22,7,6,3,-1,-1,-3,-8,15.08
3017,-1,-4,-5,-4,1,2,0,5,15.085
3018,14,-3,-11,-2,-2,-1,0,-5,15.09
3019,-28,-2,3,-1,-2,0,1,0,15.095
3020,-6,3,0,3,-1,-2,0,6,15.1
3021,0,-2,2,1,0,-1,-2,-10,15.105
3022,-2,1,0,-4,0,-2,0,1,15.11
3023,8,0,-6,1,-4,-2,-2,3,15.115
3024,-3,-3,0,-3,0,1,-1,0,15.120000000000001
3025,-2,0,6,-1,2,-2,0,-1,15.125
3026,-6,2,-1,2,-1,2,1,6,15.13
3027,9,-1,6,2,-2,-1,-2,2,15.135
3028,-7,-1,-12,-6,-5,0,-2,-2,15.14
3029,4,4,-1,-4,3,-1,2,2,15.145
3030,-3,-4,-6,4,-1,2,0,1,15.15
3031,0,-6,4,-1,-1,-1,0,-6,15.155000000000001
3032,-4,-8,0,6,0,0,-1,-2,15.16
3033,2,-3,1,-5,-4,1,-2,-4,15.165000000000001
3034,2,-4,-3,2,0,-1,-1,16,15.17
3035,3,6,11,-1,-1,-1,-1,10,15.175
3036,-13,-4,-4,0,-2,-1,-1,-13,15.18
3037,1,-3,-1,-1,0,1,-3,-17,15.185
3038,-5,1,-9,-7,0,1,-1,-7,15.19
3039,1,-3,-6,-4,-2,-1,0,-3,15.195
3040,2,5,6,-1,0,-1,-1,9,15.200000000000001
3041,-6,1,-7,0,-1,-2,2,-3,15.205
3042,0,-2,-7,0,0,0,0,-2,15.21
3043,-2,-6,-1,1,-1,-2,-1,-2,15.215
3044,0,1,7,2,1,0,-1,-5,15.22
3045,-1,-2,-5,0,0,-1,-3,4,15.225
3046,1,3,6,-3,-1,2,-2,-1,15.23
3047,2,-1,-6,2,-5,0,-3,-1,15.235
3048,3,-2,-14,-7,2,-2,1,3,15.24
3049,0,2,7,3,-2,-3,1,2,15.245000000000001
3050,-3,-1,-3,-3,1,-2,1,7,15.25
3051,2,-3,-4,3,-2,-1,-1,-14,15.255
3052,-18,-7,2,0,-4,1,-3,4,15.26
3053,-10,7,-3,3,-3,1,1,8,15.265
3054,17,1,3,-3,-2,-1,0,-14,15.27
3055,-5,-4,1,-4,0,0,1,-3,15.275
3056,0,-2,-5,1,1,0,-1,-4,15.280000000000001
3057,-1,2,-4,-7,-2,-1,-3,6,15.285
3058,-5,1,-3,4,-2,0,1,0,15.290000000000001
3059,4,2,6,0,1,0,-1,0,15.295
3060,4,-1,0,-1,-2,0,-1,-10,15.3
3061,-10,-6,8,5,-1,0,-4,28,15.305
3062,0,4,3,-4,-2,-1,-1,-5,15.31
3063,3,-12,-16,-6,3,1,2,-4,15.315
3064,-9,1,5,3,0,0,2,4,15.32
3065,3,4,7,-6,-4,0,1,-8,15.325000000000001
3066,2,-8,-7,-3,1,-1,0,-1,15.33
3067,-2,1,4,-1,0,-1,0,4,15.335
3068,4,-4,-2,1,-2,-2,-1,2,15.34
3069,7,-2,-11,-5,-4,-3,-2,-10,15.345
3070,-9,0,15,-1,-3,1,-1,-3,15.35
3071,14,3,-14,-2,-1,-2,-1,-2,15.355
3072,3,-2,-4,0,1,-1,0,-1,15.36
3073,1,-3,-2,4,0,-1,-1,-3,15.365
3074,-6,3,3,-4,-2,-2,-1,6,15.370000000000001
3075,-6,1,-1,6,3,1,-2,-5,15.375
3076,5,6,-2,-6,-3,-3,-2,1,15.38
3077,5,-6,-1,-3,0,1,1,1,15.385
3078,-1,15,20,7,2,-1,0,-7,15.39
3079,-4,-10,-42,-2,-1,-2,-3,-1,15.395
3080,-2,8,15,5,-2,-2,0,-5,15.4
3081,-17,-14,-12,-9,-2,-1,-1,22,15.405000000000001
3082,23,-11,-11,-3,0,0,-2,2,15.41
3083,-3,4,12,7,-3,0,-1,-6,15.415000000000001
3084,5,-7,-8,-11,-4,0,1,16,15.42
3085,-12,6,5,6,3,-1,1,-12,15.425
3086,-4,-2,-4,1,-1,1,2,1,15.43
3087,-3,6,9,-4,-3,-2,-1,7,15.435
3088,1,-9,-6,1,1,0,-3,-10,15.44
3089,11,12,20,2,0,0,-1,-6,15.445
3090,-9,-7,-7,-8,-1,2,0,5,15.450000000000001
3091,0,1,-1,4,2,1,2,-5,15.455
3092,-2,2,3,-5,-2,-1,2,1,15.46
3093,7,-6,-9,3,-4,-4,-1,-4,15.465
3094,-15,-5,-2,-1,-3,-2,-2,0,15.47
3095,-5,6,0,-5,-3,-2,-2,1,15.475
3096,5,-5,4,6,2,-1,-1,-1,15.48
3097,-1,-2,7,0,1,0,0,-1,15.485000000000001
3098,-8,0,-3,-2,2,1,-1,-1,15.49
3099,23,0,6,-5,-3,0,-1,3,15.495000000000001
3100,-8,-3,-11,4,-2,0,-2,-2,15.5
3101,3,1,-5,-2,1,-1,-2,-6,15.505
3102,-5,-2,16,0,-4,-2,0,-7,15.51
3103,-5,-2,-3,2,0,-1,1,2,15.515
3104,-1,1,-4,-6,-2,-2,2,3,15.52
3105,1,-9,-5,-4,-3,1,3,-17,15.525
3106,-2,-5,-4,9,4,-1,-1,22,15.530000000000001
3107,-4,-3,9,-2,-1,-3,-1,-2,15.535
3108,2,-4,-11,-2,-1,0,-1,-7,15.540000000000001
3109,0,4,6,4,0,1,-3,6,15.545
3110,7,-4,-9,-1,-2,-1,-3,-4,15.55
3111,-13,-1,8,-6,2,0,-1,0,15.555
3112,-4,4,4,1,-2,-1,-1,5,15.56
3113,4,5,-2,-2,0,-2,1,-6,15.565
3114,-7,-5,-8,0,-2,-2,-1,-2,15.57
3115,12,-9,-5,-1,-3,-1,-1,-2,15.575000000000001
3116,-6,1,4,0,1,-2,0,-6,15.58
3117,16,3,11,2,0,0,0,1,15.585
3118,-2,-3,-7,-4,-1,1,0,-4,15.59
3119,-7,7,-11,-6,0,0,1,2,15.595
3120,-5,-7,-2,-4,-1,1,-2,-6,15.6
3121,-1,1,4,2,-1,-4,0,-1,15.605
3122,0,-1,0,2,-1,-5,-1,-4,15.610000000000001
3123,-8,-1,7,-2,0,0,-5,-3,15.615
3124,0,2,-5,-3,2,1,0,4,15.620000000000001
3125,-8,-3,-11,-1,-1,1,-2,2,15.625
3126,5,3,-6,-3,-1,1,1,-5,15.63
3127,7,4,3,-4,-3,0,2,1,15.635
3128,-2,3,4,1,-1,0,-1,1,15.64
3129,0,-5,4,-2,-2,-1,-1,-14,15.645
3130,-4,0,-10,-3,2,-2,-2,40,15.65
3131,-2,4,12,2,-1,-3,-2,-4,15.655000000000001
3132,6,2,-2,-3,1,1,-1,0,15.66
3133,-6,-7,-3,2,-1,-2,0,1,15.665000000000001
3134,3,-2,1,-3,-2,-1,-1,-13,15.67
3135,-11,0,-3,1,0,0,0,-10,15.675
3136,17,-8,-12,-7,-3,-1,-1,16,15.68
3137,-6,0,-8,-2,-2,0,-1,-4,15.685
3138,-3,4,1,-4,0,-1,2,-9,15.69
3139,-3,-5,-3,-1,-3,0,-2,3,15.695
3140,-10,0,7,2,-3,0,-3,-13,15.700000000000001
3141,-5,-1,-6,3,-1,0,-1,7,15.705
3142,2,-2,0,4,-1,0,-2,-15,15.71
3143,2,-6,-5,-3,-1,0,1,1,15.715
3144,4,3,3,2,0,0,-1,0,15.72
3145,-3,-5,0,2,2,-2,-4,0,15.725
3146,3,11,4,-2,-2,-2,-2,-10,15.73
3147,2,-6,-6,1,1,1,-1,2,15.735000000000001
3148,-3,-2,1,-2,-1,-2,-1,-6,15.74
3149,-2,-7,0,-2,-2,-1,1,0,15.745000000000001
3150,-1,2,-3,-2,-3,-2,2,1,15.75
3151,13,-7,0,3,5,-3,0,-2,15.755
3152,-3,0,-3,-3,-2,-3,-1,0,15.76
3153,1,3,-3,-2,3,3,-2,3,15.765
3154,-5,-17,-8,5,-4,1,0,-2,15.77
3155,-8,14,-3,-3,-4,-1,-2,2,15.775
3156,-9,8,3,-6,-4,-4,0,-2,15.780000000000001
3157,20,-3,-5,-7,-6,-3,-2,-5,15.785
3158,-12,1,8,18,13,3,-2,-4,15.790000000000001
3159,5,2,1,1,-2,-1,-3,-1,15.795
3160,-3,0,-6,12,-3,-3,-2,1,15.8
3161,-6,-3,-4,-7,6,1,1,3,15.805
3162,1,0,-6,-8,-7,-3,1,1,15.81
3163,-7,-1,-1,5,-2,-1,2,-2,15.815
3164,9,3,2,-4,-1,1,1,2,15.82
3165,-10,2,3,7,-5,-1,-1,1,15.825000000000001
3166,-3,2,0,-15,1,1,-2,-3,15.83
3167,24,-3,-6,-3,0,-2,-3,2,15.835
3168,-21,3,-3,-2,-3,0,-2,-1,15.84
3169,-32,-26,-1,1,-2,-1,1,-1,15.845
3170,3,-5,-1,-1,-4,-2,-2,-2,15.85
3171,-42,9,1,-2,-5,-2,-3,-6,15.855
3172,9,-2,-3,7,4,0,-1,1,15.860000000000001
3173,27,24,1,3,3,1,-2,2,15.865
3174,-13,11,5,2,-2,0,-2,3,15.870000000000001
3175,-12,-31,-2,-5,-2,1,0,0,15.875
3176,18,0,0,-2,0,-1,3,-1,15.88
3177,1,31,3,-1,0,-2,-1,-2,15.885
3178,-33,-49,4,-1,-2,-2,0,0,15.89
3179,25,-5,-2,0,-1,-1,0,-1,15.895
3180,-10,-2,-3,-8,1,-1,-3,-5,15.9
3181,10,11,1,-2,-2,-1,-1,1,15.905000000000001
3182,12,34,1,-1,3,2,2,5,15.91
3183,-4,4,1,2,2,4,2,2,15.915000000000001
3184,1,-1,12,3,0,2,1,7,15.92
3185,15,-24,-9,-4,-4,-2,-2,-3,15.925
3186,-35,-44,-3,2,-2,-5,-8,-12,15.93
3187,-41,-6,0,-1,0,-5,-6,-14,15.935
3188,41,1,-6,-14,-3,0,-1,5,15.94
3189,-11,2,-1,11,-1,-2,-1,8,15.945
3190,41,30,-2,-4,-3,1,-1,8,15.950000000000001
3191,43,31,8,6,4,3,6,5,15.955
3192,-80,-44,8,12,5,1,1,-15,15.96
3193,-64,-41,-11,-15,-5,-3,-2,-10,15.965
3194,25,32,-1,-17,-3,1,0,-1,15.97
3195,54,69,-5,-8,0,4,1,10,15.975
3196,24,-50,-5,8,-10,-5,-2,4,15.98
3197,-62,-24,-2,3,6,0,0,-5,15.985000000000001
3198,-14,-16,-34,-7,-3,-3,-3,-5,15.99
3199,83,-6,-4,11,3,2,6,24,15.995000000000001
3200,4,80,27,-10,-1,2,2,1,16.0
3201,27,-26,10,5,-2,-2,-4,-2,16.005
3202,-19,-39,21,13,6,3,2,-4,16.01
3203,-33,-56,-40,-26,-5,-7,-8,-26,16.015
3204,51,48,-47,5,0,-3,-1,13,16.02
3205,46,29,-18,-13,0,-1,2,-1,16.025
3206,-26,18,27,6,-3,-2,-7,-10,16.03
3207,-34,-62,-21,-1,5,7,6,11,16.035
3208,-10,53,39,13,-11,-6,-9,-12,16.04
3209,76,37,-4,-11,12,6,6,18,16.045
3210,9,69,10,14,-4,3,3,7,16.05
3211,-58,-74,29,-27,-11,-5,-5,-14,16.055
3212,-20,-107,-17,-49,-7,1,4,-3,16.06
3213,2,61,26,115,10,-1,0,1,16.065
3214,-9,-44,-21,-61,5,-1,-6,-20,16.07
3215,42,34,-3,25,-6,-4,-6,-3,16.075
3216,-65,25,-14,-7,3,1,0,17,16.080000000000002
3217,-27,-10,8,-82,-23,-2,4,28,16.085
3218,46,-15,47,110,32,6,6,5,16.09
3219,-68,-19,-70,52,7,-6,-1,-18,16.095
3220,85,8,-21,-9,0,-2,-10,-21,16.1
3221,-5,43,2,-59,0,9,7,-13,16.105
3222,-10,40,-25,-40,-14,-4,9,21,16.11
3223,13,-73,52,-2,0,3,6,16,16.115000000000002
3224,-32,1,19,-21,-2,-6,-13,-25,16.12
3225,-25,47,-35,10,-18,-7,-6,1,16.125
3226,24,-97,12,59,-10,-4,-10,-21,16.13
3227,-8,44,2,32,16,2,15,34,16.135
3228,41,-93,-33,-14,-2,6,19,11,16.14
3229,-128,77,3,51,-8,-13,-30,-56,16.145
3230,11,14,18,-44,-15,1,-2,5,16.15
3231,2,25,79,-12,-11,-6,-9,-7,16.155
3232,-12,-24,-71,47,-1,1,18,19,16.16
3233,54,-18,31,-47,6,5,20,29,16.165
3234,-49,36,-1,-49,-5,-6,-7,-32,16.17
3235,47,108,45,4,-25,-3,0,-2,16.175
3236,-70,37,48,49,24,-2,-9,3,16.18
3237,75,-21,28,41,-4,-4,-19,28,16.185
3238,14,-91,-88,-25,24,-1,-15,-67,16.19
3239,-24,22,21,-38,-10,8,6,45,16.195
3240,116,41,6,-44,-29,-2,2,-27,16.2
3241,-105,-121,-42,88,31,7,6,8,16.205000000000002
3242,47,33,26,-76,-31,-7,-5,35,16.21
3243,59,-76,-94,96,33,11,27,13,16.215
3244,10,-60,23,46,5,-2,24,-35,16.22
3245,76,13,12,-30,-26,-7,-36,-23,16.225
3246,34,59,-17,-120,-24,2,14,57,16.23
3247,-49,121,17,82,35,-3,-23,-38,16.235
3248,-18,-25,-52,-4,1,3,-8,21,16.240000000000002
3249,-2,-41,28,-88,-25,4,36,-10,16.245
3250,-37,70,-4,127,15,-16,-27,-13,16.25
3251,46,-63,-62,-73,0,0,10,-12,16.255
3252,-47,-40,76,-31,-4,-9,-30,11,16.26
3253,66,-22,-35,22,29,12,17,-5,16.265
3254,5,-7,35,8,0,0,-3,7,16.27
3255,-57,70,59,-85,-26,-5,-14,12,16.275
3256,-15,98,-80,17,33,1,1,-18,16.28
3257,53,-94,22,-28,-12,-5,-10,-1,16.285
3258,15,30,-31,-2,-15,-5,2,8,16.29
3259,-15,-77,48,29,-1,-9,7,-19,16.295
3260,21,65,-16,-45,-5,9,-2,13,16.3
3261,67,59,5,-100,-58,-6,1,21,16.305
3262,-83,-53,-13,127,101,17,-8,1,16.31
3263,-40,-77,18,-45,-23,-3,-13,3,16.315
3264,5,7,-46,-93,-24,-4,6,-6,16.32
3265,-6,-26,18,107,60,4,8,3,16.325
3266,56,49,56,-62,-29,-5,0,5,16.330000000000002
3267,-82,-33,17,-52,-16,-7,-13,-57,16.335
3268,22,-39,63,96,24,12,10,25,16.34
3269,-70,42,-112,-33,-12,-13,-12,-34,16.345
3270,37,9,27,4,-12,6,22,20,16.35
3271,-37,-30,-27,7,10,-1,-21,7,16.355
3272,21,27,51,-34,-19,-8,-1,-14,16.36
3273,-1,25,-8,9,6,-5,-2,-1,16.365000000000002
3274,13,-14,-44,12,-4,6,26,26,16.37
3275,25,4,1,-5,-8,-3,0,-7,16.375
3276,-13,-92,-12,-25,-19,-7,-8,-6,16.38
3277,-23,-17,81,18,9,10,0,12,16.385
3278,51,-20,-81,72,14,-4,0,-11,16.39
3279,-38,79,-97,-86,-35,-7,1,-3,16.395
3280,-4,15,109,19,25,5,-3,0,16.4
3281,-4,29,4,30,12,0,2,-10,16.405
3282,-9,41,61,-83,-33,2,-2,-10,16.41
3283,23,-23,111,-3,10,7,0,7,16.415
3284,1,4,-87,62,14,0,0,-14,16.42
3285,-64,7,6,-40,-29,-13,4,5,16.425
3286,-15,7,4,9,4,0,-3,2,16.43
3287,33,-30,30,9,4,5,3,9,16.435
3288,-28,46,-25,-19,-7,-3,4,-5,16.44
3289,46,-36,14,-15,3,-4,-15,17,16.445
3290,-45,15,-14,-26,11,-1,-3,-41,16.45
3291,6,65,10,19,14,2,5,9,16.455000000000002
3292,5,-24,39,-53,-22,-7,-4,-8,16.46
3293,-2,79,33,77,13,1,0,9,16.465
3294,-20,-67,-23,-91,-13,-13,-13,-11,16.47
3295,-11,-31,-99,71,7,4,2,6,16.475
3296,56,-8,16,-8,1,-2,-8,-2,16.48
3297,-46,-55,-33,4,0,8,15,-1,16.485
3298,-3,49,118,8,-6,-3,-22,-9,16.490000000000002
3299,6,-5,-61,-20,-4,-5,-3,12,16.495
3300,32,12,-12,14,-1,-2,-3,-7,16.5
3301,-41,18,11,-57,-12,-2,-1,-17,16.505
3302,2,15,34,87,22,12,9,7,16.51
3303,-35,-7,57,-49,-10,-1,5,-3,16.515
3304,43,36,-5,2,-6,-3,0,26,16.52
3305,-41,4,-42,-1,15,-2,-5,-32,16.525
3306,16,-42,44,-30,-19,-2,7,11,16.53
3307,-36,33,38,33,1,-6,-3,-13,16.535
3308,-6,-37,-59,-23,-7,4,6,7,16.54
3309,4,-7,-6,116,4,-4,-23,-8,16.545
3310,-14,-24,-19,-18,0,1,-6,12,16.55
3311,29,3,63,-19,-25,3,7,-6,16.555
3312,-13,-2,-44,52,54,2,5,34,16.56
3313,-5,25,39,-84,-19,-6,-4,-8,16.565
3314,-6,-39,-38,8,-11,-4,8,-18,16.57
3315,-9,33,2,-9,5,2,9,12,16.575
3316,-40,-31,7,-17,-14,5,-10,-2,16.580000000000002
3317,43,-4,-19,-6,12,0,-19,-14,16.585
3318,15,18,22,56,8,3,8,21,16.59
3319,24,-33,20,69,8,-3,-6,-28,16.595
3320,-26,34,99,-54,-18,-8,4,0,16.6
3321,19,-36,-70,-3,-1,3,11,14,16.605
3322,-14,41,-39,-38,-17,-7,-2,3,16.61
3323,27,23,-19,-14,7,-1,1,-6,16.615000000000002
3324,-20,5,-41,18,-6,2,-1,8,16.62
3325,26,-33,93,-26,-8,2,7,20,16.625
3326,15,-48,-12,-31,-13,4,9,1,16.63
3327,23,16,-35,-10,21,0,-10,-5,16.635
3328,-19,8,17,92,5,-4,-1,-9,16.64
3329,26,10,25,-19,-2,3,8,2,16.645
3330,-4,-16,-61,16,-9,-6,0,-7,16.65
3331,-24,-16,19,-50,-9,-1,-5,-2,16.655
3332,-7,-17,-18,-26,-13,2,-2,4,16.66
3333,52,42,-50,-1,-4,-5,1,2,16.665
3334,-53,8,3,13,8,-2,2,-2,16.67
3335,19,-15,7,-3,0,-6,-3,36,16.675
3336,12,-9,-67,-56,-10,0,4,-31,16.68
3337,15,-20,10,40,21,2,5,-4,16.685
3338,-73,-12,-11,-19,-6,-6,-11,-13,16.69
3339,13,9,14,12,3,1,-10,-6,16.695
3340,-20,-33,16,11,2,-1,1,-3,16.7
3341,-8,-29,-9,-21,-8,-3,-1,7,16.705000000000002
3342,5,30,-1,9,9,1,3,-10,16.71
3343,39,104,-2,22,2,-1,0,-4,16.715
3344,-16,68,8,-8,5,2,-2,0,16.72
3345,-29,43,47,-18,-4,2,5,-8,16.725
3346,18,12,4,-4,-3,1,-2,3,16.73
3347,-10,-30,-39,-9,-9,-3,1,1,16.735
3348,-11,5,27,14,3,1,-5,-14,16.740000000000002
3349,-7,-21,-27,-19,-8,2,6,7,16.745
3350,11,5,13,27,6,-2,-12,-3,16.75
3351,10,-11,-23,10,3,1,2,2,16.755
3352,-3,66,42,5,4,-5,-4,-8,16.76
3353,-22,24,7,1,1,0,1,2,16.765
3354,10,-1,-4,-18,-8,-3,2,5,16.77
3355,-1,-13,-12,6,-1,0,-2,-9,16.775
3356,28,40,-9,0,-4,-6,-11,-6,16.78
3357,-34,119,25,-12,-6,-1,14,25,16.785
3358,13,82,-23,-4,5,3,11,-16,16.79
3359,43,-15,-59,-26,-5,0,-13,0,16.795
3360,1,-82,15,0,-2,5,2,10,16.8
3361,31,-84,-1,0,1,-15,13,-8,16.805
3362,-74,-59,-39,-4,2,22,-1,0,16.81
3363,11,-80,36,3,4,-11,0,15,16.815
3364,-48,-124,-14,-14,-6,10,7,-24,16.82
3365,18,-103,-5,10,1,-7,-10,-17,16.825
3366,20,-61,21,-3,-7,-22,-11,51,16.830000000000002
3367,-41,-32,-11,5,6,8,9,-53,16.835
3368,3,-62,-2,0,-3,22,13,61,16.84
3369,31,-26,88,6,2,-6,6,11,16.845
3370,30,-128,-14,9,2,11,13,-8,16.85
3371,49,-85,-57,-15,-5,-7,-24,13,16.855
3372,-38,-34,33,-5,-2,-17,-1,-16,16.86
3373,-28,-5,8,-9,0,8,-6,-17,16.865000000000002
3374,34,41,15,10,-2,-4,-6,15,16.87
3375,-23,0,-31,-41,-5,0,7,16,16.875
3376,-1,16,14,14,-2,-2,-4,-20,16.88
3377,15,-6,0,28,0,2,-1,78,16.885
3378,-32,0,-57,-27,-4,-6,-3,-82,16.89
3379,44,70,93,1,1,6,-2,31,16.895
3380,10,58,-94,-15,-2,-5,-3,2,16.9
3381,51,-36,-38,-3,-3,-3,-8,-39,16.905
3382,61,-32,57,17,-1,-4,-2,48,16.91
3383,-89,-35,-39,10,4,6,8,-55,16.915
3384,-22,-22,9,13,3,-39,-10,16,16.92
3385,6,-44,6,-19,-7,-5,6,5,16.925
3386,-46,-38,-52,-2,4,55,10,2,16.93
3387,-41,17,6,-20,-5,-10,-25,-50,16.935
3388,11,47,25,11,-2,7,20,-9,16.94
3389,-36,26,-15,12,1,2,3,-24,16.945
3390,58,7,24,-10,1,-9,1,-8,16.95
3391,19,40,105,39,0,-4,-17,12,16.955000000000002
3392,-34,8,-39,0,3,-14,-25,30,16.96
3393,10,1,-2,-16,-7,-7,-6,-6,16.965
3394,-26,5,78,-9,-7,0,-7,-3,16.97
3395,11,-1,-79,22,4,1,10,2,16.975
3396,26,-10,-47,-16,-5,-1,-2,-32,16.98
3397,-23,3,-43,-19,-2,2,-13,-13,16.985
3398,-9,29,-1,8,4,-7,-1,7,16.990000000000002
3399,6,6,23,-22,-6,-3,11,23,16.995
3400,16,-12,-8,21,1,5,-5,-10,17.0
3401,-10,16,41,4,5,12,3,6,17.005
3402,16,3,-24,10,2,-12,0,-2,17.01
3403,-28,12,-2,0,-2,-2,4,-4,17.015
3404,32,11,36,-4,-2,9,1,11,17.02
3405,-30,15,-13,4,3,2,-5,-8,17.025
3406,60,0,9,-7,-2,-10,1,-10,17.03
3407,-18,-3,11,-25,-4,1,5,12,17.035
3408,23,-4,30,11,-1,5,1,-1,17.04
3409,-17,-1,16,-3,-2,0,-1,-5,17.045
3410,-4,11,13,3,-4,-10,-1,-6,17.05
3411,17,19,-7,8,-1,2,6,12,17.055
3412,-9,-29,23,-8,3,2,2,-5,17.06
3413,15,-3,-28,-2,1,-2,-3,-3,17.065
3414,-21,0,-22,-2,-3,-3,-2,5,17.07
3415,11,4,16,27,3,0,2,-1,17.075
3416,-2,9,13,-28,-4,1,0,1,17.080000000000002
3417,0,-7,-35,-4,1,0,-7,-5,17.085
3418,-15,2,12,14,4,-1,1,8,17.09
3419,6,-1,-6,-17,-6,-6,-3,-2,17.095
3420,-15,3,32,-12,0,1,2,-10,17.1
3421,16,-6,-24,-7,-3,1,-3,3,17.105
3422,1,-25,-18,-13,-3,-4,-3,-5,17.11
3423,27,4,26,20,3,2,4,-23,17.115000000000002
3424,-5,-2,4,7,-2,-1,-3,14,17.12
3425,-23,14,15,-11,-3,-1,0,-2,17.125
3426,-1,9,-3,-1,-3,-4,-4,2,17.13
3427,12,1,-23,-2,-2,-3,-2,-1,17.135
3428,0,3,7,6,0,-1,1,-7,17.14
3429,-10,4,-7,-10,-1,-1,0,-5,17.145
3430,-2,7,-17,-8,-2,-3,0,2,17.150000000000002
3431,-8,-15,1,-2,-1,2,-1,9,17.155
3432,-1,4,7,-1,1,3,-1,-2,17.16
3433,7,2,-2,10,-2,-2,0,2,17.165
3434,4,12,48,11,1,1,6,13,17.17
3435,5,-2,11,-8,0,-1,-6,-7,17.175
3436,3,3,-62,6,1,3,3,6,17.18
3437,1,-7,-1,-1,-1,-1,-2,-11,17.185
3438,-5,6,-7,-18,-6,1,0,-3,17.19
3439,-4,-3,28,-2,-3,-7,0,8,17.195
3440,1,14,23,6,1,-3,1,-3,17.2
3441,14,-24,-54,-3,0,2,0,4,17.205000000000002
3442,-1,-6,-4,6,2,-1,2,-8,17.21
