slno,emg1,emg2,emg3,emg4,emg5,emg6,emg7,emg8,Time
0,1,4,1,0,-1,-1,-1,-1,0.0
1,-1,3,1,1,0,-2,0,1,0.005
2,0,2,0,0,-2,-1,-1,-1,0.01
3,1,2,-2,-1,0,-2,0,-1,0.015
4,-2,-2,-1,-2,-1,-1,-2,-1,0.02
5,2,1,-2,0,-2,1,0,-3,0.025
6,-7,-4,-2,-1,1,-3,-1,-2,0.03
7,-3,-2,-1,1,-3,-1,0,1,0.035
8,3,2,-4,0,1,0,0,-1,0.04
9,-2,-2,-1,-2,-2,-1,-1,0,0.045
10,-1,-1,-2,-2,-1,0,1,1,0.05
11,2,-4,-1,-1,-1,-2,-2,-3,0.055
12,-3,-1,-1,-1,1,-2,0,1,0.06
13,-1,-4,0,-1,-1,-1,-1,0,0.065
14,1,2,0,0,1,0,-2,-2,0.07
15,-1,-20,0,0,0,-1,-2,0,0.075
16,0,11,-6,-8,-6,-2,0,-1,0.08
17,1,-1,0,-1,0,0,-2,-1,0.085
18,-1,-2,1,0,0,0,-2,0,0.09
19,-1,6,1,-1,-1,1,0,1,0.095
20,5,-3,4,0,0,-1,-2,-1,0.1
21,0,-4,-2,-4,-2,-1,0,-2,0.105
22,2,22,-4,-2,-1,-1,-2,0,0.11
23,1,-2,-1,-1,-2,-2,0,-3,0.115
24,0,-1,-1,0,0,-2,-1,-1,0.12
25,-3,-9,-1,1,-1,-2,1,0,0.125
26,-7,-14,-1,-4,-4,0,0,-3,0.13
27,-3,-6,-6,-2,0,0,0,0,0.135
28,2,3,-5,-5,-1,-1,0,0,0.14
29,-4,-12,4,0,-1,0,-1,0,0.145
30,0,-4,-1,-1,1,-2,-3,-2,0.15
31,-1,1,-1,-1,-2,-1,-1,-3,0.155
32,-5,-9,1,-2,-2,-1,-1,-1,0.16
33,1,9,-4,-3,0,0,0,-1,0.165
34,-2,-29,-8,-3,-2,-1,-1,-2,0.17
35,-4,2,-2,-3,-3,-1,-2,0,0.17500000000000002
36,5,-12,2,0,2,-1,1,-2,0.18
37,-14,-2,-1,0,-1,-1,-1,-3,0.185
38,1,4,3,4,1,0,-1,1,0.19
39,1,1,0,1,1,0,-1,0,0.195
40,-2,4,2,1,-1,0,-2,-1,0.2
41,3,2,2,0,0,-1,-1,-2,0.20500000000000002
42,-3,-2,0,-3,-5,-3,0,-2,0.21
43,-1,2,-4,-2,0,1,1,0,0.215
44,-4,5,1,2,1,1,-1,-2,0.22
45,1,-1,0,-1,-2,-1,1,0,0.225
46,-3,7,-5,2,1,-1,0,-2,0.23
47,4,1,1,1,-3,-3,-1,-1,0.23500000000000001
48,2,9,-5,-2,0,-1,-1,-1,0.24
49,2,3,-3,-2,-2,-1,0,-2,0.245
50,0,4,3,1,-1,1,1,0,0.25
51,1,0,0,0,0,-2,-1,-1,0.255
52,-5,-2,-1,-1,-1,-1,0,-3,0.26
53,8,20,-4,-1,-2,0,-1,-1,0.265
54,-4,-5,1,1,0,0,-1,1,0.27
55,-4,-3,0,-1,-1,-1,-4,0,0.275
56,2,18,-1,-3,-1,-2,0,0,0.28
57,1,-2,-1,-1,-1,-3,-3,-1,0.28500000000000003
58,-2,-8,0,-1,1,1,-1,-1,0.29
59,-3,0,1,-2,-3,0,-1,-2,0.295
60,-3,-7,-2,-3,-3,-1,-2,0,0.3
61,-2,-2,1,0,1,-1,-2,-2,0.305
62,5,8,3,0,-1,-1,1,-1,0.31
63,-1,-1,-1,-2,0,0,0,0,0.315
64,-2,-4,1,0,-1,-2,0,-2,0.32
65,-1,-2,1,0,0,0,-1,0,0.325
66,-3,-10,0,-1,-1,-3,-2,0,0.33
67,-1,-1,5,-1,0,-2,0,-2,0.335
68,-2,-9,-1,-1,-1,-1,-2,0,0.34
69,2,-5,0,-1,-1,-1,-1,0,0.34500000000000003
70,4,-5,-1,0,2,0,-2,-1,0.35000000000000003
71,0,0,-4,1,-2,-1,0,-1,0.355
72,2,13,-1,-2,-2,0,0,-1,0.36
73,-4,0,6,-4,-2,-1,0,0,0.365
74,1,6,-5,-2,0,-1,0,-1,0.37
75,-2,1,-2,1,1,0,1,-1,0.375
76,-2,0,-1,-2,-3,1,-2,0,0.38
77,-1,-4,0,0,-1,-1,-2,-3,0.385
78,-1,1,-2,-5,-2,-1,-1,-1,0.39
79,1,1,0,-2,-1,0,-2,0,0.395
80,-5,-35,-2,0,-1,-3,0,1,0.4
81,-3,4,-3,0,-1,-2,0,0,0.405
82,5,10,2,0,-1,0,1,-2,0.41000000000000003
83,-13,-9,-5,-1,0,0,-1,-4,0.41500000000000004
84,2,1,2,2,-1,-2,-3,0,0.42
85,-2,-4,-3,-1,0,1,-2,-1,0.425
86,1,2,1,0,1,-1,0,-1,0.43
87,2,-15,1,0,1,-1,1,1,0.435
88,-4,-4,-3,-1,-1,-1,-1,-3,0.44
89,-2,-4,-1,-1,0,-3,-2,1,0.445
90,1,17,-3,0,-1,0,-1,0,0.45
91,5,7,-1,1,0,1,-1,0,0.455
92,3,16,2,0,2,1,1,2,0.46
93,-2,-5,0,0,-1,-1,0,0,0.465
94,0,-3,-3,-2,-2,-1,-1,-1,0.47000000000000003
95,-1,2,0,-1,-2,-2,-1,0,0.47500000000000003
96,1,5,0,-2,-1,1,0,1,0.48
97,-1,-3,-4,-1,0,-1,-1,-4,0.485
98,-4,-2,0,0,1,-1,-2,-1,0.49
99,1,0,6,1,1,2,1,1,0.495
100,-8,-2,-4,-1,0,-3,0,-3,0.5
101,2,-2,1,0,0,0,0,1,0.505
102,-4,-11,3,4,0,-2,-3,-2,0.51
103,-1,39,6,4,1,2,0,1,0.515
104,2,1,0,-1,-1,0,-3,-1,0.52
105,-6,0,2,1,1,0,2,0,0.525
106,3,14,1,-1,-1,-3,-2,0,0.53
107,1,-13,0,-3,-3,-3,-2,0,0.535
108,-8,-33,6,0,-1,0,0,-1,0.54
109,0,3,-3,-1,0,0,-2,-1,0.545
110,-3,-3,-1,-1,-1,0,1,0,0.55
111,-3,-12,-1,-1,-2,-2,-1,-1,0.555
112,7,4,-2,-2,-2,-2,-2,0,0.56
113,-6,-9,-2,-1,0,-1,0,-2,0.5650000000000001
114,-1,-4,1,-2,-1,-1,0,-2,0.5700000000000001
115,0,5,-1,0,0,-1,0,-2,0.5750000000000001
116,1,3,-4,-1,-1,-2,1,0,0.58
117,4,-4,-3,-2,-2,-4,-1,1,0.585
118,4,-1,0,-2,-2,0,-1,0,0.59
119,-5,-27,-3,-2,-1,0,-1,0,0.595
120,-5,4,9,3,0,0,-2,1,0.6
121,-4,-8,4,2,-2,0,-1,-1,0.605
122,-4,-15,-3,-2,-2,-1,-2,0,0.61
123,1,-23,0,-5,-3,-2,-2,-3,0.615
124,-1,5,-1,2,0,-1,-2,-3,0.62
125,1,0,-2,-1,0,1,0,0,0.625
126,-3,7,2,0,-1,0,0,0,0.63
127,1,5,-1,0,2,-2,-2,-2,0.635
128,-1,10,0,-1,0,-3,-3,0,0.64
129,7,11,2,0,-1,0,-1,-2,0.645
130,-3,-12,-6,-5,-4,-2,-3,-2,0.65
131,0,6,-3,-2,-2,-2,-2,-2,0.655
132,-1,-5,-2,0,0,-1,0,0,0.66
133,1,0,1,1,0,0,0,0,0.665
134,-2,4,1,1,1,0,-1,-1,0.67
135,2,4,1,-1,-2,0,0,1,0.675
136,-5,-19,2,2,1,1,1,-1,0.68
137,-4,-6,0,-1,-1,0,0,-3,0.685
138,0,4,-3,-1,0,-1,1,0,0.6900000000000001
139,-7,2,-3,-1,-2,-1,0,0,0.6950000000000001
140,3,3,-3,-2,-2,1,-1,-1,0.7000000000000001
141,-1,3,1,-1,-1,-3,-1,-1,0.705
142,-3,1,8,4,1,-2,0,0,0.71
143,0,-5,-10,-2,-1,-2,-1,1,0.715
144,-2,-3,3,-2,-1,1,0,0,0.72
145,-3,-1,-1,-3,-1,-2,0,0,0.725
146,3,0,-2,-1,1,1,-1,-1,0.73
147,-1,11,6,0,-1,-1,0,-1,0.735
148,-2,-1,-6,-3,-2,-1,-1,0,0.74
149,7,1,0,2,-1,-2,-3,-2,0.745
150,-6,-14,4,1,0,1,0,1,0.75
151,2,6,-1,0,-1,-1,0,-1,0.755
152,-2,-2,-4,-2,0,-1,-1,-1,0.76
153,-1,-1,0,-2,0,1,0,0,0.765
154,-4,-8,-3,-1,-1,-2,0,-2,0.77
155,1,7,0,-1,-2,-1,-2,-1,0.775
156,2,3,0,-1,0,-2,0,-2,0.78
157,-3,-6,-1,-2,-1,1,-2,1,0.785
158,3,5,-1,-1,-1,0,0,-2,0.79
159,-4,-1,-3,0,1,1,0,-1,0.795
160,-3,7,0,0,-3,-2,-1,-1,0.8
161,-1,-2,-2,0,1,-1,0,-1,0.805
162,1,8,-3,1,1,-2,-1,0,0.81
163,2,-8,-1,-2,-2,-3,-1,-2,0.8150000000000001
164,3,0,1,-1,0,0,-1,-1,0.8200000000000001
165,-5,-1,-2,1,-1,0,0,-1,0.8250000000000001
166,6,0,0,-2,-3,0,-2,-1,0.8300000000000001
167,-1,-1,1,0,0,-1,-3,-2,0.835
168,0,4,-2,-1,-1,0,-2,0,0.84
169,-4,6,-5,-1,0,-1,-1,-1,0.845
170,1,0,-3,-1,-2,-1,-1,-1,0.85
171,-2,-10,0,1,-1,-2,-1,1,0.855
172,-1,13,2,0,-3,-2,-1,-2,0.86
173,1,-1,-3,-2,-1,0,0,0,0.865
174,-2,-3,-3,-2,-1,1,1,1,0.87
175,1,6,-1,-2,0,-1,0,1,0.875
176,0,-6,-5,-1,-2,0,-1,-2,0.88
177,-2,-4,3,-2,-2,-2,-3,0,0.885
178,-2,-1,-3,-3,-2,-1,1,-1,0.89
179,0,-3,-1,0,1,0,0,0,0.895
180,-3,-1,-3,-3,-2,-2,-2,-3,0.9
181,-2,-3,-1,-4,-2,-3,-3,-2,0.905
182,-5,-6,-2,-3,0,0,-1,-1,0.91
183,7,3,2,-1,-2,0,-1,-1,0.915
184,3,2,-2,0,1,0,0,0,0.92
185,0,3,1,0,0,0,-1,0,0.925
186,-3,-1,-1,2,0,0,-1,0,0.93
187,0,-2,-2,-1,-2,-1,0,-1,0.935
188,0,-8,2,1,2,-1,1,0,0.9400000000000001
189,-8,-23,1,1,0,0,-1,-2,0.9450000000000001
190,1,6,2,-1,-1,-2,-2,0,0.9500000000000001
191,-3,2,0,1,1,0,-2,-1,0.9550000000000001
192,-4,-24,5,-2,-1,1,1,-1,0.96
193,2,22,-2,1,1,2,-1,0,0.965
194,-2,-1,1,-2,-2,-1,-1,-1,0.97
195,-5,-20,-3,-3,-2,-1,-2,0,0.975
196,2,15,1,1,0,-1,-3,1,0.98
197,5,-4,-2,-2,-2,-1,0,-1,0.985
198,-11,0,-1,-1,0,-1,0,-3,0.99
199,2,11,1,-2,-1,-1,-3,0,0.995
200,1,-1,-3,-3,1,-1,2,0,1.0
201,0,-1,-2,0,-1,-1,0,0,1.0050000000000001
202,2,-9,-1,1,-1,-1,0,-1,1.01
203,3,8,-2,-1,-1,-1,-1,-2,1.0150000000000001
204,-3,-5,-1,-2,0,0,0,0,1.02
205,0,-4,-2,-1,-2,-2,-1,-1,1.025
206,2,14,-1,0,-1,-1,-2,-2,1.03
207,6,6,0,1,0,2,1,0,1.035
208,-1,-12,0,-2,-2,-1,-2,-1,1.04
209,-2,0,4,2,0,-1,1,-1,1.045
210,0,1,2,-1,-1,-2,-1,-1,1.05
211,-2,-1,-2,-4,-2,-2,-1,0,1.055
212,5,9,0,1,0,1,0,-1,1.06
213,-8,-9,-6,-4,-2,-2,1,-2,1.065
214,0,-15,-4,-1,0,-3,-1,-1,1.07
215,-7,12,2,0,-1,0,-1,0,1.075
216,-4,1,-3,-1,-3,-1,0,0,1.08
217,5,24,7,0,1,0,-1,0,1.085
218,0,1,-3,0,-1,1,-1,-3,1.09
219,-4,-22,-1,1,1,-1,0,-2,1.095
220,-1,1,-2,0,-1,0,-2,-2,1.1
221,3,-1,-3,-2,-1,0,-1,0,1.105
222,-1,4,-3,-2,-2,-2,0,0,1.11
223,2,6,-3,-3,-2,-2,-2,0,1.115
224,-1,4,-1,-1,2,0,-3,1,1.12
225,4,-6,1,1,-2,-2,0,0,1.125
226,-10,-2,0,-1,-1,0,-1,-2,1.1300000000000001
227,-1,-3,-1,1,0,0,1,-2,1.135
228,-2,-6,1,3,1,-2,1,0,1.1400000000000001
229,0,-6,-5,-4,0,-1,-1,0,1.145
230,-3,3,2,-1,-2,0,-2,0,1.1500000000000001
231,-2,6,-1,-1,-1,0,-2,-2,1.155
232,0,1,-4,-3,-1,-1,-2,-2,1.16
233,0,8,4,2,0,-3,-2,-1,1.165
234,2,-13,0,1,0,-1,0,-1,1.17
235,5,32,1,-1,1,-2,-2,1,1.175
236,0,3,-1,1,0,-2,-1,-1,1.18
237,-1,-7,-4,-3,-1,-1,-1,0,1.185
238,2,7,-2,1,0,-1,-2,-1,1.19
239,-5,-16,-4,-1,-2,-2,-2,-1,1.195
240,0,-5,-1,-1,0,0,0,-1,1.2
241,0,2,-5,-3,-3,0,0,1,1.205
242,-1,-5,-2,-3,-1,-1,0,-1,1.21
243,3,-6,1,-1,0,0,0,-3,1.215
244,-6,-12,1,0,-1,1,1,-1,1.22
245,0,-8,0,0,0,0,-1,0,1.225
246,-3,-1,-3,-3,-2,-2,-1,0,1.23
247,0,-8,-4,1,-3,-1,0,0,1.235
248,4,18,-3,-2,-3,-2,-3,0,1.24
249,-3,-3,-3,0,-1,-1,-1,-2,1.245
250,2,16,0,0,-1,-1,-2,1,1.25
251,-2,0,-1,-1,1,-2,-1,-2,1.2550000000000001
252,-3,-24,-1,-1,0,0,0,-1,1.26
253,-2,1,-1,-3,-3,-2,1,-1,1.2650000000000001
254,3,11,2,1,-2,-1,0,0,1.27
255,-2,-5,2,-2,0,0,0,0,1.2750000000000001
256,-1,4,-2,-1,-1,-1,-1,-1,1.28
257,-1,2,0,0,2,1,-2,0,1.285
258,0,-10,0,-2,0,-1,-1,-1,1.29
259,-1,14,3,0,-1,-1,1,1,1.295
260,-2,3,-1,-2,-1,-2,-3,0,1.3
261,6,3,2,2,0,1,-1,0,1.305
262,-7,8,4,0,0,-2,-1,0,1.31
263,-3,-14,-2,0,-1,0,-1,-2,1.315
264,2,9,-2,-1,-1,-3,-2,0,1.32
265,-5,-6,1,-1,-2,0,-1,-2,1.325
266,2,-12,1,0,-3,-2,0,-1,1.33
267,7,-1,-1,0,-1,0,0,-2,1.335
268,-1,8,-1,0,-2,-2,0,-1,1.34
269,-3,1,-2,-2,0,0,-1,-1,1.345
270,-1,0,2,2,-1,-1,0,-2,1.35
271,-3,-2,0,-2,-1,-1,-2,0,1.355
272,1,5,-2,-1,-1,0,0,-1,1.36
273,2,1,-1,2,0,-1,-1,0,1.365
274,-1,-2,-1,-2,-1,1,-1,1,1.37
275,-3,-4,-4,-3,0,1,-1,-1,1.375
276,-2,-12,0,-2,0,1,-1,-1,1.3800000000000001
277,-1,1,-1,-2,0,-1,-1,0,1.385
278,2,-28,1,2,0,0,1,1,1.3900000000000001
279,-3,-5,-2,0,-3,-2,-3,-2,1.395
280,0,-1,-1,-1,0,0,1,-1,1.4000000000000001
281,-5,-12,0,-2,-2,-2,-1,0,1.405
282,3,9,-1,0,1,0,-2,0,1.41
283,-4,-27,-1,2,-1,0,-2,0,1.415
284,6,-6,-3,-1,-1,-1,1,-1,1.42
285,-4,0,0,-1,-2,-1,-1,0,1.425
286,-2,2,-6,-2,-1,-2,-2,-1,1.43
287,-9,-13,2,-1,-1,1,2,0,1.435
288,-2,2,-1,-2,-3,-2,-1,-2,1.44
289,1,1,0,3,1,1,0,0,1.445
290,1,1,-3,-1,-1,0,-1,-2,1.45
291,-1,9,0,0,-3,-4,-1,0,1.455
292,6,3,-1,0,0,-1,-1,-1,1.46
293,-3,3,-1,-1,-1,-2,-1,-2,1.465
294,-3,0,0,0,-1,0,-2,-1,1.47
295,2,4,-2,-2,0,0,0,1,1.475
296,-3,2,-3,-2,-2,1,0,0,1.48
297,2,-3,-1,-2,-2,-2,-2,-3,1.485
298,-2,-3,-1,-2,-1,0,-1,0,1.49
299,4,15,-1,-1,-1,-1,-5,-2,1.495
300,1,-3,-2,0,0,0,1,0,1.5
301,-2,-3,3,0,-1,-1,-2,-3,1.5050000000000001
302,-2,0,-2,-1,-1,0,0,-2,1.51
303,1,10,-3,-2,-3,-1,-1,-1,1.5150000000000001
304,-5,2,1,-1,-1,1,0,0,1.52
305,-4,-22,3,1,2,0,1,0,1.5250000000000001
306,1,-4,-5,-2,0,-1,0,-1,1.53
307,-3,-33,-3,-1,1,-2,0,-1,1.5350000000000001
308,-5,-6,1,2,2,-2,-1,-1,1.54
309,0,2,-2,-2,-2,-1,-1,-1,1.545
310,4,2,0,0,-2,0,-1,0,1.55
311,-7,-8,-1,1,0,0,-1,-2,1.555
312,0,-2,-2,-2,-1,-1,-2,-1,1.56
313,4,9,-4,-1,-1,-2,1,1,1.565
314,1,14,-5,-1,-2,-5,-3,-1,1.57
315,1,6,-4,-5,-3,0,0,1,1.575
316,1,-4,-1,-1,-2,-2,-1,0,1.58
317,-3,-14,-4,-1,0,-2,2,0,1.585
318,-2,3,2,-1,0,0,0,-1,1.59
319,8,13,0,0,-1,1,-1,0,1.595
320,-5,5,-2,-3,-2,-1,-4,-2,1.6
321,0,7,-1,-1,0,-1,-1,0,1.605
322,-2,-7,3,-2,-1,0,1,-1,1.61
323,-1,-2,3,1,-1,-1,-1,-1,1.615
324,-2,-7,0,-1,1,-1,0,1,1.62
325,0,5,1,3,1,2,0,-2,1.625
326,0,7,0,1,-1,-1,0,0,1.6300000000000001
327,0,24,2,-2,-3,-1,-2,0,1.635
328,0,0,-1,-2,-2,-2,-2,-1,1.6400000000000001
329,-1,4,-2,-2,-3,-1,-2,-1,1.645
330,-1,3,2,1,0,-1,-1,0,1.6500000000000001
331,0,-3,2,2,2,-1,-1,0,1.655
332,1,-1,2,1,1,0,-1,-2,1.6600000000000001
333,0,2,-2,0,-1,1,0,-1,1.665
334,2,-17,-1,-3,0,-2,-1,0,1.67
335,-3,-4,1,-3,-2,0,-1,0,1.675
336,-1,3,0,2,-1,-1,-1,-2,1.68
337,-2,20,-3,-5,-4,-3,-4,-2,1.685
338,5,-2,-3,0,-1,0,-2,-4,1.69
339,-7,2,-2,-2,0,-3,-2,-3,1.695
340,-1,2,2,1,0,2,1,2,1.7
341,0,-5,2,-1,-2,0,0,0,1.705
342,-4,1,-2,-2,-2,0,-1,-1,1.71
343,1,0,0,-1,0,-2,0,0,1.715
344,2,-8,-4,-3,-2,-2,-2,-3,1.72
345,-6,-9,-4,-3,-2,-2,-3,-2,1.725
346,-1,-2,2,-1,-1,-2,1,-1,1.73
347,4,-4,-2,1,1,1,1,0,1.735
348,1,8,0,1,-1,-1,0,0,1.74
349,1,-17,0,0,0,0,0,1,1.745
350,-3,10,-9,-4,-1,-1,-1,-1,1.75
351,-4,-8,-2,0,0,-1,1,-1,1.7550000000000001
352,0,6,0,-1,-1,0,0,0,1.76
353,2,2,3,-1,0,0,-2,-2,1.7650000000000001
354,-3,2,-2,-2,-1,0,0,0,1.77
355,2,3,0,0,1,-1,-3,0,1.7750000000000001
356,-4,-2,0,1,-1,1,0,1,1.78
357,8,-1,0,0,1,-1,-1,0,1.7850000000000001
358,-5,14,0,-3,-1,-2,-1,-1,1.79
359,0,-11,-7,-3,-2,0,-1,-1,1.795
360,-4,-5,0,0,-1,-1,0,-1,1.8
361,-3,4,-1,-1,0,-1,-2,0,1.805
362,1,3,0,0,0,-3,0,-1,1.81
363,5,3,1,0,-1,0,1,0,1.815
364,-5,-4,-2,-2,1,0,-1,-1,1.82
365,0,-2,-4,0,-1,1,0,-1,1.825
366,-3,-13,-1,0,0,0,-1,-1,1.83
367,-7,-9,2,0,0,0,0,-1,1.835
368,4,12,1,-2,-2,-1,-2,0,1.84
369,-1,1,-2,-1,-1,0,-2,0,1.845
370,-5,-26,2,3,0,0,0,0,1.85
371,0,24,2,1,-1,-1,0,-1,1.855
372,-3,-3,-2,-1,-3,-1,-1,-2,1.86
373,-2,-3,-7,-2,-2,-1,1,0,1.865
374,4,6,1,0,0,0,0,-2,1.87
375,0,1,-2,-1,-1,-1,-1,-2,1.875
376,0,-8,1,-1,0,-1,-2,0,1.8800000000000001
377,-4,-19,6,2,-1,2,0,0,1.885
378,-1,2,0,0,0,0,-2,0,1.8900000000000001
379,2,-3,1,-2,-2,-1,0,0,1.895
380,-1,1,-1,0,-2,-1,-1,-1,1.9000000000000001
381,2,3,-3,-2,-1,0,-1,1,1.905
382,5,2,3,2,-1,-1,-2,-1,1.9100000000000001
383,-5,-9,-6,-2,-1,0,0,0,1.915
384,-3,-16,1,0,-3,-2,-2,-2,1.92
385,-1,6,-1,-3,-2,0,-1,-1,1.925
386,1,-7,-2,1,-3,-2,-1,2,1.93
387,-4,-11,6,1,-1,1,-2,1,1.935
388,0,1,0,0,1,1,-1,-2,1.94
389,-1,7,0,-2,-2,-3,-3,-2,1.945
390,-4,-28,-5,1,1,0,-1,0,1.95
391,0,-8,-2,-1,-2,-1,-2,-1,1.955
392,-1,1,1,-2,-2,-1,0,0,1.96
393,-2,2,1,0,1,-1,1,-1,1.965
394,1,10,-2,-1,-1,0,-2,-1,1.97
395,0,7,-2,-2,-1,1,0,0,1.975
396,0,-3,2,-1,1,0,0,0,1.98
397,-2,-6,0,-1,0,-1,0,0,1.985
398,-10,-10,4,-2,-1,-1,-1,-2,1.99
399,-2,3,-1,4,1,1,0,-1,1.995
400,11,5,-3,0,-1,2,-1,0,2.0
401,-6,-6,0,2,0,-1,-1,-1,2.005
402,-1,6,-2,-2,-1,-1,0,-1,2.0100000000000002
403,-2,4,4,0,-1,-2,-2,-2,2.015
404,-2,-3,-3,0,0,0,1,1,2.02
405,1,-4,1,-2,-1,0,-1,-1,2.025
406,2,1,-2,-1,-1,1,-1,0,2.0300000000000002
407,-2,0,-1,0,0,-1,0,-1,2.035
408,-2,-3,-2,1,-2,-3,0,0,2.04
409,3,3,-3,-1,-1,0,-1,0,2.045
410,-2,0,-3,-2,-1,-1,0,-1,2.05
411,0,-6,-2,-3,-3,1,-1,-2,2.055
412,-3,3,-2,-2,0,-3,-2,-1,2.06
413,-1,6,2,3,-1,0,0,0,2.065
414,3,1,-3,-4,-2,0,-1,0,2.07
415,-5,-24,-6,-3,1,-1,-1,-2,2.075
416,-1,16,-5,-4,-5,0,-2,-2,2.08
417,-1,4,-2,0,1,-1,0,-1,2.085
418,4,22,0,1,-1,-1,-1,-1,2.09
419,-3,-5,-2,-1,0,-2,0,-1,2.095
420,-3,-4,-1,-3,1,1,1,-2,2.1
421,0,-1,-2,-1,-3,-2,-2,-1,2.105
422,3,1,0,0,1,0,-2,-2,2.11
423,3,11,2,2,0,-2,-3,1,2.115
424,-3,-2,1,-3,-2,-1,-1,-1,2.12
425,4,9,-3,-2,-1,-2,0,-1,2.125
426,-2,-8,-2,-5,-3,-1,1,0,2.13
427,-1,-8,0,3,-1,-1,-1,-1,2.1350000000000002
428,-3,-5,1,2,0,0,-1,0,2.14
429,-1,-9,0,1,-1,0,1,-2,2.145
430,-2,-4,0,-2,1,-3,-1,-1,2.15
431,1,13,0,-1,1,0,0,0,2.1550000000000002
432,-2,-1,1,-1,1,-1,0,0,2.16
433,-1,-2,2,-1,-1,-3,-2,0,2.165
434,-2,-28,6,2,-1,-1,-2,-2,2.17
435,-3,13,-3,-1,0,2,2,1,2.1750000000000003
436,1,0,-2,-1,-1,0,-3,-2,2.18
437,-5,-15,0,-2,-2,-2,-1,-2,2.185
438,-3,-4,-1,0,-1,-1,0,1,2.19
439,2,0,0,-3,-2,0,-1,-1,2.195
440,-1,0,-3,-1,-1,-1,0,1,2.2
441,2,8,-1,1,1,1,-2,-1,2.205
442,1,8,0,0,-1,-2,-1,-1,2.21
443,3,0,0,0,0,-2,-1,-1,2.215
444,-3,5,4,0,1,2,1,-1,2.22
445,-2,-3,-2,-1,-1,-1,0,0,2.225
446,-5,-10,-8,-4,-3,0,0,-1,2.23
447,0,-10,-4,-3,-2,-2,-1,0,2.235
448,-9,-4,0,-1,0,-3,-1,-2,2.24
449,2,5,2,2,-1,-1,0,-2,2.245
450,-4,7,2,0,0,-1,-2,-1,2.25
451,0,5,0,-1,-1,-1,0,1,2.255
452,4,-7,0,0,-3,0,0,0,2.2600000000000002
453,-2,-2,-3,-2,0,0,0,0,2.265
454,1,7,-3,1,-1,-2,0,-1,2.27
455,2,2,-1,0,-2,-1,-2,-1,2.275
456,2,-8,-1,0,1,-1,-1,0,2.2800000000000002
457,-4,2,-1,0,-1,-2,-3,-1,2.285
458,-2,3,-2,0,1,0,0,0,2.29
459,6,5,0,0,-1,0,0,1,2.295
460,-10,-17,1,0,-1,0,0,-2,2.3000000000000003
461,0,-4,0,-1,-1,-3,-2,-1,2.305
462,1,3,1,0,-1,0,-1,-2,2.31
463,-2,-3,0,-1,0,-1,-3,0,2.315
464,3,8,1,0,1,1,2,1,2.32
465,0,0,-2,-1,1,0,-1,1,2.325
466,-2,2,0,-1,-2,-1,-1,-1,2.33
467,-2,1,-1,-1,-2,-2,-1,-3,2.335
468,11,30,-4,-3,-3,-1,-1,-1,2.34
469,0,1,1,0,-2,-1,-1,-1,2.345
470,-2,-3,-1,0,-1,0,-1,0,2.35
471,1,-19,3,2,1,-1,-1,-2,2.355
472,-7,-5,-10,-1,0,0,0,0,2.36
473,-2,-4,-1,1,-1,2,0,0,2.365
474,-1,6,0,-2,-1,0,-1,0,2.37
475,6,8,1,-2,-1,-1,-2,0,2.375
476,-5,-4,2,0,1,-1,-1,-2,2.38
477,-3,-1,-1,-1,-1,-1,0,0,2.3850000000000002
478,-2,-6,-2,1,1,0,-1,0,2.39
479,-3,-4,-2,-1,-2,0,1,0,2.395
480,3,-6,-3,-1,-1,-1,-1,-1,2.4
481,-1,8,-1,-2,-1,-2,-1,-1,2.4050000000000002
482,1,1,2,0,-2,-1,0,-1,2.41
483,-4,-2,-1,-2,0,0,1,-1,2.415
484,1,2,1,2,0,2,1,1,2.42
485,-1,-2,0,0,1,-1,2,0,2.4250000000000003
486,0,-2,-2,-1,-2,0,-2,1,2.43
487,-2,2,-1,1,-1,-2,-3,0,2.435
488,1,-12,-4,-5,-2,-2,-1,1,2.44
489,-4,-19,4,2,0,1,-1,0,2.445
490,1,-5,-3,-2,-1,-3,-1,-1,2.45
491,-5,2,0,1,-1,0,-1,0,2.455
492,0,-2,0,2,-1,0,-3,-2,2.46
493,3,4,-1,0,-2,-2,0,0,2.465
494,0,3,0,-1,-2,0,0,-1,2.47
495,4,7,6,0,0,-2,-1,-1,2.475
496,-4,3,4,-1,0,-3,-2,-1,2.48
497,2,33,-5,-2,0,1,-1,-1,2.485
498,-5,-12,-5,-2,-3,0,0,-1,2.49
499,1,0,-5,-2,-1,1,-2,-1,2.495
500,-5,-17,3,-1,0,0,1,-1,2.5
501,0,-3,0,-3,0,1,-1,-2,2.505
502,1,7,1,0,1,-1,-1,-1,2.5100000000000002
503,-3,1,-2,-2,-2,-2,-1,-1,2.515
504,2,10,-1,-1,-1,-2,-3,-1,2.52
505,0,-6,-3,0,-1,-1,-1,0,2.525
506,1,-1,1,0,0,0,0,-1,2.5300000000000002
507,2,31,2,0,-1,-1,1,-1,2.535
508,0,-7,-1,-1,1,1,2,0,2.54
509,0,-1,2,-1,-2,1,-1,-1,2.545
510,1,7,1,0,1,-3,-1,0,2.5500000000000003
511,-2,-7,-3,-2,-2,-2,0,0,2.555
512,1,3,1,1,-1,-3,0,0,2.56
513,1,-4,0,-1,0,-2,0,-2,2.565
514,-1,0,-1,0,0,-1,-1,-2,2.57
515,-4,-9,-2,-1,-1,0,0,-2,2.575
516,2,1,-1,0,-1,-2,-1,-1,2.58
517,1,-10,-3,-1,-1,-3,0,-1,2.585
518,6,-1,0,-1,0,1,0,-2,2.59
519,-2,-9,-4,-1,-1,0,1,-2,2.595
520,-4,10,5,0,-1,1,-1,-1,2.6
521,-2,5,-3,2,2,1,2,2,2.605
522,0,-3,-3,-5,-1,0,-1,-1,2.61
523,-2,-3,-5,-5,-2,-1,-2,0,2.615
524,4,-2,-2,1,-1,-1,0,-1,2.62
525,2,0,2,-1,0,0,-1,-2,2.625
526,-3,-3,1,2,2,0,0,-2,2.63
527,1,-1,-1,-1,0,0,-1,0,2.6350000000000002
528,-1,-1,-1,-1,0,-2,-2,-2,2.64
529,-3,-4,-1,-2,-2,-3,-1,-1,2.645
530,0,-1,-3,0,-1,-1,-1,-1,2.65
531,2,0,0,1,-1,-2,-2,-2,2.6550000000000002
532,-1,-36,-8,-2,0,2,0,0,2.66
533,-10,-21,1,1,0,0,-1,-2,2.665
534,-4,-19,-1,2,1,2,1,1,2.67
535,0,1,-3,0,-2,0,-2,0,2.6750000000000003
536,-4,-1,-3,-1,-1,-3,2,-2,2.68
537,8,3,-5,0,-1,-3,-1,-2,2.685
538,-4,1,-1,-1,-1,-2,-1,-2,2.69
539,-4,-6,2,1,2,0,1,1,2.695
540,-2,7,1,-1,-2,-1,-1,0,2.7
541,1,1,-3,-1,-1,0,-3,-1,2.705
542,2,10,0,1,-1,-2,-1,1,2.71
543,1,9,2,-1,1,0,-1,-1,2.715
544,2,3,-3,-3,-2,-1,-1,-2,2.72
545,-1,1,-2,-3,-1,-1,-1,2,2.725
546,0,5,1,0,-2,0,0,-1,2.73
547,-4,-12,-5,-4,-2,0,-3,-1,2.735
548,-1,7,1,0,-1,-1,0,-2,2.74
549,-3,-5,-1,-1,-1,-2,-1,-1,2.745
550,4,28,-5,-2,-2,-3,-3,-2,2.75
551,-6,-13,1,1,-2,-1,-1,-2,2.755
552,-2,6,0,0,1,-1,-1,-1,2.7600000000000002
553,0,-1,0,1,-1,0,0,0,2.765
554,-1,17,0,-1,-2,0,1,-1,2.77
555,3,3,0,1,1,0,-2,0,2.775
556,-8,-1,-3,-2,0,0,1,-2,2.7800000000000002
557,-2,-6,-3,-3,-3,-3,-1,-1,2.785
558,-2,-14,-2,-2,-1,-2,-1,-2,2.79
559,-3,-28,5,-1,0,0,1,0,2.795
560,4,-3,0,0,1,-1,-2,0,2.8000000000000003
561,0,5,3,-1,-1,-2,0,-1,2.805
562,-1,-8,-2,-1,2,-1,-1,-1,2.81
563,-1,2,-2,-3,-2,-2,-1,-2,2.815
564,3,3,-2,-2,-1,-2,-3,0,2.82
565,-2,-2,1,-1,-1,1,0,-1,2.825
566,-2,-10,0,-1,-2,-1,-1,0,2.83
567,2,10,-1,1,0,-1,-1,-2,2.835
568,-3,-1,1,-1,-1,1,0,-1,2.84
569,4,19,-8,-2,-1,-1,0,0,2.845
570,-1,-9,0,-2,-1,0,0,-1,2.85
571,-1,-1,-2,-6,-5,-3,-3,-1,2.855
572,1,10,0,0,-1,-2,-1,0,2.86
573,3,-13,-2,-1,1,0,-1,-3,2.865
574,-3,1,-4,0,-1,0,0,-1,2.87
575,2,5,0,-1,1,0,-1,0,2.875
576,-1,-4,-1,0,-1,-2,0,0,2.88
577,-2,-8,0,-1,-1,-1,0,1,2.8850000000000002
578,0,-3,4,1,0,0,-2,1,2.89
579,-1,-7,-1,-1,-1,-1,-1,-2,2.895
580,0,-2,0,-2,-1,-1,-2,-1,2.9
581,-3,1,1,-1,1,0,1,0,2.9050000000000002
582,-3,-4,-5,-3,-2,-1,0,0,2.91
583,-1,1,-1,1,-1,0,1,-1,2.915
584,-3,-2,-1,0,0,-1,0,-1,2.92
585,0,2,-3,-3,-2,0,-1,-2,2.9250000000000003
586,3,3,1,0,1,0,0,2,2.93
587,-1,-6,-2,-1,0,-3,0,-1,2.935
588,-3,0,0,1,0,1,-1,0,2.94
589,0,18,0,0,-1,-2,-1,-1,2.945
590,0,-7,0,0,-1,-2,-2,-2,2.95
591,1,14,-5,-1,-1,-1,-2,0,2.955
592,0,-2,-3,-2,-4,-1,1,-1,2.96
593,1,4,-1,-3,-1,0,-1,1,2.965
594,-7,-30,-3,2,1,-2,-3,-2,2.97
595,-3,6,-3,-3,-2,-1,1,-1,2.975
596,4,-2,3,-1,1,0,-1,1,2.98
597,-4,-12,0,-1,-1,1,-1,-1,2.985
598,-1,2,1,1,-3,-1,0,-2,2.99
599,-1,4,-1,2,0,0,-1,1,2.995
600,-3,-5,-2,0,1,0,-3,-1,3.0
601,-4,-18,1,1,0,2,1,1,3.005
602,7,12,0,-3,0,1,-1,-1,3.0100000000000002
603,-8,-2,-2,-1,-1,-1,-1,-1,3.015
604,4,8,0,-1,-1,-1,0,-1,3.02
605,-3,0,-1,-1,-2,-2,-1,0,3.025
606,-4,-3,-2,0,-1,1,-2,0,3.0300000000000002
607,-3,-26,8,1,0,0,0,1,3.035
608,-4,-8,-2,0,-2,-1,-1,-1,3.04
609,-2,-5,-2,-2,0,0,-2,0,3.045
610,-5,-2,-1,-1,-1,-2,0,-1,3.0500000000000003
611,5,7,1,-2,1,2,0,2,3.055
612,-9,11,1,-1,-2,-1,-1,-3,3.06
613,4,5,-3,-2,-1,0,-2,-1,3.065
614,0,22,-1,-3,-4,0,0,-1,3.0700000000000003
615,-3,-3,-6,-3,-3,-1,-1,-1,3.075
616,6,3,-1,-1,1,-1,1,0,3.08
617,-1,2,-1,-1,0,0,0,-1,3.085
618,4,-4,-2,0,-1,0,0,0,3.09
619,-3,5,1,1,0,1,-1,-3,3.095
620,3,-1,-4,-3,-2,1,0,0,3.1
621,-4,-4,0,-1,-2,-1,-1,-1,3.105
622,1,-8,0,-1,1,-1,0,0,3.11
623,2,5,0,0,2,-1,-1,1,3.115
624,-4,-3,0,2,0,-2,-1,-1,3.12
625,0,-2,0,-1,-1,-2,-3,-1,3.125
626,-1,5,-2,-1,-1,-1,0,-2,3.13
627,4,2,3,2,-1,0,0,-1,3.1350000000000002
628,-9,-41,6,-1,-1,-1,1,0,3.14
629,4,-3,-1,0,-2,-2,0,0,3.145
630,-3,-5,-1,0,0,-2,-2,-1,3.15
631,0,3,-1,-4,-2,-1,0,0,3.1550000000000002
632,2,15,-3,1,-1,0,-1,1,3.16
633,-1,3,0,1,-1,0,-1,-2,3.165
634,-1,-4,4,-1,-1,-1,-2,-1,3.17
635,-2,7,1,-1,1,0,0,-1,3.1750000000000003
636,11,23,-1,-3,-2,-1,-1,-2,3.18
637,-3,0,-5,-1,0,1,0,-1,3.185
638,-2,10,2,0,-1,-1,1,0,3.19
639,-2,-5,-1,-1,-1,-1,-1,-2,3.1950000000000003
640,-1,0,-2,-2,-1,-3,1,0,3.2
641,0,-5,2,-1,-2,-2,0,0,3.205
642,-2,-6,-1,2,0,-1,-1,-2,3.21
643,0,0,-3,-2,-1,-1,-2,-1,3.215
644,-1,-5,-3,0,1,1,-1,0,3.22
645,1,-2,0,-1,0,-2,0,-1,3.225
646,-2,0,-4,-4,-1,-1,0,0,3.23
647,6,-1,0,0,-1,-2,0,0,3.235
648,-7,2,0,0,-2,0,-1,-2,3.24
649,-6,-17,3,0,-1,0,1,1,3.245
650,2,1,-1,0,-2,-1,0,-2,3.25
651,-3,-6,-5,0,1,1,-2,0,3.255
652,-1,-7,-2,0,0,-2,-2,-1,3.2600000000000002
653,-1,6,-1,1,0,-2,-2,-2,3.265
654,6,30,-3,-2,1,0,-2,-1,3.27
655,-7,-13,-2,0,0,0,-1,-1,3.275
656,0,-5,-4,-3,-1,-2,0,1,3.2800000000000002
657,-3,6,1,-2,1,-3,-1,-1,3.285
658,0,-2,0,2,0,0,0,-1,3.29
659,-2,-17,0,-1,-1,-1,1,-1,3.295
660,5,32,2,2,2,0,-1,0,3.3000000000000003
661,1,2,0,0,-1,-1,-1,-1,3.305
662,0,2,-2,-2,0,-1,-2,-1,3.31
663,-2,6,-1,-1,0,-1,-1,0,3.315
664,-1,-16,0,-1,-1,-1,-1,0,3.3200000000000003
665,3,0,-2,-2,-2,0,0,0,3.325
666,-2,-6,1,-1,-3,-3,0,1,3.33
667,0,3,-1,0,-2,0,0,-2,3.335
668,-4,5,0,-1,-1,-2,-1,-1,3.34
669,0,3,-1,1,1,0,-1,-2,3.345
670,-1,-13,0,-1,-1,0,-1,1,3.35
671,-3,-12,-1,-1,-1,0,-1,1,3.355
672,1,-5,0,-1,-2,-2,-2,-1,3.36
673,0,5,-3,0,0,-1,-1,-2,3.365
674,-3,-3,0,-1,-2,-1,0,-1,3.37
675,-3,3,-2,0,-1,0,0,-1,3.375
676,3,0,0,2,1,1,2,0,3.38
677,2,-2,1,-1,-1,-1,0,0,3.3850000000000002
678,-7,-5,-2,0,0,-1,-1,-2,3.39
679,5,4,-2,0,-1,-2,-2,-1,3.395
680,-7,-45,7,0,0,1,0,1,3.4
681,-5,0,-2,-1,-2,-1,-1,2,3.4050000000000002
682,8,16,-1,-2,-1,-1,-1,-2,3.41
683,-1,-3,1,-2,-2,-1,0,-1,3.415
684,-2,-10,-4,0,0,0,0,-2,3.42
685,-2,0,-1,-1,-1,-1,-2,0,3.4250000000000003
686,-3,-8,2,1,-2,-1,0,-1,3.43
687,3,24,-1,-1,1,-2,-1,0,3.435
688,8,12,-3,-3,-2,-1,-1,-1,3.44
689,0,3,3,-2,0,-1,0,-1,3.4450000000000003
690,-3,-2,-1,1,1,1,0,0,3.45
691,-3,-1,-2,1,-2,-1,-3,-2,3.455
692,0,-3,-3,-3,-1,0,-1,-2,3.46
693,0,-5,1,1,-1,-2,-1,-1,3.465
694,-1,-5,-2,-2,0,0,-1,-2,3.47
695,-2,-4,4,1,-1,-1,-1,-2,3.475
696,-7,-17,-1,2,-1,-1,0,0,3.48
697,-3,-3,-3,1,-1,-1,0,-1,3.485
698,-1,-5,-1,-1,-1,1,1,0,3.49
699,-4,-3,0,0,-2,-1,0,1,3.495
700,7,14,1,-2,0,-1,-1,-2,3.5
701,-5,-1,-3,-1,1,-2,-1,-1,3.505
702,-4,-7,-1,0,0,0,-1,0,3.5100000000000002
703,0,0,0,-2,1,0,-1,-1,3.515
704,0,28,5,0,-1,-1,-1,0,3.52
705,7,2,2,1,0,0,0,-3,3.525
706,-4,-20,-1,0,-1,0,-2,-1,3.5300000000000002
707,-1,-9,-2,-2,-2,-1,-2,0,3.535
708,-4,2,-2,0,1,0,0,-1,3.54
709,2,-12,-4,-1,-1,-1,0,-1,3.545
710,-1,2,-2,-1,-2,-1,-1,0,3.5500000000000003
711,1,8,-1,0,1,-2,-1,-2,3.555
712,1,5,-8,-3,0,-3,-2,0,3.56
713,0,-1,-3,-4,-2,1,0,0,3.565
714,0,-4,0,-2,-1,0,0,-1,3.5700000000000003
715,0,7,0,0,-1,0,0,0,3.575
716,2,-6,-2,-2,-1,0,0,-1,3.58
717,-11,-4,-3,-2,-1,-1,-1,-2,3.585
718,-1,1,-1,-1,-1,-2,-2,0,3.59
719,2,0,-1,-2,-2,-2,-2,-2,3.595
720,1,1,1,0,-2,-1,0,-1,3.6
721,3,6,-2,-4,1,0,0,1,3.605
722,2,-1,3,-1,-2,-1,0,-1,3.61
723,-6,-8,0,-1,-2,-1,-1,-3,3.615
724,-2,-4,-2,0,0,-1,-1,-1,3.62
725,-2,-1,2,1,-1,0,1,0,3.625
726,-6,-10,-1,-2,-3,-2,0,2,3.63
727,1,-4,1,1,2,-1,0,0,3.6350000000000002
728,-6,-31,-3,-3,-1,-2,-1,-2,3.64
729,1,0,-1,-1,0,-2,-1,-1,3.645
730,2,4,0,0,1,1,-1,-2,3.65
731,-3,-8,0,1,-1,-1,2,-1,3.6550000000000002
732,-3,-8,2,0,0,0,2,1,3.66
733,2,-18,3,-2,-1,0,0,-1,3.665
734,-3,-2,-1,-2,-1,-2,-1,-1,3.67
735,1,-3,-4,-2,-1,-1,-2,-1,3.6750000000000003
736,-3,10,1,-2,-2,0,-3,0,3.68
737,1,9,4,2,1,-2,-2,0,3.685
738,0,0,-3,-2,-1,-1,-1,-3,3.69
739,-1,-6,-1,1,1,1,2,-1,3.6950000000000003
740,-5,8,0,0,1,1,-1,0,3.7
741,1,6,1,0,-2,-3,-3,-1,3.705
742,0,3,1,0,-1,-3,-1,0,3.71
743,1,6,-2,-1,-1,-1,-1,-1,3.715
744,2,15,-2,-1,1,0,1,-1,3.72
745,-1,-1,-3,1,-2,0,-1,-1,3.725
746,0,-3,-1,1,1,-1,0,0,3.73
747,-4,-9,0,-1,0,2,0,-2,3.735
748,1,-2,0,0,-1,-1,-2,-1,3.74
749,-1,1,1,0,0,-2,-1,-1,3.745
750,1,5,-4,-3,-1,0,-2,-2,3.75
751,3,10,0,-1,0,0,-1,-1,3.755
752,1,-1,-1,-1,-2,-2,1,-3,3.7600000000000002
753,-5,-9,-5,-3,-1,1,0,0,3.765
754,-2,-7,-2,0,-1,-1,-1,-2,3.77
755,-4,-14,2,0,-1,0,0,-2,3.775
756,-1,-4,-2,1,0,-1,-3,-2,3.7800000000000002
757,1,3,1,-1,-1,0,0,-1,3.785
758,-4,6,0,0,1,2,0,0,3.79
759,6,-11,-7,-5,-1,-2,-3,-2,3.795
760,-6,-3,-3,1,1,-1,0,0,3.8000000000000003
761,-3,-15,-3,0,0,-1,0,-3,3.805
762,0,-2,1,0,-1,0,0,-1,3.81
763,-1,13,0,-1,-1,0,-1,0,3.815
764,0,-8,2,0,-2,-3,-1,-1,3.8200000000000003
765,-1,-1,-1,-2,-2,-2,-1,-2,3.825
766,-1,3,-1,0,0,-1,-1,0,3.83
767,0,5,2,3,0,-2,-1,0,3.835
768,-1,0,1,0,-1,0,-2,0,3.84
769,5,38,-1,-3,-1,-1,0,2,3.845
770,-2,-20,1,1,0,-1,0,-1,3.85
771,-5,-14,-6,-2,-1,-1,0,0,3.855
772,-1,-28,-4,-2,-3,-1,-1,-1,3.86
773,-4,-8,-3,-2,-2,-2,-4,-2,3.865
774,0,3,-3,-2,-2,0,-1,0,3.87
775,0,5,3,-2,-2,-2,1,-2,3.875
776,-1,9,-3,-2,-2,-2,0,-1,3.88
777,3,-2,-3,1,0,1,0,0,3.8850000000000002
778,-1,7,0,0,-2,-1,-1,-1,3.89
779,-5,-17,-2,-1,0,-2,-2,-1,3.895
780,8,13,1,-1,-2,-1,-1,-2,3.9
781,-4,-3,1,0,-1,-1,-1,-1,3.9050000000000002
782,2,1,1,0,-1,-2,0,-1,3.91
783,0,7,-3,-2,1,0,0,-1,3.915
784,1,6,2,1,2,0,1,3,3.92
785,-1,-2,-1,-1,-1,-2,0,-1,3.9250000000000003
786,-3,-2,-1,-1,-2,0,-1,-1,3.93
787,1,4,0,0,0,-1,-1,0,3.935
788,4,0,-2,-1,-1,0,-1,-3,3.94
789,-9,-11,0,2,1,1,-1,0,3.9450000000000003
790,4,28,-7,-4,0,-2,-1,-1,3.95
791,1,2,0,0,-1,0,0,-1,3.955
792,-4,0,-3,0,-1,-1,-1,0,3.96
793,0,2,2,0,1,0,-1,0,3.9650000000000003
794,0,9,5,1,2,-2,-2,-2,3.97
795,-5,5,-2,-3,-1,-1,0,2,3.975
796,0,14,-3,-5,-4,-2,0,-3,3.98
797,-1,-8,0,0,0,0,1,-1,3.985
798,5,-6,-3,-2,-2,-1,-2,-1,3.99
799,-1,-14,-1,0,-3,-3,-2,0,3.995
800,-2,-2,0,2,1,-1,-1,-1,4.0
801,1,5,1,0,-1,-1,-3,-1,4.005
802,5,13,-3,-4,-3,-1,-2,-1,4.01
803,0,17,2,1,0,-2,-1,-1,4.015
804,-4,-4,-5,-1,2,1,0,1,4.0200000000000005
805,3,-3,-4,-1,0,-1,0,0,4.025
806,-7,-13,-3,-3,-2,-4,-3,-2,4.03
807,3,7,-1,-3,-2,1,-1,-1,4.035
808,-1,1,2,2,1,0,0,-1,4.04
809,-1,3,0,-2,1,1,1,-1,4.045
810,-2,-8,2,1,0,-1,0,-2,4.05
811,0,-5,-2,0,0,0,-1,-2,4.055
812,-4,-15,1,0,1,-1,-1,0,4.0600000000000005
813,-1,0,-1,-1,-2,-2,-1,-1,4.065
814,0,-6,1,1,1,-1,1,1,4.07
815,-3,-26,1,1,-2,-2,-2,-2,4.075
816,1,18,3,-2,-3,-2,-1,-2,4.08
817,-7,-2,-4,-2,-2,-1,-1,-2,4.085
818,-3,-2,-3,-1,-1,-1,-1,0,4.09
819,-2,-12,1,-1,0,0,0,1,4.095
820,2,0,-4,-1,-1,-1,-3,1,4.1
821,0,2,1,0,-1,-3,-1,-2,4.105
822,0,0,-1,2,1,1,0,0,4.11
823,0,14,-2,-6,-3,-2,0,0,4.115
824,1,1,1,-2,0,0,-1,-1,4.12
825,-1,14,-2,-1,0,-2,-3,-1,4.125
826,-3,-7,-1,0,0,0,0,0,4.13
827,3,16,-2,1,-1,-1,-2,-1,4.135
828,-6,-9,-5,-3,-1,-1,2,0,4.14
829,3,-7,-1,-3,-1,-2,0,-1,4.1450000000000005
830,0,-1,-1,-1,-1,-1,-1,-2,4.15
831,-1,4,0,1,1,0,-1,-1,4.155
832,-1,5,1,1,-1,-2,0,-1,4.16
833,2,-1,-3,0,-1,0,-2,0,4.165
834,4,33,2,-2,-1,-1,-1,1,4.17
835,1,15,-2,-1,0,0,-2,0,4.175
836,-3,-8,0,-1,0,-1,-3,-3,4.18
837,-1,-6,1,1,-1,0,1,-1,4.1850000000000005
838,-1,-13,0,-3,-1,-1,1,-2,4.19
839,-3,-5,2,-1,0,0,0,-1,4.195
840,0,-2,0,-1,0,0,-1,-1,4.2
841,3,-17,3,0,2,-1,-2,0,4.205
842,2,-12,-5,-2,-1,0,-2,0,4.21
843,-4,5,-2,-2,-2,-1,-1,-2,4.215
844,-1,-2,-2,1,-1,-1,-1,-1,4.22
845,0,13,-2,-2,-2,-1,1,-1,4.225
846,-3,-2,-1,1,0,0,0,0,4.23
847,2,-1,0,-1,0,-1,-1,-1,4.235
848,1,-3,3,-1,-1,-2,1,0,4.24
849,-2,1,2,2,1,0,1,0,4.245
850,-5,-14,3,2,1,0,-1,0,4.25
851,-1,-7,-4,-1,-3,1,0,0,4.255
852,0,5,3,-1,0,0,0,-1,4.26
853,0,-4,-4,-2,-1,-3,0,-1,4.265
854,0,31,2,-1,-1,-1,0,1,4.2700000000000005
855,-1,-5,1,2,-2,-1,1,-1,4.275
856,-1,-6,1,2,-1,-1,-1,0,4.28
857,-1,4,-1,-2,-2,-1,-2,0,4.285
858,-1,-15,-4,-3,0,-1,-1,-2,4.29
859,-6,-20,0,-1,-1,1,1,0,4.295
860,-8,-28,0,0,0,-2,-1,0,4.3
861,-1,4,1,0,0,-2,0,-1,4.305
862,8,-1,-3,-3,-3,-3,-3,-2,4.3100000000000005
863,2,5,-1,-1,0,-2,0,-2,4.315
864,2,8,1,-2,-2,1,-1,-1,4.32
865,-5,-6,0,-1,-2,0,-2,-2,4.325
866,0,-10,3,-1,0,-2,1,1,4.33
867,-1,1,-1,0,2,-1,-1,-1,4.335
868,-1,4,0,-3,0,-3,-2,0,4.34
869,2,2,-3,-4,-2,-1,0,-1,4.345
870,-3,-4,-5,1,-2,0,0,-1,4.3500000000000005
871,1,-6,-1,-2,0,-1,-1,-1,4.355
872,2,12,-4,1,-2,-1,-1,-2,4.36
873,-3,-21,-6,-2,-1,-1,0,-1,4.365
874,3,19,0,0,0,-1,0,-1,4.37
875,-8,-32,-4,-4,-3,-2,0,0,4.375
876,-1,-10,-2,-2,-1,0,2,1,4.38
877,-2,-10,-1,0,-2,-2,-3,0,4.385
878,-9,-19,7,1,-2,0,0,-1,4.39
879,4,9,2,0,0,1,0,0,4.3950000000000005
880,-3,8,-3,-3,0,0,-1,-1,4.4
881,-3,-2,-2,0,-2,0,-1,-1,4.405
882,-2,1,2,1,-1,0,-2,1,4.41
883,7,13,3,1,0,-3,-3,-1,4.415
884,-9,-11,-3,-2,0,0,-1,-2,4.42
885,3,5,-1,-1,0,0,-1,0,4.425
886,-3,-2,-3,-2,-1,0,-1,0,4.43
887,-1,-2,5,0,-1,1,0,1,4.4350000000000005
888,2,1,-4,1,-3,-3,-1,-1,4.44
889,-6,-4,4,-3,-1,0,0,-3,4.445
890,-1,-5,-2,1,1,-1,1,0,4.45
891,-4,-16,1,-1,-3,-2,0,0,4.455
892,2,-2,0,-1,0,-2,-1,-1,4.46
893,-2,0,0,-1,-1,2,1,-1,4.465
894,-2,-16,-6,-4,0,-1,-3,-2,4.47
895,-2,8,-2,0,0,0,-1,-1,4.4750000000000005
896,2,-4,0,-1,-1,0,-2,-1,4.48
897,2,4,0,1,0,-2,-1,0,4.485
898,2,1,0,-3,-2,-1,-3,-2,4.49
899,-4,8,1,-2,-1,-3,0,1,4.495
900,-1,-2,-3,-4,-2,2,0,0,4.5
901,12,-1,2,-1,1,0,0,-2,4.505
902,-6,-4,-2,-1,-1,-1,1,-2,4.51
903,3,5,-2,-1,-1,0,-3,0,4.515
904,-1,7,-1,0,-1,-1,-1,0,4.5200000000000005
905,0,5,-2,-1,-2,-1,0,1,4.525
906,3,24,-3,-2,-1,-2,-1,-2,4.53
907,0,4,-4,-2,-1,-2,0,-1,4.535
908,-2,-19,5,2,-1,-1,0,-1,4.54
909,-1,12,-5,-1,-2,0,-2,-1,4.545
910,-1,-5,-1,0,-2,-1,-1,-1,4.55
911,0,-4,-2,0,0,0,0,-2,4.555
912,-1,11,-1,-2,0,-1,-1,-1,4.5600000000000005
913,1,6,-1,-1,-1,1,0,-1,4.565
914,-4,-4,1,1,-1,1,0,1,4.57
915,-1,13,-1,-1,0,-1,-3,-2,4.575
916,-1,-15,-4,-3,-1,-2,-1,-2,4.58
917,-4,7,-2,-1,-1,-2,-2,0,4.585
918,1,2,0,1,1,-1,0,1,4.59
919,2,-5,3,-1,-1,0,-1,-1,4.595
920,-4,-2,-3,-1,-2,0,0,-2,4.6000000000000005
921,-10,-15,-1,-1,1,-1,-2,-1,4.605
922,0,-6,1,0,0,1,-2,0,4.61
923,2,-13,0,1,0,0,0,1,4.615
924,2,9,1,-1,-1,-1,-3,-1,4.62
925,-6,-17,1,1,2,1,0,-1,4.625
926,-1,0,-4,-1,-2,-1,-1,-1,4.63
927,-2,5,-4,0,1,0,-1,1,4.635
928,3,11,1,0,0,-1,2,1,4.64
929,0,-2,2,-1,-2,-2,-1,-2,4.6450000000000005
930,-3,11,0,-2,-2,-1,0,-2,4.65
931,1,18,-1,-2,-1,0,-1,-2,4.655
932,0,-2,-2,-1,0,-1,-2,1,4.66
933,1,3,0,1,1,1,0,1,4.665
934,0,-1,0,0,1,-1,0,-1,4.67
935,-3,-3,0,-2,-3,-1,0,-1,4.675
936,-1,9,1,-3,-1,-1,-1,0,4.68
937,7,0,-2,-3,-1,-2,-1,-1,4.6850000000000005
938,2,-4,0,-1,-1,1,1,1,4.69
939,-9,5,-4,0,-1,-2,2,0,4.695
940,-1,-5,1,-3,-1,-1,-1,-1,4.7
941,-1,-3,0,-2,-2,0,0,-1,4.705
942,-3,-25,2,-2,-2,-2,-1,-1,4.71
943,-2,-15,-1,1,-1,-1,-1,0,4.715
944,0,2,-1,1,-1,0,-1,-2,4.72
945,-2,-3,-6,-3,-2,-2,-2,-1,4.7250000000000005
946,0,8,0,-2,-1,-1,-1,-2,4.73
947,-5,-5,-2,-1,0,-1,-1,-2,4.735
948,-1,-2,-3,1,1,-2,-1,-1,4.74
949,-1,-2,3,1,-2,0,0,0,4.745
950,-1,-4,-2,-2,-2,0,-1,-1,4.75
951,-3,-33,3,2,-2,-2,-2,0,4.755
952,1,-1,1,0,-1,0,0,-1,4.76
953,-10,2,1,0,-1,1,0,-2,4.765
954,-3,6,0,0,1,0,-2,-2,4.7700000000000005
955,5,14,-3,-3,-1,-1,-1,-1,4.775
956,-7,-2,-1,-1,-1,-1,-1,-2,4.78
957,-2,-24,5,0,-1,0,-1,1,4.785
958,-2,1,1,0,-3,-1,-1,-2,4.79
959,3,11,-2,-1,-1,-3,-1,-1,4.795
960,2,13,2,0,-2,-1,-1,1,4.8
961,2,9,-5,0,0,0,-2,-1,4.805
962,0,9,-1,-1,1,-2,0,0,4.8100000000000005
963,2,12,1,-2,-2,-2,-1,0,4.815
964,0,-2,-3,-4,-2,-2,-1,-2,4.82
965,2,5,0,1,1,-1,-1,-2,4.825
966,-2,-22,0,-1,-2,0,1,0,4.83
967,-2,-5,-3,-1,-1,0,0,-3,4.835
968,-2,-3,2,0,-1,-1,0,1,4.84
969,-2,0,-3,-3,-1,-1,-3,-2,4.845
970,-1,2,-1,0,-2,-2,0,0,4.8500000000000005
971,4,3,-1,-2,0,-1,-1,-2,4.855
972,-9,-7,1,2,-1,0,1,-1,4.86
973,3,7,-1,2,0,0,0,2,4.865
974,-2,-13,0,-2,0,0,-2,-1,4.87
975,2,16,4,-2,0,1,-1,-2,4.875
976,2,2,-3,2,-2,1,0,-1,4.88
977,-1,-3,-1,-3,0,-2,1,0,4.885
978,-2,-2,-1,-1,1,-1,-1,0,4.89
979,-2,-3,-1,0,-1,1,1,0,4.8950000000000005
980,-1,-4,0,-2,-1,1,1,-2,4.9
981,-2,0,-1,-2,-2,-1,1,3,4.905
982,0,9,-1,-2,-2,-1,-5,-5,4.91
983,0,-5,-2,0,-2,-2,-1,-2,4.915
984,2,-4,-1,2,0,-1,-3,-1,4.92
985,-3,-25,-3,-1,-2,0,0,-1,4.925
986,3,12,-2,0,-1,-3,0,1,4.93
987,-3,-8,-2,1,0,0,0,2,4.9350000000000005
988,-1,-6,0,-2,0,-1,2,0,4.94
989,1,22,-1,-2,-1,-3,-1,-2,4.945
990,5,-3,0,1,-1,-1,-1,-1,4.95
991,-3,0,-1,-1,-1,0,-2,-2,4.955
992,-6,-23,0,-3,0,-1,1,2,4.96
993,0,5,1,0,1,0,0,-1,4.965
994,-2,11,-3,-3,-2,0,1,1,4.97
995,0,-4,-1,-1,0,0,-1,-1,4.9750000000000005
996,-4,11,-4,-2,-1,-1,-1,-1,4.98
997,2,3,3,0,-3,-1,-3,-1,4.985
998,-4,-9,-3,0,-2,-1,0,-1,4.99
999,-4,-6,-2,0,0,0,-1,-1,4.995
1000,6,5,-3,-1,-1,-1,-2,1,5.0
1001,0,4,-4,-4,0,-1,0,-1,5.005
1002,0,2,-6,-2,-1,0,-1,0,5.01
1003,1,-2,-3,0,-1,-1,0,0,5.015
1004,1,-13,-2,-1,1,0,-1,-1,5.0200000000000005
1005,0,3,-1,0,-3,-2,-2,0,5.025
1006,-6,-42,8,-1,1,1,1,0,5.03
1007,-11,7,-6,-5,-3,-3,-2,-1,5.035
1008,1,-5,-5,-1,0,1,0,-1,5.04
1009,-3,-7,-2,-3,-2,-2,0,-1,5.045
1010,6,11,0,2,3,2,1,1,5.05
1011,0,4,-1,-2,-2,-2,-2,-2,5.055
1012,-3,0,1,-1,-1,1,0,-1,5.0600000000000005
1013,0,17,2,-1,0,-2,-3,-1,5.065
1014,1,16,-4,-1,0,-2,-2,-2,5.07
1015,0,-6,0,1,0,-1,-1,-1,5.075
1016,6,11,1,0,0,1,-2,0,5.08
1017,-5,-3,0,1,1,-1,-1,-3,5.085
1018,-3,-7,-2,-4,-4,-3,-1,-1,5.09
1019,-1,-9,1,2,1,-1,-1,-1,5.095
1020,-1,5,0,0,-2,-1,-2,-2,5.1000000000000005
1021,-2,-4,-4,-2,-1,0,-1,-2,5.105
1022,3,3,-1,-1,0,1,1,2,5.11
1023,-8,-3,2,-1,-1,-2,-1,-1,5.115
1024,2,18,-3,-3,-2,-4,-2,0,5.12
1025,4,-12,-2,0,-2,0,0,-1,5.125
1026,-13,-15,-2,0,0,0,-2,-4,5.13
1027,3,-5,-1,-2,-1,0,-2,-2,5.135
1028,1,11,-3,1,-1,-1,-1,-2,5.14
1029,-4,1,3,2,3,1,1,3,5.1450000000000005
1030,1,7,-4,-3,-2,-4,-2,-1,5.15
1031,3,-3,-1,-2,-1,0,1,-1,5.155
1032,-5,-12,1,-3,-2,-2,-1,-1,5.16
1033,6,12,-2,2,1,1,1,1,5.165
1034,0,2,-2,1,0,-1,1,-2,5.17
1035,-1,0,-2,-2,-1,-1,0,2,5.175
1036,2,2,2,-1,-2,-3,-1,0,5.18
1037,-3,0,-1,-2,0,0,-2,-2,5.1850000000000005
1038,1,7,3,0,0,0,-1,-2,5.19
1039,-4,1,2,1,0,1,-1,-1,5.195
1040,2,-2,-2,-2,0,0,-1,1,5.2
1041,-8,-34,3,-2,-1,-2,-2,-2,5.205
1042,-4,-4,-3,-2,-2,-2,-2,0,5.21
1043,3,4,-1,2,0,-1,-1,-2,5.215
1044,0,4,-4,0,0,0,-1,-1,5.22
1045,-2,11,3,1,-2,-1,-1,0,5.2250000000000005
1046,2,5,0,-2,-1,-1,-2,-2,5.23
1047,0,-8,-3,-3,-1,-2,0,1,5.235
1048,0,-7,-1,-3,-1,-2,-1,0,5.24
1049,0,-1,3,-2,1,-1,0,-1,5.245
1050,-3,-6,0,0,-1,0,-2,1,5.25
1051,0,6,-2,0,0,0,-2,-2,5.255
1052,-2,-8,0,0,-1,0,-1,-2,5.26
1053,-3,-24,-1,-3,-3,-2,-1,0,5.265
1054,-1,-4,-3,-1,-1,-1,-2,-1,5.2700000000000005
1055,0,1,-1,-2,1,0,-1,0,5.275
1056,5,-10,-4,-5,-3,-3,-1,-1,5.28
1057,-5,12,-5,-3,-1,-2,-3,-1,5.285
1058,0,-2,-2,0,-1,-2,-1,0,5.29
1059,-2,-6,0,-1,-3,0,0,0,5.295
1060,-5,3,4,2,-1,-1,0,1,5.3
1061,7,5,-2,-3,-1,0,-2,-2,5.305
1062,0,8,-1,-1,0,-1,1,-1,5.3100000000000005
1063,2,0,-1,-1,-2,0,-1,0,5.315
1064,-4,2,0,-1,0,-1,-2,-3,5.32
1065,-1,0,2,2,1,-1,0,0,5.325
1066,-3,-4,-1,-1,-4,-1,-2,-1,5.33
1067,2,-1,0,0,-1,1,2,1,5.335
1068,0,-1,0,-1,0,-3,-1,-1,5.34
1069,0,-1,-3,2,0,1,0,0,5.345
1070,-1,3,-1,0,0,0,0,-2,5.3500000000000005
1071,-3,0,-1,1,0,0,0,0,5.355
1072,-4,-3,-2,0,0,1,1,-2,5.36
1073,0,-1,-4,-2,-1,1,0,-1,5.365
1074,2,-3,-1,-2,-4,-3,-2,0,5.37
1075,-2,2,-1,-4,-2,-2,-3,0,5.375
1076,-2,0,0,-2,-1,-4,-1,-3,5.38
1077,2,-3,-2,0,2,1,2,1,5.385
1078,-2,-18,0,-1,0,0,0,0,5.39
1079,0,9,-2,-1,-1,-1,-1,-2,5.3950000000000005
1080,-2,-3,-2,-3,-1,-2,-1,0,5.4
1081,1,9,2,-1,-2,-3,-4,-1,5.405
1082,0,12,2,0,2,0,1,2,5.41
1083,-4,-19,-1,-1,0,0,-1,-1,5.415
1084,-2,-7,-2,0,-1,0,1,-1,5.42
1085,1,-5,-5,-1,-1,-3,-2,-1,5.425
1086,2,7,-1,-1,2,2,0,-1,5.43
1087,-1,-2,-2,0,1,-2,0,-2,5.4350000000000005
1088,1,12,0,-2,0,1,0,0,5.44
1089,1,-5,-4,-2,-4,0,0,0,5.445
1090,-11,2,1,0,1,1,0,-2,5.45
1091,0,5,0,-2,-2,-1,-2,0,5.455
1092,1,3,-4,1,-2,1,0,-1,5.46
1093,-1,3,2,-1,0,-1,0,-1,5.465
1094,-3,-19,2,2,1,-1,0,0,5.47
1095,0,1,-4,0,-1,-1,0,-3,5.4750000000000005
1096,-2,-1,0,0,-2,-1,-1,1,5.48
1097,-1,4,1,0,0,0,-2,-1,5.485
1098,-1,5,-1,-2,-2,-2,-2,-3,5.49
1099,0,-3,0,0,0,1,2,1,5.495
1100,-1,-7,-1,1,0,1,-3,-2,5.5
1101,0,4,-2,-1,-1,1,0,1,5.505
1102,3,4,-2,-3,-2,-1,-1,-1,5.51
1103,4,12,0,-1,0,-1,-1,-1,5.515
1104,-5,-7,3,2,0,0,1,-2,5.5200000000000005
1105,-2,-4,-5,-2,-1,0,0,0,5.525
1106,-4,1,-2,-3,-4,-2,0,0,5.53
1107,2,10,2,1,1,-1,1,0,5.535
1108,2,-4,-4,-2,-1,-3,-2,-1,5.54
1109,-1,8,5,-2,0,-1,0,-2,5.545
1110,1,1,3,3,1,1,0,-1,5.55
1111,-3,-11,-1,-2,-1,0,-1,-1,5.555
1112,0,-2,2,0,-2,1,0,-1,5.5600000000000005
1113,-3,0,-1,2,-1,-1,-1,1,5.565
1114,1,11,2,-1,-1,-1,-2,0,5.57
1115,-3,-5,-2,0,-3,-1,0,1,5.575
1116,6,6,-1,-1,0,0,-2,0,5.58
1117,-6,8,-1,-2,-3,-1,0,-1,5.585
1118,0,-1,3,0,-1,0,1,-1,5.59
1119,-1,-7,-2,1,-1,1,-1,0,5.595
1120,-4,-7,-3,-4,-3,-3,-1,-1,5.6000000000000005
1121,4,-1,1,1,-1,-1,0,0,5.605
1122,-6,-3,-3,-1,-3,-1,-3,-3,5.61
1123,2,-12,0,0,-2,-2,-1,-2,5.615
1124,-3,-19,0,0,1,-1,0,0,5.62
1125,-3,-1,2,0,-1,-2,-2,-2,5.625
1126,2,7,-2,0,0,0,0,-1,5.63
1127,2,3,0,-1,-1,-3,-1,0,5.635
1128,0,5,0,-1,-1,-2,-1,-2,5.64
1129,-3,-11,0,-1,-1,-1,1,-1,5.6450000000000005
1130,3,1,-5,-1,0,-1,-2,1,5.65
1131,-1,-1,-1,-1,-2,-2,-1,-2,5.655
1132,-1,5,0,-1,-1,0,1,0,5.66
1133,-1,1,-1,1,2,0,0,-1,5.665
1134,1,3,-3,0,-3,-1,0,-1,5.67
1135,-3,-4,-2,-3,0,2,-1,-1,5.675
1136,0,3,-3,1,-1,-2,-3,3,5.68
1137,1,-4,-2,1,-1,-1,-2,0,5.6850000000000005
1138,-4,-2,0,-2,-2,-2,-2,-8,5.69
1139,-1,3,1,3,1,0,0,0,5.695
1140,-1,-4,0,-1,0,0,-1,-4,5.7
1141,1,-2,0,-2,0,-1,0,2,5.705
1142,3,-5,-4,-1,0,-2,-2,4,5.71
1143,-3,-1,-3,-3,-3,-3,-2,-2,5.715
1144,4,19,-1,0,2,2,1,3,5.72
1145,0,-3,-2,-2,-3,-1,-2,-3,5.7250000000000005
1146,-1,-1,-1,0,1,1,1,-1,5.73
1147,2,23,-4,-2,-2,-3,-2,-1,5.735
1148,-5,-12,1,1,-1,-3,-2,-1,5.74
1149,-2,-14,-3,0,0,-1,0,0,5.745
1150,0,12,2,2,0,-1,-1,-1,5.75
1151,0,8,-2,-3,-1,-1,-1,-1,5.755
1152,2,-2,1,-2,-1,1,1,0,5.76
1153,0,-5,-1,-1,-1,-1,-1,-1,5.765
1154,6,8,-5,-2,1,1,1,0,5.7700000000000005
1155,-1,-13,2,2,0,-1,-2,-1,5.775
1156,-8,-8,-3,-1,-1,-1,-1,-2,5.78
1157,-9,-14,0,-2,-1,0,-1,-2,5.785
1158,1,2,-1,-2,-1,-1,-1,-1,5.79
1159,4,-1,-2,-2,0,0,-1,-1,5.795
1160,-5,-12,7,-1,0,1,0,-1,5.8
1161,4,7,-2,0,-1,2,0,0,5.805
1162,-7,-9,2,-1,0,-3,0,-1,5.8100000000000005
1163,-6,-11,4,0,-1,0,0,-2,5.815
1164,2,-1,-1,-1,-1,-1,-2,0,5.82
1165,-1,4,0,-2,0,-2,-2,-1,5.825
1166,-1,-4,0,0,-1,-1,1,1,5.83
1167,-1,4,-2,-2,-1,-1,0,0,5.835
1168,-2,8,-3,-1,-2,-3,-1,-2,5.84
1169,1,6,4,0,1,-1,0,-1,5.845
1170,-3,-39,-3,-3,-3,-3,-3,-2,5.8500000000000005
1171,0,-5,-2,1,-1,-1,0,1,5.855
1172,2,-10,-2,0,0,0,0,0,5.86
1173,-3,-5,-5,-4,0,-1,-1,-1,5.865
1174,-2,-5,-1,-1,-3,-2,-1,1,5.87
1175,-2,-8,3,0,-1,2,0,-1,5.875
1176,-4,3,-1,-1,1,-1,-2,-3,5.88
1177,-2,2,-3,-1,-1,-1,1,-1,5.885
1178,0,-3,0,0,-1,-1,0,0,5.89
1179,0,2,-1,0,0,0,-2,0,5.8950000000000005
1180,8,9,-3,-1,-2,-1,-2,0,5.9
1181,-3,1,3,0,-3,-1,-2,-2,5.905
1182,-1,2,1,-1,1,1,-2,0,5.91
1183,-2,1,0,-1,-1,0,-1,-1,5.915
1184,-2,0,0,-1,-5,-1,0,-2,5.92
1185,0,-6,-5,-2,-1,0,0,0,5.925
1186,2,3,2,1,1,1,0,1,5.93
1187,-6,-10,-1,-1,-2,-1,-1,-2,5.9350000000000005
1188,-2,0,1,0,0,-1,-1,0,5.94
1189,6,-24,-3,-1,-1,-3,-3,-2,5.945
1190,0,12,-2,0,0,0,0,-1,5.95
1191,-5,-20,5,-1,-2,-1,1,-1,5.955
1192,-5,-9,-7,-1,-2,-2,0,-2,5.96
1193,1,16,-2,1,0,0,-1,0,5.965
1194,2,12,4,-1,1,0,1,1,5.97
1195,-5,5,-1,0,0,-1,0,-1,5.9750000000000005
1196,-2,-8,3,-1,-1,-2,0,-1,5.98
1197,0,6,1,-2,0,2,0,0,5.985
1198,1,-1,-2,1,-2,-1,-1,-2,5.99
1199,1,4,-1,0,2,1,-1,1,5.995
1200,4,15,-1,-1,-1,1,1,2,6.0
1201,-8,-7,3,0,-1,0,1,-2,6.005
1202,-3,-3,-1,-3,-2,1,0,1,6.01
1203,1,0,0,-3,-2,-2,-2,-2,6.015000000000001
1204,-2,-10,-3,-2,-1,0,-1,-3,6.0200000000000005
1205,1,6,-1,1,1,0,0,0,6.025
1206,0,-17,1,2,-1,-1,0,-1,6.03
1207,-6,0,-3,0,0,-1,-3,-1,6.035
1208,2,30,1,-3,-2,1,-1,-1,6.04
1209,-3,-26,-3,0,-2,-1,-2,-2,6.045
1210,-2,-1,-2,1,0,0,-1,0,6.05
1211,3,14,-3,-2,-1,0,-1,-1,6.055
1212,-2,3,-1,-2,-1,-2,-3,-2,6.0600000000000005
1213,4,-11,-5,0,1,3,0,1,6.065
1214,-12,-7,-1,-2,-2,-2,0,-2,6.07
1215,-2,-9,2,-1,-3,-1,-1,-1,6.075
1216,0,-4,-4,0,2,-1,0,-1,6.08
1217,1,15,0,-2,0,-2,-1,0,6.085
1218,0,-1,-2,-4,-3,-1,-2,-1,6.09
1219,1,9,-1,0,1,-1,1,-1,6.095
1220,1,10,0,4,1,-2,1,-1,6.1000000000000005
1221,1,13,-3,0,-1,-3,-2,0,6.105
1222,0,9,0,-2,-3,-3,-2,-1,6.11
1223,-2,-4,-3,0,0,-1,1,0,6.115
1224,-2,-4,0,1,-2,-2,-2,1,6.12
1225,6,12,3,1,1,-2,0,-2,6.125
1226,-7,-22,0,-2,-2,-2,-2,-3,6.13
1227,0,-7,-1,-1,1,0,1,0,6.135
1228,-3,-10,1,-1,0,0,-1,-2,6.140000000000001
1229,-1,17,-1,-3,-1,-1,-1,-2,6.1450000000000005
1230,1,-1,3,3,2,2,-2,1,6.15
1231,4,25,-5,1,-1,-2,-3,-1,6.155
1232,-1,-8,-3,-1,-1,-1,0,0,6.16
1233,-8,-8,-1,-2,-1,-1,1,-1,6.165
1234,1,7,-2,-2,-2,0,0,-2,6.17
1235,3,6,-2,-3,-3,-1,-1,1,6.175
1236,10,27,-6,-1,-2,0,-2,0,6.18
1237,-3,-4,1,2,0,0,-1,-2,6.1850000000000005
1238,4,10,-1,0,1,0,-1,-1,6.19
1239,2,3,-1,1,-3,-2,-2,0,6.195
1240,-2,-5,1,-1,-2,-3,-1,-1,6.2
1241,-4,-8,-5,-3,-2,-1,1,-1,6.205
1242,0,-22,-3,1,2,-1,-1,1,6.21
1243,-3,-10,-3,0,2,0,-2,-1,6.215
1244,-1,-36,6,1,1,2,1,0,6.22
1245,0,3,-2,0,-1,-1,1,1,6.2250000000000005
1246,0,1,-2,-2,1,-2,0,-1,6.23
1247,-2,0,1,0,0,-1,0,-2,6.235
1248,3,-2,1,-2,-2,-2,-1,-1,6.24
1249,-5,0,-3,-2,-2,-1,-2,-2,6.245
1250,-1,-2,-4,-1,0,0,0,0,6.25
1251,-1,-4,2,-1,-2,-1,-1,-1,6.255
1252,-7,-2,0,0,-1,-2,-2,-2,6.26
1253,2,-17,0,-3,-2,-2,-1,-2,6.265000000000001
1254,-7,-6,2,-2,-1,0,-1,-1,6.2700000000000005
1255,-1,-11,-5,-3,-1,-1,0,0,6.275
1256,1,12,2,0,0,-2,-2,-1,6.28
1257,-1,1,0,-3,-3,-3,-1,-2,6.285
1258,-1,0,-5,-2,0,0,0,-1,6.29
1259,-2,-10,2,0,-1,-1,0,-1,6.295
1260,1,2,0,0,-1,1,0,0,6.3
1261,-2,-1,3,2,-1,0,-2,0,6.305
1262,3,16,6,0,-1,-1,-1,-3,6.3100000000000005
1263,-17,-17,-5,-7,-5,-2,-1,-2,6.315
1264,-4,-5,-3,-1,0,0,0,0,6.32
1265,-1,18,-5,1,0,1,-1,-1,6.325
1266,2,-12,-4,-2,1,1,3,0,6.33
1267,-3,2,0,1,-1,-2,-2,-1,6.335
1268,-2,10,4,2,1,0,-2,1,6.34
1269,-4,-12,6,3,-2,-1,-1,-1,6.345
1270,-1,-4,-5,0,-1,-1,-1,-1,6.3500000000000005
1271,6,5,1,3,2,2,0,-1,6.355
1272,-8,-22,1,-5,-4,-2,0,-1,6.36
1273,1,8,-1,0,0,-1,-1,-1,6.365
1274,1,8,2,4,-2,-3,-2,0,6.37
1275,0,-11,5,-3,-1,0,0,-1,6.375
1276,-3,1,-7,-2,0,-2,-2,-2,6.38
1277,1,-3,0,-2,-2,-1,-1,-1,6.385
1278,-3,-7,-2,-4,-3,-3,-2,-3,6.390000000000001
1279,3,7,-2,1,-1,0,-1,2,6.3950000000000005
1280,2,16,-1,-1,-1,-2,1,-1,6.4
1281,-3,-18,-3,0,0,-1,0,0,6.405
1282,12,54,1,1,1,0,-1,0,6.41
1283,-4,3,-2,-4,-4,-1,-1,-3,6.415
1284,0,-11,-6,-4,-2,-1,-1,1,6.42
1285,-2,-6,3,1,1,0,-1,2,6.425
1286,-2,-8,-5,-1,-2,-1,0,-2,6.43
1287,-2,10,-4,-1,0,-1,0,-2,6.4350000000000005
1288,2,18,4,4,1,2,2,0,6.44
1289,-4,-15,-11,-6,-2,0,0,-2,6.445
1290,-5,-10,-9,-11,-5,-3,-3,-1,6.45
1291,5,14,1,0,2,-1,1,0,6.455
1292,-2,-9,0,-2,1,1,-3,-2,6.46
1293,5,13,3,4,0,-2,0,0,6.465
1294,1,-8,-1,0,0,-1,-2,-1,6.47
1295,-5,-29,-1,2,-2,0,0,0,6.4750000000000005
1296,0,-8,-2,-2,-2,-2,-2,-1,6.48
1297,-1,-6,-1,0,1,1,-1,-1,6.485
1298,-5,-44,9,-2,-3,-1,-1,-1,6.49
1299,-7,3,0,-1,-1,0,-2,-3,6.495
1300,0,3,3,0,-1,-2,-1,-1,6.5
1301,-5,-21,-4,-3,-1,-2,-2,-2,6.505
1302,-3,-1,-1,3,0,1,1,1,6.51
1303,-8,-23,7,0,0,-1,0,-2,6.515000000000001
1304,0,-6,-6,-1,-1,-3,-2,-1,6.5200000000000005
1305,8,0,-1,3,0,-2,-2,-1,6.525
1306,-8,2,-4,1,-1,-1,0,-2,6.53
1307,7,3,-3,1,-1,0,-1,1,6.535
1308,-3,-2,-8,-5,-2,-1,0,0,6.54
1309,7,9,1,-1,-1,-2,-3,-1,6.545
1310,1,31,3,-3,-2,1,0,0,6.55
1311,3,-2,-2,-1,0,0,0,0,6.555
1312,1,3,-1,3,1,0,0,0,6.5600000000000005
1313,-5,3,5,2,-1,0,-1,-1,6.565
1314,2,-5,2,1,2,1,-1,-1,6.57
1315,-4,3,-2,-3,-1,-2,-1,0,6.575
1316,-1,-5,-1,-2,-1,0,-2,-1,6.58
1317,-3,-12,4,2,0,-1,0,0,6.585
1318,-9,-11,2,0,-1,-1,-1,0,6.59
1319,8,10,-5,-3,-1,-1,-2,0,6.595
1320,8,4,-4,-1,-1,0,-1,1,6.6000000000000005
1321,-6,-7,0,0,0,-1,-2,0,6.605
1322,0,-1,6,1,0,1,0,1,6.61
1323,0,7,-3,0,-1,-1,-2,0,6.615
1324,-1,3,1,0,-1,-2,-1,-2,6.62
1325,1,12,2,-2,-1,0,1,0,6.625
1326,1,-3,-1,2,-1,0,-1,-1,6.63
1327,3,6,3,1,-2,0,-1,1,6.635
1328,-3,-8,-2,0,-2,-1,0,-2,6.640000000000001
1329,5,24,-6,-5,-3,-3,-2,1,6.6450000000000005
1330,0,-2,-2,-2,0,-3,-1,0,6.65
1331,-12,4,5,1,0,0,-1,-1,6.655
1332,-4,-5,0,-3,-1,0,-2,1,6.66
1333,-1,3,-1,-1,0,2,-1,0,6.665
1334,0,2,-2,1,0,0,-2,0,6.67
1335,2,-4,-1,-1,-1,0,0,-2,6.675
1336,4,1,4,0,-1,-1,-2,-2,6.68
1337,-5,-15,-1,-4,-1,2,2,0,6.6850000000000005
1338,0,2,-3,-2,-3,-2,-3,-2,6.69
1339,0,-5,0,2,1,-2,1,-1,6.695
1340,-4,-10,-1,-2,-1,-2,0,-1,6.7
1341,0,-3,-1,-3,-1,-1,-2,-1,6.705
1342,0,1,-1,-1,0,-2,-1,0,6.71
1343,2,-14,-4,-1,-2,0,0,1,6.715
1344,-4,-6,-7,-2,-1,0,2,0,6.72
1345,-3,21,5,0,-2,-1,-3,-1,6.7250000000000005
1346,-3,-13,0,-1,0,0,3,0,6.73
1347,-2,-2,-6,-4,-1,-4,-3,-2,6.735
1348,-8,5,-5,2,-2,0,2,1,6.74
1349,1,-2,-1,-1,-1,-2,0,0,6.745
1350,0,-5,-3,7,-3,-3,-4,-2,6.75
1351,-6,-7,-2,-8,-2,-1,-1,-1,6.755
1352,-3,0,2,-1,-1,2,0,-1,6.76
1353,6,3,0,0,0,-2,0,0,6.765000000000001
1354,-2,8,-1,0,-1,1,-3,-1,6.7700000000000005
1355,4,0,1,3,0,0,-2,-1,6.775
1356,2,-21,-6,-2,0,-1,-2,-1,6.78
1357,-6,4,1,-2,-2,-2,0,-2,6.785
1358,-2,-9,2,-1,-1,2,2,2,6.79
1359,-3,2,5,4,0,0,2,0,6.795
1360,-6,-11,5,-3,-3,-4,-4,-2,6.8
1361,5,-2,-4,4,0,0,0,0,6.805
1362,-1,6,-1,0,0,-3,-3,-2,6.8100000000000005
1363,-2,0,2,-2,-2,-4,-2,-2,6.815
1364,-1,-10,9,2,2,1,0,0,6.82
1365,3,7,-2,-1,-1,1,-3,-3,6.825
1366,-16,-37,9,2,3,3,-4,-1,6.83
1367,4,4,3,0,1,3,9,3,6.835
1368,-7,3,0,1,-2,0,0,0,6.84
1369,-1,16,4,2,-3,-4,-1,-3,6.845
1370,20,41,-12,-5,-1,-6,2,-1,6.8500000000000005
1371,2,7,-3,-3,-4,1,-8,0,6.855
1372,-4,5,-4,-3,1,4,-10,-3,6.86
1373,13,12,-9,18,-4,-6,22,-2,6.865
1374,-10,4,5,-23,-3,-2,11,12,6.87
1375,-10,10,5,0,0,-6,7,-20,6.875
1376,14,6,3,-2,0,-3,-14,5,6.88
1377,-14,3,12,-1,1,2,-16,-2,6.885
1378,4,-1,-5,8,0,2,1,-3,6.890000000000001
1379,4,3,-5,0,-1,0,1,9,6.8950000000000005
1380,-8,-25,2,-6,-3,-2,-1,-7,6.9
1381,-3,-14,0,-2,1,1,-1,-3,6.905
1382,3,-1,-3,3,0,-1,-1,-1,6.91
1383,4,13,-1,-2,0,3,-7,0,6.915
1384,-1,18,-4,6,0,-1,6,3,6.92
1385,-1,-7,-2,-9,-1,-2,2,4,6.925
1386,2,28,-7,-1,0,-1,-4,-3,6.93
1387,-2,-34,-3,4,3,-1,-4,0,6.9350000000000005
1388,9,-24,-7,-6,-5,-5,0,-4,6.94
1389,-15,-17,5,-1,1,4,-6,5,6.945
1390,0,36,13,24,5,8,64,-6,6.95
1391,28,14,-24,-9,-9,-14,-32,15,6.955
1392,18,-11,10,-17,2,-4,17,9,6.96
1393,-25,33,12,-11,-1,2,-21,-35,6.965
1394,-47,-32,15,13,0,0,33,3,6.97
1395,-37,-31,-17,10,-6,2,19,9,6.9750000000000005
1396,22,-11,22,-6,-6,-10,-17,-41,6.98
1397,-36,1,17,28,2,1,-27,-19,6.985
1398,80,-2,-31,-56,-9,-6,-26,-10,6.99
1399,-30,39,15,-10,4,4,12,6,6.995
1400,-8,2,-16,22,1,4,8,22,7.0
1401,3,9,9,12,3,2,6,16,7.005
1402,8,-2,-25,-10,-6,-4,-17,7,7.01
1403,9,11,-10,-9,-2,-3,7,29,7.015000000000001
1404,11,22,-2,-8,5,5,3,15,7.0200000000000005
1405,34,-14,10,23,2,-1,8,-10,7.025
1406,2,46,19,37,5,-6,-14,-26,7.03
1407,-32,-64,-9,1,-6,-7,-22,-20,7.035
1408,-20,12,-14,-31,-3,5,-9,-38,7.04
1409,32,-13,-29,-33,-7,-5,11,27,7.045
1410,-26,-19,19,-17,2,3,-9,-3,7.05
1411,-5,13,-7,28,5,2,2,11,7.055
1412,17,19,5,54,5,3,15,17,7.0600000000000005
1413,1,-17,-5,-14,-3,-5,-7,-13,7.065
1414,-11,-15,-1,-1,-1,0,-15,12,7.07
1415,32,-6,38,42,8,2,2,4,7.075
1416,-54,-79,-21,21,2,5,3,-14,7.08
1417,-3,38,-45,-87,-10,-3,7,-1,7.085
1418,13,-8,-3,-4,4,-1,-5,-6,7.09
1419,26,-6,15,25,4,3,-2,41,7.095
1420,-36,15,10,-32,-3,-11,-30,-42,7.1000000000000005
1421,-13,-2,-8,19,3,6,24,9,7.105
1422,11,14,-1,-3,-1,1,-1,-9,7.11
1423,-8,-23,-21,-3,-1,3,10,1,7.115
1424,0,-40,22,13,-3,-1,-26,-34,7.12
1425,-5,-42,-19,-49,-10,-13,-2,-6,7.125
1426,-16,3,7,15,-1,-2,-19,12,7.13
1427,-29,-21,-8,-9,-1,2,19,-13,7.135
1428,75,36,-9,4,2,2,11,57,7.140000000000001
1429,-5,5,18,35,3,-3,-14,-12,7.1450000000000005
1430,-29,-50,-8,-14,-2,-2,-5,-15,7.15
1431,8,6,4,-3,-2,-6,-9,-24,7.155
1432,-21,-16,-11,-1,-2,1,4,-3,7.16
1433,8,-16,15,28,2,3,6,25,7.165
1434,7,1,2,59,6,4,3,16,7.17
1435,3,-8,-24,-81,-6,-2,-4,-25,7.175
1436,-9,20,6,-6,-1,-2,9,17,7.18
1437,13,-2,-1,41,1,-5,-3,16,7.1850000000000005
1438,-26,-11,5,-3,-2,-1,-6,-7,7.19
1439,-3,-27,23,2,0,6,4,-5,7.195
1440,2,18,-25,8,-6,-8,-5,-15,7.2
1441,-17,5,23,32,8,4,-6,-24,7.205
1442,-11,-4,-6,-50,-9,-9,-5,45,7.21
1443,25,30,16,-14,1,2,-2,-53,7.215
1444,8,-28,-7,-15,-1,-1,4,0,7.22
1445,-20,-11,-9,-21,-3,1,3,20,7.2250000000000005
1446,-1,17,-7,4,0,0,0,5,7.23
1447,1,1,-7,-17,-6,-4,0,7,7.235
1448,-3,21,12,2,2,0,3,9,7.24
1449,14,-16,-5,16,2,1,-9,-6,7.245
1450,-4,-60,4,-21,-5,0,6,1,7.25
1451,-5,22,-2,27,-5,-9,-10,-11,7.255
1452,21,-2,-6,-26,-1,3,-2,-1,7.26
1453,-11,11,-16,-11,-6,-1,-12,-16,7.265000000000001
1454,-6,-3,-11,-26,-5,-6,17,3,7.2700000000000005
1455,5,-3,-2,37,7,2,4,12,7.275
1456,-10,15,2,-8,-3,2,13,15,7.28
1457,13,-8,-4,-41,-4,-1,-2,8,7.285
1458,-1,31,23,54,2,-2,-24,-42,7.29
1459,-3,10,-11,-26,0,0,0,-10,7.295
1460,1,33,-5,-12,-5,-2,-4,16,7.3
1461,-1,-27,-23,19,0,2,11,-1,7.305
1462,27,-3,-4,0,-2,4,10,58,7.3100000000000005
1463,-32,-1,2,10,0,-2,-14,-67,7.315
1464,-28,-8,7,8,-6,-11,-15,-36,7.32
1465,12,2,20,17,3,2,2,5,7.325
1466,-32,5,-18,-53,-6,-5,1,2,7.33
1467,48,7,7,11,2,3,-2,32,7.335
1468,3,-1,-3,25,-2,-1,2,5,7.34
1469,-5,11,11,24,1,0,3,-1,7.345
1470,-4,-44,-7,7,2,0,-8,-42,7.3500000000000005
1471,5,-7,-25,-21,-10,-3,9,36,7.355
1472,-10,5,5,6,0,0,-4,-7,7.36
1473,10,3,18,27,1,-3,-9,-3,7.365
1474,14,44,-13,-17,-3,1,-3,-3,7.37
1475,-13,2,-2,-5,3,1,-4,-6,7.375
1476,-4,-30,-1,-14,0,-2,12,21,7.38
1477,-6,6,4,4,0,-1,3,3,7.385
1478,14,-11,-1,-11,0,2,0,5,7.390000000000001
1479,-17,0,22,26,3,3,2,-18,7.3950000000000005
1480,-7,-9,-26,-36,-17,-8,-5,8,7.4
1481,7,-2,6,-24,0,2,3,0,7.405
1482,16,-1,-8,18,2,2,0,31,7.41
1483,-19,20,20,-9,-1,-2,-7,-60,7.415
1484,-4,27,12,10,9,7,1,0,7.42
1485,-6,7,-23,-17,-5,-4,-2,-12,7.425
1486,3,20,4,10,1,2,4,9,7.43
1487,39,-12,-17,-35,-3,-4,4,39,7.4350000000000005
1488,-6,-36,4,49,-1,-4,-7,-5,7.44
1489,-5,0,-4,-42,-6,-5,0,-4,7.445
1490,-9,1,26,33,10,6,1,-1,7.45
1491,-3,-2,-29,-38,-13,-10,-7,6,7.455
1492,1,26,20,37,10,4,11,2,7.46
1493,6,-17,-26,-56,-3,-1,-4,11,7.465
1494,-20,-44,-2,11,-2,-4,-10,-28,7.47
1495,-10,2,3,13,0,0,-3,2,7.4750000000000005
1496,27,15,-7,-12,0,0,4,23,7.48
1497,9,7,34,45,4,4,8,19,7.485
1498,14,-7,-18,-24,3,6,6,-29,7.49
1499,-34,-2,6,-9,-11,-8,-10,5,7.495
1500,46,-7,-9,-14,-1,-2,0,5,7.5
1501,35,29,3,5,1,1,10,38,7.505
1502,-54,-17,8,17,-4,-1,-4,-42,7.51
1503,-20,-13,29,60,9,6,-2,-25,7.515000000000001
1504,-18,1,-17,-64,-8,0,8,46,7.5200000000000005
1505,7,-20,13,22,2,-1,-10,-35,7.525
1506,23,11,-1,-40,-7,-7,-6,19,7.53
1507,13,7,-10,-15,-1,0,1,6,7.535
1508,-24,-3,12,16,3,1,-7,-24,7.54
1509,-7,-14,5,41,3,4,5,9,7.545
1510,4,3,-10,-20,-1,0,1,12,7.55
1511,4,4,1,-26,-2,-4,-3,11,7.555
1512,11,3,-4,11,0,2,6,-2,7.5600000000000005
1513,2,14,4,1,-1,-3,-6,-10,7.565
1514,-5,16,4,16,-2,-5,-4,-14,7.57
1515,9,5,11,30,2,2,1,8,7.575
1516,11,-85,-21,-58,-5,3,-1,-6,7.58
1517,-42,-1,-10,-9,-2,-6,-3,-9,7.585
1518,17,2,-1,11,-5,-3,-1,17,7.59
1519,11,-37,-10,-1,2,1,6,8,7.595
1520,-1,1,20,22,4,0,-7,-6,7.6000000000000005
1521,-14,8,-8,-17,-4,-4,-10,-28,7.605
1522,-19,-2,1,8,-3,2,2,-1,7.61
1523,9,31,3,-14,-1,1,3,7,7.615
1524,-5,-2,-4,30,8,2,1,-5,7.62
1525,-2,-13,-23,-39,-7,-4,-3,9,7.625
1526,-2,-7,2,6,-2,-3,-5,-6,7.63
1527,-7,9,7,20,1,-2,0,-3,7.635
1528,17,9,-17,-1,-1,-2,-2,37,7.640000000000001
1529,7,8,3,-11,-1,3,2,-19,7.6450000000000005
1530,-26,15,-4,8,-1,-4,-6,-7,7.65
1531,-8,-20,-6,-14,-3,-2,-5,-7,7.655
1532,-15,-9,21,39,6,2,3,7,7.66
1533,-12,-18,-12,-10,-5,-2,2,-9,7.665
1534,25,25,7,-20,-5,-3,-9,-3,7.67
1535,-11,-6,0,21,1,4,2,13,7.675
1536,-6,5,-4,-25,-6,-3,-5,-18,7.68
1537,-14,3,13,18,3,3,4,3,7.6850000000000005
1538,0,-13,-9,3,4,0,6,6,7.69
1539,27,-6,-12,-6,2,1,0,3,7.695
1540,-20,8,6,31,3,2,5,0,7.7
1541,6,3,-9,-16,-8,-6,-4,14,7.705
1542,-3,-5,-3,-18,0,-1,2,8,7.71
1543,-3,2,5,2,3,3,0,-6,7.715
1544,-2,27,16,5,0,-4,-9,-18,7.72
1545,7,-4,8,24,1,1,3,5,7.7250000000000005
1546,8,-15,-13,-6,-1,-2,2,16,7.73
1547,19,36,2,-12,-3,-5,-9,-13,7.735
1548,-3,-43,12,10,-1,1,0,-15,7.74
1549,0,-30,-8,-19,-2,0,0,4,7.745
1550,9,19,10,19,2,0,2,0,7.75
1551,17,-35,-2,-8,-2,5,8,15,7.755
1552,-33,11,-14,-15,-10,-10,-10,-32,7.76
1553,0,1,3,0,3,0,-2,19,7.765000000000001
1554,-17,-9,9,4,2,2,-2,-38,7.7700000000000005
1555,23,1,-3,8,3,1,2,7,7.775
1556,3,26,6,2,2,1,2,3,7.78
1557,2,-10,-8,-21,-3,0,3,-6,7.785
1558,-4,21,13,3,-3,-1,-2,6,7.79
1559,-17,4,-3,13,0,-2,-4,11,7.795
1560,-10,7,-3,-22,-9,-5,-5,-20,7.8
1561,12,16,4,1,1,-1,-2,0,7.805000000000001
1562,-1,-31,-3,12,4,2,3,7,7.8100000000000005
1563,-8,39,-6,-1,0,-3,1,-9,7.815
1564,15,6,-9,-9,-2,-2,-3,9,7.82
1565,-11,6,6,18,2,-1,-4,4,7.825
1566,37,6,-10,-19,-3,0,2,-8,7.83
1567,-15,-13,2,2,-2,2,7,20,7.835
1568,13,0,-6,-5,-4,-6,-9,-37,7.84
1569,0,10,2,-1,-1,-1,2,5,7.845
1570,-15,-4,1,9,0,1,-13,-18,7.8500000000000005
1571,-23,1,3,0,-2,-6,-5,-9,7.855
1572,11,-20,-7,-13,0,3,3,15,7.86
1573,0,-1,4,10,1,1,0,-5,7.865
1574,28,64,-4,-8,-2,-5,0,7,7.87
1575,-4,40,-11,-15,-7,-6,-3,-5,7.875
1576,-10,-16,11,16,3,4,1,1,7.88
1577,-2,9,-13,-20,0,-1,-1,-3,7.885
1578,-16,-32,10,15,1,1,2,7,7.890000000000001
1579,8,-5,-3,-9,0,0,0,-2,7.8950000000000005
1580,12,17,2,-17,-1,1,4,12,7.9
1581,-7,-16,-12,3,-2,-3,-8,-6,7.905
1582,-2,-4,13,26,1,0,-2,-4,7.91
1583,-6,-6,-10,-37,-5,-3,-3,-3,7.915
1584,-6,6,0,11,0,1,4,-4,7.92
1585,18,-37,-2,-9,-3,1,1,6,7.925
1586,-13,-7,-8,-5,0,-2,-2,-4,7.930000000000001
1587,-13,-37,-2,11,1,2,-4,-1,7.9350000000000005
1588,-19,-2,4,0,-2,-6,-5,-1,7.94
1589,13,-6,11,23,7,3,-1,-3,7.945
1590,27,6,-23,-33,-8,-2,8,-1,7.95
1591,-9,2,22,19,2,4,5,7,7.955
1592,-17,12,-5,-23,-3,-6,-5,-9,7.96
1593,-14,7,-2,-2,-5,-3,-5,-13,7.965
1594,26,-14,0,6,2,2,1,17,7.97
1595,27,-8,-2,6,3,2,2,2,7.9750000000000005
1596,-9,24,4,0,0,-2,-1,-1,7.98
1597,30,5,20,4,2,3,5,11,7.985
1598,-29,1,-4,4,2,1,-1,0,7.99
1599,-2,7,-9,-1,-2,-4,-3,-5,7.995
1600,2,-20,-4,8,0,-1,0,5,8.0
1601,3,26,-6,-14,-1,-2,-2,-3,8.005
1602,13,43,-1,-8,-5,-7,-7,-5,8.01
1603,-13,-5,-13,-8,-5,-1,-3,-4,8.015
1604,-2,-33,2,-1,-4,0,2,5,8.02
1605,-3,-1,2,7,1,2,3,-3,8.025
1606,-11,-10,6,4,1,0,-4,-8,8.03
1607,-1,-9,-10,-16,-3,-4,-2,-2,8.035
1608,14,20,3,0,2,3,0,4,8.040000000000001
1609,-9,20,3,2,1,-2,-2,-4,8.045
1610,-26,-22,-12,-10,-3,-1,2,4,8.05
1611,33,21,9,4,1,0,-3,2,8.055
1612,13,4,-8,-5,-1,2,2,5,8.06
1613,-11,-14,2,7,-2,-2,-4,-4,8.065
1614,-3,-6,7,5,0,2,2,0,8.07
1615,-38,-8,1,4,0,1,5,4,8.075
1616,0,-27,-3,-3,1,0,5,-1,8.08
1617,-21,-11,-8,3,1,0,-4,-8,8.085
1618,0,-1,-2,-9,-3,-5,-10,-6,8.09
1619,36,24,6,-6,-2,-2,-3,2,8.095
1620,11,-5,11,30,4,3,0,5,8.1
1621,-23,-15,-23,-44,-9,-5,0,0,8.105
1622,0,-3,-5,4,-2,-1,2,1,8.11
1623,2,-3,1,3,1,0,-4,-3,8.115
1624,-21,-7,-2,0,2,0,2,-1,8.120000000000001
1625,13,3,-1,4,1,0,-1,-4,8.125
1626,5,15,3,4,1,1,1,9,8.13
1627,3,-8,-9,6,0,2,2,0,8.135
1628,11,7,-9,-22,-5,-7,-8,-9,8.14
1629,-10,-14,-2,1,-3,-6,-6,-4,8.145
1630,-13,-32,1,-4,-1,-3,-2,-1,8.15
1631,-7,-25,4,13,1,-1,0,-4,8.155
1632,-3,4,0,3,1,4,3,4,8.16
1633,3,7,-2,-3,-5,-2,2,1,8.165000000000001
1634,6,0,5,5,0,1,3,-1,8.17
1635,-10,-11,-3,-8,-3,-3,-3,-5,8.175
1636,-4,33,8,10,2,1,0,-2,8.18
1637,6,-22,-6,-8,1,0,1,8,8.185
1638,14,-7,-4,-4,-1,-2,-1,-1,8.19
1639,-18,-3,-3,4,0,-2,-4,-8,8.195
1640,11,13,4,-3,-1,-2,-2,0,8.2
1641,-14,-12,-11,-9,-2,-1,0,1,8.205
1642,19,4,3,2,1,-1,-2,0,8.21
1643,-15,19,-4,-8,-2,-2,-1,-5,8.215
1644,7,-11,-4,4,-2,-3,-1,4,8.22
1645,-2,29,13,13,4,7,3,4,8.225
1646,-4,-29,-6,-6,-4,-2,-1,-3,8.23
1647,-1,14,-4,-2,0,-2,-1,-4,8.235
1648,-8,-18,-5,3,0,-1,-1,-1,8.24
1649,9,-6,5,0,0,2,2,0,8.245000000000001
1650,-2,11,-5,-2,2,3,2,2,8.25
1651,6,-18,6,7,-3,-3,-1,1,8.255
1652,11,-7,-3,-6,0,1,-1,-3,8.26
1653,-15,46,-3,9,-2,-4,-1,1,8.265
1654,-16,-2,-1,1,0,-1,-4,-1,8.27
1655,0,-21,-5,-4,-1,0,-1,-1,8.275
1656,2,-2,-9,-11,-4,-3,-2,-1,8.28
1657,-8,-10,4,5,1,-2,-4,-7,8.285
1658,-5,4,11,7,2,0,1,-1,8.290000000000001
1659,5,0,-3,-5,-2,0,1,1,8.295
1660,-8,-4,-7,-3,-3,-3,-3,-4,8.3
1661,6,-3,-7,5,1,2,0,-3,8.305
1662,1,13,-6,-1,-2,-1,-1,1,8.31
1663,4,-29,-1,-8,-4,-3,-2,-1,8.315
1664,-4,28,4,-3,0,3,1,0,8.32
1665,1,-24,0,0,-2,0,0,1,8.325
1666,4,-3,1,3,0,-2,-3,-5,8.33
1667,-3,-36,-4,-7,1,1,-1,-4,8.335
1668,-7,-8,-1,5,2,2,3,6,8.34
1669,0,-20,-2,-10,-4,-7,-5,-3,8.345
1670,-5,5,4,0,-1,-3,-2,-3,8.35
1671,3,10,5,8,0,1,-1,0,8.355
1672,0,-13,-6,-2,-2,-2,-1,1,8.36
1673,2,1,3,1,1,2,0,2,8.365
1674,-2,-30,0,-1,-3,-5,-3,-2,8.370000000000001
1675,-2,14,0,0,0,-2,-1,0,8.375
1676,-5,-8,-1,-6,-2,-2,-4,-5,8.38
1677,-3,30,6,3,2,3,0,0,8.385
1678,14,4,-2,1,5,9,6,4,8.39
1679,4,16,-6,-3,1,0,3,2,8.395
1680,-6,6,2,-1,-3,-3,-2,-1,8.4
1681,0,4,-8,-2,-4,-5,-5,-5,8.405
1682,-6,7,-2,-4,-2,-1,-2,-2,8.41
1683,-2,19,-1,0,0,1,-1,1,8.415000000000001
1684,12,20,1,4,3,4,3,1,8.42
1685,-3,-10,-4,0,1,2,5,-1,8.425
1686,-8,-17,4,-7,-9,-12,-6,-5,8.43
1687,-6,-9,6,-4,-6,-7,-6,-5,8.435
1688,1,-4,0,-1,1,0,-2,-2,8.44
1689,4,-1,-4,3,5,7,6,3,8.445
1690,7,18,-17,0,2,5,2,2,8.45
1691,-1,17,-23,-5,-1,-3,-3,-4,8.455
1692,-5,-15,-15,-5,-2,-5,-3,1,8.46
1693,7,-3,7,2,0,0,-1,-1,8.465
1694,-2,-2,4,2,2,1,2,0,8.47
1695,4,31,19,2,1,2,1,2,8.475
1696,-5,2,4,-3,-2,0,-2,-3,8.48
1697,5,-1,4,-2,-4,-3,-1,0,8.485
1698,-7,-2,7,0,-1,-1,0,-3,8.49
1699,-4,-27,8,1,0,0,0,-5,8.495000000000001
1700,-2,-4,11,2,1,4,5,7,8.5
1701,-2,-9,6,-7,-5,-7,-4,-2,8.505
1702,3,-12,5,-1,-2,-3,-4,-1,8.51
1703,-5,0,3,-2,0,1,0,-1,8.515
1704,8,12,3,3,2,-1,1,0,8.52
1705,-3,-8,1,-3,-4,-5,-3,-4,8.525
1706,10,17,-6,0,1,4,2,5,8.53
1707,2,-1,-4,4,3,1,1,3,8.535
1708,-8,-2,-7,-2,-3,-6,-4,-4,8.540000000000001
1709,-4,-8,-7,3,0,2,0,0,8.545
1710,0,-7,-2,0,2,2,0,0,8.55
1711,4,3,-6,3,2,6,4,3,8.555
1712,6,-9,1,-2,-2,0,-1,-3,8.56
1713,-17,-43,0,-6,-6,-8,-6,-5,8.565
1714,-7,-19,3,2,1,1,1,-1,8.57
1715,0,0,0,1,-1,-1,1,1,8.575000000000001
1716,1,26,-2,-3,-2,-2,-4,-3,8.58
1717,-2,10,4,3,3,2,0,1,8.585
1718,1,15,-3,-3,-3,-2,-2,-1,8.59
1719,0,-6,-3,-2,-2,-1,-1,0,8.595
1720,-6,-4,3,-2,-1,-2,-1,0,8.6
1721,-4,-9,11,0,-1,-3,-2,-2,8.605
1722,1,10,1,0,0,0,1,1,8.61
1723,-1,7,4,-2,-3,-3,-3,-3,8.615
1724,-4,-18,0,-1,0,1,0,1,8.620000000000001
1725,3,4,0,1,1,0,2,0,8.625
1726,-4,6,5,0,-1,-4,-2,-3,8.63
1727,2,-18,-7,-4,-2,0,1,-1,8.635
1728,-10,-1,-2,-2,-3,-4,-3,-2,8.64
1729,-1,21,-6,-2,3,1,0,1,8.645
1730,8,-17,-7,-3,-4,-3,-3,-4,8.65
1731,-4,11,-2,2,2,0,-2,0,8.655
1732,1,-17,-1,2,1,1,0,-2,8.66
1733,2,0,-3,1,1,2,2,3,8.665000000000001
1734,-6,-11,-7,-5,-3,-2,-3,-3,8.67
1735,-2,-10,3,2,0,-3,-3,-2,8.675
1736,2,13,1,-1,-3,0,-1,-1,8.68
1737,5,6,3,1,0,1,-1,1,8.685
1738,6,3,2,2,0,0,0,2,8.69
1739,-10,-5,2,-3,0,-1,0,-1,8.695
1740,-1,-16,-4,-4,-3,-4,-3,-3,8.700000000000001
1741,1,2,-2,-3,-2,1,-1,-1,8.705
1742,-4,-20,0,1,0,1,0,0,8.71
1743,-2,-4,-2,-4,-3,-3,-2,-1,8.715
1744,-11,-13,0,-2,-1,2,2,0,8.72
1745,-2,1,-3,-4,-3,-1,-1,-3,8.725
1746,5,40,-4,-1,1,3,2,3,8.73
1747,5,-3,0,-1,0,-1,1,0,8.735
1748,-1,-4,-4,-4,-1,-1,-2,-3,8.74
1749,2,2,-2,-1,-1,-2,-1,1,8.745000000000001
1750,-7,1,0,-1,0,0,1,-2,8.75
1751,2,1,-1,-2,-4,-2,-1,0,8.755
1752,-3,-4,-1,2,1,0,0,0,8.76
1753,-8,-32,4,0,-1,-1,-1,-5,8.765
1754,-6,-3,-4,-1,-3,-2,-2,0,8.77
1755,2,3,-2,2,1,3,-1,0,8.775
1756,2,-18,-7,-1,-2,-1,0,-2,8.78
1757,-3,-15,2,0,-2,-3,-3,-1,8.785
1758,-5,-5,-1,-1,0,-2,-1,-1,8.790000000000001
1759,-2,20,-2,-2,-1,-2,-2,-3,8.795
1760,4,26,-1,-1,0,1,-1,-1,8.8
1761,1,9,-1,1,1,1,0,0,8.805
1762,2,1,2,-3,-1,-1,-2,-1,8.81
1763,-2,-7,4,0,0,-1,-2,1,8.815
1764,2,25,3,3,-1,-1,-2,-2,8.82
1765,4,13,-2,-2,-4,-1,-1,-1,8.825000000000001
1766,12,23,0,0,-1,0,-1,0,8.83
1767,-10,-23,-1,3,1,0,0,-1,8.835
1768,-8,-20,3,-2,-1,-4,-3,-1,8.84
1769,-2,10,-3,0,3,2,0,-2,8.845
1770,-2,10,3,-2,-2,-1,-1,0,8.85
1771,5,-1,-2,-2,-1,-1,-1,2,8.855
1772,-7,-9,0,-2,-1,-2,1,2,8.86
1773,-6,-5,2,1,1,-1,0,-2,8.865
1774,2,-5,1,-1,2,-1,0,-1,8.870000000000001
1775,6,5,0,-3,-2,-3,-1,-2,8.875
1776,-7,-2,-4,1,1,-1,-2,-4,8.88
1777,-2,9,-7,-2,-3,1,2,2,8.885
1778,0,-4,-1,-2,-2,-3,-3,-2,8.89
1779,-10,-7,1,-1,-1,-2,0,0,8.895
1780,6,7,0,-3,0,-1,2,-1,8.9
1781,12,23,-2,1,-1,0,-1,0,8.905
1782,-17,-6,-4,-2,-3,-2,-3,-1,8.91
1783,4,-17,2,-2,-2,-2,-2,-2,8.915000000000001
1784,4,-4,-3,-1,-2,0,-3,0,8.92
1785,-9,-27,7,0,1,0,-1,-2,8.925
1786,-1,-8,-2,-1,-1,1,2,0,8.93
1787,3,15,-1,0,-1,-1,-1,-3,8.935
1788,3,-2,-2,-2,0,0,-1,-1,8.94
1789,-3,2,-2,-1,0,-2,-1,-3,8.945
1790,-1,-10,-2,-1,-1,-3,-2,-4,8.950000000000001
1791,0,-45,-3,0,-1,0,0,-1,8.955
1792,-3,9,-8,-4,-3,0,-1,1,8.96
1793,3,8,-4,1,1,0,-1,3,8.965
1794,-6,-20,3,0,0,0,1,0,8.97
1795,-4,-27,0,4,1,1,0,-1,8.975
1796,-4,8,7,1,-3,-3,-2,-1,8.98
1797,2,2,1,-1,-3,-1,-2,1,8.985
1798,-5,3,-5,-1,0,-1,-1,0,8.99
1799,10,33,0,2,1,1,3,0,8.995000000000001
1800,-11,-2,3,-1,-2,0,-1,-2,9.0
1801,-6,-13,-4,-3,-4,-4,-4,-3,9.005
1802,2,3,2,0,0,1,1,2,9.01
1803,7,33,3,0,1,0,0,2,9.015
1804,-6,8,-4,0,-1,0,2,-1,9.02
1805,4,-3,-2,0,-1,-1,-1,-1,9.025
1806,-1,1,0,-1,-1,0,-1,0,9.03
1807,-8,-2,-5,-2,-1,-1,-1,-5,9.035
1808,8,-5,0,1,1,0,0,3,9.040000000000001
1809,6,8,1,-2,-1,0,1,1,9.045
1810,-4,-2,-3,-1,-1,-2,-3,-3,9.05
1811,7,1,-2,-3,-3,-1,0,1,9.055
1812,-11,-8,-1,3,2,4,1,0,9.06
1813,-14,-38,4,0,0,-1,2,-1,9.065
1814,9,16,-3,-4,-2,0,1,0,9.07
1815,-11,-1,-6,-6,-2,-3,-1,-3,9.075000000000001
1816,6,-6,0,0,0,-2,-2,-1,9.08
1817,6,13,-3,-1,0,-2,-2,0,9.085
1818,-1,1,-2,1,-1,0,-1,-1,9.09
1819,-9,-7,0,1,-2,0,-1,0,9.095
1820,9,-15,-4,-3,-5,-1,-2,-1,9.1
1821,-3,10,-1,-4,-3,0,1,0,9.105
1822,-5,-9,-4,-1,-2,-1,-3,-3,9.11
1823,14,6,-3,-2,1,0,0,2,9.115
1824,-2,23,3,-2,0,-5,-2,-3,9.120000000000001
1825,-4,-19,-1,1,0,0,0,-1,9.125
1826,7,4,1,2,1,-2,0,1,9.13
1827,-6,-8,-3,0,0,2,1,0,9.135
1828,-3,-15,-2,-3,0,-1,0,1,9.14
1829,-2,8,-2,-2,0,-1,0,-1,9.145
1830,-4,8,5,0,-2,-1,-2,-2,9.15
1831,2,8,0,0,0,-2,-4,-2,9.155
1832,11,29,1,-2,-1,-1,1,1,9.16
1833,-3,31,5,-2,-1,1,1,2,9.165000000000001
1834,4,-22,-3,3,1,1,0,0,9.17
1835,7,4,-3,-4,-2,0,-2,-3,9.175
1836,-14,-12,-2,1,1,-1,0,-2,9.18
1837,11,-6,-5,-2,-4,-2,-3,-1,9.185
1838,-4,1,-1,-2,0,1,1,-1,9.19
1839,0,-4,3,3,1,1,-1,1,9.195
1840,-2,11,-1,-3,-2,-3,-4,-2,9.200000000000001
1841,-3,2,-1,0,0,-2,-2,0,9.205
1842,7,-9,0,-1,-1,-2,-2,-1,9.21
1843,-14,-5,0,0,0,0,0,-2,9.215
1844,6,-11,1,0,-1,-2,-1,1,9.22
1845,-4,3,3,2,3,3,1,1,9.225
1846,-1,-2,-1,-2,-2,-3,-1,-1,9.23
1847,-10,2,-1,-1,1,0,1,-1,9.235
1848,5,0,-1,-2,-4,-3,-2,-3,9.24
1849,-10,-28,3,-2,-2,-1,-2,-1,9.245000000000001
1850,2,22,3,0,0,0,1,-1,9.25
1851,-12,-6,-3,-4,-3,-1,-1,-1,9.255
1852,-2,-38,6,2,1,-2,-1,1,9.26
1853,5,-1,-4,-5,0,-2,-1,-1,9.265
1854,-3,-29,-3,1,1,1,-1,-1,9.27
1855,1,1,-3,-3,-3,-4,-1,0,9.275
1856,-3,-1,-2,-1,0,0,1,-1,9.28
1857,2,3,0,-1,-2,-2,-1,-2,9.285
1858,-9,-14,0,-1,-1,-3,-2,-4,9.290000000000001
1859,2,3,2,-1,0,-2,0,1,9.295
1860,6,8,1,0,0,2,0,1,9.3
1861,0,6,1,0,-1,-2,-1,-1,9.305
1862,0,10,3,1,-1,-2,-1,-1,9.31
1863,-1,24,2,-5,-3,0,-1,-4,9.315
1864,-8,11,-2,0,-2,3,1,-2,9.32
1865,5,-9,-1,1,0,-1,0,-1,9.325000000000001
1866,-4,6,-3,-5,0,0,-3,-3,9.33
1867,2,14,2,1,0,0,-1,2,9.335
1868,-7,3,-3,0,0,-3,-2,-3,9.34
1869,0,5,-1,0,0,0,-1,0,9.345
1870,0,5,-1,0,0,-1,0,0,9.35
1871,4,-13,0,-1,-1,-1,-1,-1,9.355
1872,3,1,-1,-2,-1,1,0,1,9.36
1873,-1,-2,-2,1,0,-2,-2,-2,9.365
1874,-1,-2,-3,-2,-1,-1,1,1,9.370000000000001
1875,0,-8,-2,1,-1,0,-1,0,9.375
1876,8,-2,-1,3,2,-3,-2,1,9.38
1877,-27,-51,-5,1,-1,3,3,0,9.385
1878,14,-5,-4,1,1,0,1,2,9.39
1879,-5,-26,1,-4,-1,-2,-2,-2,9.395
1880,3,-2,-4,-1,2,0,0,0,9.4
1881,3,17,4,-2,-2,-2,-2,-2,9.405
1882,-5,8,2,1,0,1,1,1,9.41
1883,1,-10,-3,3,1,0,3,1,9.415000000000001
1884,1,2,2,-4,-2,-2,-1,-2,9.42
1885,6,15,-1,-1,0,-3,0,-1,9.425
1886,-7,1,-3,0,-2,0,-1,0,9.43
1887,3,9,-2,0,-1,-2,-2,-1,9.435
1888,-6,-2,0,-3,-2,-3,-2,-1,9.44
1889,3,13,0,0,2,1,1,0,9.445
1890,-8,-29,8,5,0,0,-2,-3,9.450000000000001
1891,-13,-18,-1,-1,-1,1,2,0,9.455
1892,9,18,-2,-1,0,0,-1,-3,9.46
1893,-4,11,-3,-4,-2,-3,-4,1,9.465
1894,-2,-2,1,-3,-4,-3,-4,-4,9.47
1895,-2,-4,1,-1,0,-2,-2,0,9.475
1896,0,-4,3,0,-1,-1,1,0,9.48
1897,10,15,-1,1,2,-2,-1,-3,9.485
1898,-2,13,-4,-1,0,-1,1,1,9.49
1899,7,14,0,1,0,0,-1,0,9.495000000000001
1900,-6,-5,-4,0,-3,1,-2,-1,9.5
1901,-1,-1,-2,-2,-1,-3,-3,-2,9.505
1902,8,7,-2,0,0,-1,0,1,9.51
1903,-6,-14,-5,-3,-2,-1,1,-2,9.515
1904,0,-3,1,3,1,1,2,3,9.52
1905,-1,3,0,-1,-2,1,1,3,9.525
1906,-8,-19,-3,-7,-4,-4,-3,-8,9.53
1907,-1,0,-2,-2,-2,-5,-4,-2,9.535
1908,5,-23,-1,-4,-4,-6,-5,-1,9.540000000000001
1909,-2,-5,-2,0,0,2,1,0,9.545
1910,-8,-18,0,3,4,2,2,1,9.55
1911,4,20,-1,1,0,2,0,-2,9.555
1912,-6,-2,-4,-3,-2,0,0,-1,9.56
1913,2,0,-2,-2,-3,0,0,-1,9.565
1914,5,6,-2,-1,-1,-1,0,1,9.57
1915,-2,2,3,0,1,-1,-3,0,9.575000000000001
1916,4,4,2,2,-1,0,0,0,9.58
1917,-14,-14,-4,-1,-1,-1,-2,-4,9.585
1918,12,22,-3,-2,-2,0,-2,-1,9.59
1919,-25,-18,-6,-5,-2,0,1,0,9.595
1920,-5,-29,-7,-4,-2,0,1,-1,9.6
1921,12,11,-3,-3,-4,-5,-6,-6,9.605
1922,-5,-12,-2,1,0,-1,0,2,9.61
1923,3,-11,0,1,0,0,0,0,9.615
1924,1,6,-1,-1,-1,0,-2,0,9.620000000000001
1925,-5,-3,-2,-1,-1,-1,1,0,9.625
1926,1,8,-2,0,0,-1,-1,0,9.63
1927,9,12,0,0,-2,-1,0,0,9.635
1928,-6,6,-1,1,-1,-1,-2,-1,9.64
1929,12,29,13,5,1,-1,-3,0,9.645
1930,-6,-7,-5,-2,0,0,-1,1,9.65
1931,-4,-7,-4,0,1,3,1,0,9.655
1932,6,12,0,-2,-1,-1,1,-3,9.66
1933,-9,4,0,1,2,2,0,1,9.665000000000001
1934,1,7,-3,-2,-1,-1,2,-1,9.67
1935,2,-3,2,2,0,-2,-2,-1,9.675
1936,0,-9,0,-1,-1,-3,0,0,9.68
1937,2,17,0,-1,0,0,1,-1,9.685
1938,0,6,3,-2,-1,-1,-1,-3,9.69
1939,1,-7,0,0,-1,0,-1,0,9.695
1940,-1,8,-2,1,0,0,-1,0,9.700000000000001
1941,0,-15,-2,-2,-2,-2,0,2,9.705
1942,-3,5,-1,-3,-1,0,-2,1,9.71
1943,1,11,-1,0,-1,-1,0,-1,9.715
1944,-4,-15,1,0,1,1,-2,-3,9.72
1945,-11,-33,6,0,0,0,0,-2,9.725
1946,-2,1,-1,1,-3,-5,-4,-2,9.73
1947,3,-42,-4,-1,3,3,2,0,9.735
1948,-4,-5,4,1,-1,1,0,0,9.74
1949,-9,-16,-4,-2,-2,-3,-1,-3,9.745000000000001
1950,-2,1,3,1,-2,-1,-2,-2,9.75
1951,-5,7,3,-6,-4,-3,-3,0,9.755
1952,2,5,3,0,-1,-2,-1,0,9.76
1953,-5,-2,-3,-1,0,-1,1,0,9.765
1954,-2,-1,-2,0,-1,-2,1,1,9.77
1955,5,31,2,0,0,-2,-4,-3,9.775
1956,-6,7,-3,-1,-1,1,1,-1,9.78
1957,3,-5,0,0,-2,0,1,-1,9.785
1958,-2,-1,-3,-3,-1,0,2,-1,9.790000000000001
1959,-1,5,-2,2,-1,-1,-2,-1,9.795
1960,3,-6,-6,-1,1,3,3,0,9.8
1961,4,11,-2,-2,-3,0,-1,0,9.805
1962,6,11,1,0,0,-2,-1,-1,9.81
1963,-15,1,1,-1,-1,-2,0,-2,9.815
1964,18,-19,-5,-3,-2,-4,-3,0,9.82
1965,-13,-9,-3,1,1,1,-1,-2,9.825000000000001
1966,-3,-26,3,2,1,2,2,-1,9.83
1967,1,10,2,-3,-2,-3,-2,-1,9.835
1968,1,20,1,-2,-3,-3,-3,-2,9.84
1969,13,9,-1,0,-1,-1,1,1,9.845
1970,-4,-4,-2,-1,-1,1,-3,0,9.85
1971,-1,-13,-2,0,0,-3,-1,-2,9.855
1972,-7,10,1,1,-1,-2,-1,-1,9.86
1973,9,17,-1,2,3,-3,-2,1,9.865
1974,-7,-32,-5,-3,-3,-1,0,-1,9.870000000000001
1975,-8,-11,-1,-1,2,2,1,0,9.875
1976,-1,9,-1,-1,-1,1,-2,1,9.88
1977,-1,11,-3,-2,-3,-3,-2,-2,9.885
1978,4,10,1,-3,-2,-3,-1,-2,9.89
1979,15,9,-2,-1,-2,-2,0,1,9.895
1980,-14,-21,0,-1,0,0,-1,-4,9.9
1981,-7,-15,3,0,0,0,0,-2,9.905
1982,1,14,1,2,1,-1,-3,-5,9.91
1983,1,-20,-1,-7,-6,-3,-1,-2,9.915000000000001
1984,-9,-19,-3,0,0,2,1,0,9.92
1985,-3,-19,2,-1,0,1,0,1,9.925
1986,4,11,-3,0,-1,0,0,-1,9.93
1987,0,0,-2,0,-2,-1,-1,-1,9.935
1988,8,19,2,-3,-2,-5,-2,-1,9.94
1989,2,-1,-6,-1,-1,-1,-1,-2,9.945
1990,0,2,2,0,1,1,0,2,9.950000000000001
1991,-3,6,3,0,-1,-2,-1,-1,9.955
1992,-11,15,-2,-2,-1,-1,-1,-4,9.96
1993,4,-5,2,0,-1,-1,0,0,9.965
1994,-4,-9,1,-7,-5,-1,1,1,9.97
1995,6,50,-2,0,2,2,-1,-1,9.975
1996,-2,-5,-2,-2,0,3,2,1,9.98
1997,-4,-14,-2,-2,0,-4,-4,-1,9.985
1998,5,9,-2,1,0,-2,-1,1,9.99
1999,-11,-19,-2,1,0,-1,0,-3,9.995000000000001
2000,6,-6,1,0,-2,-2,0,0,10.0
2001,2,10,0,-2,-1,2,-2,-1,10.005
2002,-9,7,2,-3,-1,-3,-1,-1,10.01
2003,3,-8,-4,1,0,-1,1,1,10.015
2004,-4,2,0,0,0,-1,-2,-1,10.02
2005,0,1,-3,1,0,0,-1,0,10.025
2006,-7,-25,1,2,2,-1,-1,-3,10.03
2007,-2,5,-3,-8,-5,-1,-2,-1,10.035
2008,1,-17,3,2,0,-3,-2,0,10.040000000000001
2009,2,16,-5,-3,0,3,2,2,10.045
2010,-2,-28,-2,3,1,1,-1,-1,10.05
2011,-2,-5,2,0,-1,-1,-1,-1,10.055
2012,0,9,-2,1,0,-1,-1,1,10.06
2013,-3,4,-1,-3,-2,-2,-3,-1,10.065
2014,10,15,-3,0,0,-1,-2,-2,10.07
2015,-2,-2,2,1,3,-1,0,-1,10.075000000000001
2016,-1,-15,-4,-7,-6,-4,-4,-6,10.08
2017,-2,-11,-2,5,1,0,-2,-1,10.085
2018,-10,-11,-7,-2,-1,2,2,-1,10.09
2019,7,-30,-3,-1,0,-1,-2,0,10.095
2020,-9,28,0,0,0,2,1,1,10.1
2021,-1,3,1,-1,-3,-2,0,0,10.105
2022,7,13,-3,-2,-2,-3,-1,1,10.11
2023,-2,9,-1,2,-1,0,-2,-2,10.115
2024,7,-7,-1,0,-1,-1,-1,1,10.120000000000001
2025,-10,-10,1,1,-2,0,0,-2,10.125
2026,-5,18,3,1,1,0,0,1,10.13
2027,3,5,-1,0,-1,-2,0,-1,10.135
2028,-7,0,3,-1,1,-1,0,-4,10.14
2029,-2,-14,0,0,0,1,0,1,10.145
2030,6,-13,-3,-2,-2,0,-2,-1,10.15
2031,-4,16,2,0,-2,0,-1,1,10.155
2032,1,5,3,-1,-1,-1,-3,0,10.16
2033,9,2,0,-1,-2,-1,0,-3,10.165000000000001
2034,-19,2,2,-3,-1,2,2,0,10.17
2035,5,-1,-3,2,1,-1,-1,-2,10.175
2036,-3,-5,0,0,1,0,-1,0,10.18
2037,0,15,-2,-1,0,-2,-1,-1,10.185
2038,6,18,5,0,-1,-2,-2,0,10.19
2039,3,22,1,-5,-3,-3,-1,-1,10.195
2040,1,3,-3,0,0,0,1,1,10.200000000000001
2041,4,4,-2,-2,-2,-1,0,0,10.205
2042,0,-5,-2,0,-1,0,0,0,10.21
2043,-6,-7,1,0,0,1,1,0,10.215
2044,6,-1,-2,-3,-2,0,-2,1,10.22
2045,-13,-6,-3,-5,-2,-1,-1,-1,10.225
2046,11,10,-7,-1,-1,1,1,0,10.23
2047,8,17,-7,-3,-1,-4,-4,-4,10.235
2048,0,8,3,2,-1,0,-1,-2,10.24
2049,-6,-1,2,-1,-1,-2,-1,-2,10.245000000000001
2050,0,-7,3,-2,0,-1,-1,-1,10.25
2051,-5,-9,0,1,1,1,-1,0,10.255
2052,2,-4,1,-1,-1,-2,0,0,10.26
2053,2,2,6,0,-4,-3,-2,1,10.265
2054,-1,-6,1,1,0,0,1,1,10.27
2055,5,-8,-3,2,-1,0,-1,0,10.275
2056,-6,2,-2,0,-1,-1,-1,0,10.28
2057,4,-5,-5,-2,-1,0,-1,0,10.285
2058,0,7,-1,-3,-1,-5,-1,-3,10.290000000000001
2059,-2,-8,-1,-1,-2,-2,-2,-1,10.295
2060,-4,0,3,-2,-2,-1,1,-1,10.3
2061,1,0,0,0,-1,-2,-1,-2,10.305
2062,6,3,-2,1,0,-2,1,-1,10.31
2063,-12,-20,2,-2,0,3,2,0,10.315
2064,7,10,-6,2,-1,-2,-4,-1,10.32
2065,6,-22,-3,-1,-3,0,-2,-1,10.325000000000001
2066,-12,4,-2,-1,0,-2,-4,-2,10.33
2067,-7,-16,-2,-3,-3,-1,0,-1,10.335
2068,8,-4,-3,-3,1,0,1,0,10.34
2069,-6,1,0,0,0,-2,-1,-2,10.345
2070,0,-2,2,2,-2,1,-2,1,10.35
2071,0,10,3,1,0,-1,-1,-1,10.355
2072,-8,-30,5,-1,-2,-2,-1,-1,10.36
2073,0,6,-3,1,1,0,-1,0,10.365
2074,-4,1,2,1,-2,-1,1,-1,10.370000000000001
2075,1,21,-4,1,1,0,1,2,10.375
2076,6,15,0,-1,0,0,-1,-2,10.38
2077,2,-2,0,0,-1,2,2,0,10.385
2078,-3,-1,-4,-1,0,-2,-2,-2,10.39
2079,-2,-1,-2,-3,-2,-2,-2,-3,10.395
2080,-9,-1,-1,0,1,0,2,2,10.4
2081,0,5,-2,-3,-1,0,-1,-1,10.405
2082,-1,3,0,-2,1,0,-1,1,10.41
2083,3,-4,3,2,-2,-1,0,-1,10.415000000000001
2084,-1,-9,-5,-1,-1,0,-2,-2,10.42
2085,-4,-25,4,-1,-1,-1,0,0,10.425
2086,7,16,-3,-1,-3,-3,-2,0,10.43
2087,-15,-35,-2,3,3,4,2,0,10.435
2088,7,3,-4,0,0,0,-1,1,10.44
2089,-13,1,-8,-2,-2,-1,0,0,10.445
2090,11,-3,-1,0,-1,-2,-4,-3,10.450000000000001
2091,-9,1,-2,-4,-2,-3,-1,0,10.455
2092,9,8,2,1,0,1,2,-1,10.46
2093,-6,4,6,1,1,0,0,-2,10.465
2094,-8,-8,-2,-1,-2,-1,0,0,10.47
2095,8,42,5,0,-1,-1,-2,-1,10.475
2096,-4,-3,-3,-1,-1,-2,-2,1,10.48
2097,2,18,3,-2,-3,-3,-2,-3,10.485
2098,-1,-8,-7,-5,-1,2,1,-1,10.49
2099,2,-9,-1,-1,0,0,0,0,10.495000000000001
2100,-5,11,2,-5,-4,0,-1,-1,10.5
2101,5,0,-5,-1,0,-4,-2,-2,10.505
2102,-6,-5,-2,-3,-1,-3,0,-2,10.51
2103,7,-9,2,1,-1,1,1,1,10.515
2104,-10,-3,1,0,-2,-4,-1,-3,10.52
2105,2,-6,-2,-2,0,0,0,1,10.525
2106,-2,-2,-1,-1,0,0,0,0,10.53
2107,-7,-43,5,3,1,0,1,-1,10.535
2108,-2,2,-1,-1,0,0,0,0,10.540000000000001
2109,7,-1,-1,1,0,1,1,1,10.545
2110,-7,12,-1,0,0,0,0,0,10.55
2111,4,17,-5,-2,-3,-5,-5,-2,10.555
2112,-10,-15,-2,-4,-2,-1,0,-2,10.56
2113,-3,-4,-2,-2,-1,-1,-1,1,10.565
2114,-1,-22,1,2,-1,0,-1,1,10.57
2115,12,59,-5,-3,-2,-2,-2,-1,10.575000000000001
2116,2,-1,-5,0,-1,1,-1,-1,10.58
2117,-1,1,-1,-1,0,-1,0,0,10.585
2118,0,-3,1,-2,-3,0,-1,0,10.59
2119,0,7,-6,-2,0,0,0,0,10.595
2120,5,-3,-3,1,1,1,2,3,10.6
2121,4,15,-2,-1,-1,-1,-2,-3,10.605
2122,-3,4,0,-2,-2,-2,-2,-5,10.61
2123,-19,-25,1,-3,-2,-3,-1,-3,10.615
2124,2,-3,0,-2,-2,-1,-1,0,10.620000000000001
2125,-5,-36,2,3,1,2,2,3,10.625
2126,3,9,3,3,0,-1,-1,1,10.63
2127,-3,-16,-4,1,1,2,2,-2,10.635
2128,-3,3,-3,1,0,0,2,0,10.64
2129,-6,5,-1,-3,-3,-4,-3,-4,10.645
2130,1,-3,-3,-3,-4,-1,-1,-1,10.65
2131,-2,-17,5,1,-2,0,-2,-1,10.655
2132,-4,-7,-3,-5,-1,-1,-4,-2,10.66
2133,0,5,1,2,1,2,1,-1,10.665000000000001
2134,5,25,-1,2,-1,0,2,1,10.67
2135,3,-10,-2,-1,-2,-3,-1,0,10.675
2136,-1,-13,-4,1,-1,-3,-2,-2,10.68
2137,0,16,-1,-2,-2,0,0,-1,10.685
2138,-8,-2,-2,2,2,0,0,0,10.69
2139,20,8,1,-1,2,1,0,-1,10.695
2140,-10,-12,8,0,-1,-1,0,2,10.700000000000001
2141,4,-9,-1,-2,-2,-1,-3,-3,10.705
2142,-3,-12,0,-1,-2,-3,-3,-1,10.71
2143,-3,5,-1,-1,-2,0,-2,1,10.715
2144,5,1,-1,3,2,-2,-1,-1,10.72
2145,-2,1,4,2,0,-1,-1,0,10.725
2146,-3,-8,-5,-1,1,2,1,-2,10.73
2147,1,1,-5,-3,0,-1,1,3,10.735
2148,-3,15,0,-1,-3,-3,-2,-6,10.74
2149,-5,-4,-1,0,1,1,2,2,10.745000000000001
2150,5,-4,-1,-3,-3,-3,-2,2,10.75
2151,2,9,3,0,-2,-2,-2,-1,10.755
2152,-9,13,1,-3,-4,0,-2,-1,10.76
2153,8,5,-4,1,2,4,0,1,10.765
2154,-5,-9,2,-1,0,0,-1,-2,10.77
2155,1,15,1,0,-1,-2,1,1,10.775
2156,-2,5,0,-1,-1,1,-1,-1,10.78
2157,3,8,-2,-2,-3,-4,-3,-2,10.785
2158,0,1,-1,0,1,-1,0,-1,10.790000000000001
2159,-5,-7,-1,1,1,0,-2,-1,10.795
2160,8,0,0,-1,0,0,0,0,10.8
2161,-8,-3,4,-2,-1,-2,-1,-1,10.805
2162,3,-11,-2,0,1,1,1,-1,10.81
2163,-2,0,-3,-3,-3,-1,0,0,10.815
2164,6,46,3,-2,-1,-2,-1,0,10.82
2165,-1,-5,-6,-3,-1,-1,-1,0,10.825000000000001
2166,-4,-16,2,0,-1,-3,-2,-1,10.83
2167,-4,1,-1,3,1,-1,0,-3,10.835
2168,6,7,1,1,0,0,1,1,10.84
2169,-1,-22,1,-1,-1,-2,-2,-3,10.845
2170,-6,14,0,-2,-3,-1,-1,-1,10.85
2171,2,0,4,-2,-3,0,-1,0,10.855
2172,-5,-31,-4,0,0,-2,-1,-1,10.86
2173,-5,-23,-1,-1,0,0,2,1,10.865
2174,-3,-15,1,2,0,-1,-2,-1,10.870000000000001
2175,-8,-16,1,1,1,-1,-1,-2,10.875
2176,4,-9,-2,0,1,0,1,1,10.88
2177,-4,13,-1,-1,-1,0,-1,-3,10.885
2178,12,14,-3,-1,0,1,1,0,10.89
2179,-10,-19,2,-4,-1,-1,0,-2,10.895
2180,1,8,-1,1,-1,-3,-1,0,10.9
2181,-2,4,-5,1,-1,-2,-1,0,10.905
2182,-3,-10,0,-2,-2,-2,-1,-1,10.91
2183,0,1,-3,-1,0,-2,-1,-2,10.915000000000001
2184,-2,-8,-2,0,-2,0,-1,-1,10.92
2185,3,-5,-3,-1,0,-1,1,-1,10.925
2186,-10,-37,1,2,1,1,0,0,10.93
2187,-2,-3,-6,-7,-4,-4,-2,-1,10.935
2188,-7,-8,-6,-5,-1,1,1,0,10.94
2189,4,7,-3,-1,-1,1,-1,0,10.945
2190,2,-3,-2,-6,-4,-3,-3,-3,10.950000000000001
2191,2,12,0,1,3,1,0,2,10.955
2192,-1,-2,-3,-1,0,-1,0,0,10.96
2193,-7,2,1,0,-2,-3,-2,-3,10.965
2194,1,3,-4,-2,-2,-1,-1,-2,10.97
2195,-1,3,0,-1,-2,-1,-1,-2,10.975
2196,15,0,2,0,-1,0,-1,0,10.98
2197,-4,-3,0,-1,-1,-1,0,0,10.985
2198,-3,-14,5,-2,0,0,1,2,10.99
2199,2,15,-7,2,1,1,0,-2,10.995000000000001
2200,-5,-14,-2,-4,-3,0,0,-1,11.0
2201,2,-8,-1,1,-1,1,-2,-2,11.005
2202,-2,10,1,-1,-2,-2,-2,-1,11.01
2203,5,6,4,2,0,1,0,1,11.015
2204,-2,-6,8,2,1,-1,1,-2,11.02
2205,-6,15,1,1,1,0,0,-2,11.025
2206,10,20,-7,1,0,0,2,-1,11.03
2207,2,-14,-2,-2,-2,-2,-1,-2,11.035
2208,-12,2,-4,0,-1,-3,-2,-3,11.040000000000001
2209,1,-3,3,-1,1,-1,0,1,11.045
2210,8,7,-2,2,-1,0,-1,-1,11.05
2211,-1,18,5,-1,-1,-3,-3,-1,11.055
2212,3,1,1,-1,-1,1,-1,1,11.06
2213,4,-29,1,0,-1,-3,0,-1,11.065
2214,-18,-7,0,-2,-2,-2,-3,-3,11.07
2215,1,-12,-1,0,-1,0,0,-2,11.075000000000001
2216,-5,2,-1,0,0,1,-2,-1,11.08
2217,4,15,-2,-6,-3,-3,-2,0,11.085
2218,0,2,2,0,1,1,0,0,11.09
2219,2,2,-4,-2,-2,-1,1,2,11.095
2220,3,5,-3,0,-1,-2,-1,-3,11.1
2221,0,19,3,0,-1,1,-1,0,11.105
2222,-8,22,3,0,-2,-1,1,1,11.11
2223,1,-7,-9,-2,0,0,1,0,11.115
2224,0,-10,1,1,0,0,-1,1,11.120000000000001
2225,1,9,-2,0,0,-2,0,0,11.125
2226,0,-25,-2,0,0,-2,-2,-1,11.13
2227,3,18,4,1,0,-1,-1,-1,11.135
2228,-5,-13,-11,-1,-2,-1,-3,-3,11.14
2229,3,19,2,0,-1,0,-2,-3,11.145
2230,-6,-22,-1,-2,-1,2,0,1,11.15
2231,-2,8,1,-1,-1,0,-1,2,11.155
2232,8,12,2,-2,0,-1,-1,-4,11.16
2233,-2,-12,-1,2,2,2,0,-2,11.165000000000001
2234,0,6,-3,-3,-3,-2,-3,-1,11.17
2235,-2,-2,-2,0,-2,-3,-3,-3,11.175
2236,0,3,4,-2,0,1,0,1,11.18
2237,-7,-7,2,1,-1,-1,0,-1,11.185
2238,3,14,-3,0,2,0,0,1,11.19
2239,-5,-44,-1,-1,-2,-1,-1,-3,11.195
2240,-10,-26,-4,1,0,-2,0,0,11.200000000000001
2241,-3,-8,-1,0,-1,-2,-2,-1,11.205
2242,8,2,1,3,1,0,0,0,11.21
2243,-6,7,-1,0,-1,1,0,2,11.215
2244,-5,-7,2,-1,-2,-2,-2,-5,11.22
2245,4,13,-1,1,-1,1,1,3,11.225
2246,-1,-20,3,1,0,-1,0,2,11.23
2247,-1,-1,3,-1,1,-3,-2,-2,11.235
2248,7,14,-1,1,0,0,-1,0,11.24
2249,-6,-21,-2,-1,-1,1,1,-1,11.245000000000001
2250,-2,-2,0,-3,-2,2,-1,-2,11.25
2251,4,-10,4,0,-1,-1,-3,-1,11.255
2252,-9,-10,1,2,1,1,1,1,11.26
2253,-3,-7,-2,-2,0,-1,-2,0,11.265
2254,12,-37,-3,-1,-1,-3,-2,-1,11.27
2255,-12,8,-6,1,2,2,4,-1,11.275
2256,-5,7,3,2,-2,-3,-1,-1,11.28
2257,15,7,0,-3,-3,-2,-1,0,11.285
2258,-6,1,-1,1,0,0,1,-1,11.290000000000001
2259,2,7,0,-1,-1,1,0,0,11.295
2260,8,19,-4,-3,-1,-2,-3,-1,11.3
2261,1,-17,-5,2,2,-1,1,1,11.305
2262,-12,6,-2,-2,-2,-1,0,-2,11.31
2263,4,10,0,-1,-2,-3,-2,-3,11.315
2264,-10,-2,2,-2,0,0,0,3,11.32
2265,13,-1,-2,-4,-4,-1,-5,-4,11.325000000000001
2266,22,8,-5,-5,-1,0,-21,-1,11.33
2267,-31,-5,2,1,0,1,22,0,11.335
2268,17,15,4,-5,-2,-5,-3,4,11.34
2269,-25,-3,-2,-3,-2,-1,-5,-5,11.345
2270,2,27,2,0,-1,1,4,-6,11.35
2271,15,3,-5,-4,-1,0,-13,-1,11.355
2272,6,33,1,0,-2,-1,2,-1,11.36
2273,-18,-6,-1,0,-1,-3,6,3,11.365
2274,-8,6,-6,-2,-1,-3,-2,0,11.370000000000001
2275,29,-10,1,-2,-1,0,-1,0,11.375
2276,-1,-5,-1,1,2,1,3,7,11.38
2277,8,-15,7,-1,-1,2,-4,-10,11.385
2278,-24,-8,1,-1,-3,-2,3,9,11.39
2279,-6,3,-6,-1,-1,-1,-4,-12,11.395
2280,19,-13,-1,0,0,-2,-2,2,11.4
2281,-27,22,5,5,2,3,2,30,11.405
2282,53,-1,-1,-6,-3,-3,-1,-30,11.41
2283,-22,2,6,9,2,1,1,-7,11.415000000000001
2284,-24,-13,-8,-10,-8,-5,-9,2,11.42
2285,16,7,-2,-8,1,-1,3,-3,11.425
2286,-43,5,4,3,0,-1,5,4,11.43
2287,16,-1,-2,-6,-1,-1,-11,3,11.435
2288,-4,4,5,7,4,3,4,-28,11.44
2289,7,-2,-12,6,-7,-4,-1,6,11.445
2290,-6,-3,-2,-6,1,3,13,18,11.450000000000001
2291,18,1,-1,2,-1,-1,-4,29,11.455
2292,-23,-23,1,-2,-1,-1,-8,-31,11.46
2293,-23,5,3,3,1,-1,-2,-24,11.465
2294,8,4,1,5,2,6,1,5,11.47
2295,-50,-35,7,0,-2,-2,-2,-20,11.475
2296,-1,-2,-12,4,0,0,4,18,11.48
2297,34,5,-1,-12,0,-1,-2,-1,11.485
2298,13,15,-2,18,1,-1,1,10,11.49
2299,-25,10,-11,-21,-4,-2,0,-6,11.495000000000001
2300,38,-9,5,-8,0,-1,3,11,11.5
2301,-15,-38,-7,5,3,2,-1,2,11.505
2302,-13,1,3,-9,2,-1,0,-2,11.51
2303,10,-19,-9,15,0,-1,-1,5,11.515
2304,-3,-4,-7,-12,-3,0,-3,-10,11.52
2305,9,7,-6,3,-2,-1,7,-5,11.525
2306,23,-4,7,7,4,2,2,28,11.53
2307,-6,3,9,30,4,0,-4,-14,11.535
2308,-7,4,-2,-31,-4,-1,0,-6,11.540000000000001
2309,-20,19,4,17,0,1,-3,0,11.545
2310,-1,-3,-15,-36,-6,-5,0,-8,11.55
2311,34,21,9,-5,2,1,9,31,11.555
2312,-9,-3,11,23,4,2,-4,-2,11.56
2313,-7,21,10,8,-1,1,-6,20,11.565
2314,54,26,5,29,0,-3,-2,-53,11.57
2315,-1,-18,-25,-60,-9,-1,-5,-11,11.575000000000001
2316,-25,-14,-2,2,0,-2,-16,3,11.58
2317,-7,-8,1,0,0,-7,5,-11,11.585
2318,-40,-30,-5,9,0,-2,-8,26,11.59
2319,37,26,-4,19,1,-1,10,-4,11.595
2320,28,1,4,-15,0,2,2,17,11.6
2321,14,-16,1,-15,-3,-1,-12,-21,11.605
2322,-32,-50,-3,1,-2,2,2,-4,11.61
2323,-4,35,16,3,-6,-3,-7,8,11.615
2324,3,8,-11,19,3,3,8,12,11.620000000000001
2325,33,-3,-17,-1,-5,-3,-3,-5,11.625
2326,-30,-3,-14,-49,-6,-5,-3,-12,11.63
2327,2,-6,7,1,0,0,5,-11,11.635
2328,5,13,4,12,0,0,8,60,11.64
2329,4,-3,4,11,6,3,-4,-42,11.645
2330,-25,9,1,-17,-9,-7,-7,-16,11.65
2331,11,-13,2,33,2,1,0,19,11.655
2332,-22,0,-18,-43,-7,-6,-3,-37,11.66
2333,24,-4,-1,10,2,2,7,-8,11.665000000000001
2334,10,22,-2,15,4,2,-3,28,11.67
2335,-8,-26,23,22,5,1,-3,-34,11.675
2336,4,-48,-31,-81,-9,-7,-5,-11,11.68
2337,2,-17,-1,-6,-4,-3,-3,22,11.685
2338,-2,-8,14,13,-1,0,5,-2,11.69
2339,-29,-27,-6,-13,-3,2,2,15,11.695
2340,-1,12,14,55,3,2,1,-1,11.700000000000001
2341,-9,-15,-1,-41,-6,-3,4,15,11.705
2342,5,-12,0,-6,3,2,-2,-12,11.71
2343,42,-4,-7,13,3,-2,-2,12,11.715
2344,-48,13,24,31,-2,-2,-2,-28,11.72
2345,-26,2,-19,-28,-7,-3,1,11,11.725
2346,6,19,17,17,1,-1,-1,-11,11.73
2347,9,2,-24,-51,-9,-3,-3,-2,11.735
2348,22,-2,-1,12,0,-1,0,-8,11.74
2349,13,39,18,32,8,4,2,16,11.745000000000001
2350,23,42,-15,1,-2,2,4,3,11.75
2351,-44,53,-1,-14,-7,-6,-9,-2,11.755
2352,-1,3,8,26,3,2,1,0,11.76
2353,-7,-21,2,-5,-1,2,1,-7,11.765
2354,12,-5,-12,25,1,0,5,45,11.77
2355,-6,-10,-7,-23,2,4,7,-39,11.775
2356,-5,-11,-2,15,0,1,-1,64,11.78
2357,-17,6,14,10,-2,-5,-16,-81,11.785
2358,7,-18,12,1,-2,-6,-18,-3,11.790000000000001
2359,5,-12,3,25,1,-1,-3,-15,11.795
2360,-12,-2,-3,-30,-2,-1,3,-7,11.8
2361,9,-9,-10,0,-2,2,6,21,11.805
2362,-7,7,8,15,1,2,5,3,11.81
2363,-5,-2,2,-7,-2,-1,3,11,11.815
2364,31,4,-9,6,-1,-3,-5,-9,11.82
2365,14,-3,5,-1,0,2,2,47,11.825000000000001
2366,-51,27,0,7,-1,-2,-5,-76,11.83
2367,2,-15,-10,-21,-3,-4,-4,7,11.835
2368,-14,-34,8,13,2,-2,1,-6,11.84
2369,-7,6,0,5,4,3,1,-9,11.845
2370,-15,-9,-3,9,3,2,3,17,11.85
2371,16,30,4,17,6,5,-1,8,11.855
2372,-3,-21,-3,-16,-7,-4,-3,-21,11.86
2373,-8,-12,-5,-2,-2,-3,-1,5,11.865
2374,11,-18,-9,-8,3,2,4,9,11.870000000000001
2375,4,12,10,14,4,2,-2,1,11.875
2376,6,57,-1,1,-3,-1,1,-1,11.88
2377,5,-3,-10,-13,-1,2,1,11,11.885
2378,0,-7,2,18,-1,-1,3,15,11.89
2379,-10,27,-10,-7,-4,-6,-10,-23,11.895
2380,8,13,1,1,3,1,-2,-5,11.9
2381,-1,-10,-5,-4,0,-1,7,21,11.905
2382,6,23,-4,-9,-2,1,-2,-5,11.91
2383,-2,1,11,7,-1,-4,-9,1,11.915000000000001
2384,0,-14,-2,7,1,2,1,-8,11.92
2385,-13,-7,5,-2,-3,-4,-7,-3,11.925
2386,-1,-10,5,-10,-2,-3,-2,6,11.93
2387,-9,-35,-13,2,2,5,10,21,11.935
2388,12,27,5,18,-2,-4,-5,1,11.94
2389,-4,-7,-4,4,1,0,-1,0,11.945
2390,1,7,-3,-49,-9,-4,-5,-21,11.950000000000001
2391,-16,-5,4,0,-2,0,0,-5,11.955
2392,-28,1,-1,-6,-4,-1,2,4,11.96
2393,15,7,8,12,2,3,0,11,11.965
2394,8,-3,4,16,1,2,0,5,11.97
2395,-14,-20,-12,-9,-1,-1,1,-8,11.975
2396,57,-6,3,-1,0,2,2,23,11.98
2397,-28,8,8,14,-3,-5,-6,-24,11.985
2398,8,-13,-13,-34,-3,-2,-7,-10,11.99
2399,-36,-9,8,-3,-1,-1,-2,4,11.995000000000001
2400,4,7,-5,-4,0,0,2,3,12.0
2401,-15,-6,2,3,-3,-4,-6,-12,12.005
2402,17,-8,-6,-10,-3,0,9,28,12.01
2403,19,10,-16,4,-1,-3,1,3,12.015
2404,2,-2,11,-6,-3,-5,-11,-18,12.02
2405,-5,-4,1,-1,0,2,1,-21,12.025
2406,-18,-16,-4,6,0,-4,-10,0,12.030000000000001
2407,13,3,4,-6,-3,-1,2,10,12.035
2408,6,-50,-10,5,3,4,8,21,12.040000000000001
2409,-2,1,-19,-21,-2,-4,-4,-10,12.045
2410,16,2,0,-2,-7,-2,4,7,12.05
2411,-7,-4,-14,-6,-3,0,4,23,12.055
2412,0,8,2,0,1,-1,-3,-21,12.06
2413,10,3,0,-3,2,3,5,18,12.065
2414,-5,-2,-1,10,3,0,-4,-33,12.07
2415,4,-13,1,-9,-5,-3,0,16,12.075000000000001
2416,6,1,0,-5,-4,-1,0,-2,12.08
2417,-43,-1,-3,-5,2,1,1,0,12.085
2418,15,-10,5,-2,-2,-5,-9,-10,12.09
2419,6,6,16,13,0,-1,-1,-6,12.095
2420,0,7,0,-9,1,-1,0,-4,12.1
2421,-13,-32,0,9,-2,-1,-1,-7,12.105
2422,-15,-7,-6,-8,-2,1,0,5,12.11
2423,-1,-1,5,4,3,0,-3,-10,12.115
2424,-19,-3,1,5,0,0,-1,-8,12.120000000000001
2425,50,33,0,-9,-2,-2,-3,11,12.125
2426,-27,10,0,6,-4,0,2,-7,12.13
2427,-2,-17,-9,-11,4,3,6,11,12.135
2428,0,11,8,2,0,1,3,19,12.14
2429,-13,2,6,8,-1,1,-3,-55,12.145
2430,13,-3,3,-13,-3,-1,-1,33,12.15
2431,19,2,1,-13,-8,-5,-8,-34,12.155000000000001
2432,-23,-38,-10,-21,-5,-2,-3,-20,12.16
2433,1,11,5,6,0,-1,4,28,12.165000000000001
2434,-7,-15,0,10,2,-2,-5,-12,12.17
2435,0,1,-1,15,3,4,11,26,12.175
2436,-10,-3,4,-5,-1,-1,-4,9,12.18
2437,7,16,1,3,-2,-4,-9,-30,12.185
2438,14,-4,5,11,1,1,4,1,12.19
2439,-13,-34,-6,-10,-5,-2,-2,5,12.195
2440,-27,11,-4,1,0,0,3,-14,12.200000000000001
2441,24,20,-1,-4,-2,-1,4,20,12.205
2442,-18,-8,-5,3,0,-3,-3,-4,12.21
2443,16,8,5,-2,1,1,1,-5,12.215
2444,-23,-1,-4,-4,-6,-3,-3,1,12.22
2445,12,6,4,7,3,2,1,-1,12.225
2446,6,11,2,-10,-3,-4,1,17,12.23
2447,-9,-5,8,6,-1,-2,-3,-19,12.235
2448,-8,-2,-16,-8,-3,-7,-9,-4,12.24
2449,-17,9,6,14,0,1,5,22,12.245000000000001
2450,29,19,-3,-18,1,-2,-6,5,12.25
2451,-8,-11,-7,-1,4,3,-4,-41,12.255
2452,-1,3,3,1,-3,-3,-2,-13,12.26
2453,-8,-7,7,21,1,-1,-1,5,12.265
2454,31,-33,-17,-21,-1,3,0,9,12.27
2455,-21,15,7,5,-1,-4,-3,1,12.275
2456,22,-14,2,10,1,1,8,19,12.280000000000001
2457,7,-19,-19,-27,-3,-4,-4,-2,12.285
2458,-14,0,3,14,2,5,4,-18,12.290000000000001
2459,36,24,0,0,0,1,4,21,12.295
2460,-3,3,5,2,2,-2,0,-11,12.3
2461,8,-3,-2,-11,-5,-3,-3,9,12.305
2462,-26,24,10,5,3,0,-7,-24,12.31
2463,-6,-34,-9,6,-2,-2,-5,9,12.315
2464,5,26,-1,3,0,2,3,1,12.32
2465,0,-17,-11,-4,0,4,5,1,12.325000000000001
2466,8,5,0,-9,-2,1,7,13,12.33
2467,-5,6,6,13,2,1,-4,-2,12.335
2468,-5,15,3,-1,-3,-3,-3,-7,12.34
2469,8,-5,-7,-11,-5,-3,1,30,12.345
2470,-18,16,-4,2,-2,-2,-7,-51,12.35
2471,-3,19,4,8,2,-1,1,-3,12.355
2472,-9,-7,6,9,3,-1,3,20,12.36
2473,-16,-17,-7,-23,-5,-2,-7,-29,12.365
2474,6,-6,13,18,2,1,4,9,12.370000000000001
2475,-1,-23,-18,-22,-6,-3,-3,8,12.375
2476,23,14,4,10,-1,-2,1,-13,12.38
2477,3,7,-4,-3,0,-3,-3,28,12.385
2478,-16,-14,10,4,1,0,-6,-23,12.39
2479,17,-8,-2,-8,-1,-1,4,14,12.395
2480,0,1,-9,-6,-2,1,3,-30,12.4
2481,1,9,0,3,-1,0,4,35,12.405000000000001
2482,3,-17,-10,-6,0,-3,-3,-18,12.41
2483,-37,-2,13,8,1,1,-15,-33,12.415000000000001
2484,7,-49,2,3,2,1,0,14,12.42
2485,8,-1,-14,-12,-5,-2,1,-12,12.425
2486,-1,-9,0,7,-1,-1,2,26,12.43
2487,6,3,7,7,0,1,4,6,12.435
2488,6,-4,-6,9,2,-1,-5,5,12.44
2489,-9,-11,1,-8,0,-2,-3,-16,12.445
2490,-2,-39,-2,0,0,2,7,32,12.450000000000001
2491,-6,1,0,0,-2,-1,0,-6,12.455
2492,10,-2,0,-12,-2,1,0,4,12.46
2493,-5,-10,-11,-4,0,-1,-1,9,12.465
2494,3,27,-7,7,-5,-2,-4,-37,12.47
2495,-1,9,-6,-6,0,-2,3,6,12.475
2496,12,10,-1,2,0,1,5,28,12.48
2497,-9,23,2,3,-3,-3,-10,-56,12.485
2498,-1,-1,0,-11,-2,-4,-12,-17,12.49
2499,-5,-21,1,1,0,0,-2,6,12.495000000000001
2500,1,-1,-7,3,2,3,4,1,12.5
2501,-2,2,10,18,3,5,14,14,12.505
2502,-22,-2,-12,5,2,0,-1,7,12.51
2503,-7,-2,-3,-7,-4,-9,-14,-22,12.515
2504,-15,-1,-6,-8,-3,1,-1,-2,12.52
2505,-5,-7,6,3,1,-1,-1,-8,12.525
2506,14,13,5,10,2,1,2,19,12.530000000000001
2507,-8,14,-5,-13,-1,1,6,5,12.535
2508,12,24,-1,5,-1,-2,5,4,12.540000000000001
2509,8,3,1,-9,-1,-2,-8,-7,12.545
2510,-5,-1,1,-3,-2,-3,-1,12,12.55
2511,4,-7,1,6,-1,-2,-2,-10,12.555
2512,-11,-14,2,4,-1,1,-2,0,12.56
2513,7,-3,-2,-7,-2,1,1,-4,12.565
2514,8,11,-2,2,0,1,2,11,12.57
2515,5,8,0,-4,-1,1,0,3,12.575000000000001
2516,-4,2,5,3,1,-2,-4,-13,12.58
2517,-2,8,2,9,-1,-1,-2,30,12.585
2518,8,-17,-8,-13,-2,-3,3,-11,12.59
2519,-13,3,-3,0,-1,0,1,18,12.595
2520,-8,19,7,-2,1,-4,-8,-40,12.6
2521,1,-38,10,7,5,2,2,6,12.605
2522,-5,-8,9,10,-4,-3,-5,-7,12.61
2523,14,7,-11,-2,-3,1,7,2,12.615
2524,-6,-12,-6,-7,-2,0,-6,21,12.620000000000001
2525,-14,-4,6,4,0,-4,-5,-24,12.625
2526,5,14,4,-7,0,-1,3,0,12.63
2527,6,-5,7,7,2,-1,-6,-11,12.635
2528,1,3,4,-7,-2,0,0,2,12.64
2529,-12,-12,-7,0,-2,0,4,1,12.645
2530,10,5,-8,-8,-2,-1,-3,-2,12.65
2531,0,10,-2,-2,1,-1,-3,10,12.655000000000001
2532,-10,-8,3,-1,-1,-1,-2,-11,12.66
2533,7,10,-2,-1,-2,-1,-1,-6,12.665000000000001
2534,1,8,1,-2,1,0,6,15,12.67
2535,-1,-9,-1,3,0,1,1,-6,12.675
2536,6,-15,-3,-8,-4,-4,-6,1,12.68
2537,-1,-29,-1,2,-1,-4,0,-1,12.685
2538,-6,-14,-3,4,1,2,2,3,12.69
2539,0,-5,0,2,-5,-6,-5,-2,12.695
2540,6,1,-7,-20,-2,3,0,2,12.700000000000001
2541,2,10,-4,-2,-1,1,-2,-4,12.705
2542,-6,-6,3,1,-1,-1,-2,2,12.71
2543,-1,-9,6,5,2,1,2,1,12.715
2544,0,4,2,8,0,-1,1,0,12.72
2545,1,23,-6,-11,-3,-3,-3,-2,12.725
2546,-4,18,3,-5,-2,1,-1,5,12.73
2547,-10,11,-2,-2,1,0,1,-1,12.735
2548,-20,-6,4,1,-2,-3,-2,-7,12.74
2549,18,7,-1,-2,1,3,3,9,12.745000000000001
2550,3,-5,3,7,1,0,0,1,12.75
2551,-5,0,1,-6,-2,0,-2,-2,12.755
2552,2,-3,-1,0,1,0,-1,1,12.76
2553,10,-50,-4,6,1,1,-1,-2,12.765
2554,-22,-25,-11,-9,-4,-4,-2,-3,12.77
2555,2,-30,1,-1,-3,-1,0,-4,12.775
2556,-1,9,-4,-1,-1,-1,-3,-3,12.780000000000001
2557,1,4,4,4,2,0,-1,0,12.785
2558,3,2,6,10,1,-1,-1,-2,12.790000000000001
2559,-6,-13,-8,-14,-1,-1,-1,1,12.795
2560,10,1,-1,2,0,-1,-2,-8,12.8
2561,-6,11,0,1,0,1,1,0,12.805
2562,5,2,0,0,1,-2,-3,-1,12.81
2563,-3,9,5,4,-3,-3,-3,-4,12.815
2564,-10,-11,2,-3,2,-1,0,6,12.82
2565,-7,10,1,-2,-1,-2,-2,-12,12.825000000000001
2566,7,12,2,3,2,4,4,4,12.83
2567,8,5,-2,-3,-2,1,1,1,12.835
2568,-3,-10,-5,-5,-3,-7,-6,-7,12.84
2569,-3,1,-6,-3,-6,-7,-6,-3,12.845
2570,2,-21,-2,0,2,1,1,5,12.85
2571,-5,38,0,-2,1,2,4,-2,12.855
2572,13,-1,-3,2,0,2,2,3,12.86
2573,12,13,1,-1,-1,-3,-1,1,12.865
2574,-38,-29,-10,-2,0,1,2,0,12.870000000000001
2575,17,-2,0,-1,0,0,0,5,12.875
2576,-10,2,-3,0,-2,-1,-2,-8,12.88
2577,0,5,4,4,1,1,2,11,12.885
2578,10,23,-1,-2,-2,-2,-1,-7,12.89
2579,-9,-9,2,-3,1,-1,-2,1,12.895
2580,-6,-7,2,-3,0,-3,0,-3,12.9
2581,0,-2,4,1,0,0,0,-3,12.905000000000001
2582,10,29,-1,-2,-6,-2,-1,2,12.91
2583,-7,-19,-3,3,-2,-3,-3,0,12.915000000000001
2584,-3,-4,4,4,1,1,1,-4,12.92
2585,-6,1,-6,-7,-3,-1,-2,-2,12.925
2586,3,-3,0,-4,0,-2,-3,1,12.93
2587,8,-5,1,-2,-2,-3,-1,-2,12.935
2588,-3,20,4,-3,-2,-1,2,4,12.94
2589,0,3,-1,-1,0,-2,1,-1,12.945
2590,-5,11,6,1,-1,0,1,1,12.950000000000001
2591,-5,-7,-4,-5,-5,-4,-4,-9,12.955
2592,-5,-3,-1,-2,-1,0,-1,3,12.96
2593,-6,-4,1,-2,-1,0,0,-2,12.965
2594,6,-5,-4,-3,-2,0,-1,-1,12.97
2595,8,9,-14,-1,-1,-1,1,-2,12.975
2596,-1,0,-13,3,-2,1,-1,-1,12.98
2597,-15,3,-12,0,-1,-3,-1,3,12.985
2598,-2,-6,-10,-6,-1,-2,-2,-6,12.99
2599,0,1,2,2,2,-1,1,2,12.995000000000001
2600,2,-14,2,2,0,-1,-2,-1,13.0
2601,8,14,7,-1,0,1,0,1,13.005
2602,-8,7,9,-1,-2,-3,-1,3,13.01
2603,13,4,8,2,-1,0,0,2,13.015
2604,0,-1,-1,-4,-3,1,-2,-6,13.02
2605,-7,-13,2,-4,-4,-3,-3,-8,13.025
2606,-5,-26,3,-1,-2,-1,-2,-4,13.030000000000001
2607,4,25,2,-3,-3,0,0,3,13.035
2608,19,20,2,0,2,2,1,12,13.040000000000001
2609,-10,-12,3,-1,-1,0,1,-4,13.045
2610,1,-8,1,-4,-4,-3,-3,-6,13.05
2611,-7,-5,3,-1,0,-2,-3,-3,13.055
2612,-3,-6,0,0,-2,-3,0,-1,13.06
2613,-4,1,-4,-1,-1,-3,-2,-3,13.065
2614,12,13,-5,2,1,2,0,4,13.07
2615,-11,-15,0,0,1,1,0,-4,13.075000000000001
2616,3,7,-1,0,-2,-4,-1,1,13.08
2617,2,-36,6,-2,-3,-1,-1,0,13.085
2618,-7,-8,-5,1,-1,1,0,0,13.09
2619,2,0,-7,1,0,0,-1,0,13.095
2620,-6,-3,-6,0,-1,-2,-2,-3,13.1
2621,-1,2,-11,-2,0,0,0,0,13.105
2622,5,6,-2,-1,-1,-1,-1,-1,13.11
2623,-2,-6,1,1,0,-1,0,-1,13.115
2624,-11,-24,9,1,0,1,1,-1,13.120000000000001
2625,2,-4,3,-1,-2,-2,-1,2,13.125
2626,1,17,2,-1,-1,-3,-3,-2,13.13
2627,-5,4,3,1,2,3,2,-1,13.135
2628,2,-15,4,5,1,2,1,3,13.14
2629,-7,-17,6,-2,-4,-3,-3,0,13.145
2630,-8,-21,-4,-4,-2,-4,-4,-5,13.15
2631,0,-7,2,-1,-1,-1,-1,-3,13.155000000000001
2632,-5,2,-6,-2,-2,1,-1,1,13.16
2633,9,20,1,5,5,2,2,2,13.165000000000001
2634,11,-3,-2,2,1,1,2,4,13.17
2635,-2,-9,-2,-3,-3,-2,-1,-2,13.175
2636,1,5,-4,-2,1,2,1,2,13.18
2637,-5,5,-3,-1,-2,-4,-1,-5,13.185
2638,4,9,0,-1,1,0,-1,0,13.19
2639,2,9,2,2,0,0,-2,-1,13.195
2640,-4,0,-1,1,-2,-2,-2,-1,13.200000000000001
2641,10,12,3,4,2,1,0,2,13.205
2642,-32,-2,3,2,1,0,1,-7,13.21
2643,-3,-1,-2,-5,-3,-2,1,4,13.215
2644,4,-10,-1,-1,0,-2,-2,1,13.22
2645,0,20,1,-1,1,1,-2,0,13.225
2646,2,-18,2,0,0,0,1,1,13.23
2647,0,4,-4,1,-1,-1,0,-5,13.235
2648,1,13,0,-2,1,0,0,2,13.24
2649,-4,-31,-6,-2,-3,1,1,-1,13.245000000000001
2650,0,-1,0,-2,0,-1,0,4,13.25
2651,-11,-24,1,-2,-1,0,-3,-7,13.255
2652,5,6,-3,0,0,0,0,-1,13.26
2653,1,4,-1,-2,0,-1,-1,-2,13.265
2654,4,1,2,-4,-1,-1,0,-1,13.27
2655,-7,-9,-1,0,-1,-2,-1,-3,13.275
2656,4,-4,-2,-4,-1,0,0,3,13.280000000000001
2657,4,10,-1,3,1,3,-1,1,13.285
2658,-8,-9,-3,1,-2,1,-1,3,13.290000000000001
2659,0,11,-1,0,-2,-2,-1,0,13.295
2660,-1,-10,1,-5,-3,-3,-2,-7,13.3
2661,0,11,3,-3,-2,-2,-1,5,13.305
2662,3,18,2,-2,0,-3,-2,-3,13.31
2663,1,1,-1,3,2,1,-1,3,13.315
2664,3,14,2,0,-1,-2,-3,-4,13.32
2665,0,-6,-2,-2,-2,-3,-2,-3,13.325000000000001
2666,-1,8,2,1,1,1,0,-3,13.33
2667,-5,0,0,0,0,-2,-2,-1,13.335
2668,2,4,-3,-2,-2,3,4,1,13.34
2669,-8,19,-4,-3,-2,-1,0,-1,13.345
2670,3,-11,-4,-2,-2,-1,-2,-4,13.35
2671,4,-26,-4,-1,0,0,0,6,13.355
2672,1,10,0,1,2,-1,-1,-2,13.36
2673,-3,-10,-4,-3,-1,-1,-1,-3,13.365
2674,-4,-1,0,-2,-1,-2,-1,-1,13.370000000000001
2675,0,9,6,1,-1,-1,-1,0,13.375
2676,0,-8,0,0,-1,-3,-2,4,13.38
2677,-14,5,6,0,1,0,1,-6,13.385
2678,10,22,-7,-2,-3,-4,-4,-1,13.39
2679,5,-1,-2,0,1,0,1,-3,13.395
2680,-12,-11,1,0,-2,-1,1,-1,13.4
2681,4,4,-4,-3,-3,-2,-3,-1,13.405000000000001
2682,7,15,4,2,0,-1,-3,2,13.41
2683,-6,-1,-1,-3,-3,-2,-1,-5,13.415000000000001
2684,0,-9,1,2,1,1,-1,0,13.42
2685,-10,1,0,0,-1,0,2,1,13.425
2686,-2,-16,-1,-4,-2,-2,-2,-3,13.43
2687,10,3,0,-2,-1,-3,-2,1,13.435
2688,-14,-3,1,0,0,-1,0,-2,13.44
2689,13,-7,-2,2,0,-1,0,0,13.445
2690,-13,-1,0,1,0,0,-1,1,13.450000000000001
2691,1,12,1,1,-2,-1,0,1,13.455
2692,4,23,-5,-4,-4,-2,-5,-5,13.46
2693,-6,3,0,-1,0,2,-2,-4,13.465
2694,20,-10,-8,-4,-2,0,1,5,13.47
2695,-12,-14,-3,1,2,2,1,1,13.475
2696,-1,-3,0,-3,-2,-2,-2,-2,13.48
2697,8,15,-1,-1,0,-1,-1,2,13.485
2698,-10,-13,-2,-1,-2,-3,-1,-4,13.49
2699,5,8,0,-1,0,-1,-2,-1,13.495000000000001
2700,-4,-9,-2,-2,-3,-2,-2,0,13.5
2701,-6,-33,0,-2,1,-1,1,-2,13.505
2702,-2,-19,-3,-1,-1,-1,-1,-1,13.51
2703,11,21,-6,-2,0,-1,-1,-1,13.515
2704,2,-5,-8,-1,-1,-2,-3,0,13.52
2705,0,7,-2,-2,-2,-4,-3,-4,13.525
2706,-2,14,2,-1,0,1,1,1,13.530000000000001
2707,1,-8,5,-3,-2,-3,1,1,13.535
2708,-2,-3,1,-1,-2,-1,-1,-4,13.540000000000001
2709,2,14,3,0,-2,2,1,1,13.545
2710,0,11,-2,-2,-1,-2,1,0,13.55
2711,0,14,1,2,1,1,1,-1,13.555
2712,-2,-15,1,-1,0,-3,1,1,13.56
2713,3,-11,-4,-2,-1,-2,-1,-1,13.565
2714,-16,2,-2,0,-1,-1,-1,-4,13.57
2715,7,-2,-1,-2,0,3,1,1,13.575000000000001
2716,3,-23,-1,1,1,1,1,0,13.58
2717,1,-1,-2,-1,-1,-1,1,2,13.585
2718,-1,3,3,1,0,0,-1,-2,13.59
2719,-8,1,-4,-5,0,-2,-2,-2,13.595
2720,11,7,0,0,0,-1,-1,-1,13.6
2721,-30,-1,1,1,0,-4,-2,0,13.605
2722,-1,-14,-4,-3,-3,0,1,1,13.61
2723,-6,-36,2,-1,0,2,-1,-1,13.615
2724,7,19,-4,-2,-5,-3,-2,-1,13.620000000000001
2725,7,-28,1,-1,0,2,0,-1,13.625
2726,1,3,-2,-1,-2,-4,-1,-2,13.63
2727,-3,24,-1,-3,-5,-4,-2,-3,13.635
2728,6,-9,2,-2,2,1,1,0,13.64
2729,5,8,-1,1,1,0,0,1,13.645
2730,4,-1,3,0,-1,-1,-2,0,13.65
2731,-1,-16,-2,1,-2,-1,-3,-1,13.655000000000001
2732,-4,16,2,-1,0,2,0,0,13.66
2733,-5,-6,-2,0,-2,-2,-3,-4,13.665000000000001
2734,-10,1,-2,0,2,2,1,-7,13.67
2735,2,7,-1,-2,-1,2,2,10,13.675
2736,5,-4,-1,-1,-3,-2,-3,2,13.68
2737,-5,-23,-1,1,-1,0,-1,-1,13.685
2738,2,4,0,-1,-1,1,-2,1,13.69
2739,-7,3,0,-2,-2,-1,0,-5,13.695
2740,1,1,-2,1,0,2,2,2,13.700000000000001
2741,0,5,0,-1,1,1,-1,0,13.705
2742,2,31,2,-1,2,-1,0,-4,13.71
2743,-1,-3,-1,2,1,0,1,1,13.715
2744,-16,10,3,0,-2,-1,-2,-1,13.72
2745,17,42,-4,-4,-3,-2,-1,0,13.725
2746,-8,-5,1,-2,-1,-2,0,0,13.73
2747,-1,-2,0,-1,-1,-2,-1,-3,13.735
2748,1,18,1,3,2,-1,1,-2,13.74
2749,-9,-4,4,-1,-1,-2,-2,-2,13.745000000000001
2750,6,12,2,-1,-1,0,0,2,13.75
2751,4,-21,-3,2,0,0,-3,-3,13.755
2752,-11,-20,-2,0,0,-3,1,-1,13.76
2753,-2,-6,-2,0,0,0,0,-1,13.765
2754,7,6,-4,-4,-3,-4,-3,0,13.77
2755,6,3,3,4,3,2,1,0,13.775
2756,-8,-4,1,1,1,-1,-2,-4,13.780000000000001
2757,2,7,1,-3,-2,-1,0,-1,13.785
2758,1,47,1,-1,-4,-3,-1,0,13.790000000000001
2759,-3,-8,-2,1,0,0,0,0,13.795
2760,7,12,-3,-2,-2,-1,-3,0,13.8
2761,6,-8,-6,1,2,1,-1,2,13.805
2762,6,-20,0,1,3,1,1,-7,13.81
2763,-25,14,1,-2,-2,-3,-2,-7,13.815
2764,10,5,-3,0,0,1,1,4,13.82
2765,-6,-12,3,-1,-1,1,-1,-4,13.825000000000001
2766,-8,-14,4,3,0,0,-1,7,13.83
2767,4,-9,0,-3,-4,-1,-1,-1,13.835
2768,-11,-7,-3,-4,-3,-2,0,-1,13.84
2769,3,-12,-4,0,-1,-2,1,-5,13.845
2770,-3,-15,-2,0,1,2,-1,-3,13.85
2771,3,7,-1,0,0,-1,0,-4,13.855
2772,-5,4,0,0,-1,-2,-2,2,13.86
2773,7,3,-3,-3,-2,-1,-2,1,13.865
2774,3,-3,0,-1,0,-1,-1,1,13.870000000000001
2775,-2,8,-5,-2,-2,-1,-3,-1,13.875
2776,1,-6,-2,-3,-2,1,-1,-5,13.88
2777,-1,25,2,-1,-1,-2,0,1,13.885
2778,-2,-23,-3,-1,0,1,0,0,13.89
2779,-2,5,-1,0,-1,-2,0,4,13.895
2780,-3,-12,6,3,1,-1,-1,-8,13.9
2781,0,-5,-4,-4,0,-2,0,0,13.905000000000001
2782,-5,7,3,0,0,-1,-1,0,13.91
2783,3,-29,-4,-1,0,-1,-2,-1,13.915000000000001
2784,-8,15,2,3,1,1,1,0,13.92
2785,-7,-25,2,1,-1,0,1,1,13.925
2786,20,-2,-5,-1,0,0,2,3,13.93
2787,-19,1,-2,0,-1,-3,-4,-10,13.935
2788,15,-5,0,-2,-3,0,1,1,13.94
2789,-30,-4,4,0,-2,-4,-2,0,13.945
2790,8,-18,-5,-4,-2,0,0,0,13.950000000000001
2791,-2,-2,-1,-4,-2,-1,-2,-1,13.955
2792,2,33,-2,-6,-2,0,0,-1,13.96
2793,7,9,0,0,1,0,1,-4,13.965
2794,-6,-7,0,2,-2,-1,-2,1,13.97
2795,3,17,1,-1,-1,0,0,1,13.975
2796,-5,-14,0,0,-1,-2,-2,-3,13.98
2797,7,6,-4,-1,-3,-1,0,4,13.985
2798,5,-5,0,-1,0,1,0,0,13.99
2799,-8,-9,-3,-8,-6,-4,-5,-6,13.995000000000001
2800,-15,-41,0,-2,-1,-1,0,-2,14.0
2801,2,2,2,0,1,2,-1,-1,14.005
2802,-5,2,-5,0,0,-2,-1,-1,14.01
2803,7,8,2,1,1,0,1,3,14.015
2804,2,-2,-2,1,2,-2,-2,1,14.02
2805,-1,5,-1,-1,0,-1,-2,-1,14.025
2806,-5,-6,-3,-2,-1,-4,-4,-4,14.030000000000001
2807,12,13,2,3,2,1,4,3,14.035
2808,-2,-15,-5,-1,-3,-2,-3,0,14.040000000000001
2809,-3,16,-5,-3,0,0,0,0,14.045
2810,-7,-17,7,1,1,-1,1,-1,14.05
2811,-2,3,1,2,2,1,0,-1,14.055
2812,3,12,-3,2,2,0,1,0,14.06
2813,1,-5,2,0,-1,-1,1,-1,14.065
2814,-2,1,-1,-1,-1,0,-1,-1,14.07
2815,0,2,-1,-3,-2,-1,0,2,14.075000000000001
2816,3,8,1,0,-1,-2,-1,-2,14.08
2817,5,-14,-1,-4,-4,-3,-2,0,14.085
2818,-17,-26,-4,-4,-3,-2,-1,-4,14.09
2819,0,-8,-4,-3,-2,-4,-1,-4,14.095
2820,-2,6,-4,-1,0,1,-1,4,14.1
2821,0,2,0,1,0,-2,-2,-2,14.105
2822,9,-6,2,0,0,1,-1,0,14.11
2823,-4,-13,-5,-3,-1,0,-1,0,14.115
2824,-4,-17,-9,-5,-2,1,1,0,14.120000000000001
2825,10,2,2,-2,-3,-1,3,-1,14.125
2826,-10,4,-4,-3,-2,-3,-13,-12,14.13
2827,2,-4,1,1,-2,-4,-5,-10,14.135
2828,4,-1,7,1,0,1,4,25,14.14
2829,2,-7,2,2,2,3,-1,4,14.145
2830,22,43,4,-2,-3,0,5,8,14.15
2831,-14,1,0,-2,-1,-3,-4,-5,14.155000000000001
2832,0,-18,10,1,1,1,0,-11,14.16
2833,0,-13,-6,-1,-1,-3,-4,1,14.165000000000001
2834,-15,13,-4,-4,-5,-4,-4,-4,14.17
2835,1,-2,-3,2,3,2,2,1,14.175
2836,-12,1,-1,-2,-1,0,0,-6,14.18
2837,2,1,-1,-3,-1,-1,0,0,14.185
2838,-3,6,-1,5,3,0,-1,-4,14.19
2839,5,-5,-2,1,1,4,1,5,14.195
2840,7,22,2,-3,-1,-1,-3,-6,14.200000000000001
2841,-3,5,-2,-1,-1,-1,-2,-3,14.205
2842,0,-3,-3,0,-1,0,0,2,14.21
2843,0,4,0,0,-3,-1,0,1,14.215
2844,9,20,-4,1,-1,-2,-4,-5,14.22
2845,2,7,-1,4,3,1,0,-1,14.225
2846,-14,-5,1,2,0,1,2,-4,14.23
2847,3,-20,5,-5,-5,-2,-1,7,14.235
2848,-2,5,-5,-3,-2,-3,-1,-7,14.24
2849,-1,-2,-4,-2,-1,0,-2,-1,14.245000000000001
2850,-12,-50,2,1,1,0,2,-1,14.25
2851,23,40,3,3,3,1,0,3,14.255
2852,-16,-4,2,1,-1,-2,-4,-1,14.26
2853,0,1,2,-1,-2,-2,0,1,14.265
2854,-4,-7,4,-3,-2,-2,-1,-2,14.27
2855,-9,-13,-5,-1,0,1,1,-1,14.275
2856,5,-7,-1,0,-2,-4,0,0,14.280000000000001
2857,-4,-34,-3,2,2,2,-1,-3,14.285
2858,-2,13,-3,-4,-3,0,0,2,14.290000000000001
2859,1,-9,-1,1,0,1,2,0,14.295
2860,-6,11,-2,2,1,3,0,-2,14.3
2861,-8,-19,-2,-5,-5,-4,-3,-4,14.305
2862,-5,-12,-9,-4,-2,-3,-2,3,14.31
2863,5,13,0,-4,-1,-2,0,-5,14.315
2864,-5,7,0,-3,-1,-1,-2,-2,14.32
2865,-3,3,1,2,-2,0,0,-2,14.325000000000001
2866,6,-1,0,0,3,1,1,1,14.33
2867,1,-1,-1,-1,-2,-3,-1,-1,14.335
2868,-5,-15,2,0,-1,0,-2,-2,14.34
2869,4,15,-2,1,0,0,1,1,14.345
2870,-5,0,-2,-1,-1,0,1,-2,14.35
2871,9,6,1,2,3,0,1,8,14.355
2872,15,-19,-7,-5,-4,-2,-1,2,14.36
2873,18,-1,-7,-1,-1,-1,0,-7,14.365
2874,-18,4,0,0,1,-1,0,-4,14.370000000000001
2875,-11,-9,5,0,-1,0,-2,-8,14.375
2876,-11,10,-2,-2,-1,0,-1,3,14.38
2877,15,5,4,0,-1,-1,-1,6,14.385
2878,2,6,-3,-2,-1,-2,0,-1,14.39
2879,-6,-5,-4,1,1,0,-1,0,14.395
2880,0,-11,0,1,0,-2,0,-1,14.4
2881,-11,4,4,-2,0,-2,-2,0,14.405000000000001
2882,8,-4,0,-1,0,-2,0,0,14.41
2883,-10,5,4,-2,0,0,0,-1,14.415000000000001
2884,0,8,1,-1,-1,2,2,-3,14.42
2885,-13,-12,-6,1,1,3,1,-1,14.425
2886,-1,-7,2,2,-1,0,0,1,14.43
2887,-1,21,-4,-1,-1,-2,1,1,14.435
2888,-2,-4,-3,-8,-4,-5,-4,-5,14.44
2889,-13,8,2,0,-2,-2,-4,-1,14.445
2890,13,-5,3,2,0,0,-1,0,14.450000000000001
2891,-4,-5,-4,0,1,0,-1,-3,14.455
2892,-1,-3,-1,2,1,2,1,2,14.46
2893,2,-1,-1,-2,-1,0,1,3,14.465
2894,2,5,1,-1,1,0,-1,1,14.47
2895,1,-4,-1,-2,-3,-3,-3,-3,14.475
2896,-1,-13,0,0,1,1,1,-1,14.48
2897,3,7,1,-1,-3,-2,-2,-2,14.485
2898,3,15,0,-1,-3,0,0,3,14.49
2899,-2,0,-3,0,0,0,-2,-1,14.495000000000001
2900,-9,-26,6,-2,-1,-3,-1,0,14.5
2901,10,-11,-3,2,1,1,-1,-1,14.505
2902,-13,1,-6,-4,-2,-1,-1,1,14.51
2903,10,-19,0,-1,-3,-3,-4,-7,14.515
2904,2,-6,-4,-1,-2,-2,-2,1,14.52
2905,5,21,0,0,0,-2,0,0,14.525
2906,-2,3,0,-1,-2,-1,-1,-2,14.530000000000001
2907,1,22,-1,-1,-4,-2,-1,2,14.535
2908,0,-29,-1,3,1,0,0,0,14.540000000000001
2909,-6,3,-2,-3,0,-1,0,-2,14.545
2910,21,22,2,1,0,-2,-1,0,14.55
2911,-20,10,-4,-4,-3,-2,0,-2,14.555
2912,0,2,-8,0,3,3,1,2,14.56
2913,3,-7,-1,-2,-1,0,-1,0,14.565
2914,7,7,-4,-4,-3,-2,-2,-4,14.57
2915,-7,-4,-2,-6,-3,-6,-3,-5,14.575000000000001
2916,0,14,-2,-1,-1,0,-1,-3,14.58
2917,-9,-9,-2,-1,0,-2,-2,0,14.585
2918,2,-13,2,-1,-1,0,-1,1,14.59
2919,10,11,-1,-2,-2,-4,-2,-1,14.595
2920,5,14,-1,3,1,1,0,-2,14.6
2921,-6,7,-1,0,-2,0,0,1,14.605
2922,-4,-12,-2,1,-2,1,0,-2,14.61
2923,-5,-30,-1,1,0,-1,-2,0,14.615
2924,-6,-8,1,1,1,0,0,3,14.620000000000001
2925,21,-8,4,0,2,0,0,-2,14.625
2926,-10,-1,-1,-2,0,-1,-2,-2,14.63
2927,-1,14,3,3,0,1,1,2,14.635
2928,1,28,-1,-4,-3,-3,-4,-5,14.64
2929,-11,-4,2,0,-1,1,-3,-1,14.645
2930,0,-25,-8,-1,-3,-2,0,0,14.65
2931,7,-22,-1,0,1,2,2,2,14.655000000000001
2932,6,-4,0,-1,-1,-3,0,2,14.66
2933,-4,35,4,1,0,3,3,1,14.665000000000001
2934,8,13,4,0,-1,-3,-3,-2,14.67
2935,-8,-13,1,2,1,2,1,2,14.675
2936,5,3,0,0,0,-2,0,-2,14.68
2937,-10,-22,-3,-3,-3,-3,-2,-3,14.685
2938,-2,-2,4,1,1,0,1,-1,14.69
2939,-3,-10,-3,-3,-3,-2,-2,-2,14.695
2940,13,3,0,1,-1,-2,-1,0,14.700000000000001
2941,-15,-15,-6,-2,-1,-3,-1,-3,14.705
2942,-2,-9,-2,-3,-1,-2,-1,-3,14.71
2943,20,30,1,0,1,2,2,1,14.715
2944,-25,-6,1,-1,0,2,2,2,14.72
2945,4,4,2,1,-1,-3,-3,-2,14.725
2946,9,6,0,0,1,1,-1,1,14.73
2947,-11,-10,-1,-1,0,-2,-1,-4,14.735
2948,12,-8,-2,-3,-3,0,-1,3,14.74
2949,-13,6,-1,-1,-1,0,0,-5,14.745000000000001
2950,-6,2,6,2,-2,-1,0,6,14.75
2951,11,-8,1,1,0,-1,-2,-1,14.755
2952,-7,-4,-6,-3,-2,-2,0,-3,14.76
2953,1,-2,-4,-2,-2,-4,-2,-1,14.765
2954,-3,-22,-5,-3,-1,1,-1,-1,14.77
2955,-5,-3,-3,-1,1,0,0,-1,14.775
2956,-13,-25,7,1,-1,2,-1,-2,14.780000000000001
2957,2,1,0,1,1,0,0,1,14.785
2958,-9,1,-2,0,2,-2,0,-3,14.790000000000001
2959,-3,19,8,1,-1,1,1,0,14.795
2960,-3,-22,-8,-8,-5,-2,-2,-4,14.8
2961,6,-1,-1,0,0,0,1,1,14.805
2962,4,15,-3,1,-1,-1,-1,0,14.81
2963,-4,-11,-4,2,1,2,2,0,14.815
2964,3,12,0,-1,-1,0,-3,-2,14.82
2965,-2,-4,1,-1,0,0,0,0,14.825000000000001
2966,-3,3,-2,-2,-1,1,0,1,14.83
2967,10,1,-1,-4,-3,-2,-1,0,14.835
2968,-10,17,2,2,3,-1,-1,-3,14.84
2969,5,2,-5,0,1,0,-1,1,14.845
2970,3,-29,3,0,0,1,1,-1,14.85
2971,-17,-11,-1,-2,-4,-2,-3,0,14.855
2972,7,9,-2,-2,0,2,-1,-3,14.86
2973,-3,-12,1,0,-2,1,-2,-2,14.865
2974,4,13,-2,0,0,-1,-1,-2,14.870000000000001
2975,0,-2,-1,-1,-1,-1,-2,-1,14.875
2976,6,3,1,2,1,-1,2,1,14.88
2977,3,-2,-1,-1,-1,1,0,1,14.885
2978,-9,6,0,1,1,1,2,0,14.89
2979,4,-7,-2,-2,0,-1,-1,1,14.895
2980,2,-1,-3,-5,-4,-2,-1,-1,14.9
2981,0,6,-7,-6,-2,0,0,-1,14.905000000000001
2982,-7,5,0,-3,-3,-4,-2,-3,14.91
2983,-4,-28,2,-1,0,0,0,-2,14.915000000000001
2984,-2,-7,2,2,-2,-1,0,1,14.92
2985,-2,-5,1,-1,1,-2,-1,1,14.925
2986,7,2,-2,-2,0,1,-1,-1,14.93
2987,-4,-4,0,2,0,-1,-1,-1,14.935
2988,-10,-5,5,-1,1,1,0,1,14.94
2989,11,23,-2,-2,-3,-4,-1,-3,14.945
2990,-3,3,-4,-2,-1,-2,1,-1,14.950000000000001
2991,-2,11,-2,1,-1,-2,-3,-1,14.955
2992,0,4,-2,1,-1,-1,-1,0,14.96
2993,-4,-8,0,2,0,0,0,-2,14.965
2994,3,-3,1,-1,0,2,0,-1,14.97
2995,0,5,0,-1,0,1,0,0,14.975
2996,-2,-49,1,0,0,2,0,0,14.98
2997,-9,1,-4,-5,-2,-3,0,-1,14.985
2998,-3,-2,-5,-7,-2,0,-2,0,14.99
2999,9,7,-5,0,-1,0,1,1,14.995000000000001
3000,-6,0,-5,-4,-3,-5,-3,-1,15.0
3001,-4,-26,1,1,0,-2,-2,-2,15.005
3002,-10,3,2,0,0,-2,-2,-3,15.01
3003,-1,0,-2,-3,-2,-2,-1,-2,15.015
3004,3,13,2,3,2,0,2,-1,15.02
3005,6,2,0,3,0,-1,-2,0,15.025
3006,3,9,1,2,-1,-1,-1,0,15.030000000000001
3007,-2,-13,-8,-4,-2,0,0,-6,15.035
3008,-8,9,3,-2,-3,-2,-1,2,15.040000000000001
3009,-6,-6,-1,-3,0,1,-2,-1,15.045
3010,-3,-19,-2,-6,-4,-1,-2,0,15.05
3011,-2,-9,3,0,-1,-3,-2,-3,15.055
3012,-22,9,-2,1,0,-1,-1,0,15.06
3013,2,0,1,0,-2,-3,-1,-2,15.065
3014,-2,3,2,0,-2,-3,-4,-3,15.07
3015,-1,5,0,-2,-2,0,-1,2,15.075000000000001
3016,12,-3,-5,-1,0,-1,0,-1,15.08
3017,3,21,0,3,1,2,0,2,15.085
3018,7,47,-3,0,-2,-1,-2,-2,15.09
3019,1,2,-3,-4,-3,-1,-1,0,15.095
3020,12,8,-4,-1,1,0,1,1,15.1
3021,-11,-23,1,-4,-1,-1,0,-3,15.105
3022,-9,-8,2,1,1,0,-1,-2,15.11
3023,-8,-12,-1,-2,-2,-4,-4,-4,15.115
3024,-3,2,3,2,0,2,-2,-2,15.120000000000001
3025,3,-11,-1,-1,-2,-1,-1,-2,15.125
3026,1,-14,-2,1,0,-1,-1,1,15.13
3027,4,22,1,1,2,2,1,2,15.135
3028,8,52,0,0,-1,-2,-2,0,15.14
3029,-6,1,5,-1,1,0,1,-2,15.145
3030,-6,-7,-3,0,-3,-2,-1,0,15.15
3031,3,-6,-3,-1,-1,0,-2,1,15.155000000000001
3032,2,-19,-3,-4,-3,-4,-4,-2,15.16
3033,1,6,0,0,0,0,0,1,15.165000000000001
3034,2,1,4,0,1,1,-2,-1,15.17
3035,5,7,2,2,0,-1,0,-2,15.175
3036,-2,-30,-1,0,-1,-1,-1,-1,15.18
3037,-1,2,-2,-2,-1,-2,0,-1,15.185
3038,5,-21,-5,0,0,-1,0,0,15.19
3039,-9,0,3,-1,1,-1,1,-1,15.195
3040,12,-1,-5,-1,2,2,3,2,15.200000000000001
3041,12,-11,-9,-4,-4,-4,-4,-2,15.205
3042,-22,-9,-2,-1,-1,0,-2,-4,15.21
3043,-3,-23,-2,0,1,-1,-5,-1,15.215
3044,0,11,1,2,-1,0,-2,-3,15.22
3045,7,17,1,1,0,1,1,1,15.225
3046,13,-4,2,0,1,-2,-5,1,15.23
3047,-1,4,-3,-2,-3,-1,4,0,15.235
3048,-2,-2,-2,0,1,-1,0,-1,15.24
3049,3,6,-3,-1,-1,-1,-3,-2,15.245000000000001
3050,-2,-22,1,-1,2,2,1,1,15.25
3051,1,25,5,-1,-1,-1,-1,-1,15.255
3052,3,-2,0,0,-1,-1,-1,-1,15.26
3053,-8,-6,2,2,1,1,3,3,15.265
3054,12,49,8,-4,-4,-3,-1,-1,15.27
3055,1,-23,-5,-2,1,-1,-2,-2,15.275
3056,-4,2,-5,-1,-1,-2,1,2,15.280000000000001
3057,-12,-3,2,-1,-1,-1,-3,0,15.285
3058,2,-2,-3,-1,0,-2,-1,-3,15.290000000000001
3059,1,-23,1,0,-1,0,-2,-2,15.295
3060,-1,9,2,-1,-2,-3,-2,-1,15.3
3061,3,0,-3,0,-1,0,-1,0,15.305
3062,-7,-18,0,3,0,3,3,0,15.31
3063,10,3,0,-3,0,-2,0,1,15.315
3064,-5,4,1,-2,-3,-2,-2,-2,15.32
3065,-8,-4,0,-1,-1,0,-2,0,15.325000000000001
3066,10,-1,-5,0,-2,-1,0,-2,15.33
3067,-17,4,-4,1,2,0,-2,-1,15.335
3068,-3,-24,0,0,0,2,-2,0,15.34
3069,-2,6,5,0,-2,0,-1,1,15.345
3070,-4,-17,-3,-2,0,-2,-1,-1,15.35
3071,4,22,-4,0,-2,-1,0,-1,15.355
3072,-3,-14,4,-1,-1,0,0,-2,15.36
3073,-9,-15,-6,-2,0,0,1,-2,15.365
3074,4,-29,-1,0,-1,-3,-2,-2,15.370000000000001
3075,-3,-1,-2,1,0,0,-1,0,15.375
3076,-4,-2,1,1,0,-3,0,-3,15.38
3077,3,1,-2,-1,-2,-2,0,-1,15.385
3078,3,31,-4,-2,-1,0,1,1,15.39
3079,13,22,-4,0,0,-1,-1,0,15.395
3080,-3,5,2,-1,-1,1,0,0,15.4
3081,3,-2,-3,0,-1,-3,-6,-2,15.405000000000001
3082,-3,14,-2,1,-2,-3,4,-1,15.41
3083,-4,1,-3,-1,-1,0,1,2,15.415000000000001
3084,6,0,-3,-1,1,-2,-3,-2,15.42
3085,4,28,5,-2,-1,-1,0,-1,15.425
3086,-2,0,-3,-4,-2,0,-2,0,15.43
3087,-1,-2,1,1,-2,-1,-3,-1,15.435
3088,7,0,-7,-1,1,-2,1,1,15.44
3089,-6,-16,-5,2,0,-3,-1,-3,15.445
3090,-2,-5,0,3,-1,0,-2,0,15.450000000000001
3091,-9,-19,1,-1,-1,1,1,2,15.455
3092,2,-11,-4,-2,-3,-1,-3,0,15.46
3093,9,6,-1,0,1,0,1,-3,15.465
3094,-13,-17,0,1,2,0,0,-1,15.47
3095,-9,-46,7,3,-1,-1,1,-2,15.475
3096,-3,7,-4,-1,-2,-1,0,1,15.48
3097,-2,12,3,1,1,0,0,-1,15.485000000000001
3098,3,-4,-4,-1,-1,-1,-1,0,15.49
3099,10,26,-1,-3,0,-2,-3,-2,15.495000000000001
3100,-5,6,6,-1,-2,-2,-1,-1,15.5
3101,1,-9,-1,-5,-1,1,1,-2,15.505
3102,1,9,-5,-4,-3,-2,-3,-2,15.51
3103,3,24,2,2,-1,-1,-1,0,15.515
3104,-2,-1,1,-2,0,-1,-2,-2,15.52
3105,-3,-6,0,-1,0,1,0,1,15.525
3106,0,3,-1,1,0,-1,-2,-1,15.530000000000001
3107,-14,-55,3,-5,-2,1,1,0,15.535
3108,-1,-21,-1,4,0,2,0,-2,15.540000000000001
3109,-4,-10,-2,1,0,-1,-2,1,15.545
3110,-1,-20,4,0,-1,2,0,3,15.55
3111,-5,-8,1,-2,0,-1,1,-2,15.555
3112,-5,2,1,-3,-4,-2,-1,-2,15.56
3113,-2,-15,-1,-2,0,0,1,1,15.565
3114,6,6,-3,0,-1,-1,-1,-1,15.57
3115,0,26,-1,-1,0,1,-2,-1,15.575000000000001
3116,9,-10,1,-2,-1,1,-1,-1,15.58
3117,-18,16,4,-1,-4,-2,0,0,15.585
3118,4,11,-1,-2,-4,-2,0,1,15.59
3119,7,-18,-7,-5,-4,-2,-1,-1,15.595
3120,-12,-7,-5,0,0,0,1,-1,15.6
3121,8,-3,7,1,-1,1,3,0,15.605
3122,-8,13,-1,-1,1,-3,-2,-1,15.610000000000001
3123,2,10,0,1,-3,-1,-1,-2,15.615
3124,-2,16,-3,-3,-3,-1,-1,-2,15.620000000000001
3125,2,-3,2,-6,-3,-1,-3,-2,15.625
3126,-4,28,0,-2,-1,2,1,-1,15.63
3127,3,8,0,1,1,0,-1,-1,15.635
3128,-1,4,0,0,0,-1,2,1,15.64
3129,3,3,-1,0,-1,-2,-1,-1,15.645
3130,-1,-27,3,0,-1,-2,-3,-1,15.65
3131,5,2,-1,-1,-1,-3,-2,-2,15.655000000000001
3132,-8,8,-4,1,1,-1,0,1,15.66
3133,7,28,-2,-3,-3,-3,-3,0,15.665000000000001
3134,1,-3,-4,0,0,-2,-2,-1,15.67
3135,1,2,1,-1,-2,-1,1,0,15.675
3136,-1,3,0,-1,-3,-2,-1,0,15.68
3137,4,-11,-6,0,0,-2,0,0,15.685
3138,1,6,-1,-2,-3,-1,0,-3,15.69
3139,5,14,-4,3,0,1,2,2,15.695
3140,1,-26,-4,2,2,-2,-4,-7,15.700000000000001
3141,-15,-70,-4,3,2,5,5,5,15.705
3142,3,-14,-2,-3,-1,-1,0,0,15.71
3143,-6,8,-3,-1,0,-1,-2,1,15.715
3144,3,14,-3,-1,-1,-1,-3,-2,15.72
3145,8,1,-1,0,0,-1,-3,-2,15.725
3146,-18,-2,2,2,1,-2,-1,-1,15.73
3147,9,-13,-2,-5,-3,-2,-5,-6,15.735000000000001
3148,2,4,10,0,1,2,2,2,15.74
3149,-2,8,2,-2,0,0,-2,1,15.745000000000001
3150,-1,2,-1,-1,1,1,-5,-1,15.75
3151,-2,30,0,-3,0,0,4,-4,15.755
3152,10,4,-5,-2,-1,-4,0,4,15.76
3153,3,-6,-4,-3,-1,0,1,-1,15.765
3154,1,-25,-6,2,3,-2,-1,1,15.77
3155,-7,-5,0,3,2,0,-3,-3,15.775
3156,-6,12,5,-1,0,0,2,2,15.780000000000001
3157,-2,11,-5,0,-2,-2,-1,-1,15.785
3158,5,-32,3,1,0,3,-11,-4,15.790000000000001
3159,-8,-25,-5,1,2,-2,-1,2,15.795
3160,5,3,-2,0,0,2,15,-3,15.8
3161,17,32,6,-3,-1,-3,14,9,15.805
3162,-24,-9,-2,-5,-2,4,-21,-8,15.81
3163,-13,8,3,-1,-1,-7,-5,-9,15.815
3164,-6,-3,-6,-1,-2,-3,12,4,15.82
3165,-15,21,11,6,1,0,7,-4,15.825000000000001
3166,28,-1,-5,2,2,3,0,11,15.83
3167,-14,30,2,2,-1,1,-5,3,15.835
3168,-1,-3,6,1,1,4,-2,-4,15.84
3169,-13,-8,-11,5,-5,-6,-6,-6,15.845
3170,-10,31,-2,-18,-3,0,6,-4,15.85
3171,-4,2,-1,-5,-1,0,-6,0,15.855
3172,2,-31,-2,-1,0,-3,-3,2,15.860000000000001
3173,-2,24,-5,1,1,2,-3,-1,15.865
3174,-6,-5,6,2,-2,-4,0,4,15.870000000000001
3175,25,26,-2,0,4,2,6,4,15.875
3176,-31,-27,5,4,1,1,3,2,15.88
3177,14,-38,-7,13,-3,0,-17,-5,15.885
3178,-14,-18,-9,-32,-9,-5,-3,-15,15.89
3179,34,-13,-1,-16,-7,-8,-1,-3,15.895
3180,16,63,6,-5,0,-3,-9,4,15.9
3181,23,-1,5,11,0,2,8,31,15.905000000000001
3182,-41,15,10,5,2,-4,-12,-41,15.91
3183,-13,-9,-6,-4,-8,-2,4,15,15.915000000000001
3184,25,-10,-13,-6,-7,-8,-21,-19,15.92
3185,-2,-11,2,-7,2,2,-2,-7,15.925
3186,32,-19,1,19,2,3,14,21,15.93
3187,-59,-27,-6,-19,-2,1,-2,-27,15.935
3188,-2,15,-3,2,1,2,1,7,15.94
3189,18,5,-11,-16,-6,-5,-4,-6,15.945
3190,-21,6,17,1,-1,-6,-2,-9,15.950000000000001
3191,33,26,14,23,5,3,-2,2,15.955
3192,16,-2,-11,15,-5,-2,1,11,15.96
3193,-28,-13,4,-32,-3,1,-2,-8,15.965
3194,-10,27,14,31,5,3,6,0,15.97
3195,19,4,-17,2,-4,-3,0,11,15.975
3196,-2,-21,2,-34,-3,-2,-8,-11,15.98
3197,-1,-20,23,33,4,1,-1,-4,15.985000000000001
3198,6,-6,-30,-78,-13,-10,-1,3,15.99
3199,-4,9,6,12,2,3,16,38,15.995000000000001
3200,-9,-37,2,10,0,0,-16,-34,16.0
3201,2,12,15,10,7,2,-8,-19,16.005
3202,52,8,-21,6,1,3,21,91,16.01
3203,-8,-5,11,5,0,-6,-7,-100,16.015
3204,-46,15,6,-14,1,2,-8,-5,16.02
3205,29,20,-20,-12,-4,-5,9,-6,16.025
3206,22,29,24,42,7,5,-10,-16,16.03
3207,31,-1,-32,-31,-8,1,12,46,16.035
3208,-2,-23,17,-1,-5,-8,-6,-9,16.04
3209,38,0,-1,-10,-3,-1,0,7,16.045
3210,-73,-27,2,23,7,4,-6,-17,16.05
3211,19,-6,7,28,-1,3,3,23,16.055
3212,7,-9,-10,-11,2,-1,-2,-11,16.06
3213,-45,-37,-6,-47,-9,-6,-6,-9,16.065
3214,34,14,-3,34,1,-1,9,11,16.07
3215,-40,-19,3,-22,-1,1,-12,-18,16.075
3216,-29,20,-1,23,2,4,9,3,16.080000000000002
3217,-7,17,7,28,3,1,0,20,16.085
3218,37,10,-27,-50,-6,-5,2,13,16.09
3219,-34,-19,24,17,2,-3,-10,-38,16.095
3220,42,19,-29,-44,-4,-1,2,15,16.1
3221,-17,28,19,4,6,4,-2,5,16.105
3222,-17,-36,11,42,3,4,12,8,16.11
3223,-37,13,4,-37,-3,-1,-5,-21,16.115000000000002
3224,22,-4,1,21,-2,-4,3,23,16.12
3225,-58,32,-5,-6,0,-4,-15,-51,16.125
3226,17,54,7,3,1,3,5,-3,16.13
3227,-1,-9,-20,-8,-2,0,4,44,16.135
3228,19,-10,13,51,5,7,5,8,16.14
3229,-57,-1,-17,-9,-3,-5,8,-11,16.145
3230,64,16,10,29,-4,-1,-9,20,16.15
3231,-10,4,-12,-38,0,-1,4,-15,16.155
3232,2,27,-3,1,2,4,2,20,16.16
3233,21,2,-8,-12,-2,0,5,8,16.165
3234,-9,-9,1,-12,-6,-3,-8,3,16.17
3235,2,-5,-1,17,-6,-5,-9,-19,16.175
3236,-8,18,0,8,1,1,-1,-2,16.18
3237,15,-35,-10,0,-2,0,3,-1,16.185
3238,-20,43,-5,-39,-4,-3,0,-3,16.19
3239,28,55,21,47,3,4,1,16,16.195
3240,-10,-20,-9,-20,-5,-6,-2,-16,16.2
3241,-33,-8,-16,-16,-4,-3,-9,21,16.205000000000002
3242,4,-10,16,11,2,1,7,-26,16.21
3243,-5,-17,6,-28,4,2,-1,6,16.215
3244,-5,-60,-11,-4,-4,0,2,-5,16.22
3245,7,-18,24,33,5,1,3,21,16.225
3246,0,-4,-24,-18,-6,-6,-10,-22,16.23
3247,9,16,7,34,5,3,4,13,16.235
3248,0,-8,1,-15,-4,-1,5,-3,16.240000000000002
3249,24,0,7,46,2,2,-5,21,16.245
3250,-45,11,-9,-60,-1,2,1,-52,16.25
3251,59,-14,1,-20,0,0,-2,29,16.255
3252,-28,21,-18,-16,-3,-4,-1,-6,16.26
3253,-24,-13,2,4,-1,4,18,-1,16.265
3254,13,-12,11,18,0,-9,-11,-11,16.27
3255,26,-2,-14,11,-6,-7,-12,-1,16.275
3256,-10,3,18,12,6,4,3,-2,16.28
3257,38,-12,-10,-6,-3,-1,12,26,16.285
3258,-58,9,-9,-25,-2,1,-10,-6,16.29
3259,37,19,6,14,0,2,7,23,16.295
3260,26,20,-12,-19,-1,-3,-1,-3,16.3
3261,10,24,19,20,3,4,-4,-11,16.305
3262,0,-44,-7,-27,-5,-3,1,-2,16.31
3263,-24,-13,2,18,-6,-6,-6,-10,16.315
3264,12,8,23,-3,6,5,-1,11,16.32
3265,11,12,-22,-15,-2,-1,-1,-7,16.325
3266,-9,-11,-1,27,-1,-2,-2,-8,16.330000000000002
3267,1,-11,-3,-40,0,3,0,11,16.335
3268,-52,-49,-17,-14,-5,-5,-5,-30,16.34
3269,-1,-19,-2,-43,-7,-5,-10,-14,16.345
3270,50,-12,5,40,7,5,15,32,16.35
3271,-53,-30,-4,-19,-4,-3,-3,-24,16.355
3272,-4,18,-2,24,0,-1,-3,1,16.36
3273,-21,4,31,58,13,8,-2,-2,16.365000000000002
3274,45,-10,-48,-58,-13,-4,4,15,16.37
3275,-22,-80,4,14,-2,-6,-1,-4,16.375
3276,-4,14,-1,10,0,2,-2,13,16.38
3277,-2,-55,-3,-1,1,3,-6,-22,16.385
3278,-7,7,14,4,-4,-4,10,21,16.39
3279,4,15,-6,2,2,1,6,-2,16.395
3280,-16,-11,14,5,-2,-1,-1,-1,16.4
3281,20,-16,-7,5,-3,0,-5,-10,16.405
3282,-17,2,7,9,1,-3,-5,-13,16.41
3283,10,51,-2,10,4,4,9,42,16.415
3284,-24,-8,4,27,0,-7,-12,-18,16.42
3285,0,5,-28,-66,-6,-6,-5,10,16.425
3286,4,34,21,8,3,3,-1,-9,16.43
3287,-2,-7,0,-4,-2,-3,-6,-31,16.435
3288,23,17,10,19,1,-1,1,13,16.44
3289,20,27,6,-1,1,1,4,-3,16.445
3290,-3,-42,-20,-26,-7,-5,-6,9,16.45
3291,8,5,-6,-1,-3,-5,-6,3,16.455000000000002
3292,2,31,-4,-2,-1,2,7,14,16.46
3293,32,7,-17,9,0,-2,-2,8,16.465
3294,-26,-4,22,22,2,3,-1,-28,16.47
3295,-14,-8,-2,11,3,5,-1,-12,16.475
3296,-17,-24,-4,-36,-3,-5,-6,-11,16.48
3297,12,-9,8,9,-3,-4,2,22,16.485
3298,1,-18,-10,16,3,3,2,-3,16.490000000000002
3299,-5,-50,-11,-19,-4,1,2,4,16.495
3300,32,-9,2,11,0,4,2,3,16.5
3301,-38,-2,15,-1,-4,-3,-7,-22,16.505
3302,13,12,-4,-21,-3,-5,-4,-16,16.51
3303,-2,17,-2,1,-3,0,0,-14,16.515
3304,43,15,14,34,2,3,2,38,16.52
3305,-45,-6,-32,-79,-8,-7,-4,-30,16.525
3306,10,19,17,20,2,2,-1,-4,16.53
3307,-3,41,13,27,4,1,-1,10,16.535
3308,-23,3,-29,-34,-14,-6,-5,-15,16.54
3309,-7,29,9,31,5,4,11,3,16.545
3310,37,-16,-5,2,2,2,0,37,16.55
3311,-22,3,1,-28,2,2,-4,-20,16.555
3312,20,5,-9,-9,6,2,0,-1,16.56
3313,-5,-22,12,-22,-9,-5,-5,1,16.565
3314,-4,-11,-4,-9,-3,-4,-3,3,16.57
3315,20,-27,2,32,6,10,7,5,16.575
3316,15,6,-6,-10,-4,-6,-4,-14,16.580000000000002
3317,-9,-14,-4,0,-3,0,2,9,16.585
3318,-77,-28,21,32,8,2,4,-7,16.59
3319,42,3,-11,-4,-2,-1,1,9,16.595
3320,-40,7,-11,-31,-7,-6,-4,-5,16.6
3321,21,0,-5,22,-4,-1,-2,-9,16.605
3322,-5,-5,-7,-17,1,3,-1,-11,16.61
3323,-31,-11,10,13,0,-3,-4,-17,16.615000000000002
3324,9,-13,-16,-25,-6,-1,3,21,16.62
3325,33,3,9,34,2,-3,-2,-5,16.625
3326,-12,10,1,-12,0,2,1,3,16.63
3327,28,22,-15,-34,-8,-5,-1,16,16.635
3328,12,6,14,27,6,3,5,1,16.64
3329,-3,30,-6,-3,-3,-1,-2,-4,16.645
3330,30,4,26,56,8,3,8,15,16.65
3331,-23,-27,-35,-64,-9,-8,-6,-21,16.655
3332,-6,-18,5,10,0,-1,-5,2,16.66
3333,0,3,0,11,3,2,-3,3,16.665
3334,-2,2,-9,12,1,4,0,-2,16.67
3335,-11,13,14,4,1,-3,-1,8,16.675
3336,42,16,25,34,9,9,15,31,16.68
3337,-19,-6,-17,-49,-10,-7,-10,-57,16.685
3338,5,-21,-5,-6,-4,-7,-12,-13,16.69
3339,0,14,0,9,3,-1,-1,3,16.695
3340,-12,3,2,-4,4,4,10,13,16.7
3341,36,14,5,29,5,8,11,15,16.705000000000002
3342,-5,-32,-7,-18,-10,-8,-13,-21,16.71
3343,-19,0,4,0,-4,-4,-7,-3,16.715
3344,-31,28,14,3,-1,-1,-7,-45,16.72
3345,13,46,-4,7,4,4,4,34,16.725
3346,4,29,-5,-3,0,1,4,1,16.73
3347,12,-5,2,54,2,1,6,3,16.735
3348,-4,8,-23,-59,-13,-10,-9,-5,16.740000000000002
3349,0,30,0,5,-1,-3,-5,-3,16.745
3350,11,26,2,13,2,1,4,-20,16.75
3351,-7,-6,27,19,5,0,-8,2,16.755
3352,11,-15,0,-1,4,1,4,12,16.76
3353,-1,-28,-5,-30,-3,0,-1,-13,16.765
3354,-10,-37,-2,-21,-6,-8,-5,9,16.77
3355,1,-7,0,6,4,4,6,-4,16.775
3356,6,0,-4,7,-6,-3,-5,4,16.78
3357,-30,-17,2,-2,-2,-1,-2,-9,16.785
3358,-12,24,1,2,1,3,0,7,16.79
3359,11,22,1,-1,0,2,7,3,16.795
3360,10,-20,-6,-8,-2,-5,-7,-8,16.8
3361,-20,-8,12,15,0,-4,-4,8,16.805
3362,-12,-15,2,16,1,2,-3,-3,16.81
3363,-13,-9,-24,-40,-5,-1,-3,-6,16.815
3364,-5,6,2,2,0,1,2,-14,16.82
3365,13,0,0,32,5,2,11,30,16.825
3366,-11,-9,-9,-43,-6,-5,-8,2,16.830000000000002
3367,-10,-2,11,5,-1,0,-8,-41,16.835
3368,-9,2,2,28,7,4,3,-2,16.84
3369,-8,-22,-12,-35,-5,-3,-1,-5,16.845
3370,9,30,1,20,2,1,5,16,16.85
3371,-4,-19,-2,11,1,0,1,5,16.855
3372,19,38,-3,-3,-6,-2,-2,-7,16.86
3373,-36,-21,-9,4,-2,-3,-1,-2,16.865000000000002
3374,50,68,7,1,-3,-3,5,19,16.87
3375,-9,2,-6,-13,-1,0,1,-1,16.875
3376,-9,-10,1,-6,-2,-3,-8,-14,16.88
3377,49,19,2,8,3,2,5,18,16.885
3378,-47,4,1,13,-1,1,1,-12,16.89
3379,44,11,-14,-25,-3,-1,0,38,16.895
3380,-12,-21,20,13,3,4,3,-3,16.9
3381,6,3,0,-9,-5,1,-4,0,16.905
3382,-32,-23,-8,9,-3,-2,-5,-10,16.91
3383,-2,-70,17,7,-1,-1,4,3,16.915
3384,-9,-23,-12,-9,1,-2,0,4,16.92
3385,-3,7,6,-1,-2,-3,-4,-10,16.925
3386,5,5,0,3,1,2,4,8,16.93
3387,-12,0,2,7,-2,-5,-3,-13,16.935
3388,-2,-2,29,9,5,5,1,2,16.94
3389,-8,-15,-33,-25,-7,-6,-3,-5,16.945
3390,15,-3,-7,-14,-2,-4,-4,-3,16.95
3391,-11,3,-2,1,-5,-3,-4,-4,16.955000000000002
3392,-1,-18,0,0,-3,-2,-1,3,16.96
3393,6,3,11,20,4,4,1,5,16.965
3394,13,3,-1,-9,1,2,2,2,16.97
3395,-31,14,-7,-4,-2,-1,6,13,16.975
3396,11,-13,2,16,2,-3,-7,-22,16.98
3397,-20,-37,3,-5,-3,-6,-9,-10,16.985
3398,13,0,-6,-12,-2,-1,-2,-3,16.990000000000002
3399,8,-4,2,6,3,3,3,1,16.995
3400,-9,-5,-10,-8,-4,-2,3,6,17.0
3401,-2,-1,8,-1,-2,-1,0,-6,17.005
3402,-6,-3,11,7,0,-4,-6,0,17.01
3403,12,17,-18,-34,-7,-5,-2,6,17.015
3404,7,-5,-12,-17,-3,-2,-2,-5,17.02
3405,2,16,5,3,-1,-3,-6,0,17.025
3406,-5,4,4,3,1,2,1,-2,17.03
3407,0,24,3,8,3,3,-2,-6,17.035
3408,-14,-2,-3,7,2,1,3,5,17.04
3409,18,-7,-9,-20,-6,-5,-2,-4,17.045
3410,-20,-7,-2,-2,1,-3,0,-4,17.05
3411,3,-20,2,5,-1,-2,-2,-4,17.055
3412,-3,7,-4,-6,-1,-1,-1,1,17.06
3413,-1,2,4,15,6,2,3,3,17.065
3414,-1,-4,-4,-6,-1,1,1,0,17.07
3415,7,-18,4,3,1,1,-2,-6,17.075
3416,-4,54,-9,0,-6,-5,-2,-1,17.080000000000002
3417,-8,23,3,-1,0,1,0,1,17.085
3418,-2,-1,-5,-9,-3,1,-2,-4,17.09
3419,-16,5,4,9,2,3,0,-1,17.095
3420,5,-9,-1,-5,-3,1,0,0,17.1
3421,-6,-7,5,3,2,2,3,3,17.105
3422,-17,-2,7,12,-2,-3,-9,-19,17.11
3423,22,17,-21,-32,-7,-6,-7,8,17.115000000000002
3424,-8,-10,0,-3,-1,-1,-1,9,17.12
3425,4,6,-1,1,0,-2,-4,-5,17.125
3426,-1,-13,7,5,3,1,4,0,17.13
3427,-8,-2,11,16,0,0,-1,-9,17.135
3428,2,-11,-4,-4,0,-2,0,-2,17.14
3429,-4,-10,-1,-8,1,1,2,3,17.145
3430,-1,-8,-7,0,1,3,1,0,17.150000000000002
3431,13,48,-1,9,2,4,3,2,17.155
3432,-12,12,4,-2,-3,-3,-1,3,17.16
3433,-14,-19,2,5,-4,-9,-7,-6,17.165
3434,-2,-10,-7,-8,-3,-3,-1,0,17.17
3435,-4,-2,-3,2,-2,-2,-4,-5,17.175
3436,4,3,1,4,3,6,3,0,17.18
3437,-1,10,-8,3,4,6,4,3,17.185
3438,15,-12,-12,-6,-2,-2,-1,1,17.19
3439,-16,-27,-5,3,-2,-2,-4,-4,17.195
3440,1,-9,-5,-2,-2,-1,-3,-4,17.2
3441,-1,-4,1,0,-1,-1,-3,-1,17.205000000000002
3442,3,-5,1,-4,-2,1,3,4,17.21
3443,-1,-1,2,3,-1,0,-1,-2,17.215
3444,-5,-26,2,-4,-3,-5,-2,-3,17.22
3445,2,10,2,-5,-2,-3,-2,0,17.225
3446,5,-6,-7,-9,-4,-2,1,0,17.23
3447,-3,-31,-15,0,-1,1,3,-1,17.235
3448,8,12,-18,-6,-4,-4,-3,-4,17.240000000000002
3449,16,18,-18,7,4,4,5,6,17.245
3450,-10,0,-4,1,-3,-5,-5,-3,17.25
3451,-7,6,14,2,0,-3,-4,-2,17.255
3452,-4,-8,1,1,2,-2,-2,0,17.26
3453,2,-6,7,3,-1,0,0,-1,17.265
3454,4,19,11,-1,1,1,3,3,17.27
3455,5,7,-1,3,3,1,0,-1,17.275000000000002
3456,4,-15,7,7,4,9,8,9,17.28
3457,-8,-15,6,-11,-10,-12,-11,-7,17.285
3458,-1,2,5,-2,-1,0,-2,-1,17.29
3459,-4,-21,10,-1,-1,0,1,-8,17.295
3460,4,7,0,1,3,4,-1,9,17.3
3461,4,-3,-10,-2,1,4,2,0,17.305
3462,15,1,-5,0,3,1,1,3,17.31
3463,0,25,-19,-1,-1,-2,-2,-3,17.315
3464,-10,-4,-7,-3,-1,0,0,-7,17.32
3465,-3,-23,-2,1,0,1,1,4,17.325
3466,2,9,-3,3,-2,-3,-2,-2,17.330000000000002
3467,5,5,-9,-1,2,2,3,4,17.335
3468,1,-2,4,-5,-4,-7,-4,-5,17.34
3469,3,-9,16,0,-1,-4,-3,1,17.345
3470,-6,4,17,1,1,3,3,-4,17.35
3471,-2,-15,13,-2,-1,-2,-1,-1,17.355
