slno,emg1,emg2,emg3,emg4,emg5,emg6,emg7,emg8,Time
0,-1,-2,-1,-2,-1,0,0,1,0.0
1,0,4,4,1,0,-1,-2,1,0.005
2,-3,-3,-6,-1,-1,-1,1,-1,0.01
3,0,-2,-5,-2,0,0,1,-1,0.015
4,-1,-3,-3,-1,-1,-2,-2,-1,0.02
5,0,-1,4,0,-1,0,-1,-1,0.025
6,0,-1,-4,-2,-2,0,-2,-3,0.03
7,-2,-6,-11,-1,0,0,-2,-3,0.035
8,-1,1,-4,0,1,1,-2,-1,0.04
9,-1,0,2,1,0,-1,-1,-2,0.045
10,0,-1,3,0,-1,-2,-2,-1,0.05
11,1,2,1,1,-1,-1,0,0,0.055
12,-1,0,-1,0,0,-1,1,-2,0.06
13,-1,-5,-1,-1,-1,0,-1,0,0.065
14,-2,-8,-2,-1,1,1,0,0,0.07
15,-1,1,-1,0,-1,2,-1,0,0.075
16,0,-1,4,-1,-1,-1,-1,0,0.08
17,-1,-1,1,0,-2,-1,0,0,0.085
18,-2,2,-1,0,-2,-4,0,-1,0.09
19,1,0,-1,1,2,1,0,0,0.095
20,-2,-5,-3,-2,-1,-1,-1,-2,0.1
21,-3,-5,-2,-1,-2,-1,-1,-2,0.105
22,0,1,1,-1,-1,-1,-1,-1,0.11
23,-1,0,-2,-2,-1,-1,-1,-1,0.115
24,0,2,0,0,0,0,-1,0,0.12
25,-1,-2,-5,-1,1,-1,-1,-1,0.125
26,-1,-2,2,1,1,0,0,0,0.13
27,0,5,6,1,1,-2,-2,-1,0.135
28,-1,-3,-3,0,1,1,0,0,0.14
29,-1,0,-2,1,-1,1,0,-2,0.145
30,0,0,-4,-1,-2,-1,-2,-1,0.15
31,-2,3,5,-1,0,1,1,0,0.155
32,-1,0,3,1,0,-1,0,-1,0.16
33,-1,-2,-5,-3,-1,-2,-2,-2,0.165
34,0,2,0,1,0,-1,-1,-2,0.17
35,0,-7,0,-3,-2,0,0,0,0.17500000000000002
36,-1,-3,2,0,0,1,-1,-3,0.18
37,0,-1,-5,-2,0,0,-1,1,0.185
38,-1,0,1,-1,-2,-1,-1,-1,0.19
39,-1,-4,0,-2,-3,-2,-2,-1,0.195
40,-1,0,1,1,1,-1,1,-1,0.2
41,1,2,2,-1,0,0,1,0,0.20500000000000002
42,-2,-7,-6,-3,-1,-1,-1,-1,0.21
43,0,5,5,4,0,-1,0,-1,0.215
44,-3,-4,-2,-2,-1,-2,-1,-1,0.22
45,-1,9,2,1,1,1,1,0,0.225
46,-1,-3,-3,-1,0,-2,-1,-1,0.23
47,-1,-1,4,-1,-1,-1,-1,0,0.23500000000000001
48,-1,-5,-1,-4,-3,-2,-2,-1,0.24
49,1,-1,2,1,0,1,-1,-1,0.245
50,-3,-3,-2,-3,-2,-2,-1,-1,0.25
51,-1,0,-3,2,-1,0,0,1,0.255
52,0,4,1,-1,0,1,0,-1,0.26
53,-1,-7,-1,-3,-2,-3,-2,0,0.265
54,-1,-2,-1,-2,0,0,0,0,0.27
55,-1,-9,-5,-1,0,0,0,-1,0.275
56,-2,0,-1,-3,-3,-1,-4,-1,0.28
57,-3,-1,-2,-1,-1,-2,-1,-1,0.28500000000000003
58,1,4,0,1,-2,1,1,-1,0.29
59,-1,1,-1,-3,-1,-1,-2,-1,0.295
60,-2,-4,-2,-1,-2,-3,-1,-1,0.3
61,-1,-6,-1,1,1,0,2,0,0.305
62,-1,-3,3,1,1,2,0,0,0.31
63,-3,1,-2,-2,0,-2,-1,-1,0.315
64,1,5,3,1,1,-1,-1,1,0.32
65,-3,-2,0,-1,-1,-1,-2,-2,0.325
66,0,-5,-5,-4,-3,-1,0,-1,0.33
67,0,-3,3,-1,0,1,1,0,0.335
68,-1,2,0,-1,0,0,1,1,0.34
69,0,0,-1,-2,-2,-1,0,0,0.34500000000000003
70,-1,2,-1,-1,1,-1,-2,-1,0.35000000000000003
71,0,-3,-1,-2,-4,-2,-3,-2,0.355
72,-2,-7,-5,-2,-2,-1,-1,-4,0.36
73,0,0,2,0,0,0,-1,-1,0.365
74,-3,-5,-1,-1,0,-1,-1,-2,0.37
75,0,7,-3,0,1,1,0,0,0.375
76,-1,1,-2,0,0,-1,-2,0,0.38
77,-1,3,3,-2,-3,-1,-2,0,0.385
78,-1,-4,-4,-3,-3,0,0,-1,0.39
79,-1,-5,1,0,0,-2,0,0,0.395
80,0,-8,-3,-1,-1,0,1,-1,0.4
81,0,0,-1,-3,-2,-1,-1,-1,0.405
82,0,5,8,3,0,-1,0,1,0.41000000000000003
83,-2,-1,2,0,-1,-1,-2,-1,0.41500000000000004
84,0,8,4,-2,-1,-1,-1,-1,0.42
85,-2,-4,2,2,1,-1,0,0,0.425
86,1,0,2,-1,0,0,-1,-2,0.43
87,-2,-3,0,-3,1,-1,0,0,0.435
88,0,3,0,1,0,-1,-2,0,0.44
89,-1,-5,0,-1,-1,-1,-1,-2,0.445
90,-3,-2,1,-1,0,-3,-4,-1,0.45
91,0,5,1,-1,-2,-2,-1,-1,0.455
92,-1,-5,2,-1,-1,-1,-1,-1,0.46
93,0,-2,0,-1,-3,-2,0,-1,0.465
94,1,5,3,0,1,1,1,-1,0.47000000000000003
95,-1,-1,1,-2,-2,-1,-2,-2,0.47500000000000003
96,-3,-3,-3,-3,-1,-3,0,-1,0.48
97,-2,-4,-4,0,-2,-1,-2,-1,0.485
98,-2,5,3,-1,0,-2,0,-1,0.49
99,0,0,-1,0,0,2,0,0,0.495
100,-1,-5,2,2,-1,0,0,0,0.5
101,-1,0,0,0,-1,-1,-1,0,0.505
102,-1,-1,-2,0,-1,-2,-1,0,0.51
103,1,2,2,-3,-3,-1,-1,-2,0.515
104,-1,-1,1,0,0,-1,-1,0,0.52
105,2,2,-1,-1,-2,-1,1,0,0.525
106,0,-5,-1,-1,0,1,0,0,0.53
107,-3,-9,-4,-1,-1,-2,-1,0,0.535
108,0,0,0,1,-1,2,2,1,0.54
109,-1,-1,-2,0,0,0,-3,0,0.545
110,-2,0,-4,-2,-3,-3,-1,-1,0.55
111,1,3,2,2,-1,-1,0,-1,0.555
112,-1,-4,1,-2,-4,-3,-3,-1,0.56
113,-1,0,0,-1,-1,1,-1,1,0.5650000000000001
114,-1,-2,-2,-1,-1,1,-2,-1,0.5700000000000001
115,-3,-9,-5,-2,-2,-3,-1,-1,0.5750000000000001
116,-1,-3,-2,-2,-1,-1,-1,-2,0.58
117,-1,0,0,-1,-1,-1,0,-2,0.585
118,0,-1,-2,-1,-2,-1,-1,-1,0.59
119,0,2,1,0,0,1,0,-2,0.595
120,1,7,2,0,-3,-1,1,-1,0.6
121,-2,-4,-4,-1,0,-3,-3,-2,0.605
122,-2,5,2,2,1,1,1,-1,0.61
123,0,-2,-3,2,1,-1,0,0,0.615
124,1,-1,-1,-1,2,1,-1,0,0.62
125,-2,-4,0,-4,-1,-1,-2,-1,0.625
126,-1,0,0,0,-1,-2,-2,1,0.63
127,-1,3,-2,2,-2,2,0,-1,0.635
128,0,1,-1,1,1,-2,-2,0,0.64
129,-1,-3,0,0,-2,-1,0,-2,0.645
130,1,-2,1,0,0,-4,0,-1,0.65
131,-2,2,3,-1,0,2,0,-2,0.655
132,0,-5,-3,-4,0,1,-12,1,0.66
133,-1,1,1,3,0,-1,0,-5,0.665
134,-1,3,-4,-4,0,6,7,2,0.67
135,-1,0,5,-2,0,-8,15,5,0.675
136,-2,0,5,8,-2,-3,29,-3,0.68
137,1,12,5,1,2,-2,0,4,0.685
138,-3,-14,-2,0,0,0,-12,-4,0.6900000000000001
139,-2,2,-5,-1,-3,1,-3,-2,0.6950000000000001
140,-2,-4,-3,-10,-6,-4,-15,-3,0.7000000000000001
141,2,-7,-11,-6,-4,-1,7,-2,0.705
142,0,-2,2,-3,1,3,7,-1,0.71
143,-1,-1,-1,1,3,2,-5,2,0.715
144,-3,-3,-4,2,1,-1,-3,-5,0.72
145,0,-1,-2,0,-1,0,-1,-1,0.725
146,1,1,4,-6,-1,-5,-5,1,0.73
147,0,-8,0,2,-4,-4,1,-3,0.735
148,2,5,-3,-2,1,0,-2,2,0.74
149,-2,0,-5,-5,-1,-2,-16,-1,0.745
150,1,1,4,1,-1,-2,15,1,0.75
151,0,6,8,3,4,-1,0,-1,0.755
152,-2,-13,-8,11,-2,0,1,-2,0.76
153,0,2,-4,-18,1,0,-2,2,0.765
154,0,3,1,3,-3,-3,-6,-2,0.77
155,-2,1,-7,-1,0,-2,-5,-3,0.775
156,0,3,7,3,2,2,1,1,0.78
157,-2,-7,-6,5,-1,2,9,-1,0.785
158,-1,-2,-5,-3,-2,-5,-12,-6,0.79
159,1,1,1,-5,1,0,9,0,0.795
160,-2,1,1,-4,-1,-3,-2,-2,0.8
161,-1,-3,7,6,1,-2,13,4,0.805
162,0,4,6,1,1,2,-9,-2,0.81
163,1,-6,-5,0,-2,-1,-16,-1,0.8150000000000001
164,1,7,1,-5,1,-3,4,3,0.8200000000000001
165,-3,-10,3,-3,-3,-2,-5,-8,0.8250000000000001
166,-2,-5,-4,3,2,1,10,4,0.8300000000000001
167,1,0,0,1,-1,-1,-7,-3,0.835
168,-1,-2,-1,-9,-1,0,3,-1,0.84
169,-1,4,-2,-2,-1,-1,6,1,0.845
170,0,-2,2,3,0,-1,-13,0,0.85
171,-4,-11,-4,-5,-5,-4,6,-3,0.855
172,1,3,2,4,1,4,-5,0,0.86
173,1,-2,3,-2,2,-2,0,1,0.865
174,-2,0,-3,0,-3,-1,-2,-2,0.87
175,-2,6,6,5,0,0,-2,0,0.875
176,0,-6,1,-8,-1,-1,2,-1,0.88
177,-2,4,-2,-1,-4,-2,-11,-2,0.885
178,-1,-1,7,3,-1,-1,6,0,0.89
179,0,-6,0,0,-2,-1,3,0,0.895
180,0,2,-3,-4,-2,0,2,-1,0.9
181,0,6,1,2,0,0,-8,-1,0.905
182,-3,-8,-5,-4,0,0,2,-3,0.91
183,-1,5,-5,4,-1,0,4,1,0.915
184,0,-6,0,-1,1,-1,3,-1,0.92
185,2,0,5,0,0,-1,-24,-3,0.925
186,1,5,3,0,1,-1,11,2,0.93
187,-2,-7,-2,-4,-1,-1,-24,-4,0.935
188,-2,-4,-5,-1,-2,-1,5,0,0.9400000000000001
189,1,4,1,4,-1,1,4,0,0.9450000000000001
190,0,2,-5,2,-2,-2,-2,-2,0.9500000000000001
191,-1,-13,-2,-5,2,1,0,1,0.9550000000000001
192,1,14,-5,4,0,1,-5,-2,0.96
193,-9,-27,-6,0,-1,2,6,0,0.965
194,-1,-10,-1,-3,-1,-1,0,0,0.97
195,3,21,4,-2,-1,2,7,2,0.975
196,-2,-1,-2,2,-2,-3,-6,-1,0.98
197,0,1,-3,-2,0,-2,5,-3,0.985
198,0,-1,1,1,-1,0,-3,0,0.99
199,-2,-19,1,-3,-2,-4,-4,-1,0.995
200,4,13,2,7,0,-2,-2,0,1.0
201,0,16,-3,-4,0,0,2,0,1.0050000000000001
202,-1,1,-2,-3,-1,0,0,-1,1.01
203,0,6,0,-2,-1,-2,0,-2,1.0150000000000001
204,0,3,2,-2,0,1,0,0,1.02
205,2,-3,0,-1,-3,0,3,0,1.025
206,1,-8,-8,-1,0,-2,-3,-2,1.03
207,-1,-3,-1,2,0,0,3,-2,1.035
208,3,2,1,0,0,-1,-4,-1,1.04
209,-3,-4,-1,1,-2,-2,1,-1,1.045
210,-3,3,2,-4,-3,-2,-1,-1,1.05
211,1,6,-3,0,0,0,0,0,1.055
212,-3,-1,0,-3,-3,-1,-1,0,1.06
213,1,0,3,0,-1,0,0,0,1.065
214,2,2,0,-1,0,-1,-2,0,1.07
215,-1,4,-3,-2,-1,-2,-1,-1,1.075
216,-5,-14,-1,-2,-3,0,-3,-3,1.08
217,2,2,0,-1,1,-1,3,-1,1.085
218,-2,2,-3,-2,-3,0,-1,-1,1.09
219,-1,4,1,-1,-2,0,1,0,1.095
220,-1,-1,4,0,1,-1,1,-1,1.1
221,-1,1,2,-2,-1,-1,0,-1,1.105
222,1,-1,0,-2,0,-2,-2,-1,1.11
223,-2,-5,-3,0,1,1,0,-1,1.115
224,-3,-20,12,3,0,-1,-2,-1,1.12
225,1,-23,4,4,1,-2,-2,-3,1.125
226,-2,2,-1,-1,0,-2,-1,0,1.1300000000000001
227,-2,-1,-9,-5,-3,0,0,-1,1.135
228,0,5,4,0,2,1,0,0,1.1400000000000001
229,0,3,-5,2,0,0,-1,-1,1.145
230,1,10,4,1,-2,-3,-2,0,1.1500000000000001
231,-3,-26,-5,0,3,2,3,2,1.155
232,-1,3,-2,3,0,-1,0,-1,1.16
233,-4,-3,-5,-5,-2,-2,-2,-2,1.165
234,-4,-1,0,-7,-4,0,-2,-2,1.17
235,13,40,3,1,0,-2,-2,-1,1.175
236,-3,-7,-4,-9,-6,-4,-1,-2,1.18
237,0,8,0,1,-1,1,1,0,1.185
238,-3,1,-1,1,-1,2,0,-1,1.19
239,-1,11,3,-6,-4,-4,-4,-2,1.195
240,-1,-4,0,-1,-2,-3,-2,-1,1.2
241,1,3,7,4,1,-3,-2,-1,1.205
242,0,-9,-1,1,0,2,1,0,1.21
243,-1,-5,6,4,0,-1,-2,-1,1.215
244,1,6,3,0,0,0,-1,0,1.22
245,-1,10,4,2,1,-2,-2,1,1.225
246,-1,-6,-5,1,3,1,2,1,1.23
247,-4,-9,-2,3,2,1,0,-1,1.235
248,-3,-20,-10,-8,-3,-2,-3,-2,1.24
249,0,10,0,1,-1,-1,-1,-2,1.245
250,2,17,12,2,1,1,3,1,1.25
251,-3,-18,-10,-8,-3,0,1,-2,1.2550000000000001
252,0,7,3,4,0,-2,2,0,1.26
253,0,-4,1,3,0,1,0,0,1.2650000000000001
254,-5,-5,-5,-10,-7,-6,-5,-5,1.27
255,-1,-11,2,-3,-2,-1,1,1,1.2750000000000001
256,0,6,-7,-2,0,-1,-3,-1,1.28
257,0,4,6,1,0,1,2,1,1.285
258,-5,-25,-8,-5,-4,-5,-2,-3,1.29
259,1,6,-2,0,0,0,-2,0,1.295
260,-2,-1,-4,-3,-2,-1,-3,-1,1.3
261,1,4,4,0,-1,-1,-2,-1,1.305
262,4,23,8,3,2,-5,-5,-1,1.31
263,0,-9,0,3,4,4,3,2,1.315
264,0,-13,-4,-3,-2,1,1,0,1.32
265,-3,-9,-4,-5,-5,-4,-4,-3,1.325
266,1,8,1,2,0,1,-1,-1,1.33
267,0,11,7,0,1,-2,1,2,1.335
268,-1,0,0,-1,-1,-1,0,-1,1.34
269,4,3,0,-4,-2,-2,-1,0,1.345
270,-3,-32,-7,0,-3,-2,0,-2,1.35
271,2,39,1,2,-2,-3,-2,-1,1.355
272,1,0,-5,-7,-4,-2,-2,-2,1.36
273,-1,-6,-2,-1,-1,2,2,1,1.365
274,4,-4,-4,1,2,2,0,0,1.37
275,-6,-16,-8,-6,-4,-2,-1,-2,1.375
276,1,18,4,5,-1,-2,-2,0,1.3800000000000001
277,-5,5,-1,1,1,-1,2,0,1.385
278,2,17,3,1,-2,-2,-2,-1,1.3900000000000001
279,0,-14,5,-3,-1,2,1,-1,1.395
280,-1,0,0,-1,1,0,0,1,1.4000000000000001
281,-2,-15,-8,-3,-2,-1,-2,-2,1.405
282,-3,4,-1,-4,-3,-3,-1,-1,1.41
283,3,2,2,2,-2,-1,-2,-2,1.415
284,-1,19,1,-1,1,1,0,-2,1.42
285,0,2,-1,-1,-1,3,-1,0,1.425
286,-1,5,-1,-5,-3,1,0,-2,1.43
287,-3,0,-8,-5,-4,-1,0,-1,1.435
288,2,-2,5,0,1,-1,1,1,1.44
289,-1,1,-4,-2,-2,0,0,0,1.445
290,0,-1,-2,4,1,0,0,-1,1.45
291,-1,-5,5,3,2,-1,0,-1,1.455
292,1,-7,0,4,2,3,3,2,1.46
293,0,-6,1,-1,-2,-2,-2,-1,1.465
294,0,-3,6,2,3,-3,-3,0,1.47
295,-2,-7,-7,-4,-2,-1,-1,-1,1.475
296,-1,-4,0,-1,-1,-3,-2,-1,1.48
297,0,0,-2,0,0,0,0,-2,1.485
298,-2,-20,-2,-2,-2,-1,1,0,1.49
299,-2,-10,1,-1,-3,-2,0,0,1.495
300,-3,-10,-3,-4,-3,-2,-4,-3,1.5
301,-2,-4,1,0,0,-1,-1,-1,1.5050000000000001
302,-2,7,2,1,1,1,3,1,1.51
303,3,8,10,6,2,0,-4,-1,1.5150000000000001
304,-1,-12,-1,1,-1,2,5,1,1.52
305,7,26,-2,-2,-2,-3,-3,-1,1.5250000000000001
306,-1,-3,-3,-2,1,4,1,0,1.53
307,-3,-4,-6,-3,-2,-2,-1,0,1.5350000000000001
308,-1,7,1,3,0,-2,-3,-2,1.54
309,1,-2,5,0,1,0,1,0,1.545
310,-1,-3,2,-1,-3,-3,0,-1,1.55
311,-2,-8,0,-2,-2,-3,-2,-2,1.555
312,0,0,3,2,2,2,1,1,1.56
313,-3,-10,-3,0,0,0,0,0,1.565
314,-1,0,2,-1,-2,-1,-2,-1,1.57
315,-1,8,1,-1,0,-3,-3,1,1.575
316,-2,-9,-9,-4,-2,1,-1,-1,1.58
317,-2,-3,1,1,-1,-1,0,0,1.585
318,-1,2,-4,2,0,-1,-2,0,1.59
319,2,24,-3,3,1,0,-1,0,1.595
320,-6,-2,0,-8,-4,-2,-1,-2,1.6
321,-7,-16,-5,2,0,-2,0,-1,1.605
322,-10,17,-12,-1,0,2,2,1,1.61
323,-5,-12,-11,-1,-2,-1,1,-1,1.615
324,1,23,-9,3,1,-3,-2,-1,1.62
325,3,-1,-11,-3,-1,-1,-2,-1,1.625
326,-1,-6,-1,0,-2,-1,0,-2,1.6300000000000001
327,4,11,5,4,2,-2,-1,-2,1.635
328,3,2,-3,-7,-2,1,0,0,1.6400000000000001
329,9,16,-8,-2,-1,-1,-2,0,1.645
330,1,3,-26,3,-2,-2,-1,0,1.6500000000000001
331,-3,-3,-25,3,1,-3,-1,-1,1.655
332,-2,-7,-20,1,-1,-2,-2,-2,1.6600000000000001
333,-5,-10,-12,-3,-1,-1,0,0,1.665
334,3,1,-4,-3,-2,-1,-1,-1,1.67
335,0,4,-4,-5,-3,3,3,-1,1.675
336,2,-5,-6,2,0,-2,0,-2,1.68
337,-3,0,-31,-1,0,0,-2,-1,1.685
338,-1,-11,-23,-2,-1,0,-2,-1,1.69
339,-2,-11,-1,-4,-4,-1,0,0,1.695
340,-2,-2,10,1,0,-2,-1,0,1.7
341,-2,0,27,1,2,2,1,0,1.705
342,1,-5,26,1,0,-1,-1,-1,1.71
343,-8,-16,16,-3,-2,-2,-1,-3,1.715
344,-5,-11,17,-5,-2,-2,-1,-2,1.72
345,-5,-39,14,-3,-3,-2,-1,-1,1.725
346,0,2,19,-1,0,-1,0,-1,1.73
347,1,-2,13,-4,-3,-3,0,-2,1.735
348,-2,-3,10,-2,0,-1,0,-1,1.74
349,-3,-1,13,-1,-4,-2,-1,-2,1.745
350,3,-10,13,-3,0,0,0,-1,1.75
351,3,4,8,-1,0,1,-1,0,1.7550000000000001
352,-1,3,5,3,-1,-3,-1,-1,1.76
353,6,17,0,-9,-3,-3,-2,-1,1.7650000000000001
354,-3,-8,12,3,1,0,-1,0,1.77
355,1,13,1,1,1,1,0,-1,1.7750000000000001
356,3,4,4,1,-1,0,0,0,1.78
357,-9,-17,-2,-3,-1,0,-1,-1,1.7850000000000001
358,-2,-5,7,-1,-1,-1,-2,-1,1.79
359,-1,-16,-4,0,0,-1,0,0,1.795
360,3,1,2,1,1,1,2,1,1.8
361,3,8,7,0,1,5,3,1,1.805
362,0,6,-2,-4,-1,-2,-2,-2,1.81
363,-3,-4,4,-1,0,-1,-1,1,1.815
364,3,31,3,-1,-2,-2,0,1,1.82
365,3,2,-5,1,1,-1,-1,1,1.825
366,-4,10,-5,4,2,0,1,0,1.83
367,0,2,-6,-3,-1,1,0,1,1.835
368,-1,-8,-1,-1,-1,0,-1,-3,1.84
369,2,18,-3,8,4,1,1,0,1.845
370,4,11,4,2,2,3,1,0,1.85
371,-4,-9,-3,-1,-2,-3,0,-3,1.855
372,-3,-10,-2,2,2,-2,-3,-1,1.86
373,-4,-5,-2,-1,-2,-1,-4,0,1.865
374,2,0,3,4,1,-1,0,0,1.87
375,0,-4,-3,1,0,-1,0,-1,1.875
376,0,-8,-2,-1,-1,1,0,-1,1.8800000000000001
377,3,8,0,-3,-3,-4,-1,-1,1.885
378,-4,-7,-6,-3,-3,-1,1,0,1.8900000000000001
379,-2,8,10,0,-3,-1,0,0,1.895
380,-4,-7,-4,-3,-2,-4,-3,-2,1.9000000000000001
381,-3,-8,9,-2,-3,-2,-1,-1,1.905
382,-4,-5,-3,-7,-3,-3,-4,-4,1.9100000000000001
383,0,11,8,-2,-2,-2,-2,-1,1.915
384,-1,-3,0,-4,-2,0,0,0,1.92
385,-1,10,5,1,3,3,2,1,1.925
386,-4,-38,-2,-2,-1,-2,-2,-2,1.93
387,0,-10,-9,0,-3,-2,-2,-2,1.935
388,-4,2,-6,0,-2,-1,0,-3,1.94
389,-2,3,-5,-1,-3,-1,-2,-2,1.945
390,1,9,3,-4,-1,0,1,-1,1.95
391,3,-4,-2,-3,-1,1,1,1,1.955
392,-7,-13,-5,-1,-1,0,-1,0,1.96
393,-2,-3,-2,2,1,-2,-1,-2,1.965
394,-2,-2,-3,-5,-5,-3,0,0,1.97
395,-1,4,0,-3,-2,-2,0,-1,1.975
396,2,7,-2,0,-1,-1,0,1,1.98
397,0,-2,-3,-4,-2,-2,-2,-1,1.985
398,0,9,1,3,-1,-1,-1,0,1.99
399,-3,4,-3,-1,0,-1,1,-1,1.995
400,-5,-14,-6,-7,-4,-3,-4,-2,2.0
401,-3,-13,1,0,0,1,0,0,2.005
402,5,13,2,6,3,1,0,1,2.0100000000000002
403,-2,1,0,4,3,2,0,-1,2.015
404,-3,-18,-8,-2,-3,-2,-3,-4,2.02
405,-3,1,0,2,1,1,-1,0,2.025
406,-1,2,-1,-4,-3,-2,-2,-3,2.0300000000000002
407,0,-2,2,2,-2,-2,-4,-1,2.035
408,2,6,-1,0,0,0,-1,0,2.04
409,0,-1,-3,0,2,-1,0,-1,2.045
410,5,-5,0,4,3,3,1,3,2.05
411,3,3,2,2,4,4,4,5,2.055
412,-4,-2,6,4,0,0,0,1,2.06
413,-4,-23,1,3,0,0,-1,-2,2.065
414,-1,11,-8,-1,-1,-3,-1,-3,2.07
415,-4,-10,-7,-2,-1,-3,-2,-2,2.075
416,1,0,-4,0,0,1,-1,0,2.08
417,0,2,3,1,-3,0,-2,-1,2.085
418,-4,0,-1,-3,-3,-4,-3,-1,2.09
419,1,2,-2,-3,-1,-1,-2,-2,2.095
420,4,12,3,4,2,2,3,1,2.1
421,-2,-9,-9,-4,-3,-5,-4,-4,2.105
422,1,-1,1,0,1,1,1,-1,2.11
423,0,6,1,-2,-1,-3,-2,0,2.115
424,-1,0,8,6,1,0,0,-2,2.12
425,-3,-2,-13,-4,0,-2,2,-1,2.125
426,-1,-4,1,0,0,0,-2,-1,2.13
427,-2,-6,-6,-4,-2,-1,-2,-1,2.1350000000000002
428,2,4,6,1,-1,0,0,1,2.14
429,0,8,1,-2,0,1,0,0,2.145
430,-2,-2,-6,-3,-2,-2,-2,-1,2.15
431,2,0,6,3,-1,0,-2,1,2.1550000000000002
432,1,2,-4,-2,0,-1,0,0,2.16
433,-1,0,1,-4,-3,-3,-2,-1,2.165
434,1,7,2,2,-2,-2,0,1,2.17
435,1,5,-4,-4,-1,-2,0,-2,2.1750000000000003
436,3,15,4,-1,0,1,-2,-1,2.18
437,2,0,1,-2,-3,-1,0,0,2.185
438,-4,-6,2,-4,-2,-2,1,0,2.19
439,1,9,4,5,0,-1,-1,-1,2.195
440,-4,-18,-14,-10,-5,-1,0,-3,2.2
441,0,6,2,-1,1,1,0,0,2.205
442,-1,2,0,1,-2,-1,0,-1,2.21
443,-1,3,-3,0,-1,-1,-1,0,2.215
444,2,-10,-4,-2,1,1,-1,0,2.22
445,1,5,3,2,-1,0,-1,0,2.225
446,-1,-6,1,-2,0,-1,-1,0,2.23
447,0,-1,-4,-1,-1,0,-1,0,2.235
448,-2,0,9,2,4,1,1,1,2.24
449,-1,-6,-6,-5,-5,-1,-1,-1,2.245
450,-1,1,-4,-3,1,-1,-2,-2,2.25
451,-6,-3,1,4,-3,-2,-2,-2,2.255
452,-1,-7,-8,-6,-2,-3,-2,-1,2.2600000000000002
453,1,0,10,3,4,2,2,1,2.265
454,-1,3,0,3,0,1,0,0,2.27
455,-2,-7,-9,-1,1,0,-1,-2,2.275
456,-2,-1,11,-3,-3,-2,-3,-1,2.2800000000000002
457,-4,-3,-6,-5,-1,-5,-2,-3,2.285
458,0,-1,-6,-4,1,0,-1,0,2.29
459,-1,-4,0,1,0,0,1,-1,2.295
460,-2,5,1,3,1,-1,0,-2,2.3000000000000003
461,0,5,7,0,0,0,-2,-1,2.305
462,-1,-7,-6,-1,0,0,1,0,2.31
463,2,-2,6,-5,-1,0,0,0,2.315
464,0,12,-1,0,0,-2,0,-1,2.32
465,0,4,9,5,-1,0,-1,-1,2.325
466,-3,-9,0,0,-3,0,-3,-1,2.33
467,-2,-11,-5,-5,-2,-2,0,-1,2.335
468,1,5,0,7,0,1,-1,1,2.34
469,-1,-7,-3,-8,1,0,1,-1,2.345
470,-2,6,-2,-4,-5,-5,-2,-3,2.35
471,2,7,-5,7,0,0,-1,0,2.355
472,-2,-5,-4,-4,-1,0,-1,-2,2.36
473,-1,4,-6,3,-1,-1,0,1,2.365
474,-2,-8,11,-1,0,2,-1,-2,2.37
475,-1,5,6,1,-3,-3,-3,-2,2.375
476,2,2,1,2,-1,-3,-1,0,2.38
477,1,-5,-3,2,2,1,0,-1,2.3850000000000002
478,3,6,-4,-3,0,2,-1,0,2.39
479,-4,-6,-8,-7,0,-2,-2,-1,2.395
480,-3,-6,-3,2,-3,-1,0,0,2.4
481,0,2,-7,-3,-2,-3,0,-1,2.4050000000000002
482,3,3,1,2,1,-2,0,0,2.41
483,-2,-5,-1,-1,0,2,0,0,2.415
484,-1,-5,-4,-1,0,0,-2,0,2.42
485,0,3,2,-2,-3,-1,-2,-2,2.4250000000000003
486,-2,-1,-7,1,0,-3,-2,-2,2.43
487,0,-7,1,-4,0,1,2,2,2.435
488,-1,4,-2,1,-1,-1,-3,-2,2.44
489,1,10,2,5,1,1,1,1,2.445
490,-1,3,1,1,-1,0,1,-1,2.45
491,-1,0,0,-1,-2,0,0,-1,2.455
492,0,1,0,-4,-3,-2,-1,-1,2.46
493,0,1,4,2,-1,-1,-1,-1,2.465
494,-1,-7,-1,4,0,1,-1,-2,2.47
495,0,-3,12,-2,-2,-2,0,-2,2.475
496,-1,1,-7,-3,0,1,0,-1,2.48
497,-2,-9,-4,-3,-2,-4,-2,-1,2.485
498,-1,8,3,9,-2,-1,-2,-2,2.49
499,-3,0,-4,-9,-1,-2,-4,-1,2.495
500,-1,0,5,0,-2,-2,0,0,2.5
501,-2,-2,0,2,-2,-2,-1,-2,2.505
502,0,-1,-3,-3,0,0,0,0,2.5100000000000002
503,-1,-3,0,3,1,0,0,0,2.515
504,-2,-4,-9,-1,-3,-2,-1,0,2.52
505,-8,-13,-5,-5,0,2,0,-1,2.525
506,-1,-6,-1,-2,-2,-3,-1,-1,2.5300000000000002
507,-1,-1,-9,-3,-4,0,-3,0,2.535
508,-2,1,10,1,1,-2,-1,1,2.54
509,-3,-20,-8,1,-3,-1,1,0,2.545
510,-2,-2,-2,0,-2,-2,-1,0,2.5500000000000003
511,0,2,-3,-3,1,0,-1,-2,2.555
512,2,0,-6,-4,-1,-1,-1,0,2.56
513,2,5,-2,2,-1,-1,-2,0,2.565
514,-1,1,4,-4,0,0,0,2,2.57
515,-1,0,4,-2,-2,-2,-1,-1,2.575
516,-2,-1,2,1,-1,-1,-2,-1,2.58
517,1,8,7,2,0,0,-1,-2,2.585
518,-1,-2,-7,-1,-1,-1,0,0,2.59
519,0,5,-4,-3,0,-2,-1,-1,2.595
520,-2,-9,0,-1,0,0,-2,-1,2.6
521,-1,1,0,-3,-1,-1,0,0,2.605
522,0,-1,-3,-3,0,0,-3,0,2.61
523,0,-2,6,4,-2,1,1,1,2.615
524,0,4,1,1,0,0,-1,0,2.62
525,1,3,0,0,-3,-2,-1,-2,2.625
526,2,10,2,-5,-2,-4,0,-1,2.63
527,2,-1,-4,3,1,-1,0,-1,2.6350000000000002
528,1,-1,-1,2,0,1,0,0,2.64
529,1,10,7,-2,0,0,-1,2,2.645
530,-1,-3,7,3,-1,0,-1,0,2.65
531,-3,-2,-3,1,-1,-1,-1,0,2.6550000000000002
532,0,3,8,0,2,2,2,1,2.66
533,0,5,-2,-2,-1,-2,-3,-1,2.665
534,-3,-3,-1,0,1,1,1,0,2.67
535,-1,-1,2,0,-1,0,1,0,2.6750000000000003
536,-2,-2,-3,-4,-1,0,-1,0,2.68
537,-2,-1,-3,4,-1,-1,-1,0,2.685
538,-2,3,2,-6,-1,-2,-1,-2,2.69
539,-2,-8,5,5,-3,-1,-3,-2,2.695
540,0,1,-4,-3,-1,-2,0,-2,2.7
541,2,-1,2,-4,1,0,-1,-1,2.705
542,-1,-4,2,0,-1,-1,-2,-1,2.71
543,-1,5,4,4,2,3,1,1,2.715
544,0,-5,6,-6,-3,-1,0,-1,2.72
545,-7,-13,-27,-14,-4,-3,-3,-3,2.725
546,-1,-5,-2,3,-1,-1,-2,0,2.73
547,-1,3,10,-4,-2,-1,1,-1,2.735
548,2,-2,1,7,3,0,0,-1,2.74
549,0,2,10,4,2,1,-1,0,2.745
550,0,1,-2,-5,-3,-2,-1,0,2.75
551,3,-5,-12,-3,-2,-3,0,-1,2.755
552,-4,-4,1,-1,-3,-1,-1,-1,2.7600000000000002
553,0,-4,3,3,2,1,1,-1,2.765
554,-1,-10,-13,9,1,0,-1,0,2.77
555,-1,-7,-1,-11,-2,-2,-2,0,2.775
556,1,0,-11,-2,0,1,3,0,2.7800000000000002
557,-2,-2,6,0,-1,-1,-2,-3,2.785
558,-2,1,2,1,1,-1,1,0,2.79
559,-2,-4,-13,-1,2,0,0,1,2.795
560,0,3,2,-6,-1,0,-1,-1,2.8000000000000003
561,-2,1,1,12,0,0,-2,-1,2.805
562,1,-3,4,-11,-1,-1,1,1,2.81
563,-1,-1,-13,4,-3,-2,-2,-3,2.815
564,-2,-2,-3,0,0,-2,-2,-2,2.82
565,1,-5,1,3,-2,-2,0,0,2.825
566,-2,2,-2,-4,0,1,2,-1,2.83
567,1,2,1,-1,-1,1,0,2,2.835
568,-1,-1,7,6,-1,0,-2,1,2.84
569,0,1,-10,-3,-3,-3,-2,-1,2.845
570,-3,-6,-3,2,0,1,-1,0,2.85
571,-1,2,-2,0,-1,-3,-2,-2,2.855
572,-2,-2,-1,-5,-3,0,0,-1,2.86
573,-1,4,3,0,0,1,0,0,2.865
574,0,-1,-7,-4,-3,-2,-2,-1,2.87
575,0,16,6,0,-2,-3,-2,-2,2.875
576,1,7,3,0,0,-3,-1,-1,2.88
577,1,-1,-1,6,0,0,2,0,2.8850000000000002
578,-1,-2,-2,-10,-2,0,2,-1,2.89
579,0,-1,-1,0,-2,0,0,0,2.895
580,-1,4,-3,-3,-3,0,-1,0,2.9
581,-1,3,4,0,0,0,0,1,2.9050000000000002
582,1,1,-4,-1,-1,-1,-3,-3,2.91
583,0,3,8,4,2,0,-1,0,2.915
584,-2,-10,-7,-5,-2,0,0,-2,2.92
585,-2,-4,4,0,-4,-2,-1,-3,2.9250000000000003
586,0,-2,-6,4,-3,1,-1,-2,2.93
587,-2,-2,4,-5,0,0,1,-1,2.935
588,0,1,5,3,-2,-2,1,0,2.94
589,0,3,-2,-1,1,2,0,0,2.945
590,-3,-5,-3,-3,-3,-2,2,0,2.95
591,-3,-5,2,-3,-4,-2,-1,-2,2.955
592,1,1,-4,-4,0,-2,0,0,2.96
593,0,0,-2,-7,-2,-2,1,-2,2.965
594,6,14,16,7,1,-1,-3,0,2.97
595,0,-1,-9,0,2,-1,-1,1,2.975
596,-2,-10,1,0,0,2,0,-2,2.98
597,-1,1,0,-5,-1,-2,-1,0,2.985
598,-1,-5,2,3,0,-1,0,-1,2.99
599,-1,-4,3,-1,-1,0,0,0,2.995
600,0,9,2,-1,-2,-2,-1,-1,3.0
601,-1,-4,-4,-3,-1,0,0,-1,3.005
602,-1,0,0,1,2,-1,1,0,3.0100000000000002
603,-1,-5,-6,-2,-2,-1,-2,-1,3.015
604,-3,-1,-2,1,-3,0,-1,0,3.02
605,-3,-3,-2,-3,-1,-2,-2,-1,3.025
606,-3,-1,2,-2,-2,-2,-1,0,3.0300000000000002
607,-1,2,7,3,0,1,-1,-1,3.035
608,1,-2,-2,0,1,-3,-1,-1,3.04
609,1,-3,1,-3,2,0,-2,0,3.045
610,-1,1,2,-1,1,-1,-2,0,3.0500000000000003
611,-1,-5,-6,-2,0,1,0,0,3.055
612,3,0,-1,-2,0,-1,-1,1,3.06
613,-4,-5,0,-1,-1,0,-1,-1,3.065
614,-2,-3,-3,0,-3,-1,-1,-1,3.0700000000000003
615,-2,-5,-6,0,2,2,0,-2,3.075
616,-2,1,-2,-2,0,-3,-2,-1,3.08
617,3,6,3,0,0,2,-1,0,3.085
618,-1,-4,-2,-4,-3,-4,1,0,3.09
619,-2,-1,6,1,0,-1,-1,-2,3.095
620,-2,-4,-5,-1,1,-1,-2,-2,3.1
621,0,-6,-6,-2,-2,-1,-2,-1,3.105
622,0,-3,-1,-1,0,1,1,0,3.11
623,0,-6,-1,-2,-3,-2,-1,-2,3.115
624,-2,2,0,-1,-1,-3,-1,-1,3.12
625,-3,3,2,0,-2,-1,-1,-1,3.125
626,-1,-2,0,2,0,0,-2,0,3.13
627,0,-1,1,0,0,1,0,-1,3.1350000000000002
628,-1,3,1,3,1,1,0,-1,3.14
629,-1,-1,1,-2,-1,0,0,0,3.145
630,0,-2,0,-2,-1,-3,0,-2,3.15
631,-1,-1,1,2,-1,-2,-2,0,3.1550000000000002
632,-2,0,3,1,-1,2,-3,-1,3.16
633,0,1,-11,-4,-1,-1,1,-1,3.165
634,2,12,-2,-4,-3,-1,-2,-1,3.17
635,0,2,8,-1,1,-1,-1,0,3.1750000000000003
636,-2,-9,-8,1,-2,-1,0,-2,3.18
637,3,7,7,2,2,-1,1,0,3.185
638,0,4,-1,2,2,1,-2,0,3.19
639,-3,-1,-11,-4,-2,-2,-2,-2,3.1950000000000003
640,2,3,-4,-5,-1,0,0,1,3.2
641,0,2,1,-1,0,1,0,0,3.205
642,-1,-6,-2,-1,-1,-2,1,0,3.21
643,0,2,-2,-1,-3,0,-1,-1,3.215
644,2,6,5,-1,0,0,2,1,3.22
645,0,-3,3,-4,-1,1,-1,0,3.225
646,-3,-2,-3,0,1,-1,-1,-2,3.23
647,0,1,1,-2,0,1,1,1,3.235
648,-1,5,1,2,0,-1,-1,-1,3.24
649,-2,-7,-5,-1,-2,-1,0,-1,3.245
650,0,-7,-2,-2,1,1,0,2,3.25
651,3,13,1,3,1,-3,0,0,3.255
652,-4,-7,-2,-2,-2,-3,-2,-2,3.2600000000000002
653,-3,-3,3,2,0,0,-1,0,3.265
654,-2,-2,-2,-1,-2,-1,-1,-2,3.27
655,-3,-4,-1,1,-1,-1,-1,0,3.275
656,-2,-8,-6,0,1,0,-1,-2,3.2800000000000002
657,0,3,-4,-2,-1,-2,-2,0,3.285
658,-1,3,7,1,-1,0,-1,0,3.29
659,-1,-7,1,-2,-1,0,-2,0,3.295
660,-1,2,0,-1,-1,1,-2,0,3.3000000000000003
661,-2,-3,-4,0,-3,-1,-1,0,3.305
662,3,8,3,4,1,1,1,0,3.31
663,-2,-3,0,-4,-1,-3,-2,-3,3.315
664,-1,-2,-4,-4,-1,-1,-1,0,3.3200000000000003
665,0,1,-2,-3,-2,-2,-2,-2,3.325
666,-1,-2,-2,-1,0,-1,-1,-1,3.33
667,0,1,2,2,0,1,0,-2,3.335
668,0,6,3,0,-1,-2,-1,-3,3.34
669,-2,0,0,0,-2,-2,-1,-1,3.345
670,1,-2,0,0,-1,-1,1,-1,3.35
671,4,11,0,-1,-1,0,-2,-1,3.355
672,-1,-3,-1,1,-2,-2,-1,-1,3.36
673,-1,1,1,-2,0,-2,-3,-1,3.365
674,-3,-1,-1,0,-2,-1,-3,-1,3.37
675,-3,-4,-2,0,-3,-1,-2,-2,3.375
676,-1,0,1,0,-1,-1,1,1,3.38
677,-1,-8,0,-1,1,-1,-1,-1,3.3850000000000002
678,-1,-1,-1,-1,0,0,-2,0,3.39
679,0,3,2,-1,-1,-3,-3,-1,3.395
680,-1,-11,-2,-4,-2,0,-2,0,3.4
681,-1,-3,0,3,1,1,3,-1,3.4050000000000002
682,-3,-4,3,-3,0,-3,0,-1,3.41
683,0,0,-1,-1,-1,-1,-1,0,3.415
684,-1,0,-1,0,0,0,0,1,3.42
685,-1,-1,1,-2,-2,-3,-1,-2,3.4250000000000003
686,-1,-4,-1,0,0,0,0,0,3.43
687,0,-5,-2,1,1,0,0,-1,3.435
688,5,9,-1,-1,0,-1,-2,0,3.44
689,-3,-19,-8,-2,0,2,-1,0,3.4450000000000003
690,-3,-4,-1,2,-2,-3,-1,-1,3.45
691,-2,-5,-1,-2,0,0,-1,0,3.455
692,0,1,0,-1,1,0,0,1,3.46
693,-1,5,0,0,-2,-2,-4,-2,3.465
694,0,-1,-2,-3,-1,0,-1,-2,3.47
695,-1,-5,0,0,0,1,-1,2,3.475
696,-3,-5,-1,-1,-2,0,0,-2,3.48
697,0,10,8,2,-2,-1,-2,2,3.485
698,-1,-5,-2,-4,-4,-1,0,0,3.49
699,-1,-6,-6,-3,-2,-3,-2,0,3.495
700,-1,0,4,-1,1,0,0,0,3.5
701,-1,1,1,-5,-2,-2,-2,-2,3.505
702,2,3,2,1,0,0,0,-1,3.5100000000000002
703,-1,-3,-1,0,-2,-2,2,-1,3.515
704,-1,-1,-2,0,-1,0,-1,-1,3.52
705,-1,0,2,1,1,-2,1,-1,3.525
706,3,9,0,0,0,-1,-2,0,3.5300000000000002
707,0,2,0,-1,0,0,-2,-2,3.535
708,-2,0,-5,-2,-1,-1,-2,-1,3.54
709,0,-5,-3,0,0,3,1,0,3.545
710,-2,-4,-1,-3,-2,-2,-1,-1,3.5500000000000003
711,-1,-2,-1,1,-1,-1,1,0,3.555
712,0,4,2,1,-2,-3,0,-1,3.56
713,2,5,-1,-1,-1,-2,-1,-1,3.565
714,-2,-4,-2,-1,1,1,0,-1,3.5700000000000003
715,-1,0,-2,1,2,0,0,0,3.575
716,-2,0,2,-2,-1,-2,-1,-2,3.58
717,0,4,2,3,0,-1,0,0,3.585
718,-2,-10,-8,-1,-1,0,0,-2,3.59
719,-1,5,1,0,0,0,-1,-2,3.595
720,-1,-3,0,-1,-2,-2,-3,-1,3.6
721,-1,2,0,2,-2,-2,-2,0,3.605
722,0,3,1,-1,-1,-1,0,0,3.61
723,-1,2,4,-1,-2,1,0,-1,3.615
724,-3,-4,-1,2,0,-1,-3,-1,3.62
725,-1,-8,0,-5,-4,-1,-2,0,3.625
726,-2,-2,0,-2,-1,-2,-1,-1,3.63
727,-1,2,-6,-3,-1,-1,0,-1,3.6350000000000002
728,-1,-6,-8,-4,-3,-4,-3,-1,3.64
729,-2,1,2,-2,2,0,1,-1,3.645
730,-1,2,-3,1,0,1,-1,0,3.65
731,-1,-7,-3,-1,-2,-1,-1,0,3.6550000000000002
732,1,11,3,0,-1,1,0,1,3.66
733,-1,3,0,1,-2,-2,-2,-3,3.665
734,-2,-8,0,1,-1,0,-1,0,3.67
735,-2,0,0,-1,1,1,1,0,3.6750000000000003
736,0,-5,1,3,2,1,0,0,3.68
737,0,0,-5,-3,-1,-2,-1,-2,3.685
738,-5,-8,1,-1,-1,-2,-2,-2,3.69
739,0,-2,-3,-4,-4,-3,0,-1,3.6950000000000003
740,-1,-1,-3,-4,-3,-1,-2,-1,3.7
741,3,9,3,5,3,2,0,0,3.705
742,0,-12,-7,-3,-2,0,0,0,3.71
743,-1,-2,-1,-4,-2,0,-1,0,3.715
744,0,-4,1,-1,-1,-2,-1,-1,3.72
745,-3,-6,-1,-2,-1,0,-1,-1,3.725
746,0,5,2,-1,-3,-2,-2,-2,3.73
747,-1,-2,1,1,0,1,-1,1,3.735
748,1,-5,-3,-1,0,2,0,0,3.74
749,0,-9,2,-2,-1,0,-1,1,3.745
750,-3,-1,3,3,1,0,1,0,3.75
751,-2,-1,-3,1,0,-2,-1,-3,3.755
752,0,0,-1,-1,-1,-2,-1,-1,3.7600000000000002
753,-1,-5,-1,-1,0,0,2,-1,3.765
754,-1,-5,-5,-3,-1,0,-3,1,3.77
755,-1,1,1,2,0,-1,-1,-1,3.775
756,-2,-5,0,1,1,-1,0,-2,3.7800000000000002
757,-2,6,0,1,-2,-1,-2,-2,3.785
758,3,2,-5,-3,-1,-2,0,-1,3.79
759,-1,-1,-3,-3,-2,0,-3,-1,3.795
760,-1,1,3,-4,-2,0,2,0,3.8000000000000003
761,1,4,5,0,0,0,-1,-1,3.805
762,0,6,0,-2,2,-1,-1,-2,3.81
763,-2,-22,-2,0,-2,0,0,1,3.815
764,1,2,5,4,-1,-1,-1,0,3.8200000000000003
765,-2,4,5,-2,-2,-2,-1,0,3.825
766,0,0,0,-1,-2,-1,-2,-1,3.83
767,1,4,-2,-5,0,-1,-1,0,3.835
768,0,-4,0,-5,1,-1,0,-1,3.84
769,-3,-7,-1,-3,-1,-2,-2,0,3.845
770,1,4,-1,9,-2,-1,0,0,3.85
771,-1,5,-2,-11,-2,-2,-1,-2,3.855
772,-1,-4,1,0,0,-1,-2,0,3.86
773,1,1,-2,-4,1,-2,-2,-1,3.865
774,-1,3,3,-3,-1,-1,1,-1,3.87
775,0,4,5,5,1,0,0,0,3.875
776,-1,-2,-1,-2,0,-1,1,-1,3.88
777,5,15,-2,-1,-1,0,-1,-1,3.8850000000000002
778,1,-1,-2,0,0,1,-1,0,3.89
779,-5,-8,-4,-4,-1,-2,-1,-2,3.895
780,-1,-1,-3,0,-1,-1,-1,-2,3.9
781,1,-2,-2,-1,-2,-2,-1,-1,3.9050000000000002
782,1,-1,2,0,-1,-1,-2,-1,3.91
783,-1,0,1,1,1,1,0,0,3.915
784,0,3,0,-5,-2,-1,-2,0,3.92
785,-2,-8,-5,1,-4,-1,0,-1,3.9250000000000003
786,0,0,1,-7,-1,-2,-1,0,3.93
787,1,3,2,12,0,-2,0,-1,3.935
788,0,-1,-5,-9,0,0,-2,0,3.94
789,-2,-4,-4,0,0,1,0,1,3.9450000000000003
790,-2,2,1,-5,-1,-1,-1,-1,3.95
791,1,9,3,7,1,1,-1,-3,3.955
792,-3,-7,-3,6,-1,0,-1,0,3.96
793,0,2,-5,-10,1,-1,0,-2,3.9650000000000003
794,1,-3,-2,0,-2,0,0,0,3.97
795,0,2,2,0,0,0,-1,1,3.975
796,1,2,-1,1,1,-2,1,0,3.98
797,-2,-4,-4,2,-1,-2,-2,-1,3.985
798,-1,2,-2,2,1,1,-1,1,3.99
799,-2,3,-1,-5,-4,-3,-1,-3,3.995
800,0,5,2,2,-1,-1,-1,-2,4.0
801,0,2,-1,2,1,0,0,1,4.005
802,0,3,-1,-3,-3,-3,0,-3,4.01
803,-1,-5,-3,-2,-2,1,-2,-1,4.015
804,-1,-1,0,1,0,1,-1,-2,4.0200000000000005
805,-1,-3,0,0,-1,-3,0,-2,4.025
806,-1,4,0,2,2,0,0,-1,4.03
807,-1,4,4,-3,-3,-1,0,0,4.035
808,-6,-13,-3,-1,-2,0,1,-1,4.04
809,-1,-4,-2,-1,-2,2,1,0,4.045
810,-1,-8,-2,0,1,-1,1,0,4.05
811,2,-2,1,2,0,-1,0,1,4.055
812,0,2,-3,-1,-1,1,-2,0,4.0600000000000005
813,-1,-1,3,1,-1,-3,-2,0,4.065
814,-2,-1,-2,-1,-2,-2,-4,0,4.07
815,1,-2,-3,-1,-1,-1,-2,-3,4.075
816,-1,-2,1,0,1,0,-1,0,4.08
817,1,-3,-1,-1,0,0,-2,0,4.085
818,1,0,0,0,-2,0,0,0,4.09
819,-3,5,3,-4,-4,-2,0,0,4.095
820,-1,-12,-9,0,0,-1,-2,-1,4.1
821,-5,-9,-3,-2,-1,-1,0,-2,4.105
822,-1,-1,-3,1,-1,1,0,-1,4.11
823,0,-1,-4,0,2,1,-2,0,4.115
824,0,2,0,-1,-1,-2,1,-1,4.12
825,-2,-1,1,-1,-2,-1,1,0,4.125
826,-1,0,-1,1,-1,-1,-1,0,4.13
827,-1,-5,-6,-1,-1,1,-1,0,4.135
828,0,4,4,0,1,-1,-2,0,4.14
829,1,-1,2,1,0,0,0,-1,4.1450000000000005
830,0,4,1,0,0,1,-1,-1,4.15
831,-1,-5,-9,-6,0,2,1,1,4.155
832,-2,3,0,-2,-1,-2,-3,1,4.16
833,0,-1,3,1,1,-2,0,-1,4.165
834,-1,-8,0,-2,0,-1,-1,0,4.17
835,-1,-3,0,1,-1,-2,0,-2,4.175
836,-1,-3,1,-1,-1,-2,-1,-1,4.18
837,-2,-2,-2,-2,0,1,-1,0,4.1850000000000005
838,0,5,-4,-1,-1,-1,-1,-1,4.19
839,1,-2,-1,1,0,-1,-3,-1,4.195
840,2,2,0,-1,-2,-1,1,0,4.2
841,0,1,2,2,0,0,0,1,4.205
842,1,4,2,1,0,1,2,0,4.21
843,-1,-4,-6,-6,0,0,0,0,4.215
844,-3,-5,-5,-2,-2,-2,-2,-2,4.22
845,1,6,0,0,-1,0,0,-1,4.225
846,-1,-1,1,0,-3,-3,-2,-3,4.23
847,0,1,4,0,0,1,-1,0,4.235
848,1,2,1,0,0,0,-1,0,4.24
849,-1,-4,-3,0,0,-3,-3,-1,4.245
850,-1,-2,6,2,-1,-2,-3,0,4.25
851,-6,-26,-4,-3,-3,-1,0,-2,4.255
852,-2,-3,5,-1,-1,1,2,-1,4.26
853,0,3,1,-1,-2,-2,-2,-2,4.265
854,-1,-2,-2,-3,-1,-3,-2,-1,4.2700000000000005
855,0,-2,-1,-2,-1,-2,-1,1,4.275
856,1,3,4,1,0,0,1,1,4.28
857,-3,-6,-1,-2,-1,-1,-1,0,4.285
858,-2,0,-1,-2,-2,0,0,0,4.29
859,1,8,3,4,0,-1,-1,0,4.295
860,1,2,-3,0,-1,-4,0,-2,4.3
861,1,3,1,-1,-1,0,1,0,4.305
862,1,-3,-5,-5,-2,1,1,0,4.3100000000000005
863,-1,3,-1,0,0,-2,1,-1,4.315
864,-1,-3,-5,-5,-1,-1,0,0,4.32
865,1,2,0,-2,-3,0,-2,-1,4.325
866,-1,-3,3,1,1,-3,1,-1,4.33
867,-1,1,-1,0,-2,-3,-1,-1,4.335
868,0,3,1,1,-1,0,0,0,4.34
869,-3,-3,-4,-1,0,0,-1,0,4.345
870,0,-2,-2,-3,0,0,-2,-1,4.3500000000000005
871,6,13,0,-1,-1,-1,-1,-2,4.355
872,-2,-4,-4,0,0,-2,-2,-2,4.36
873,1,0,1,2,2,-1,-1,1,4.365
874,-2,1,-2,-6,-4,-4,-1,-2,4.37
875,-2,2,1,-3,-1,0,0,0,4.375
876,-1,2,1,-1,-1,0,1,0,4.38
877,-1,-4,-4,0,-1,0,-1,1,4.385
878,1,6,2,1,-1,1,-1,1,4.39
879,-2,0,-2,-3,-1,0,-1,-1,4.3950000000000005
880,-2,-2,1,-1,-1,-1,-1,-2,4.4
881,-1,-1,4,-2,-1,0,-2,-2,4.405
882,-2,-3,-1,1,2,-1,-1,-1,4.41
883,-1,-4,0,2,-1,2,-1,-1,4.415
884,-2,0,1,3,0,1,-1,1,4.42
885,-4,-7,-9,-5,-3,-3,-4,-4,4.425
886,-4,-10,0,1,0,2,-2,-2,4.43
887,0,-7,-1,1,2,0,0,1,4.4350000000000005
888,1,-2,-2,-2,-1,-2,-1,-1,4.44
889,-1,2,-2,-1,-2,-1,-1,-3,4.445
890,0,-1,-5,-4,-2,0,0,-1,4.45
891,-1,1,3,0,1,-1,0,0,4.455
892,1,-1,5,2,0,0,1,0,4.46
893,0,-4,2,0,-1,-2,0,-1,4.465
894,0,-1,-2,0,1,1,-1,0,4.47
895,-5,-12,-2,1,-1,-1,-2,-2,4.4750000000000005
896,-1,-4,-2,-2,0,1,-1,-1,4.48
897,0,0,3,3,1,2,0,2,4.485
898,-1,-5,-3,1,0,0,0,-1,4.49
899,-1,-6,-1,1,0,-1,0,1,4.495
900,-2,-13,-8,-7,-3,-2,-1,-1,4.5
901,-3,-3,0,0,0,0,2,1,4.505
902,0,3,3,-2,-2,-1,-1,1,4.51
903,-1,3,0,-3,-3,-3,-1,-2,4.515
904,-2,2,3,0,-1,-2,0,-1,4.5200000000000005
905,0,1,-2,-2,-1,-1,-1,-2,4.525
906,-1,-2,-1,0,-1,0,2,0,4.53
907,1,0,1,0,0,0,-1,-1,4.535
908,-1,2,0,1,-2,0,0,0,4.54
909,1,0,-1,-1,-1,0,-1,-1,4.545
910,-1,8,5,3,-1,-4,-4,-3,4.55
911,-3,-12,-3,-3,-2,-2,-4,0,4.555
912,-4,-14,-3,1,3,4,2,0,4.5600000000000005
913,-2,-6,-2,-6,-3,0,-1,0,4.565
914,0,0,-3,-1,0,-2,-2,0,4.57
915,0,4,2,1,-2,-2,-1,-1,4.575
916,3,7,3,0,0,-1,0,0,4.58
917,0,-2,-2,0,-1,-1,-2,0,4.585
918,-2,-4,-3,-2,-1,0,-2,-1,4.59
919,-1,3,-1,-1,0,0,0,0,4.595
920,-1,2,-1,3,1,-2,-1,-2,4.6000000000000005
921,1,1,3,1,2,2,1,1,4.605
922,2,3,3,0,1,-1,1,1,4.61
923,0,1,-1,0,1,1,1,0,4.615
924,-1,2,1,0,-3,-3,-3,-3,4.62
925,-2,-1,2,1,0,-2,1,0,4.625
926,1,1,0,-1,-1,0,1,-1,4.63
927,-1,2,-3,-2,-2,0,0,-1,4.635
928,0,3,0,0,-1,-1,-1,0,4.64
929,-1,2,-2,0,1,0,-2,-3,4.6450000000000005
930,-1,1,-1,2,-2,-2,-1,-1,4.65
931,2,-2,-1,-1,-1,-1,0,1,4.655
932,1,2,3,-5,0,-1,0,-1,4.66
933,-1,-4,0,0,-2,-3,-1,0,4.665
934,-1,-7,-12,0,0,1,-2,0,4.67
935,-2,-2,-3,-2,-1,0,-1,0,4.675
936,1,2,-4,-5,-2,-1,0,0,4.68
937,2,-3,1,-1,0,-1,-1,0,4.6850000000000005
938,-3,-11,-1,-1,0,0,0,-1,4.69
939,1,1,-1,0,-2,0,-2,-2,4.695
940,0,-2,-3,-1,-1,0,-2,-1,4.7
941,0,2,-2,1,-1,-1,0,-1,4.705
942,0,0,0,1,-2,-1,-1,-1,4.71
943,0,9,3,4,1,-3,-4,-4,4.715
944,-1,-17,-8,-5,0,0,3,-1,4.72
945,-1,3,-1,0,-1,0,-1,-1,4.7250000000000005
946,-1,-12,-4,-6,-3,0,-1,-1,4.73
947,-2,0,0,0,-1,-2,-2,-3,4.735
948,3,13,5,5,0,1,2,2,4.74
949,0,2,-4,-1,-4,-3,-2,0,4.745
950,-1,3,-3,-2,0,0,1,0,4.75
951,1,3,2,-1,-1,0,1,-1,4.755
952,-2,-2,2,-1,-2,-1,-2,0,4.76
953,-3,-3,-3,-1,1,-1,0,-1,4.765
954,0,2,4,1,-1,1,0,0,4.7700000000000005
955,2,11,0,-3,-1,0,-1,0,4.775
956,0,3,1,-2,-3,-4,-1,0,4.78
957,-2,-9,-1,-4,-2,-1,0,1,4.785
958,0,3,3,-1,0,1,1,0,4.79
959,-3,-11,-2,-1,-2,0,-1,-1,4.795
960,-1,0,2,-1,0,-1,-3,-1,4.8
961,0,6,1,-2,-1,-3,-2,-1,4.805
962,1,1,2,0,-1,-1,-1,-2,4.8100000000000005
963,-1,-1,-1,-2,1,0,0,0,4.815
964,-1,2,1,2,-1,-1,-2,0,4.82
965,-1,-6,-1,-1,0,-1,0,-1,4.825
966,0,0,0,-1,0,-2,0,-1,4.83
967,0,1,2,1,0,-1,0,1,4.835
968,-2,-7,-7,-3,-2,-2,-1,-2,4.84
969,-2,-17,-10,-4,-2,2,-2,0,4.845
970,-1,2,3,1,1,2,-1,0,4.8500000000000005
971,0,3,2,0,-3,-3,-2,-2,4.855
972,-1,-2,-3,2,0,0,-2,-3,4.86
973,0,6,5,3,0,1,2,0,4.865
974,-1,0,-1,-1,-2,-1,-2,-1,4.87
975,-1,-7,0,-2,-2,-4,-1,-1,4.875
976,-1,0,2,0,0,0,0,-1,4.88
977,-1,4,4,0,0,-1,1,-2,4.885
978,-1,1,1,1,-1,-3,-1,-1,4.89
979,1,-3,0,-3,2,2,0,0,4.8950000000000005
980,-5,-10,3,-1,-3,-1,1,-1,4.9
981,-2,0,-1,-1,-1,0,-1,1,4.905
982,-1,0,0,-2,1,-2,1,0,4.91
983,-1,1,-2,-2,-1,0,-1,0,4.915
984,0,4,1,-1,0,-2,0,-1,4.92
985,-1,-7,1,0,-1,-2,0,-3,4.925
986,-1,-8,-1,-3,-2,-2,-3,-3,4.93
987,-2,2,-1,1,-1,0,0,0,4.9350000000000005
988,-1,0,1,-3,-2,0,-2,-1,4.94
989,-1,1,-1,-2,-1,-1,-3,0,4.945
990,0,-1,0,-1,-2,-1,0,-2,4.95
991,1,-4,-2,0,1,1,0,-1,4.955
992,0,1,-1,1,0,1,-1,-1,4.96
993,-3,2,-2,-2,0,-3,0,1,4.965
994,1,3,3,1,0,1,2,1,4.97
995,-4,-8,-10,-4,-2,-1,1,1,4.9750000000000005
996,0,3,1,2,0,0,-1,-1,4.98
997,0,1,2,-3,-2,-2,0,-2,4.985
998,1,5,0,0,0,-1,-1,-1,4.99
999,1,3,2,1,-1,-1,1,0,4.995
1000,0,0,-2,-1,-1,-1,0,1,5.0
1001,2,1,1,0,-2,0,-1,0,5.005
1002,2,9,-6,-2,0,-3,-2,-1,5.01
1003,-1,-3,-2,-1,-2,-1,-1,-1,5.015
1004,0,-3,-4,-3,0,-3,-1,-1,5.0200000000000005
1005,-2,5,1,1,0,0,0,-1,5.025
1006,0,-1,-1,1,2,0,0,0,5.03
1007,-1,1,2,0,0,-1,-2,1,5.035
1008,1,-3,0,0,-1,2,-1,2,5.04
1009,1,-2,-3,-2,-2,1,0,1,5.045
1010,-1,-8,-3,0,-1,-1,-1,-2,5.05
1011,0,1,2,1,-2,-1,-1,-2,5.055
1012,-2,-3,1,-2,2,-2,-2,-2,5.0600000000000005
1013,-1,0,-4,-2,-1,0,0,-1,5.065
1014,-1,-1,1,5,1,1,-1,0,5.07
1015,-1,-1,-5,-8,-2,1,-2,0,5.075
1016,-1,4,7,2,0,0,-2,0,5.08
1017,-2,-4,-21,-3,-5,-2,-1,-2,5.085
1018,-4,0,-4,-11,-2,-2,-1,-4,5.09
1019,0,-7,-5,-3,0,-4,-1,-2,5.095
1020,-1,-3,-3,-2,-1,-2,-1,-1,5.1000000000000005
1021,-1,0,7,6,1,-1,-2,-1,5.105
1022,-1,-4,1,4,0,1,-1,1,5.11
1023,4,11,1,-1,0,-1,-1,-3,5.115
1024,-1,-2,-1,1,-2,-1,-1,-2,5.12
1025,2,-1,2,1,0,-1,-2,1,5.125
1026,-1,-4,-4,-3,-2,-1,1,1,5.13
1027,0,4,1,0,0,1,0,-1,5.135
1028,-1,1,2,-1,1,-1,0,0,5.14
1029,0,7,0,4,1,-1,-2,-1,5.1450000000000005
1030,1,-8,-2,-5,-1,2,-1,1,5.15
1031,-3,-4,-4,-1,1,-1,0,0,5.155
1032,-2,0,-3,-1,-1,-1,0,-1,5.16
1033,-2,-1,2,-2,0,0,1,-1,5.165
1034,-1,0,3,2,-2,-2,-2,-2,5.17
1035,0,0,1,2,-2,-1,2,-1,5.175
1036,1,-3,-3,-1,1,2,0,0,5.18
1037,-2,-4,2,-3,0,-2,0,-2,5.1850000000000005
1038,-2,-5,-1,0,0,0,1,1,5.19
1039,1,2,3,3,0,0,-2,-1,5.195
1040,-1,1,-1,2,-1,0,-1,-1,5.2
1041,0,0,-1,-2,0,-1,-1,-2,5.205
1042,-1,-1,-3,-3,-1,-2,-1,0,5.21
1043,-3,-6,3,0,0,-2,-1,-1,5.215
1044,2,9,0,-1,-1,1,1,-1,5.22
1045,0,-1,2,0,-1,0,-2,0,5.2250000000000005
1046,-2,-6,1,-2,-2,-1,-1,-1,5.23
1047,-3,1,0,-1,0,0,-2,-1,5.235
1048,-1,-3,1,0,-2,-2,0,-2,5.24
1049,0,2,5,-3,-2,-1,-1,-2,5.245
1050,-3,3,-1,0,0,-1,-1,1,5.25
1051,-2,-8,-5,0,1,1,0,-1,5.255
1052,1,-2,4,-1,-1,-2,-2,-1,5.26
1053,-2,-2,-3,0,0,-1,-2,0,5.265
1054,0,3,4,2,0,0,0,-1,5.2700000000000005
1055,0,-2,-2,0,0,0,-1,0,5.275
1056,-2,-3,-1,-1,-1,-3,0,-1,5.28
1057,0,-6,1,-1,0,2,2,1,5.285
1058,2,5,-1,1,-1,-2,-2,-1,5.29
1059,-1,-2,-2,-2,-2,0,-1,-1,5.295
1060,-2,-4,1,-2,0,0,-2,0,5.3
1061,-2,-1,2,0,-1,-1,-1,-1,5.305
1062,-1,-1,-5,-3,-1,0,-1,0,5.3100000000000005
1063,3,5,3,0,0,0,-1,-1,5.315
1064,-4,-2,-3,2,1,-1,-3,0,5.32
1065,0,-5,-2,-1,0,0,-2,1,5.325
1066,0,4,1,0,0,0,0,-1,5.33
1067,-1,3,-2,-2,-1,-2,-1,-1,5.335
1068,0,-4,-1,0,-2,0,0,0,5.34
1069,-2,3,2,1,-1,-1,1,-1,5.345
1070,-1,0,0,1,-1,-1,0,-2,5.3500000000000005
1071,-4,-14,-3,-2,-3,-3,0,-1,5.355
1072,0,6,4,1,0,-2,-2,0,5.36
1073,-3,-2,-2,0,-1,-3,0,-2,5.365
1074,0,2,0,-3,-2,0,-1,1,5.37
1075,-2,-2,1,-4,-3,-3,1,-1,5.375
1076,-1,-1,-1,-1,-1,-1,-2,0,5.38
1077,1,5,5,2,1,-1,0,1,5.385
1078,-2,-7,-4,-3,-1,-1,-2,-2,5.39
1079,-1,-3,-3,1,-1,-1,-4,-1,5.3950000000000005
1080,2,-1,-2,-1,-3,-1,0,0,5.4
1081,-4,-7,0,1,0,-2,-1,0,5.405
1082,0,-2,-2,1,1,-3,-1,0,5.41
1083,2,9,-3,-2,-2,0,-1,0,5.415
1084,-2,-7,-3,-3,-1,0,-2,-1,5.42
1085,0,0,-1,-3,-3,0,-1,-1,5.425
1086,1,2,2,0,-1,-1,1,-1,5.43
1087,-1,-3,-9,-2,-1,0,-2,-1,5.4350000000000005
1088,-2,3,2,-1,-1,0,1,0,5.44
1089,0,-3,0,-2,-1,-1,0,-1,5.445
1090,-1,-3,3,2,0,-1,-1,0,5.45
1091,1,6,2,1,-1,-2,0,0,5.455
1092,-1,-2,-5,-1,-1,0,0,-1,5.46
1093,-1,5,1,0,0,-1,0,-1,5.465
1094,-1,1,-1,0,-1,1,1,-1,5.47
1095,0,3,5,5,3,0,-1,-1,5.4750000000000005
1096,0,-2,2,-3,-1,-1,0,-1,5.48
1097,0,6,1,0,-1,1,-1,1,5.485
1098,-4,-6,-3,4,-1,-1,-1,-2,5.49
1099,-7,-15,1,1,2,2,1,1,5.495
1100,-2,-3,-4,-4,-1,0,-2,-1,5.5
1101,-1,-3,-8,-4,-2,-2,-1,-1,5.505
1102,-2,-2,3,1,1,0,1,0,5.51
1103,-1,-5,-9,-3,-4,-3,-1,-2,5.515
1104,0,0,1,2,0,-1,0,-1,5.5200000000000005
1105,0,0,2,-2,0,2,0,-1,5.525
1106,3,7,-1,-4,-3,-2,-2,-1,5.53
1107,-2,-1,3,0,-2,1,0,0,5.535
1108,-3,-6,-5,-1,-2,-3,-1,-1,5.54
1109,-1,-1,-4,-2,-2,-2,0,1,5.545
1110,-3,-1,-4,-1,2,-2,-2,-2,5.55
1111,1,3,4,0,0,-1,0,0,5.555
1112,-1,-8,-4,0,1,1,0,-1,5.5600000000000005
1113,-2,-3,-2,2,-2,-1,0,-2,5.565
1114,2,4,0,0,1,0,0,0,5.57
1115,1,8,1,3,-1,0,-1,-1,5.575
1116,-2,-1,-16,-9,-2,-1,-2,-1,5.58
1117,4,5,1,0,0,-1,-2,-2,5.585
1118,-3,-2,-1,1,-1,-3,-1,0,5.59
1119,1,-1,1,-1,1,0,0,0,5.595
1120,1,6,9,6,0,-1,-1,0,5.6000000000000005
1121,-3,-1,-8,-5,0,-1,-1,-1,5.605
1122,-2,-4,-3,-3,-5,-1,-1,-1,5.61
1123,-1,-4,0,-2,-1,-1,-3,-2,5.615
1124,-1,1,1,-5,0,0,1,-1,5.62
1125,-2,-11,2,1,-2,-1,-3,-1,5.625
1126,-1,-6,2,-1,-2,2,-1,-1,5.63
1127,-3,-6,-11,-6,0,-1,1,0,5.635
1128,1,0,-3,0,0,-1,1,-1,5.64
1129,0,5,-2,0,1,-1,-1,-1,5.6450000000000005
1130,2,1,4,2,3,2,1,2,5.65
1131,-2,-3,-5,-3,-2,-2,-1,-1,5.655
1132,-1,4,5,1,0,-2,0,0,5.66
1133,-4,-6,1,0,0,0,-1,0,5.665
1134,0,-1,-5,-1,0,-1,-1,-1,5.67
1135,1,3,8,0,0,-2,-2,-2,5.675
1136,-2,-2,6,7,0,-2,-1,0,5.68
1137,-2,1,-1,-1,-3,-1,-2,-1,5.6850000000000005
1138,1,1,-1,0,-4,-2,-2,0,5.69
1139,-1,2,3,-1,1,0,0,0,5.695
1140,0,-3,-1,-2,-3,1,0,-2,5.7
1141,2,-2,3,-3,-1,0,1,0,5.705
1142,-1,-7,-5,-5,-2,0,-2,-4,5.71
1143,0,10,3,3,-2,0,0,0,5.715
1144,1,-1,2,-1,0,-1,-1,-2,5.72
1145,1,-3,1,1,0,0,0,0,5.7250000000000005
1146,-3,-6,-5,-3,-3,-2,0,-1,5.73
1147,-2,-7,-7,-3,-2,-3,-2,-2,5.735
1148,-5,-12,-2,4,-1,2,0,-2,5.74
1149,-3,-4,-6,-10,-3,-1,-1,-2,5.745
1150,0,6,11,5,2,-2,0,0,5.75
1151,-1,-3,1,-3,-1,0,-1,-1,5.755
1152,-2,-1,-15,-7,-3,-1,-1,-1,5.76
1153,0,1,7,8,0,-1,-1,-1,5.765
1154,1,0,-6,-4,-2,-2,0,-1,5.7700000000000005
1155,1,-2,1,0,-2,0,0,0,5.775
1156,2,5,6,0,0,-2,0,1,5.78
1157,1,0,1,2,0,1,0,0,5.785
1158,-2,-3,1,-1,-2,0,-1,0,5.79
1159,-1,-2,-2,0,0,1,0,-1,5.795
1160,1,-12,-4,-7,-1,-1,-2,-1,5.8
1161,0,0,1,5,-1,0,-2,-2,5.805
1162,-2,3,0,2,-1,0,-2,-1,5.8100000000000005
1163,1,-3,-2,-1,0,0,1,0,5.815
1164,-1,2,-4,-4,-1,0,0,-2,5.82
1165,0,1,-4,1,0,-1,1,1,5.825
1166,-3,2,2,-5,-1,-4,-2,-2,5.83
1167,0,4,-1,2,-1,-2,0,1,5.835
1168,2,7,4,-2,0,0,0,0,5.84
1169,-1,-1,1,0,-2,-1,0,-1,5.845
1170,1,-1,-3,-4,-3,1,-1,-1,5.8500000000000005
1171,0,-2,-1,4,-3,-1,-1,-2,5.855
1172,-1,-2,3,0,-1,0,-1,0,5.86
1173,-2,-5,-3,-3,-1,-2,-2,-3,5.865
1174,-3,1,3,3,-1,1,1,1,5.87
1175,0,-4,-7,-10,-2,-1,-2,-2,5.875
1176,-1,0,6,3,1,0,0,2,5.88
1177,0,8,-1,-1,-1,-1,1,0,5.885
1178,-5,-12,6,-1,1,-1,0,-1,5.89
1179,-2,-2,-3,0,-1,-2,0,-1,5.8950000000000005
1180,0,11,2,3,-2,-2,-1,1,5.9
1181,-2,-4,-3,-2,-1,1,0,-1,5.905
1182,0,-5,-2,1,-1,-1,0,0,5.91
1183,1,10,6,0,-2,0,-1,0,5.915
1184,0,-1,2,2,0,-1,-4,-1,5.92
1185,7,13,-2,0,1,-1,-1,0,5.925
1186,-3,-20,-2,-1,-3,-1,-1,-3,5.93
1187,-2,13,-1,-1,-1,-1,-1,-1,5.9350000000000005
1188,1,4,-3,1,0,-1,-1,0,5.94
1189,0,-2,-2,0,-1,-1,-2,-1,5.945
1190,2,5,-1,1,1,-2,0,0,5.95
1191,-1,-2,2,-2,-2,-2,-2,-1,5.955
1192,0,-2,-4,0,0,0,-1,-1,5.96
1193,0,8,2,-2,-1,0,0,0,5.965
1194,0,1,-2,-3,-2,1,0,-1,5.97
1195,-2,-6,5,0,-1,-1,-1,-1,5.9750000000000005
1196,-2,-2,-4,0,-3,0,-1,-2,5.98
1197,-3,-7,-5,-2,-1,-1,-1,1,5.985
1198,4,10,2,0,0,2,0,1,5.99
1199,-2,-4,4,1,2,1,0,2,5.995
1200,-4,-6,1,-2,-2,-2,-2,-2,6.0
1201,0,-7,-4,-2,0,-1,-1,-2,6.005
1202,0,0,-5,-2,-3,-1,-1,0,6.01
1203,-1,1,2,1,0,2,0,-1,6.015000000000001
1204,-3,2,7,4,-1,0,0,-1,6.0200000000000005
1205,-1,-2,-4,0,-1,1,4,1,6.025
1206,0,3,0,1,-1,-3,-1,-2,6.03
1207,-1,-4,-3,-3,-2,0,-1,-1,6.035
1208,0,0,3,-2,-1,-1,-2,-1,6.04
1209,-2,-3,6,1,0,0,1,0,6.045
1210,-1,-3,-4,-3,0,-1,0,-1,6.05
1211,-6,-12,-2,-1,-1,-1,1,0,6.055
1212,1,-2,1,1,0,-2,-3,-1,6.0600000000000005
1213,1,-3,-1,-3,-3,-3,-2,0,6.065
1214,2,6,-2,1,-2,-3,-2,-1,6.07
1215,1,-2,2,-2,0,0,0,-1,6.075
1216,-2,-14,-10,-6,-3,-2,1,-2,6.08
1217,-1,-4,3,-1,1,0,-2,-1,6.085
1218,-1,1,-2,-2,-1,-1,-4,-2,6.09
1219,2,7,4,3,1,-1,-1,-2,6.095
1220,0,3,3,-3,-1,-1,0,-1,6.1000000000000005
1221,-1,-4,-6,-3,-1,-2,0,-1,6.105
1222,0,1,2,-1,1,0,0,-1,6.11
1223,0,0,0,1,-2,-2,-3,-2,6.115
1224,-2,-6,-9,-6,-1,-2,0,-3,6.12
1225,-4,-12,0,-2,-1,-1,-3,-2,6.125
1226,0,1,-1,1,-1,0,3,0,6.13
1227,-7,-16,-7,-3,0,0,0,-1,6.135
1228,-2,0,4,-2,0,0,-1,-1,6.140000000000001
1229,-2,2,4,5,0,1,-1,-1,6.1450000000000005
1230,0,-5,-4,-2,-1,-1,-1,-2,6.15
1231,-1,-2,-1,1,-1,-2,-1,-1,6.155
1232,-1,-3,-6,-3,-3,-1,-1,-2,6.16
1233,1,2,3,0,0,-1,2,0,6.165
1234,-3,-3,0,1,2,2,0,-1,6.17
1235,-1,1,-7,-4,-2,-3,-2,-3,6.175
1236,1,6,7,0,2,1,2,1,6.18
1237,0,3,-2,0,-1,0,-1,-2,6.1850000000000005
1238,-2,-4,1,0,-2,-1,0,0,6.19
1239,1,-1,-6,-1,2,0,-1,0,6.195
1240,-2,-3,-4,-5,-2,-1,1,0,6.2
1241,1,3,1,-1,-1,-2,-1,-1,6.205
1242,0,3,3,2,1,0,-3,0,6.21
1243,5,12,0,-3,-3,0,0,0,6.215
1244,0,-3,2,2,-1,-2,0,0,6.22
1245,-2,-2,-5,-2,0,-2,-2,-2,6.2250000000000005
1246,1,4,4,0,0,1,-1,-1,6.23
1247,-1,0,0,0,-2,-3,-2,0,6.235
1248,2,1,-1,1,0,-1,-2,-2,6.24
1249,-1,-6,-2,-4,0,0,1,-1,6.245
1250,-1,3,-8,0,-2,-2,-2,-2,6.25
1251,-1,10,5,-6,0,1,1,0,6.255
1252,2,7,7,4,1,-1,1,1,6.26
1253,-6,-7,1,-2,-3,-1,-3,-1,6.265000000000001
1254,-1,0,-6,2,0,1,0,0,6.2700000000000005
1255,0,-5,0,0,0,-1,-2,-1,6.275
1256,-2,2,-4,-3,0,0,0,-1,6.28
1257,1,1,-1,-3,0,1,0,-2,6.285
1258,-2,-5,-7,-3,-1,0,1,-1,6.29
1259,-8,-9,7,3,-1,-1,-1,-1,6.295
1260,-1,7,5,3,0,-2,-2,-1,6.3
1261,0,-1,-2,-1,-1,-2,-1,-1,6.305
1262,-2,-5,-3,-3,0,0,-1,1,6.3100000000000005
1263,1,2,1,-1,-2,-2,0,-1,6.315
1264,0,-4,-2,3,1,0,-1,-2,6.32
1265,-1,-2,-4,1,-2,1,0,-1,6.325
1266,1,9,6,1,0,-1,-2,-1,6.33
1267,3,0,-1,-3,-1,-1,0,0,6.335
1268,-2,-7,-6,-3,-3,0,0,-1,6.34
1269,1,1,1,1,0,-2,-1,0,6.345
1270,-1,-1,0,-2,1,-2,1,0,6.3500000000000005
1271,0,-5,-6,-2,0,1,-1,0,6.355
1272,-3,-5,0,3,-1,-3,-1,-2,6.36
1273,-1,1,1,-1,-1,3,1,1,6.365
1274,1,8,3,-3,-4,-2,-3,-2,6.37
1275,0,-9,-2,-2,-1,-1,-1,-1,6.375
1276,-2,-3,-4,-5,-2,-2,-1,-1,6.38
1277,-1,1,-1,-2,0,-2,-2,-2,6.385
1278,-1,-10,0,-1,0,-1,1,1,6.390000000000001
1279,0,5,4,3,-1,1,0,-1,6.3950000000000005
1280,-1,-3,-6,0,0,1,-1,-1,6.4
1281,0,4,4,0,-3,-4,-3,-2,6.405
1282,0,-3,-5,-5,0,-1,-1,-2,6.41
1283,1,9,2,1,-1,1,0,-2,6.415
1284,-1,-13,-4,-2,0,-1,-1,-1,6.42
1285,1,4,2,-3,1,0,-1,1,6.425
1286,-1,-4,1,4,-1,-2,-3,0,6.43
1287,-3,-6,6,3,-1,-2,0,1,6.4350000000000005
1288,1,4,4,3,-1,0,1,1,6.44
1289,-1,-2,-15,-8,-5,0,0,-1,6.445
1290,3,3,3,-7,-1,-2,1,-1,6.45
1291,-3,-6,0,0,-1,-1,-1,0,6.455
1292,0,2,4,-2,0,0,-1,-1,6.46
1293,0,1,4,4,1,1,-1,-1,6.465
1294,-2,1,0,1,-3,-2,-1,-1,6.47
1295,0,2,-2,-1,-1,1,0,-1,6.4750000000000005
1296,1,5,2,1,-1,1,1,1,6.48
1297,-2,-5,3,0,-2,0,0,0,6.485
1298,-2,-2,0,1,1,1,-1,-1,6.49
1299,1,0,0,-5,1,-2,-1,-1,6.495
1300,-3,-5,-3,-2,0,-1,0,-1,6.5
1301,1,4,1,1,0,0,0,2,6.505
1302,-2,-1,7,0,-4,-3,-2,-1,6.51
1303,1,3,1,2,1,1,1,0,6.515000000000001
1304,4,14,1,0,-1,0,-2,0,6.5200000000000005
1305,-2,6,-3,-3,0,0,-1,-1,6.525
1306,-1,-2,-3,-2,-3,0,-1,1,6.53
1307,1,4,-6,-2,-2,-1,-3,-3,6.535
1308,1,4,1,2,1,2,0,-1,6.54
1309,-1,-3,2,3,-2,-3,0,-1,6.545
1310,-3,-10,-9,-6,1,0,2,1,6.55
1311,0,9,4,-1,-2,-3,0,1,6.555
1312,-2,-5,-1,0,-1,2,0,0,6.5600000000000005
1313,-1,-3,0,-2,-1,-1,-1,-1,6.565
1314,-1,-2,-13,-3,-1,-1,-1,-1,6.57
1315,-3,-2,6,3,-1,-2,0,0,6.575
1316,1,0,-4,-2,1,-1,1,0,6.58
1317,-3,3,-4,-5,-2,-2,-3,-1,6.585
1318,-2,5,1,2,-1,-1,-1,-1,6.59
1319,-2,-4,2,-1,-2,1,2,-1,6.595
1320,-2,3,0,1,0,0,0,-1,6.6000000000000005
1321,0,-4,-3,0,0,1,-1,-1,6.605
1322,-1,-1,-1,0,0,1,-1,-2,6.61
1323,-5,-9,7,2,0,-1,-1,-1,6.615
1324,2,0,1,-1,-1,-1,0,0,6.62
1325,1,-2,-4,0,0,-2,1,0,6.625
1326,2,-1,0,-3,-1,-1,-1,0,6.63
1327,0,1,-3,1,0,-1,0,0,6.635
1328,-2,0,0,-3,-1,-2,-1,0,6.640000000000001
1329,-2,0,4,3,0,-1,1,-2,6.6450000000000005
1330,-2,0,2,1,0,0,-3,0,6.65
1331,2,-3,-7,-3,-3,-2,-3,-2,6.655
1332,-7,-20,-15,-10,-2,-2,-1,-2,6.66
1333,0,-2,-4,-3,0,1,0,1,6.665
1334,-2,10,15,1,1,-1,-3,-2,6.67
1335,-1,-1,-9,2,2,0,-2,-2,6.675
1336,0,2,2,1,-1,2,1,0,6.68
1337,-4,-6,1,2,0,-2,0,-1,6.6850000000000005
1338,-1,-2,-1,1,0,-1,0,0,6.69
1339,1,15,-1,-2,0,0,0,1,6.695
1340,-1,0,-1,1,-4,-2,-3,-2,6.7
1341,1,27,0,1,-1,-1,-2,-1,6.705
1342,-1,2,-6,1,-1,1,0,0,6.71
1343,-2,-1,1,-4,-2,-3,-1,-1,6.715
1344,-2,-1,-2,-3,-1,0,-1,-1,6.72
1345,0,-4,-6,2,-3,-1,-2,-1,6.7250000000000005
1346,-2,-6,-6,-4,-1,-1,0,-2,6.73
1347,-3,-15,1,4,3,0,0,1,6.735
1348,-1,-4,17,7,0,1,1,1,6.74
1349,1,3,-32,-27,-6,-2,-2,-2,6.745
1350,-5,-13,-16,3,-6,-4,-4,-2,6.75
1351,-1,-16,-10,-11,-3,1,-1,-1,6.755
1352,0,4,-2,4,1,-1,-2,-1,6.76
1353,1,0,18,13,2,2,-1,1,6.765000000000001
1354,0,4,2,-4,-2,0,-1,0,6.7700000000000005
1355,0,0,9,1,0,2,-1,-1,6.775
1356,8,14,6,7,1,0,3,4,6.78
1357,4,-8,-6,-10,-4,-4,-4,-4,6.785
1358,-9,-14,-5,-5,-6,-5,-4,-6,6.79
1359,1,-4,9,7,3,1,0,-1,6.795
1360,-4,-3,4,-3,1,1,-2,-3,6.8
1361,2,0,1,4,2,1,3,3,6.805
1362,2,1,3,-1,0,1,1,1,6.8100000000000005
1363,-2,5,-7,-3,-3,-2,-2,-1,6.815
1364,9,38,-2,-2,-1,-2,0,0,6.82
1365,-7,-16,-4,1,-1,2,4,1,6.825
1366,3,-1,0,-2,-1,0,-1,0,6.83
1367,0,15,0,-1,-2,-1,1,-1,6.835
1368,-4,-12,-3,-4,-1,-1,-2,-3,6.84
1369,0,-5,-3,2,0,-2,-3,-2,6.845
1370,-2,-9,-3,-3,0,0,1,-1,6.8500000000000005
1371,-2,-14,6,-1,0,0,0,0,6.855
1372,-4,-9,-7,-3,-2,-5,-3,-2,6.86
1373,-2,9,6,3,-2,0,-2,-2,6.865
1374,2,1,-26,-3,1,1,0,1,6.87
1375,1,-2,2,0,-1,-2,0,-1,6.875
1376,-3,-8,1,-5,-2,-1,-3,0,6.88
1377,-5,7,4,-1,-2,-2,-2,-3,6.885
1378,19,22,12,11,3,1,3,4,6.890000000000001
1379,-4,9,-8,-4,-3,-1,2,5,6.8950000000000005
1380,-5,-6,-2,-8,-1,-3,0,-1,6.9
1381,-5,-31,-22,-15,-11,-8,-10,-11,6.905
1382,8,10,3,-1,0,0,-1,0,6.91
1383,26,11,3,-1,2,-1,-1,-4,6.915
1384,-10,-15,32,2,-3,-2,-2,2,6.92
1385,13,38,17,18,10,12,20,17,6.925
1386,-25,-15,16,-9,3,2,2,-3,6.93
1387,18,-13,-14,-2,-7,-10,-22,-26,6.9350000000000005
1388,15,-5,12,-8,-10,-17,-31,-15,6.94
1389,4,-23,-7,6,5,7,15,6,6.945
1390,7,-7,6,7,8,13,13,13,6.95
1391,42,32,-13,8,6,8,9,15,6.955
1392,-62,-9,-38,-3,3,4,21,4,6.96
1393,-33,-3,2,-19,-15,-18,-33,-22,6.965
1394,0,-55,-22,10,4,9,3,-27,6.97
1395,-20,-13,-45,-23,-5,0,31,49,6.9750000000000005
1396,98,-7,29,20,-18,-34,-83,-36,6.98
1397,-85,26,-31,-6,6,9,-9,-13,6.985
1398,-13,-25,-67,-24,-9,-3,23,13,6.99
1399,-3,-10,-6,-23,-13,-13,-25,-28,6.995
1400,-18,31,-41,18,11,18,34,24,7.0
1401,26,17,-7,9,9,13,50,20,7.005
1402,7,58,-28,9,5,5,7,-1,7.01
1403,-51,23,-19,31,6,9,7,-2,7.015000000000001
1404,45,52,-2,-11,6,8,16,36,7.0200000000000005
1405,22,-22,12,13,-10,-17,-46,-41,7.025
1406,17,44,-8,0,9,15,28,35,7.03
1407,-95,-74,-19,-43,-30,-25,-36,-35,7.035
1408,-9,6,17,13,-12,-6,-5,-14,7.04
1409,35,1,14,-24,10,2,6,12,7.045
1410,-19,20,59,73,-2,4,3,14,7.05
1411,53,29,10,-65,-4,-3,-2,6,7.055
1412,-2,-74,45,38,6,9,5,-11,7.0600000000000005
1413,-7,41,7,-109,-63,-8,20,9,7.065
1414,30,-8,118,-20,45,-6,-18,12,7.07
1415,-14,-9,88,-20,13,0,-9,-7,7.075
1416,-46,-19,62,53,-12,9,18,-9,7.08
1417,9,-51,82,85,10,3,-5,8,7.085
1418,-36,53,61,-5,-16,10,-3,-14,7.09
1419,36,-38,93,-31,14,-8,6,25,7.095
1420,17,-30,42,-18,36,22,20,10,7.1000000000000005
1421,-5,-13,96,58,-24,-28,-22,-30,7.105
1422,-40,-14,88,29,-10,-3,1,8,7.11
1423,-8,3,121,0,7,3,-7,-18,7.115
1424,4,20,11,-37,7,10,22,11,7.12
1425,2,-75,-9,-13,-16,-23,-31,-1,7.125
1426,22,26,-107,-10,0,-3,-9,-12,7.13
1427,-9,-35,-112,8,-11,-1,-7,-21,7.135
1428,2,55,-113,20,-12,-2,15,22,7.140000000000001
1429,-16,-27,-55,3,31,18,0,-6,7.1450000000000005
1430,32,40,-80,-25,-21,-26,-17,5,7.15
1431,-41,44,-32,63,-8,0,8,9,7.155
1432,-1,-49,-2,-16,-7,-9,-18,-30,7.16
1433,-26,-39,-68,-72,26,12,17,21,7.165
1434,-2,-65,-79,35,-19,3,-8,-19,7.17
1435,26,127,-76,-39,57,39,34,11,7.175
1436,-84,-116,-12,6,-41,-51,-51,-29,7.18
1437,77,72,-54,11,0,1,1,16,7.1850000000000005
1438,-16,-28,-9,-17,-19,-13,-11,-10,7.19
1439,37,83,-124,55,3,29,26,8,7.195
1440,63,24,13,-79,6,20,32,24,7.2
1441,-49,-74,100,27,11,3,-12,-20,7.205
1442,26,16,-71,-12,-32,-20,-17,-15,7.21
1443,-33,-18,-50,96,-21,4,3,-3,7.215
1444,-12,20,46,-109,81,10,22,57,7.22
1445,-40,5,42,91,-18,-32,-50,-60,7.2250000000000005
1446,-27,12,-24,-1,4,-5,-1,-11,7.23
1447,29,3,27,9,-9,6,7,-9,7.235
1448,30,104,-34,100,-9,-3,-4,30,7.24
1449,-46,9,-32,-30,8,8,7,-10,7.245
1450,-30,-24,-41,-53,20,12,3,11,7.25
1451,76,30,5,-38,-34,5,18,22,7.255
1452,-103,-79,38,-48,-33,-57,-64,-80,7.26
1453,48,-17,-24,-19,10,10,19,24,7.265000000000001
1454,-36,72,-33,14,-2,6,-2,-18,7.2700000000000005
1455,-32,-108,-46,-58,4,3,9,14,7.275
1456,20,17,-48,-34,-32,2,7,9,7.28
1457,4,63,-17,38,2,-7,-14,-13,7.285
1458,-9,-3,-87,28,2,0,3,-2,7.29
1459,96,114,15,48,8,7,15,27,7.295
1460,-78,-60,-69,-69,-32,12,-8,-23,7.3
1461,27,-26,-67,58,48,22,41,70,7.305
1462,-2,9,54,-82,14,-15,-20,-37,7.3100000000000005
1463,-56,-84,-32,94,-26,-19,-8,-12,7.315
1464,97,-17,-60,-11,35,1,-23,-26,7.32
1465,24,77,-128,-34,-35,19,22,15,7.325
1466,26,-31,-91,-5,-27,-14,-3,36,7.33
1467,-45,-18,52,27,68,-5,-4,-21,7.335
1468,43,50,-26,38,-23,2,-9,-26,7.34
1469,6,-60,-41,-31,13,9,21,45,7.345
1470,-32,18,46,32,-21,-30,-30,-40,7.3500000000000005
1471,-26,-112,-66,-108,-24,-20,-20,-16,7.355
1472,14,114,34,6,-17,-4,11,21,7.36
1473,-1,-2,85,41,17,4,-4,-19,7.365
1474,-52,-121,88,-11,-10,-4,-5,-2,7.37
1475,80,127,70,-10,14,21,19,64,7.375
1476,-52,-48,44,48,3,17,2,-41,7.38
1477,-104,-61,60,-68,-27,-44,-42,-48,7.385
1478,82,76,72,42,23,22,20,42,7.390000000000001
1479,-47,-23,77,1,-35,-32,-32,-42,7.3950000000000005
1480,0,17,18,-9,25,19,24,33,7.4
1481,3,97,24,-29,-1,2,-4,-23,7.405
1482,51,-84,44,50,11,23,18,18,7.41
1483,-31,-82,25,-88,-27,-16,-18,-5,7.415
1484,41,59,-15,84,23,29,33,24,7.42
1485,65,50,3,-76,17,-10,-8,18,7.425
1486,10,60,27,9,-3,0,1,-11,7.43
1487,-90,26,10,67,-20,-4,-5,-2,7.4350000000000005
1488,17,-75,-13,-35,25,8,16,35,7.44
1489,28,71,15,24,4,1,1,-26,7.445
1490,19,-5,19,96,-57,-6,7,2,7.45
1491,32,10,5,-74,91,6,-6,38,7.455
1492,-78,-5,-7,76,-29,-24,-33,-75,7.46
1493,31,39,3,50,-1,16,30,45,7.465
1494,39,45,6,33,23,13,15,-9,7.47
1495,-16,-102,0,-11,-12,-11,-8,-25,7.4750000000000005
1496,32,102,-5,-6,2,2,-2,32,7.48
1497,-1,13,1,48,1,-5,-14,-12,7.485
1498,25,-31,5,-128,-15,-13,10,59,7.49
1499,-23,-17,8,-30,-12,-1,-1,-63,7.495
1500,-7,62,-3,78,-28,-7,-13,-26,7.5
1501,46,-85,0,-9,62,21,14,7,7.505
1502,-109,-67,5,-36,-4,-7,-7,-20,7.51
1503,85,36,3,30,-4,5,12,42,7.515000000000001
1504,-31,-30,-6,-34,-20,-21,-14,23,7.5200000000000005
1505,1,78,-1,21,-22,14,14,-32,7.525
1506,8,-104,4,22,22,0,-16,9,7.53
1507,40,113,1,47,7,-8,-11,-5,7.535
1508,-89,-117,-4,10,-33,26,47,-17,7.54
1509,6,-86,3,-85,26,-38,-30,29,7.545
1510,-49,-20,3,-44,-8,-31,-54,-107,7.55
1511,-33,-63,0,29,-8,2,-8,-33,7.555
1512,59,127,-2,17,1,2,7,15,7.5600000000000005
1513,-57,-7,0,-34,-32,11,24,35,7.565
1514,-42,-19,2,-32,4,4,12,-14,7.57
1515,1,73,0,70,-15,9,-11,-9,7.575
1516,100,44,-2,-50,48,21,34,84,7.58
1517,-25,-8,0,-29,-30,-28,-37,-37,7.585
1518,-2,39,0,81,-15,-4,-1,13,7.59
1519,-4,-56,1,-6,-37,17,47,57,7.595
1520,72,78,-1,28,73,4,-14,-47,7.6000000000000005
1521,-27,-61,-1,1,-43,-10,-25,-40,7.605
1522,19,59,0,19,-13,4,-6,-22,7.61
1523,-15,20,0,-4,7,5,10,12,7.615
1524,-7,-116,-2,-31,-14,-4,-1,15,7.62
1525,36,123,-1,60,6,18,20,22,7.625
1526,-17,-120,1,-91,0,-15,-6,-9,7.63
1527,10,18,-1,26,1,-11,-18,-16,7.635
1528,-16,2,-2,1,3,2,5,-4,7.640000000000001
1529,27,-42,0,21,-12,10,24,53,7.6450000000000005
1530,117,127,0,30,54,45,58,50,7.65
1531,-90,-104,-1,-74,-24,-43,-51,-46,7.655
1532,-14,-11,-1,-20,-11,-32,-42,-57,7.66
1533,-36,-29,-1,51,-21,16,34,14,7.665
1534,53,127,-1,-1,17,10,7,69,7.67
1535,12,-93,-1,-5,-2,-15,-9,13,7.675
1536,-59,-11,-1,14,-22,-23,-32,-72,7.68
1537,-16,-43,-1,-12,-3,0,2,17,7.6850000000000005
1538,41,107,-1,-14,3,-5,-10,-3,7.69
1539,-30,117,0,-13,-37,9,2,-28,7.695
1540,-8,-107,-1,-120,-12,-25,-9,8,7.7
1541,11,-12,-1,-4,-17,-6,-7,-15,7.705
1542,-3,47,-1,-79,-2,4,7,20,7.71
1543,-29,-94,-1,69,-1,-22,-29,-36,7.715
1544,-22,-13,-2,106,-8,4,6,3,7.72
1545,4,29,-1,-69,10,4,1,-3,7.7250000000000005
1546,12,-81,-1,-15,23,12,17,31,7.73
1547,-48,-35,-1,19,4,3,2,-30,7.735
1548,20,-40,-1,-33,-8,-3,-3,20,7.74
1549,3,104,0,37,13,-2,-14,-13,7.745
1550,8,-25,-1,24,-13,-3,20,42,7.75
1551,19,-28,0,-30,22,1,-21,2,7.755
1552,-3,79,-1,25,18,13,8,5,7.76
1553,-28,-86,-1,-53,-29,-14,0,-5,7.765000000000001
1554,-34,22,0,25,-8,-13,-25,-43,7.7700000000000005
1555,45,16,-1,-21,11,3,11,14,7.775
1556,-51,-69,-1,44,-20,-4,-13,-21,7.78
1557,2,-2,-1,-7,2,9,12,0,7.785
1558,7,58,-1,-45,9,4,5,17,7.79
1559,-25,-56,-1,-16,4,-10,-13,-57,7.795
1560,41,54,-1,-13,-10,18,26,39,7.8
1561,-10,68,-1,10,17,-13,-25,-31,7.805000000000001
1562,-74,-128,-1,37,-32,-14,-12,-30,7.8100000000000005
1563,66,127,-1,-88,30,21,24,52,7.815
1564,-2,-28,-1,17,-3,-15,-4,-23,7.82
1565,-41,-21,-1,38,3,13,3,8,7.825
1566,-9,-10,1,5,0,-13,-26,-36,7.83
1567,10,29,3,31,3,9,10,29,7.835
1568,-11,20,11,-6,2,3,-8,-16,7.84
1569,30,-4,11,-30,1,-10,33,8,7.845
1570,-2,0,8,14,-4,4,-9,23,7.8500000000000005
1571,-6,41,1,58,2,7,11,-5,7.855
1572,65,22,8,-107,9,13,19,80,7.86
1573,-26,-14,6,42,-5,-6,-24,-58,7.865
1574,2,-31,-1,-4,11,5,8,-10,7.87
1575,-8,-28,-3,-9,-13,-9,-15,1,7.875
1576,-9,36,-1,18,-2,5,12,-15,7.88
1577,21,0,2,-12,0,6,10,15,7.885
1578,-28,3,0,-3,-5,-13,-3,-23,7.890000000000001
1579,23,22,5,24,8,6,9,20,7.8950000000000005
1580,-17,-28,20,-25,-2,1,-5,-19,7.9
1581,25,6,68,-3,4,-3,-13,18,7.905
1582,-16,-41,119,-2,-3,-4,-12,-12,7.91
1583,11,18,108,1,-10,-1,-3,-3,7.915
1584,-13,-10,113,12,4,-3,23,-3,7.92
1585,13,-8,106,-5,2,0,-6,17,7.925
1586,29,40,46,14,3,2,-2,-2,7.930000000000001
1587,-8,-20,38,13,-1,-1,-12,-4,7.9350000000000005
1588,-1,-8,2,-8,-1,-8,-4,6,7.94
1589,-2,19,-40,-1,0,0,0,-12,7.945
1590,0,1,25,4,-4,1,0,-3,7.95
1591,12,-6,103,1,5,3,8,13,7.955
1592,-4,1,46,9,1,0,-14,0,7.96
1593,2,3,-24,1,-4,-1,10,-5,7.965
1594,-6,4,-75,-6,1,1,-6,-12,7.97
1595,4,7,-88,-5,-2,-2,4,6,7.9750000000000005
1596,-5,9,-79,7,0,2,-5,2,7.98
1597,2,-13,-85,-3,-1,-1,-9,-2,7.985
1598,-7,-2,-76,-2,-2,-5,0,-7,7.99
1599,1,7,-72,0,1,5,9,2,7.995
1600,-1,33,-35,4,-3,0,-4,4,8.0
1601,4,1,-29,-12,-3,-1,-5,0,8.005
1602,-8,-9,-51,0,-2,-2,2,-8,8.01
1603,-17,0,-13,14,-4,0,0,-1,8.015
1604,24,-8,-7,-25,-1,-2,2,7,8.02
1605,-6,24,-24,7,2,-1,-3,-2,8.025
1606,-8,-7,-39,-4,-5,-1,-3,-7,8.03
1607,1,3,-56,-4,1,0,3,1,8.035
1608,-7,-2,-21,13,-1,-2,-1,2,8.040000000000001
1609,2,-5,40,-6,-11,-1,-3,-3,8.045
1610,3,-4,49,6,10,4,2,1,8.05
1611,-1,-5,9,1,-1,-2,3,1,8.055
1612,-6,-18,42,8,0,0,-6,-2,8.06
1613,2,-7,13,-3,-3,-2,-2,-2,8.065
1614,-4,-2,14,0,-3,4,9,-3,8.07
1615,4,-8,12,-8,-2,-5,-14,1,8.075
1616,-2,-2,-6,6,1,-1,-4,-1,8.08
1617,2,-3,37,0,2,-2,-4,-2,8.085
1618,1,4,13,-5,-3,-1,-9,-1,8.09
1619,1,6,13,-2,-1,0,13,-2,8.095
1620,-5,-5,-9,0,0,1,-1,1,8.1
1621,0,0,-45,5,1,-3,-8,-1,8.105
1622,-1,8,-12,0,-1,-5,-3,-6,8.11
1623,3,-1,62,-2,1,2,16,4,8.115
1624,-2,-6,35,2,-1,-1,-5,1,8.120000000000001
1625,3,2,4,-1,0,2,3,-2,8.125
1626,-3,1,-25,2,-2,-4,-7,-2,8.13
1627,-1,-4,-72,-4,-1,-2,-3,0,8.135
1628,-4,-12,-56,-1,-1,1,5,0,8.14
1629,0,-1,-37,2,2,2,-3,0,8.145
1630,1,4,-37,-1,1,1,2,3,8.15
1631,3,3,-38,-1,-1,-5,-5,-2,8.155
1632,-3,-15,-28,-2,0,2,4,-2,8.16
1633,0,-7,-20,-1,-3,-2,-7,-2,8.165000000000001
1634,-2,-1,-9,-4,-1,0,7,-1,8.17
1635,-2,-4,-12,-2,-1,-1,3,1,8.175
1636,3,22,-17,-1,-3,-4,-12,-3,8.18
1637,1,2,-12,0,0,-3,9,0,8.185
1638,-1,0,3,0,-3,-2,-5,-1,8.19
1639,0,2,-8,-2,-1,1,0,0,8.195
1640,-2,-1,-15,3,1,0,4,-1,8.2
1641,-4,-14,-2,-2,-1,-2,-3,1,8.205
1642,1,1,5,5,1,-4,-22,2,8.21
1643,0,-3,-7,-2,0,2,23,-1,8.215
1644,-2,-10,-7,1,-2,-2,0,0,8.22
1645,1,4,2,3,2,1,-8,0,8.225
1646,-3,-16,2,-3,-3,2,4,-2,8.23
1647,3,25,-6,6,2,-1,6,4,8.235
1648,-1,2,-3,-1,0,-2,0,-1,8.24
1649,2,0,0,2,-1,0,4,1,8.245000000000001
1650,-3,-11,-1,-3,-2,-3,-3,-2,8.25
1651,-1,9,-35,-1,0,1,-9,-1,8.255
1652,-2,2,-43,-2,-2,-4,3,-3,8.26
1653,-10,-19,-49,-3,-2,-1,-5,-1,8.265
1654,-1,3,-54,-1,-2,0,9,0,8.27
1655,-1,-9,-27,0,0,1,-1,0,8.275
1656,-3,-1,-28,1,-2,-2,11,3,8.28
1657,-1,-2,-16,-4,-2,-3,-17,-6,8.285
1658,-1,-8,-6,-1,1,-1,3,0,8.290000000000001
1659,-8,-10,6,-4,-3,-3,-6,-3,8.295
1660,1,-4,15,0,0,1,1,0,8.3
1661,1,0,11,1,4,1,10,1,8.305
1662,-1,26,2,-1,-1,0,2,-1,8.31
1663,0,3,2,-5,-2,-2,-12,-1,8.315
1664,-1,1,7,0,-3,-1,1,0,8.32
1665,1,-1,1,-1,-2,-1,2,-1,8.325
1666,-3,-1,2,-4,-2,-3,0,-3,8.33
1667,-4,-17,4,1,-1,0,-4,0,8.335
1668,2,5,4,-1,-1,0,-7,-1,8.34
1669,-4,1,2,1,-2,-1,1,0,8.345
1670,0,-8,3,-3,-3,-3,0,-1,8.35
1671,1,1,12,-1,-2,-2,-3,0,8.355
1672,-3,-18,-1,-1,-3,-2,-1,-2,8.36
1673,0,-1,-9,-4,-1,0,4,1,8.365
1674,-1,-8,-2,-3,0,3,2,-1,8.370000000000001
1675,0,-14,2,-3,-2,-4,-5,-3,8.375
1676,-1,3,9,0,0,-3,-7,-1,8.38
1677,3,5,13,6,3,0,1,3,8.385
1678,-6,-17,-11,-18,-3,3,5,-1,8.39
1679,-4,-27,4,2,-5,-5,-4,-5,8.395
1680,1,2,19,14,1,-1,-19,2,8.4
1681,-12,-12,-20,-32,-3,0,8,-7,8.405
1682,-1,-1,3,6,-9,-6,-11,1,8.41
1683,3,8,29,5,2,2,8,6,8.415000000000001
1684,-3,-4,18,-2,1,-1,0,-1,8.42
1685,5,2,22,16,7,5,5,2,8.425
1686,-1,-8,-17,-22,-6,-1,1,2,8.43
1687,-2,21,6,7,0,-7,-20,-7,8.435
1688,6,0,11,7,10,7,20,5,8.44
1689,6,6,23,7,-3,-6,-16,-2,8.445
1690,-5,-6,-17,-2,-2,-4,16,-7,8.45
1691,0,-15,7,-2,0,0,4,0,8.455
1692,-4,3,-16,-3,0,0,4,-4,8.46
1693,3,8,5,2,2,2,-2,0,8.465
1694,4,17,9,17,6,0,-8,2,8.47
1695,0,0,-24,-8,-2,2,-1,1,8.475
1696,2,-4,0,-1,-3,0,-5,-2,8.48
1697,-4,-6,-24,-7,-4,-1,2,-1,8.485
1698,1,0,14,6,1,-2,-2,-9,8.49
1699,2,7,-9,1,1,4,9,12,8.495000000000001
1700,-2,9,11,-10,-4,0,-4,2,8.5
1701,-4,-10,-28,-9,-4,-3,-1,0,8.505
1702,-2,-9,0,-2,2,1,-1,-1,8.51
1703,-4,7,29,11,2,-2,-4,-5,8.515
1704,-2,6,-13,-17,-4,-1,1,-5,8.52
1705,3,12,33,27,2,5,5,-2,8.525
1706,-6,2,-40,-15,-12,-9,-18,2,8.53
1707,0,-29,23,1,2,4,6,-3,8.535
1708,-2,-2,-16,-8,-6,-5,-10,-1,8.540000000000001
1709,-4,-8,8,-8,-1,-1,16,-1,8.545
1710,12,21,26,7,6,5,-6,0,8.55
1711,4,5,4,4,-1,-5,-8,0,8.555
1712,-1,10,-14,3,-1,2,22,0,8.56
1713,-1,-4,1,-5,0,-1,-18,-3,8.565
1714,0,-6,17,7,2,3,-3,2,8.57
1715,-3,6,-11,-7,-4,0,2,-3,8.575000000000001
1716,0,-1,14,2,1,2,-3,-1,8.58
1717,3,5,4,0,-5,-5,8,4,8.585
1718,3,1,11,3,2,0,-3,5,8.59
1719,-7,-13,-12,-11,-1,2,-2,-5,8.595
1720,-2,-2,-11,-3,-2,-4,-6,-4,8.6
1721,1,34,-4,3,-4,-5,-9,-1,8.605
1722,-2,0,10,5,3,1,-4,-1,8.61
1723,7,27,-3,-5,0,1,23,-2,8.615
1724,-3,-15,-5,-1,-2,1,-7,-1,8.620000000000001
1725,2,-2,5,4,-1,-1,4,1,8.625
1726,-6,-15,-20,-10,-1,1,16,0,8.63
1727,-4,3,-7,-19,-4,-6,-20,-1,8.635
1728,1,4,7,8,2,2,-18,-4,8.64
1729,6,3,10,0,2,0,-14,-1,8.645
1730,-3,9,26,20,-1,-3,13,-2,8.65
1731,0,-8,-9,3,-1,2,-5,0,8.655
1732,2,-1,-9,-17,-4,-5,17,2,8.66
1733,1,0,0,7,-2,-2,-5,1,8.665000000000001
1734,-1,0,3,-12,0,1,-11,0,8.67
1735,-4,-15,-18,0,-4,-4,0,-1,8.675
1736,0,8,15,11,3,2,16,3,8.68
1737,-4,14,-16,-2,-5,-7,-13,-6,8.685
1738,2,-1,10,-9,1,0,-4,-1,8.69
1739,1,3,8,8,4,9,12,0,8.695
1740,-3,-2,-20,-6,-6,-5,-4,0,8.700000000000001
1741,-4,-16,4,-3,1,2,2,-2,8.705
1742,2,0,8,7,4,1,-1,2,8.71
1743,-5,3,12,-11,0,0,-2,-5,8.715
1744,2,11,14,21,4,0,-17,0,8.72
1745,-6,-23,-11,-14,-3,0,9,2,8.725
1746,0,4,1,-16,-5,-4,-1,-3,8.73
1747,1,16,2,-1,-1,-1,-15,2,8.735
1748,-9,-4,26,3,1,1,15,-1,8.74
1749,-2,-2,-14,23,-5,-7,-17,-4,8.745000000000001
1750,3,2,-9,-5,-1,2,4,-1,8.75
1751,-2,-7,-4,7,-1,-2,6,-1,8.755
1752,1,-14,-19,-18,-5,-6,-16,-4,8.76
1753,1,22,-1,1,3,4,7,2,8.765
1754,-3,-6,-15,3,-1,2,-5,0,8.77
1755,-2,-5,1,2,0,-3,-3,0,8.775
1756,-4,-7,-5,4,-1,-3,-3,-4,8.78
1757,-1,-21,-5,1,0,3,5,1,8.785
1758,0,3,-9,-3,-3,0,5,1,8.790000000000001
1759,-2,-2,4,-11,-2,-1,-1,-2,8.795
1760,0,6,5,7,-2,-2,-4,-1,8.8
1761,-3,-2,3,-13,-1,0,8,0,8.805
1762,-1,9,10,8,0,-1,-1,0,8.81
1763,0,-15,-11,0,1,-2,4,1,8.815
1764,0,-6,7,0,-2,2,-11,0,8.82
1765,1,-4,5,7,2,-1,-18,-1,8.825000000000001
1766,1,3,1,-5,-3,-4,11,0,8.83
1767,2,0,-6,1,0,1,18,4,8.835
1768,11,34,8,0,4,3,5,1,8.84
1769,-10,1,-5,-3,-3,1,6,-2,8.845
1770,8,24,-7,2,1,-3,-14,0,8.85
1771,-1,8,24,5,-1,-2,-8,-4,8.855
1772,-1,-13,-10,-9,-4,-3,4,2,8.86
1773,0,-5,16,-4,-2,-2,-6,-3,8.865
1774,-4,-8,3,1,0,3,-7,-1,8.870000000000001
1775,1,3,3,4,0,-5,-2,-4,8.875
1776,-2,11,1,-3,-4,-2,-6,-3,8.88
1777,4,-1,16,4,1,2,11,3,8.885
1778,-8,-23,-8,-3,-3,-2,-2,-1,8.89
1779,-7,-7,-18,-4,-3,2,-2,0,8.895
1780,-5,-16,-8,-5,0,1,1,-3,8.9
1781,-2,-1,4,-14,0,-3,2,-1,8.905
1782,1,7,33,28,4,0,-7,-2,8.91
1783,3,6,-9,16,-2,1,3,0,8.915000000000001
1784,4,4,10,-28,-1,-3,3,0,8.92
1785,1,-17,-14,-16,4,3,2,3,8.925
1786,2,-3,13,15,-1,0,5,-2,8.93
1787,-1,5,8,3,-7,-9,-7,-1,8.935
1788,-2,-11,4,6,-1,-2,-29,-2,8.94
1789,10,41,6,7,3,5,25,-1,8.945
1790,1,-7,-3,-8,-1,-6,13,2,8.950000000000001
1791,4,-2,-2,-23,-4,-1,9,3,8.955
1792,-3,14,-10,13,-1,-3,-8,-3,8.96
1793,1,4,-3,-14,-1,-1,-14,-1,8.965
1794,-4,2,-5,0,2,1,-9,-2,8.97
1795,-1,3,2,-9,-2,-1,1,-2,8.975
1796,-4,-13,-11,5,-1,-1,8,0,8.98
1797,-2,-7,-1,7,-1,-2,-5,0,8.985
1798,-5,-3,-18,1,-7,-3,9,-2,8.99
1799,0,5,17,0,2,0,-8,0,8.995000000000001
1800,1,-9,-8,-6,3,6,7,2,9.0
1801,-5,-1,-1,4,-2,-3,-3,-3,9.005
1802,-3,-7,-3,-5,0,0,6,2,9.01
1803,-2,-6,-5,-10,-2,-1,-9,-7,9.015
1804,1,25,10,9,3,-2,-10,-1,9.02
1805,-4,-2,-24,4,-5,-2,4,0,9.025
1806,-1,3,24,-18,5,2,5,2,9.03
1807,3,15,13,31,3,2,-4,1,9.035
1808,8,-14,-32,-21,-5,-2,9,1,9.040000000000001
1809,-17,-20,27,6,-1,-6,-11,-5,9.045
1810,1,3,-9,-14,1,-2,-1,0,9.05
1811,-2,-7,6,-7,-1,-1,-14,-4,9.055
1812,-3,-13,10,7,-2,2,12,1,9.06
1813,8,-9,-3,2,-1,1,-2,2,9.065
1814,-8,-15,-5,-3,-5,-3,1,-2,9.07
1815,0,-4,2,3,1,2,-4,2,9.075000000000001
1816,-2,-3,-5,-3,-2,-6,-29,-2,9.08
1817,1,0,-9,-1,0,0,19,-1,9.085
1818,-2,-7,22,-4,-1,-2,1,-1,9.09
1819,0,0,-17,-6,1,-1,6,0,9.095
1820,-6,21,3,3,-1,0,1,-1,9.1
1821,0,4,13,1,4,-1,4,0,9.105
1822,-2,-7,-22,5,-7,-2,-9,0,9.11
1823,0,-6,1,-4,1,1,2,0,9.115
1824,-3,-14,12,-6,0,0,5,-2,9.120000000000001
1825,3,2,-5,-1,0,1,-1,0,9.125
1826,0,14,-1,-7,0,1,-4,-3,9.13
1827,5,5,1,13,-6,-2,-5,-1,9.135
1828,-4,1,6,-2,0,1,11,-3,9.14
1829,1,8,2,-8,0,1,-2,1,9.145
1830,-2,-6,5,2,-1,0,-6,-1,9.15
1831,-4,-8,-11,-3,-3,-2,-3,-2,9.155
1832,-4,-4,10,-1,0,-1,7,0,9.16
1833,1,2,2,6,-2,1,-4,-1,9.165000000000001
1834,2,-2,-8,-2,3,1,-5,-1,9.17
1835,1,-17,-2,-4,4,0,4,1,9.175
1836,-1,1,-10,11,1,1,2,0,9.18
1837,-4,-8,-19,-5,-5,-6,-8,-5,9.185
1838,1,-5,-15,-13,-1,-1,5,0,9.19
1839,-3,-7,0,0,0,-2,-5,-3,9.195
1840,3,-5,12,13,3,2,2,1,9.200000000000001
1841,1,7,-7,-12,-5,-4,-7,-3,9.205
1842,-2,2,-1,5,-2,0,0,0,9.21
1843,1,6,-3,2,0,-1,3,0,9.215
1844,-2,-11,3,-5,-1,-3,1,0,9.22
1845,-3,-9,1,-4,1,0,1,3,9.225
1846,0,-7,1,3,-2,0,-1,-3,9.23
1847,2,14,11,-8,0,-3,-12,1,9.235
1848,-2,-5,-12,-3,-4,-2,5,-2,9.24
1849,5,-2,-3,-10,-2,-2,-2,0,9.245000000000001
1850,0,18,-7,5,-1,-2,1,2,9.25
1851,-3,-4,12,-3,3,1,3,-1,9.255
1852,1,-2,5,0,-2,-1,-1,0,9.26
1853,-3,-3,3,4,-3,1,2,0,9.265
1854,-3,-22,-10,-5,-3,-3,-6,-4,9.27
1855,-1,7,-1,2,-2,0,5,-1,9.275
1856,5,-1,12,7,2,2,5,1,9.28
1857,0,-3,-17,-17,-3,-2,-5,-3,9.285
1858,2,-5,7,-15,4,2,-3,2,9.290000000000001
1859,-9,-11,6,16,-7,0,-1,1,9.295
1860,-5,-9,-2,-10,-7,-5,-5,-5,9.3
1861,0,-5,6,9,2,1,1,1,9.305
1862,2,4,5,5,0,-3,0,-1,9.31
1863,1,0,-10,-4,3,-1,-4,-2,9.315
1864,0,-5,2,-5,-1,-1,2,-1,9.32
1865,-1,9,4,3,-2,-1,-3,-1,9.325000000000001
1866,-1,-1,5,7,-1,0,3,-1,9.33
1867,0,-3,-16,-11,-1,-1,-1,2,9.335
1868,-3,-1,5,4,-2,-4,-5,-1,9.34
1869,0,-6,-3,-1,0,-1,0,1,9.345
1870,-4,26,-2,6,-1,-2,-3,-1,9.35
1871,4,31,-1,5,2,0,1,0,9.355
1872,-5,0,-5,3,3,0,9,3,9.36
1873,-1,-8,-14,-8,-2,-2,-5,-3,9.365
1874,-3,3,0,1,-4,0,-3,-3,9.370000000000001
1875,-5,-8,-3,-7,-1,-1,0,-1,9.375
1876,3,8,-2,1,-2,0,-2,0,9.38
1877,0,-5,7,2,1,1,0,-1,9.385
1878,-1,-2,4,5,0,-1,-7,-2,9.39
1879,-1,-10,-6,-7,-1,0,5,0,9.395
1880,-3,-6,-3,10,0,-1,2,-1,9.4
1881,-2,1,-8,-15,0,-2,-12,-1,9.405
1882,0,-1,9,13,-1,1,3,0,9.41
1883,1,3,-14,-5,0,-1,-5,-1,9.415000000000001
1884,4,16,21,8,2,0,-2,0,9.42
1885,-1,-12,-2,1,2,1,2,0,9.425
1886,1,34,5,-7,-2,0,0,-2,9.43
1887,-1,-9,-27,-17,-7,-4,-1,-2,9.435
1888,-1,-4,-6,0,-1,0,-4,-2,9.44
1889,-2,-33,10,9,-1,0,-1,0,9.445
1890,-2,-24,1,1,0,-1,2,1,9.450000000000001
1891,1,-6,12,10,3,2,0,1,9.455
1892,3,2,-6,-13,-1,0,-1,-2,9.46
1893,-4,-10,1,2,-3,0,0,-1,9.465
1894,2,-4,4,-3,2,0,0,-1,9.47
1895,-1,-3,1,4,-1,-1,2,0,9.475
1896,-4,-19,-19,-14,-3,-2,-1,-1,9.48
1897,0,5,12,3,-3,-4,6,-3,9.485
1898,1,-17,-6,-3,0,1,-7,-1,9.49
1899,-4,0,17,2,-2,-2,2,-5,9.495000000000001
1900,0,-3,-4,-7,-2,-3,-4,-2,9.5
1901,-1,6,-11,-2,-1,-2,0,-1,9.505
1902,1,21,1,0,0,0,2,0,9.51
1903,2,-6,4,1,2,2,-1,0,9.515
1904,-6,-13,-10,5,0,1,-2,-1,9.52
1905,-2,9,-1,-1,-3,-5,-8,-3,9.525
1906,-2,-17,-6,1,-1,0,7,0,9.53
1907,-1,0,0,-1,1,2,-3,0,9.535
1908,2,18,5,8,0,-2,6,1,9.540000000000001
1909,4,-8,4,1,4,5,-3,2,9.545
1910,-3,-3,-7,-2,1,2,-1,1,9.55
1911,4,10,14,13,-4,-6,-5,-3,9.555
1912,-2,-15,-23,-29,-4,-3,0,-3,9.56
1913,-2,-4,-19,-3,-3,-4,-1,-2,9.565
1914,-2,4,17,11,-3,-3,-2,-2,9.57
1915,-1,-1,-6,2,-1,1,1,-2,9.575000000000001
1916,3,4,17,6,4,2,-6,-1,9.58
1917,1,1,-7,0,0,1,-2,2,9.585
1918,-1,-16,-11,-11,-2,-1,5,-1,9.59
1919,-2,-8,7,6,0,-1,1,1,9.595
1920,0,27,8,-2,-1,-2,-4,-4,9.6
1921,3,9,4,-1,1,2,2,0,9.605
1922,0,-4,-2,-9,1,1,-3,0,9.61
1923,-1,0,-4,8,-3,-1,-1,-1,9.615
1924,-1,-5,-1,0,-1,-2,4,0,9.620000000000001
1925,3,15,-3,0,-2,-1,13,2,9.625
1926,1,8,5,-3,-3,-2,-6,-3,9.63
1927,0,2,-4,-5,1,-1,-1,-1,9.635
1928,0,-4,-6,-6,-3,-1,-7,-1,9.64
1929,-5,-11,-4,1,-5,-2,0,-1,9.645
1930,-2,-12,-2,-1,-1,1,1,0,9.65
1931,-2,4,1,-6,1,0,-1,0,9.655
1932,-1,-4,2,10,-1,-1,0,0,9.66
1933,1,1,13,1,4,1,0,0,9.665000000000001
1934,-2,-7,-26,-7,-5,-7,-7,-3,9.67
1935,-1,-1,0,-16,-2,1,0,-2,9.675
1936,-2,0,5,5,1,0,1,0,9.68
1937,-1,3,6,7,2,0,-2,0,9.685
1938,0,-11,7,5,3,0,-2,1,9.69
1939,-2,12,-5,6,1,1,1,2,9.695
1940,-1,-6,-1,-8,-1,1,-1,-1,9.700000000000001
1941,-1,-8,-18,8,-1,0,-2,0,9.705
1942,-3,13,8,-5,-6,-4,-1,-1,9.71
1943,7,-2,9,8,1,-2,-2,-1,9.715
1944,-4,-17,-12,-19,-1,1,3,0,9.72
1945,-5,-6,10,4,2,0,-12,-3,9.725
1946,1,3,3,2,2,3,6,1,9.73
1947,0,-4,1,3,-3,-3,3,0,9.735
1948,2,9,16,10,-1,0,-2,2,9.74
1949,-1,1,-4,-4,-1,-1,-1,-2,9.745000000000001
1950,-1,-8,1,1,0,-2,-5,1,9.75
1951,-1,7,-4,-12,-2,-1,17,1,9.755
1952,0,-14,-13,-9,-1,-1,-14,-4,9.76
1953,-5,-5,-3,-8,-1,0,2,0,9.765
1954,2,-2,7,6,0,-4,-8,-2,9.77
1955,-3,-7,-2,6,0,-1,1,-1,9.775
1956,1,0,1,9,0,2,6,0,9.78
1957,0,0,-1,-4,-3,-1,-1,-1,9.785
1958,0,-1,3,3,0,3,0,0,9.790000000000001
1959,5,7,13,-6,0,2,-4,0,9.795
1960,8,2,2,4,-4,-6,-3,-3,9.8
1961,-5,0,-12,-6,-4,-2,-7,-2,9.805
1962,1,30,-8,4,0,0,5,0,9.81
1963,-2,0,-4,-6,-2,-1,-6,-1,9.815
1964,-1,-11,2,3,2,-2,-4,-2,9.82
1965,0,-2,9,-5,-2,-1,8,0,9.825000000000001
1966,-2,-5,-7,0,-4,-4,-4,-2,9.83
1967,1,10,6,-9,-1,1,1,-2,9.835
1968,-1,18,2,2,-1,-1,0,1,9.84
1969,1,1,-5,2,0,-1,-3,-1,9.845
1970,-4,-7,-4,-3,-2,1,-6,-2,9.85
1971,-5,-22,-4,-6,0,-2,-4,-3,9.855
1972,-4,-2,-2,-4,-4,-2,-1,0,9.86
1973,-4,1,3,5,-4,-2,3,-2,9.865
1974,3,0,14,0,1,0,2,0,9.870000000000001
1975,3,28,4,-1,-1,-1,-15,-3,9.875
1976,-5,-16,-2,5,2,0,6,0,9.88
1977,0,-1,1,0,-1,-1,-1,0,9.885
1978,-3,0,-2,-9,-2,-2,1,-1,9.89
1979,-2,-7,-10,4,-4,-2,-5,-1,9.895
1980,-2,9,9,-12,-1,-2,2,-1,9.9
1981,-1,5,0,1,-1,-1,-2,-1,9.905
1982,-1,-7,-5,1,-1,-3,4,-1,9.91
1983,-6,-49,12,3,-2,-1,-13,-5,9.915000000000001
1984,-4,-1,-22,-7,-2,2,4,2,9.92
1985,-1,3,7,3,0,0,2,0,9.925
1986,-2,2,-1,-2,-1,-2,0,-1,9.93
1987,-5,-6,-21,9,-3,-3,4,-1,9.935
1988,1,7,14,2,0,-1,-3,-1,9.94
1989,3,8,27,-3,3,2,-2,1,9.945
1990,-7,-10,-42,-14,-9,-3,-5,-4,9.950000000000001
1991,-1,10,22,-1,-1,-4,7,0,9.955
1992,5,4,17,20,1,2,-1,0,9.96
1993,-5,-14,-16,-23,-1,-1,0,-3,9.965
1994,4,1,19,13,3,1,-3,0,9.97
1995,-1,0,3,-7,1,-2,0,-1,9.975
1996,-4,1,5,3,2,3,1,1,9.98
1997,1,1,13,8,2,0,-5,1,9.985
1998,5,6,19,1,1,-1,3,2,9.99
1999,-3,-5,-24,-9,-3,-4,-3,-2,9.995000000000001
2000,-3,-19,-9,0,-1,0,4,-1,10.0
2001,-1,-2,-10,-4,-5,-2,-7,0,10.005
2002,-2,-19,4,0,1,-1,-12,-3,10.01
2003,1,17,-6,-5,1,1,5,1,10.015
2004,2,4,-1,4,1,-2,-7,-1,10.02
2005,-1,-2,-15,1,1,-1,10,0,10.025
2006,-1,-6,3,4,2,1,5,2,10.03
2007,-3,-5,0,3,-3,-4,-7,-1,10.035
2008,3,11,-9,-13,-3,0,3,-2,10.040000000000001
2009,-6,-14,-3,-2,-4,-1,-1,-2,10.045
2010,-1,18,2,4,1,-1,0,0,10.05
2011,1,4,2,10,6,4,2,1,10.055
2012,1,7,1,-5,-2,-3,0,-1,10.06
2013,1,12,-2,7,1,-1,-1,0,10.065
2014,0,-7,-5,-9,-1,0,1,0,10.07
2015,0,-1,1,-4,-2,-1,-1,-1,10.075000000000001
2016,-2,-16,-3,5,0,-2,-4,1,10.08
2017,1,7,14,-4,2,0,2,0,10.085
2018,-9,-17,-42,-7,-7,-3,-3,-3,10.09
2019,2,13,1,-3,2,2,4,2,10.095
2020,-1,4,8,3,0,-1,-2,-1,10.1
2021,1,2,6,7,2,-1,-1,-2,10.105
2022,4,29,6,0,1,2,2,4,10.11
2023,-2,-2,-2,-5,-2,-2,-4,-1,10.115
2024,-1,3,-1,4,-2,-1,-1,-3,10.120000000000001
2025,0,-2,-1,5,1,-1,0,0,10.125
2026,-5,-11,-17,-12,-4,-4,-8,-4,10.13
2027,-2,-8,-2,-3,-2,1,7,0,10.135
2028,1,-3,-17,-8,-1,0,1,2,10.14
2029,3,-7,-7,-6,-3,-4,-3,-4,10.145
2030,1,-6,18,4,4,3,1,0,10.15
2031,0,4,4,3,0,0,-4,1,10.155
2032,-2,0,2,2,1,-1,-2,-1,10.16
2033,0,-2,-3,1,-3,0,0,-1,10.165000000000001
2034,3,7,5,-1,0,-3,1,0,10.17
2035,0,1,7,1,-1,-1,-1,-1,10.175
2036,0,0,-9,-2,0,0,0,-1,10.18
2037,-2,9,3,0,-2,0,-2,-1,10.185
2038,-1,-2,7,-9,-2,4,5,-1,10.19
2039,-1,2,-5,-6,-2,-2,-1,-2,10.195
2040,3,12,-15,-13,-4,-4,-3,-3,10.200000000000001
2041,-2,-3,-6,7,1,0,-3,1,10.205
2042,1,3,5,8,-1,-1,0,1,10.21
2043,1,2,9,3,-1,-1,0,0,10.215
2044,-2,2,8,-1,-2,-2,-3,0,10.22
2045,-1,-5,-5,-6,-2,-1,0,0,10.225
2046,-1,-5,1,2,0,-2,1,-2,10.23
2047,-1,-4,-5,-4,-1,-1,-2,-1,10.235
2048,0,2,1,3,0,0,-3,1,10.24
2049,-1,-1,-5,-2,-1,0,1,-2,10.245000000000001
2050,-4,-25,2,10,1,2,7,2,10.25
2051,-9,-27,-17,-22,-5,-1,-2,-3,10.255
2052,-2,9,10,10,0,2,1,0,10.26
2053,-1,-1,8,4,0,-2,0,1,10.265
2054,2,7,1,-2,0,-2,-4,-1,10.27
2055,0,-1,7,4,0,-1,-1,-1,10.275
2056,-3,-8,0,4,0,0,-2,-1,10.28
2057,-1,-6,-9,-7,-1,-2,-8,-2,10.285
2058,0,7,-29,0,-3,-3,7,-2,10.290000000000001
2059,-1,3,-17,-1,-1,1,-1,1,10.295
2060,1,-16,-8,-2,-1,-3,1,0,10.3
2061,-13,-30,-7,2,0,0,3,0,10.305
2062,-5,-5,11,-15,-3,-3,-8,-3,10.31
2063,15,42,23,9,0,-3,-5,-1,10.315
2064,0,0,24,9,0,0,2,0,10.32
2065,5,7,8,-16,2,1,-1,-1,10.325000000000001
2066,-5,-5,10,-6,-4,-5,-3,0,10.33
2067,-1,-3,3,3,2,-2,2,1,10.335
2068,1,7,1,0,0,-2,-4,-1,10.34
2069,1,2,6,2,1,3,4,0,10.345
2070,7,31,4,12,-1,1,-2,1,10.35
2071,-3,-10,-18,-17,-2,-1,-2,-2,10.355
2072,-2,-9,-7,-10,-3,-1,4,0,10.36
2073,5,9,-2,9,-3,-1,-4,0,10.365
2074,2,2,-6,-5,1,-3,-1,-3,10.370000000000001
2075,-3,-7,4,9,1,0,0,1,10.375
2076,-4,2,-8,-4,-1,-4,-3,-2,10.38
2077,1,3,-5,-4,0,2,6,-1,10.385
2078,-1,-13,-8,4,0,0,-2,-2,10.39
2079,2,5,7,1,0,-1,0,0,10.395
2080,-2,-6,-8,0,-2,-1,-12,-1,10.4
2081,0,2,-6,-4,-3,-5,4,-2,10.405
2082,-1,-3,1,2,2,1,1,2,10.41
2083,-4,5,5,-3,1,-1,3,1,10.415000000000001
2084,0,-2,4,10,1,1,1,-1,10.42
2085,1,0,-6,-16,-4,-3,-9,-2,10.425
2086,-3,-5,-7,-7,-1,1,3,-3,10.43
2087,-2,-10,-9,0,-4,-4,-2,-1,10.435
2088,5,13,10,-3,1,1,1,-1,10.44
2089,0,6,13,25,0,-2,0,0,10.445
2090,-6,-1,-2,-5,-1,-1,-1,0,10.450000000000001
2091,0,22,-20,-1,1,3,-4,0,10.455
2092,-4,0,-4,-1,-3,-2,3,-2,10.46
2093,-2,-7,-15,-7,0,1,-2,-1,10.465
2094,4,-2,6,-1,-2,-2,-3,-3,10.47
2095,0,-10,4,5,-1,-2,-1,-1,10.475
2096,-1,1,7,3,-1,-1,1,-1,10.48
2097,0,12,-2,-5,-4,0,0,-1,10.485
2098,-2,0,5,-8,-3,-1,-2,-1,10.49
2099,-2,-4,6,0,0,-1,0,-1,10.495000000000001
2100,0,-8,-1,-12,-1,1,-2,0,10.5
2101,-1,-6,19,14,0,-1,-2,-1,10.505
2102,1,-11,-22,-3,-2,0,-2,-1,10.51
2103,-4,-10,11,-2,-2,-2,-1,-1,10.515
2104,0,-10,0,-2,1,-2,1,-1,10.52
2105,-5,-2,6,-2,1,-3,-4,-2,10.525
2106,0,12,0,9,3,0,4,1,10.53
2107,2,9,-3,-1,0,0,-2,0,10.535
2108,0,2,0,15,1,0,-2,1,10.540000000000001
2109,4,-32,6,-33,1,-1,-1,0,10.545
2110,-4,-6,7,23,-1,0,-2,-1,10.55
2111,-2,-6,-21,-17,-1,-3,0,-1,10.555
2112,7,20,13,11,1,0,0,0,10.56
2113,0,-1,-15,-3,-1,-1,-2,-2,10.565
2114,-1,-2,14,-2,-1,-2,0,0,10.57
2115,0,-2,9,10,1,-1,0,0,10.575000000000001
2116,-5,1,-11,-9,-1,-2,0,0,10.58
2117,-2,5,11,2,-2,1,-1,-2,10.585
2118,2,1,4,6,0,0,-2,1,10.59
2119,0,-4,-5,-8,-4,0,3,-4,10.595
2120,-3,-9,-5,-6,-1,-3,-5,-2,10.6
2121,-2,9,-1,10,-1,-2,0,0,10.605
2122,-1,1,-3,-8,-1,-1,-2,0,10.61
2123,2,8,11,3,1,1,-5,-3,10.615
2124,-2,-10,1,-6,-5,-2,0,-2,10.620000000000001
2125,-4,1,-15,1,-2,0,1,-1,10.625
2126,1,24,-8,-5,0,0,0,-1,10.63
2127,-2,-2,-7,-1,-2,-4,-2,-1,10.635
2128,1,-2,1,-1,2,1,-3,0,10.64
2129,-1,-4,-2,7,-1,-1,-1,1,10.645
2130,-6,-30,-21,-20,-6,-2,0,-1,10.65
2131,-3,-9,-3,-3,-3,-3,-1,0,10.655
2132,2,4,-16,-3,-4,-1,0,-2,10.66
2133,-3,1,-20,0,0,-1,2,0,10.665000000000001
2134,2,-6,18,-2,0,-2,-1,-1,10.67
2135,-3,-7,2,3,0,-1,0,-2,10.675
2136,-1,-5,-1,1,-3,-3,-2,-1,10.68
2137,3,3,9,3,1,1,0,0,10.685
2138,-1,-2,1,-4,-1,-1,-3,-1,10.69
2139,-2,10,-6,-8,-3,-2,0,-1,10.695
2140,-5,19,7,1,1,2,7,2,10.700000000000001
2141,-2,6,-2,1,1,0,0,-1,10.705
2142,-2,4,-2,0,1,0,-1,-1,10.71
2143,2,-4,15,4,3,0,0,0,10.715
2144,-4,-2,-27,-3,-2,-2,-2,-1,10.72
2145,-3,-3,2,2,1,-1,-3,-1,10.725
2146,5,15,21,6,1,2,0,1,10.73
2147,-4,-21,-28,-7,-2,-3,-2,-2,10.735
2148,-2,-7,9,3,0,-1,3,0,10.74
2149,-2,-7,-1,-8,-1,-1,0,-2,10.745000000000001
2150,-2,-5,5,2,-1,-2,0,-2,10.75
2151,1,5,1,5,0,1,0,1,10.755
2152,4,9,7,-7,-2,-3,-1,0,10.76
2153,-1,-1,6,3,-1,0,0,0,10.765
2154,-3,-3,-3,2,1,-1,-3,0,10.77
2155,6,11,2,-4,-4,0,-1,-1,10.775
2156,1,-3,4,3,-2,0,-1,-2,10.78
2157,-1,13,9,-5,0,0,2,1,10.785
2158,-4,-29,-8,7,-1,-1,-2,-2,10.790000000000001
2159,1,4,5,2,2,1,1,1,10.795
2160,-4,-11,-4,-3,1,-2,-2,0,10.8
2161,1,-20,19,0,1,-1,-1,-2,10.805
2162,-4,7,-5,5,0,-2,0,0,10.81
2163,0,-1,1,-8,-2,-2,-1,0,10.815
2164,4,2,-6,-1,0,1,-1,0,10.82
2165,1,-12,-5,1,1,-2,0,0,10.825000000000001
2166,-2,10,1,1,-2,-3,1,-1,10.83
2167,-3,-9,0,7,-1,-1,-4,-1,10.835
2168,2,-3,-5,-10,-1,0,-15,-3,10.84
2169,-6,-17,-12,-6,-2,0,17,1,10.845
2170,1,0,-10,-7,-2,2,-2,0,10.85
2171,1,6,3,-2,-2,0,3,0,10.855
2172,-2,-2,10,5,-2,-1,-3,-2,10.86
2173,3,4,0,-6,0,0,-5,-1,10.865
2174,1,1,1,-1,1,-2,1,-1,10.870000000000001
2175,-7,12,4,8,0,0,-1,-1,10.875
2176,-6,-13,1,1,-1,1,2,-1,10.88
2177,1,10,-3,-7,-4,-3,-4,-1,10.885
2178,-1,4,6,-3,-2,1,3,0,10.89
2179,2,-9,-13,-6,0,1,-3,0,10.895
2180,-2,-15,6,-5,-1,0,2,1,10.9
2181,-1,20,2,16,-3,-2,-3,-1,10.905
2182,4,3,1,-7,0,-2,-3,-2,10.91
2183,2,-2,4,3,-1,-3,1,-1,10.915000000000001
2184,-1,-6,5,2,3,-2,3,-1,10.92
2185,-3,-14,-7,1,1,3,-3,-2,10.925
2186,-2,6,3,-3,0,0,-3,0,10.93
2187,-3,-1,2,-4,-1,-2,-1,-1,10.935
2188,-1,4,0,2,1,-1,4,1,10.94
2189,2,-5,9,1,0,-2,-5,-2,10.945
2190,-1,28,-9,2,0,0,2,1,10.950000000000001
2191,-7,-4,10,0,0,1,3,-1,10.955
2192,-2,-23,10,7,1,0,0,1,10.96
2193,-8,-15,-22,-13,-1,-1,1,0,10.965
2194,-1,-14,4,2,-1,-1,0,-1,10.97
2195,0,-10,-1,-4,-2,-2,-1,-1,10.975
2196,0,21,-4,0,-1,-1,1,0,10.98
2197,8,22,6,-1,-3,-2,-1,0,10.985
2198,0,-11,0,2,0,0,-1,0,10.99
2199,1,43,-2,6,2,2,0,1,10.995000000000001
2200,6,10,-8,-16,-2,-1,0,-2,11.0
2201,-4,-21,4,4,0,1,0,-1,11.005
2202,-2,4,-24,-7,-2,-3,-2,-1,11.01
2203,-2,-6,12,2,-1,-1,0,-2,11.015
2204,-5,-4,8,1,0,-1,-1,0,11.02
2205,1,-3,-4,-1,-1,0,-2,0,11.025
2206,-1,-9,-5,-4,-2,0,-2,-1,11.03
2207,-2,-19,-5,0,1,0,-1,-1,11.035
2208,4,31,-5,-7,-3,-2,-1,-1,11.040000000000001
2209,-7,-22,-6,0,-2,-1,-2,-2,11.045
2210,-8,-12,-2,2,1,1,0,0,11.05
2211,1,-4,-8,-4,-3,-1,-1,0,11.055
2212,-2,-7,-7,-1,-2,-1,-3,-2,11.06
2213,2,-13,5,4,0,-1,-2,-1,11.065
2214,2,-5,-6,3,-2,0,0,0,11.07
2215,-4,-5,-7,-8,-1,-2,0,-2,11.075000000000001
2216,0,-8,5,8,-1,-1,-2,-2,11.08
2217,-1,1,-14,-10,-4,-1,-2,-3,11.085
2218,3,-13,-6,-11,1,0,-1,0,11.09
2219,2,7,-1,3,-1,1,0,1,11.095
2220,-2,-11,15,-3,-1,0,1,-1,11.1
2221,-3,14,19,8,-1,-6,-3,-3,11.105
2222,9,2,8,5,-1,-3,-3,-1,11.11
2223,-6,-7,-11,-1,-2,2,0,1,11.115
2224,5,2,-22,-13,0,0,1,0,11.120000000000001
2225,-9,14,5,4,-1,-1,1,0,11.125
2226,2,5,16,2,-1,0,-1,-1,11.13
2227,5,7,4,6,3,3,5,2,11.135
2228,-4,-5,-1,3,-2,1,0,0,11.14
2229,-5,34,-3,-6,1,-2,-3,-4,11.145
2230,2,-4,-15,-5,-3,-5,-7,-6,11.15
2231,8,1,12,2,-3,-5,-4,-1,11.155
2232,9,19,-11,0,1,2,-1,0,11.16
2233,26,18,-11,-3,2,7,11,9,11.165000000000001
2234,-14,11,14,7,0,3,6,10,11.17
2235,-34,-3,11,-4,0,-5,-6,-12,11.175
2236,-13,-25,-1,-3,-9,-12,-13,-19,11.18
2237,11,-51,-6,-9,-5,-7,-19,-9,11.185
2238,9,8,-7,-3,-2,2,10,4,11.19
2239,38,8,11,9,5,7,4,10,11.195
2240,-34,22,20,10,5,3,7,4,11.200000000000001
2241,-1,-13,7,8,1,-6,-21,-9,11.205
2242,-17,-21,-5,-26,-6,-4,-4,-2,11.21
2243,5,5,4,-2,-1,1,37,11,11.215
2244,14,-1,4,1,1,2,2,3,11.22
2245,19,17,1,2,1,2,6,-4,11.225
2246,5,-5,34,21,5,2,-11,3,11.23
2247,-24,7,-14,-36,-9,-9,-22,-16,11.235
2248,15,22,14,8,-5,-5,4,10,11.24
2249,-26,-4,7,4,2,3,9,-3,11.245000000000001
2250,11,36,2,12,0,0,0,-2,11.25
2251,9,-6,-4,-9,3,0,-4,-1,11.255
2252,-29,-42,-9,-11,-9,-7,-6,-10,11.26
2253,-16,-15,-17,-8,-12,-11,-11,-4,11.265
2254,2,0,-6,5,2,2,12,5,11.27
2255,11,-17,24,8,1,1,-3,4,11.275
2256,-1,6,6,-5,4,1,-4,2,11.28
2257,5,-1,21,-1,2,0,0,0,11.285
2258,27,-1,7,0,2,1,2,-4,11.290000000000001
2259,-39,-32,19,7,3,5,2,3,11.295
2260,11,-14,13,-4,0,-2,-4,-1,11.3
2261,-18,-20,-28,-12,0,1,2,-4,11.305
2262,-23,-4,28,-2,4,1,-2,5,11.31
2263,26,18,12,5,-11,-8,1,-10,11.315
2264,-10,-1,-30,-13,2,2,-9,-4,11.32
2265,24,35,6,1,-2,-2,-16,5,11.325000000000001
2266,2,-1,-32,16,-5,1,17,-6,11.33
2267,-15,8,-14,16,6,0,-6,-6,11.335
2268,-16,-7,-16,4,11,14,23,26,11.34
2269,-18,-7,41,-6,-12,-13,-19,-17,11.345
2270,33,24,-54,-12,5,6,4,10,11.35
2271,-18,36,-24,3,4,4,-3,-3,11.355
2272,10,-57,-11,4,-13,-17,-6,-7,11.36
2273,-10,12,-21,5,1,1,10,16,11.365
2274,-34,14,32,3,-3,-7,-7,-3,11.370000000000001
2275,-22,-26,-45,1,-5,0,-14,-23,11.375
2276,19,40,-50,-29,-1,-2,0,-14,11.38
2277,39,-8,3,10,2,5,49,23,11.385
2278,6,-6,-41,-8,-3,-3,11,-1,11.39
2279,-11,-15,-21,-19,-5,-6,-14,-6,11.395
2280,16,28,11,7,0,-1,-31,-10,11.4
2281,-31,-36,-7,15,8,7,14,4,11.405
2282,-2,-18,6,-8,3,7,1,11,11.41
2283,23,18,-4,68,-13,-9,-12,1,11.415000000000001
2284,-10,-6,41,-63,3,0,7,5,11.42
2285,26,15,-45,15,-17,-11,-13,-10,11.425
2286,13,4,29,-48,-7,-9,-19,-10,11.43
2287,-22,-4,16,75,7,9,8,5,11.435
2288,-11,23,-9,67,-16,-6,18,9,11.44
2289,9,-5,38,-106,53,11,-9,-20,11.445
2290,-31,-30,18,33,-11,-20,-37,-44,11.450000000000001
2291,16,-13,-26,56,-4,2,13,11,11.455
2292,30,59,29,-60,19,16,16,26,11.46
2293,17,-18,14,22,-33,7,9,22,11.465
2294,-6,59,1,81,-18,1,4,-8,11.47
2295,-15,41,40,-111,27,-9,-12,-5,11.475
2296,-25,-126,-10,31,23,11,19,3,11.48
2297,46,120,16,-19,19,-6,-19,-13,11.485
2298,-46,4,27,54,21,13,5,-4,11.49
2299,19,-17,-37,-18,-19,-5,10,23,11.495000000000001
2300,-33,11,-60,18,-28,-25,-39,-44,11.5
2301,66,-64,-76,-7,-4,-1,13,13,11.505
2302,3,79,-11,45,-2,-2,3,20,11.51
2303,-36,-34,-111,51,-10,11,-2,-24,11.515
2304,84,27,44,-58,20,3,21,40,11.52
2305,-73,-39,-113,19,-13,4,4,26,11.525
2306,54,-70,-99,-76,30,10,17,34,11.53
2307,-6,10,16,29,-5,-24,-42,-56,11.535
2308,11,76,-71,-17,9,-7,-19,-43,11.540000000000001
2309,-86,-85,43,48,-7,12,15,10,11.545
2310,-53,-50,-9,-52,-30,-18,-19,-31,11.55
2311,64,93,-43,-2,9,29,51,68,11.555
2312,25,-64,61,23,-24,-18,-22,-10,11.56
2313,-102,-27,-7,0,-11,-32,-44,-56,11.565
2314,18,8,-23,-45,-3,7,16,21,11.57
2315,-3,15,-29,-14,-20,-11,-17,-11,11.575000000000001
2316,-92,-4,51,-47,-27,-27,-30,-21,11.58
2317,10,-32,4,12,5,15,12,-6,11.585
2318,-59,-128,32,28,-8,-20,-26,-20,11.59
2319,55,30,-44,-22,10,34,33,15,11.595
2320,27,69,-38,-39,3,28,32,36,11.6
2321,2,5,24,72,26,2,2,31,11.605
2322,72,40,14,2,6,2,7,-16,11.61
2323,-69,-128,75,23,1,-10,-1,10,11.615
2324,33,-7,3,-7,-12,-8,-20,-39,11.620000000000001
2325,-58,127,67,0,-7,6,-1,-24,11.625
2326,29,50,39,25,19,19,20,29,11.63
2327,-15,-72,54,-48,-9,-18,-8,-10,11.635
2328,-17,-94,34,30,0,-14,-20,-10,11.64
2329,37,20,16,-15,-10,2,3,-9,11.645
2330,-17,119,18,-36,13,21,22,16,11.65
2331,-1,-20,45,-10,-29,-32,-26,12,11.655
2332,-47,-74,-3,40,15,9,-10,-49,11.66
2333,127,91,10,-43,15,15,22,70,11.665000000000001
2334,-28,-33,-5,-36,4,6,2,-10,11.67
2335,-7,-68,33,-18,5,6,13,8,11.675
2336,7,90,-6,59,15,9,11,-2,11.68
2337,1,6,-8,-23,5,4,-1,24,11.685
2338,-44,-95,9,-27,0,-9,-12,-25,11.69
2339,28,50,11,60,-3,-10,-17,-22,11.695
2340,26,32,-6,-47,0,7,27,78,11.700000000000001
2341,-60,-15,2,0,-19,-27,-22,-54,11.705
2342,10,-36,-2,35,-42,-23,-19,-7,11.71
2343,20,32,11,-85,42,15,-2,-2,11.715
2344,-45,0,-9,42,-19,-2,5,-23,11.72
2345,77,-81,4,23,19,31,48,81,11.725
2346,-24,43,-1,-42,-14,-24,-24,-12,11.73
2347,22,-2,2,46,6,11,-6,-37,11.735
2348,-32,1,0,-30,-5,-5,-21,-12,11.74
2349,-41,-26,-3,42,-21,-3,2,-18,11.745000000000001
2350,39,-75,-1,-84,0,-30,-35,8,11.75
2351,-7,3,7,53,8,5,10,-5,11.755
2352,40,42,-4,-18,-1,3,10,3,11.76
2353,-66,-47,0,-58,-8,0,-8,-46,11.765
2354,0,-69,-3,32,-16,15,13,14,11.77
2355,46,127,5,-33,20,7,13,17,11.775
2356,-68,-128,-3,6,-9,-19,-17,9,11.78
2357,6,111,-3,52,10,2,0,-9,11.785
2358,54,102,1,-63,27,19,16,4,11.790000000000001
2359,-58,-82,1,-44,-52,-24,-23,-25,11.795
2360,88,-64,-2,63,-6,1,1,-10,11.8
2361,17,-41,0,3,13,2,-3,5,11.805
2362,-48,68,-1,65,-22,-18,-20,-6,11.81
2363,-8,-54,2,7,20,23,33,35,11.815
2364,-42,31,-3,12,5,4,-1,-11,11.82
2365,87,79,0,-38,-2,3,-5,-8,11.825000000000001
2366,-52,-4,-1,48,-2,-10,-15,-23,11.83
2367,-62,-77,0,-24,-1,-24,-29,-52,11.835
2368,17,-63,-1,-3,6,6,21,56,11.84
2369,49,42,-2,-5,-26,-6,-4,36,11.845
2370,-52,-74,-1,-13,-12,-15,-26,-75,11.85
2371,7,80,1,-31,-2,-2,-6,-19,11.855
2372,-49,-48,-1,-80,0,3,-7,3,11.86
2373,6,5,0,94,8,-1,8,-4,11.865
2374,95,37,-2,67,-5,2,4,8,11.870000000000001
2375,0,99,1,-11,15,3,12,65,11.875
2376,-31,-42,-2,18,-20,-4,-12,-42,11.88
2377,18,40,-1,-6,4,3,1,11,11.885
2378,-27,4,-1,-39,31,16,24,28,11.89
2379,23,-22,-1,8,-13,11,0,-50,11.895
2380,-17,87,-1,14,9,-14,-10,-5,11.9
2381,-37,-128,0,25,4,6,-2,-2,11.905
2382,14,21,-1,-34,0,2,16,26,11.91
2383,18,6,0,-37,-16,-22,-10,20,11.915000000000001
2384,21,52,-1,44,0,10,0,-19,11.92
2385,-49,-70,0,-103,-5,-8,-9,-17,11.925
2386,-19,37,0,71,14,12,5,1,11.93
2387,4,-54,0,-1,-2,-7,-1,-6,11.935
2388,49,97,-1,10,-1,8,20,45,11.94
2389,-11,-49,-1,71,-32,-25,-27,-60,11.945
2390,16,-63,-1,-93,30,15,21,33,11.950000000000001
2391,-32,-42,-1,32,-11,-4,-8,36,11.955
2392,-31,55,-1,17,-14,-5,-3,-38,11.96
2393,34,58,-1,0,20,-2,11,21,11.965
2394,3,-31,0,-77,-9,-13,-21,-15,11.97
2395,52,43,0,70,5,14,15,7,11.975
2396,3,2,-1,-78,15,6,-2,23,11.98
2397,-14,23,-1,11,-3,1,12,9,11.985
2398,-54,23,0,-39,-20,-33,-39,-57,11.99
2399,-30,-56,0,16,5,6,-1,-26,11.995000000000001
2400,53,44,-1,56,1,16,18,29,12.0
2401,28,74,0,-66,-2,7,14,30,12.005
2402,-2,-111,-1,81,-5,-9,-11,-31,12.01
2403,5,-6,-1,38,-4,-4,-8,4,12.015
2404,-22,-41,-1,-58,14,18,10,-16,12.02
2405,32,17,0,23,-12,-8,-2,-10,12.025
2406,88,73,-1,81,2,25,37,83,12.030000000000001
2407,-70,-2,0,-69,-8,-21,-22,-31,12.035
2408,-22,-75,-1,82,9,-4,-8,-30,12.040000000000001
2409,-33,12,-1,47,-14,-12,-20,-12,12.045
2410,46,88,-1,-48,50,25,20,18,12.05
2411,14,-15,10,26,1,14,12,14,12.055
2412,-1,-77,27,-33,-13,-2,13,20,12.06
2413,-65,-73,28,-53,-1,-10,-23,-33,12.065
2414,-20,-49,74,37,-20,-2,4,10,12.07
2415,16,20,103,13,7,2,-1,-11,12.075000000000001
2416,25,16,127,-15,26,15,13,13,12.08
2417,-48,6,125,-3,-19,-21,-22,-4,12.085
2418,-36,11,73,-5,-6,-3,-12,-26,12.09
2419,68,53,5,-12,5,4,6,21,12.095
2420,-83,-60,-38,13,-18,-22,-19,-18,12.1
2421,-4,-71,-68,8,10,1,-5,-11,12.105
2422,14,15,-93,19,-10,1,8,19,12.11
2423,-21,46,-78,-38,-3,-5,-2,-12,12.115
2424,31,-8,-52,45,-1,8,3,13,12.120000000000001
2425,-41,46,-56,77,2,6,-3,-3,12.125
2426,87,-35,1,-43,43,13,17,6,12.13
2427,-25,26,-23,-15,-20,-9,-4,-5,12.135
2428,18,-47,-19,41,5,-2,0,1,12.14
2429,-20,-8,4,6,6,-4,-9,-24,12.145
2430,-26,-15,-64,0,-34,-3,3,22,12.15
2431,14,15,-32,10,10,11,10,16,12.155000000000001
2432,56,112,-22,-44,20,-5,-1,6,12.16
2433,-46,-92,-30,-22,-6,-3,0,-14,12.165000000000001
2434,-34,-30,-38,20,-9,-8,-10,-18,12.17
2435,15,4,-12,-14,7,5,13,17,12.175
2436,-26,33,-11,-13,-19,-8,-18,-27,12.18
2437,28,-7,-10,-49,4,0,8,9,12.185
2438,9,39,12,45,-20,2,9,55,12.19
2439,-48,-77,0,10,21,-4,-17,-30,12.195
2440,19,0,-16,-5,1,5,7,-3,12.200000000000001
2441,13,16,-2,-4,-14,-17,-9,5,12.205
2442,-17,-56,11,-1,5,3,-1,-5,12.21
2443,9,4,0,14,-7,1,1,4,12.215
2444,-1,17,13,1,-1,-2,11,7,12.22
2445,15,-10,5,-18,4,5,5,3,12.225
2446,-10,52,13,2,-5,-1,-15,-30,12.23
2447,20,-6,19,60,-3,-1,-5,30,12.235
2448,-2,-9,26,-67,3,-6,-4,-6,12.24
2449,22,-1,-11,-18,0,9,13,16,12.245000000000001
2450,3,3,30,30,-8,-6,0,-16,12.25
2451,-10,-25,-2,-46,-6,-7,-9,-20,12.255
2452,-8,3,13,33,-12,-4,-5,23,12.26
2453,22,62,0,-14,0,9,16,21,12.265
2454,-20,17,-2,-30,9,0,-11,-19,12.27
2455,-8,-41,-6,-3,-6,-3,1,-2,12.275
2456,-8,30,-6,2,-5,-6,0,-6,12.280000000000001
2457,5,8,-12,-11,1,0,-26,-4,12.285
2458,-5,-9,1,11,-3,2,19,-14,12.290000000000001
2459,7,20,18,-2,5,-6,-23,20,12.295
2460,-11,12,5,-31,-15,-1,21,15,12.3
2461,-3,-19,17,24,14,-8,-15,-27,12.305
2462,-17,-11,-11,7,-5,1,-19,-10,12.31
2463,17,1,-3,4,7,10,22,6,12.315
2464,22,-18,9,-9,1,-1,7,12,12.32
2465,-39,14,-2,34,-8,-4,-13,-10,12.325000000000001
2466,-7,-52,10,-48,-1,-3,1,9,12.33
2467,-3,8,8,11,-2,-1,-8,-32,12.335
2468,24,14,10,14,-1,0,3,20,12.34
2469,18,12,14,-17,1,6,16,20,12.345
2470,-5,23,12,21,-1,-10,-10,-7,12.35
2471,-1,-13,4,-18,-4,4,10,13,12.355
2472,-19,13,-10,25,-16,-4,-10,-25,12.36
2473,33,1,15,3,38,4,9,12,12.365
2474,16,1,-3,-33,-11,-10,-7,-7,12.370000000000001
2475,-11,-16,-3,-14,-2,2,2,1,12.375
2476,2,19,14,18,-12,-12,-21,-15,12.38
2477,-21,13,8,42,-14,4,14,-6,12.385
2478,-12,-10,33,-48,22,11,15,36,12.39
2479,-17,-19,17,16,-8,-13,-19,-34,12.395
2480,-4,-17,-8,-17,4,0,-24,-1,12.4
2481,13,16,-15,9,-4,4,28,7,12.405000000000001
2482,-5,17,-11,42,-4,1,7,-1,12.41
2483,17,-1,-4,-21,-1,2,11,13,12.415000000000001
2484,-16,1,4,5,-2,-5,-11,-10,12.42
2485,13,-23,-15,-57,1,2,-6,-1,12.425
2486,-18,10,7,24,-6,-3,-9,-14,12.43
2487,-1,-35,-10,-20,3,1,9,2,12.435
2488,13,10,4,14,5,6,3,3,12.44
2489,-18,-43,-7,-32,-10,-9,-9,-12,12.445
2490,16,28,-17,18,-15,3,5,3,12.450000000000001
2491,-15,18,2,-5,17,-10,-7,0,12.455
2492,-17,-58,-13,-5,0,-2,-2,-6,12.46
2493,6,19,8,-32,-6,0,-10,-6,12.465
2494,6,10,-8,24,5,5,13,2,12.47
2495,27,23,-11,17,-11,0,2,6,12.475
2496,-8,-23,-11,-7,6,4,1,-1,12.48
2497,-4,-14,-11,-8,-2,-4,-7,1,12.485
2498,-9,-11,5,9,-9,-7,-12,-6,12.49
2499,30,22,0,6,6,10,10,11,12.495000000000001
2500,-1,13,-4,19,2,3,10,5,12.5
2501,13,-4,1,-21,5,0,-6,-6,12.505
2502,-1,-25,8,-22,0,-7,0,-2,12.51
2503,-11,-9,-19,-1,-12,-1,-6,-4,12.515
2504,0,-2,1,8,1,-2,14,0,12.52
2505,7,11,-5,14,-2,2,-4,5,12.525
2506,8,13,-6,22,7,2,17,3,12.530000000000001
2507,4,-8,-3,-25,-3,4,-1,1,12.535
2508,-5,-2,2,14,3,-2,-15,-3,12.540000000000001
2509,-16,6,1,7,-1,-2,7,-3,12.545
2510,3,-20,7,-16,2,1,-6,0,12.55
2511,-16,9,16,0,-4,-3,0,0,12.555
2512,7,16,1,-8,4,3,7,-3,12.56
2513,29,-4,18,20,-5,-1,-5,8,12.565
2514,-29,-11,-6,-3,5,-3,-11,-12,12.57
2515,-11,4,10,-3,0,-3,-1,-2,12.575000000000001
2516,5,-5,18,-7,-4,-2,-2,0,12.58
2517,-17,-14,9,-13,-4,-3,2,-7,12.585
2518,10,-1,13,12,-4,0,-4,3,12.59
2519,-4,22,-10,26,-6,-1,-1,7,12.595
2520,8,8,4,-74,23,4,8,7,12.6
2521,-18,-49,8,5,-8,-8,-15,-11,12.605
2522,-3,-27,5,-2,-1,4,11,2,12.61
2523,-7,-9,5,-5,-2,-4,-7,-7,12.615
2524,-9,5,-15,12,-10,0,-7,-4,12.620000000000001
2525,3,5,-12,0,1,2,8,2,12.625
2526,8,-6,-18,-5,4,0,-22,2,12.63
2527,-1,9,6,-9,-3,-2,28,2,12.635
2528,4,-6,1,19,-5,-1,-4,-1,12.64
2529,0,9,-3,-7,4,2,-8,0,12.645
2530,3,11,7,3,-5,1,4,-4,12.65
2531,-3,-3,16,-3,3,1,-4,-1,12.655000000000001
2532,4,-11,37,2,-3,-3,-3,2,12.66
2533,-4,1,44,-1,2,1,7,3,12.665000000000001
2534,2,11,10,0,-2,-2,-4,-5,12.67
2535,1,-10,2,-9,-2,-5,-7,0,12.675
2536,3,16,0,14,-4,-3,-3,-3,12.68
2537,-7,15,-6,-20,0,0,1,-1,12.685
2538,2,-6,16,7,-2,-3,-4,-3,12.69
2539,-1,-14,34,-8,-1,-2,-11,-1,12.695
2540,-2,-17,63,15,-2,-2,-3,-5,12.700000000000001
2541,4,37,51,4,-1,4,12,10,12.705
2542,1,-5,88,-9,1,-1,-5,-3,12.71
2543,-1,-3,35,1,2,0,-8,-1,12.715
2544,-1,0,43,-2,-3,-1,-8,-1,12.72
2545,2,-5,4,7,-1,0,2,-2,12.725
2546,4,3,-23,-7,2,-1,2,-1,12.73
2547,-1,-3,-59,1,-3,3,-1,2,12.735
2548,0,-1,41,2,0,0,0,-2,12.74
2549,-2,-7,75,3,2,0,-5,0,12.745000000000001
2550,-1,2,37,3,-5,-6,-2,-2,12.75
2551,-1,-4,0,-4,2,3,3,1,12.755
2552,4,13,-122,1,1,0,1,1,12.76
2553,-1,-12,-123,0,-3,-1,-1,-1,12.765
2554,1,2,-102,-3,-2,-2,-2,0,12.77
2555,-1,-4,-45,1,-1,-2,1,-2,12.775
2556,0,2,-30,-2,-1,-1,1,0,12.780000000000001
2557,-1,1,19,5,0,-1,-3,-1,12.785
2558,3,-1,49,-3,1,0,-3,-2,12.790000000000001
2559,-1,7,74,-8,-3,-2,1,0,12.795
2560,-6,1,79,3,-1,0,3,-1,12.8
2561,-1,-2,27,-1,-3,-3,-4,-5,12.805
2562,2,-8,-44,0,0,1,-1,4,12.81
2563,0,27,-34,0,-2,-3,1,-6,12.815
2564,1,14,-46,-1,-1,2,0,2,12.82
2565,-3,-7,-47,-5,-3,-4,15,2,12.825000000000001
2566,-6,-2,-55,2,-1,2,-8,-6,12.83
2567,0,-8,-72,0,1,-1,-3,0,12.835
2568,3,-4,-76,0,-3,-2,-1,-4,12.84
2569,-2,-2,-43,5,2,2,-7,-1,12.845
2570,1,7,-5,-2,-1,-2,5,0,12.85
2571,-1,-14,19,-3,1,2,3,1,12.855
2572,-3,2,-26,-1,1,0,1,-1,12.86
2573,3,6,-8,3,-1,-2,-3,0,12.865
2574,-1,14,-18,-7,-7,-3,2,-3,12.870000000000001
2575,0,-3,1,0,-3,-2,-3,-1,12.875
2576,1,2,41,-4,-3,-1,-1,-1,12.88
2577,-1,2,44,-3,-4,-3,-4,-1,12.885
2578,-2,-9,32,0,2,3,2,1,12.89
2579,-1,-7,11,-1,-1,-2,-1,-2,12.895
2580,0,-7,10,3,-4,-1,-1,-1,12.9
2581,-1,6,14,-2,0,-1,-2,-3,12.905000000000001
2582,2,-12,-4,0,1,-1,0,0,12.91
2583,2,-7,-16,1,0,-2,0,1,12.915000000000001
2584,3,2,-24,-3,1,0,0,1,12.92
2585,0,-4,-37,-3,-5,-3,-3,-2,12.925
2586,2,6,-12,-1,-1,-2,-7,0,12.93
2587,-10,-16,4,0,0,2,8,1,12.935
2588,-5,-1,-15,-4,-3,-4,-6,-3,12.94
2589,1,5,-15,-1,-1,0,0,0,12.945
2590,0,8,-22,1,-1,1,2,-1,12.950000000000001
2591,1,2,-18,-2,-1,-1,-5,-3,12.955
2592,-3,-6,-20,-3,0,-3,0,0,12.96
2593,-1,2,-6,1,0,-2,-4,-1,12.965
2594,-6,-18,-2,2,0,2,0,0,12.97
2595,0,2,-4,-1,-2,-3,3,-2,12.975
2596,2,3,-3,0,-1,4,14,0,12.98
2597,-5,-7,-10,-2,-1,-3,-19,-4,12.985
2598,2,13,-8,-1,0,0,1,0,12.99
2599,-1,3,0,-2,-1,-3,2,-1,12.995000000000001
2600,-8,5,28,11,4,4,5,4,13.0
2601,2,5,23,-7,1,2,3,0,13.005
2602,-3,-5,-3,-5,-5,-3,-8,-2,13.01
2603,3,19,9,-4,-3,1,4,3,13.015
2604,2,-30,-7,-14,-7,-10,-10,-3,13.02
2605,-1,-3,5,15,5,2,2,2,13.025
2606,4,42,-26,-2,0,-2,10,2,13.030000000000001
2607,6,0,-16,-6,0,3,-1,-1,13.035
2608,0,-3,-34,-7,-3,2,-28,-5,13.040000000000001
2609,1,9,-16,4,-1,-6,14,1,13.045
2610,0,-13,-7,4,3,0,-3,-2,13.05
2611,0,13,6,13,0,-1,-19,1,13.055
2612,-4,10,11,10,3,8,16,-2,13.06
2613,0,-20,-17,-20,-5,-10,-18,-3,13.065
2614,-6,-16,11,7,1,-2,26,4,13.07
2615,1,-5,25,2,-1,0,-2,2,13.075000000000001
2616,-4,-7,11,-6,-1,-2,-6,-1,13.08
2617,5,17,35,19,4,6,-18,-2,13.085
2618,-5,-6,-2,-18,-12,-7,-8,-8,13.09
2619,-5,-31,-21,-16,-2,0,-2,-2,13.095
2620,1,-3,2,-1,0,-1,3,-3,13.1
2621,-5,-12,15,4,1,0,13,1,13.105
2622,5,13,18,-1,2,-2,-7,0,13.11
2623,-4,-8,11,3,-1,0,-2,-2,13.115
2624,3,15,13,-5,0,0,5,3,13.120000000000001
2625,-1,-1,-14,7,-2,2,0,2,13.125
2626,-1,-10,20,-8,-7,-4,1,0,13.13
2627,-6,-20,-14,2,-1,-3,4,-2,13.135
2628,0,-11,-4,-5,2,0,0,1,13.14
2629,2,3,4,-3,1,1,4,1,13.145
2630,-2,-4,6,9,4,6,5,1,13.15
2631,4,25,7,-3,0,-2,-4,-6,13.155000000000001
2632,-3,2,-4,12,-4,-5,-46,-4,13.16
2633,-4,-15,18,-10,-4,0,30,-4,13.165000000000001
2634,1,-2,-8,3,-2,-3,-7,0,13.17
2635,-1,-30,-10,-20,-1,-2,-6,-2,13.175
2636,0,-1,18,11,2,-2,4,2,13.18
2637,2,1,-6,-2,3,1,-2,2,13.185
2638,0,-10,-18,-3,-6,-4,3,-1,13.19
2639,-3,0,-3,7,-1,-1,11,2,13.195
2640,-1,1,-12,-11,-4,-4,2,-2,13.200000000000001
2641,0,1,8,-4,-1,2,1,1,13.205
2642,-2,-8,-13,7,4,1,5,-2,13.21
2643,5,0,8,2,5,2,5,-2,13.215
2644,-4,-8,-28,0,-7,-4,1,-3,13.22
2645,-8,-7,-7,-11,-3,-2,-2,0,13.225
2646,-1,13,2,-3,1,3,-11,-2,13.23
2647,-1,7,12,5,-2,-2,4,2,13.235
2648,1,0,6,2,3,0,11,1,13.24
2649,1,0,-7,11,-3,-3,-3,-3,13.245000000000001
2650,-2,-4,9,-10,1,1,-5,0,13.25
2651,-10,5,5,-3,0,-1,-1,-2,13.255
2652,-2,-18,-16,-7,-3,1,11,2,13.26
2653,-1,-31,-4,-3,-7,-5,-15,-1,13.265
2654,2,20,9,1,0,-1,3,0,13.27
2655,2,15,2,11,-1,3,-6,-1,13.275
2656,-2,14,17,-6,5,-1,11,0,13.280000000000001
2657,-3,-7,-3,-4,-4,1,-1,-1,13.285
2658,5,4,-15,-6,-3,-1,-5,2,13.290000000000001
2659,-1,5,4,0,-2,-3,-2,1,13.295
2660,3,7,-19,-7,0,-1,16,2,13.3
2661,2,32,-2,8,5,0,-6,-1,13.305
2662,-1,-1,11,2,0,-7,-62,-4,13.31
2663,-1,-11,-10,-7,0,6,53,3,13.315
2664,-3,-4,3,6,-1,-3,-21,0,13.32
2665,4,-7,4,0,-1,-3,3,0,13.325000000000001
2666,1,-1,1,10,0,-1,0,-2,13.33
2667,9,8,-3,-10,-2,-2,-10,1,13.335
2668,-8,-4,12,11,-3,1,-1,-8,13.34
2669,-9,-32,-14,-29,-6,-6,-3,-2,13.345
2670,-2,-15,2,8,-1,-1,4,0,13.35
2671,-2,-7,-4,-7,-1,-2,-11,-1,13.355
2672,3,1,12,6,1,1,10,2,13.36
2673,2,22,13,10,4,3,0,0,13.365
2674,2,8,6,9,1,0,12,-2,13.370000000000001
2675,-3,-16,-38,-29,-15,-9,-14,-3,13.375
2676,0,1,9,-1,2,-1,-7,0,13.38
2677,2,1,2,4,0,2,4,-1,13.385
2678,2,14,29,4,5,3,0,0,13.39
2679,-1,21,-12,14,2,3,3,-3,13.395
2680,8,-1,5,-8,-6,-1,0,4,13.4
2681,-1,0,6,-1,0,0,0,0,13.405000000000001
2682,4,-7,-5,-5,-1,0,12,0,13.41
2683,5,26,10,14,9,4,-11,4,13.415000000000001
2684,-8,5,3,4,-1,0,-3,-5,13.42
2685,4,-22,-7,-20,-16,-10,1,-7,13.425
2686,-7,-4,-10,-7,-1,-1,-1,0,13.43
2687,-6,-16,-4,-4,-3,-3,-1,0,13.435
2688,0,8,0,-2,5,4,5,2,13.44
2689,1,11,6,15,4,2,-2,3,13.445
2690,-3,-15,-8,-10,-6,-3,-7,-3,13.450000000000001
2691,2,9,-1,-3,-2,-1,1,-2,13.455
2692,1,-6,-4,8,2,0,6,2,13.46
2693,-5,-1,-16,-8,-3,-1,-19,-2,13.465
2694,-4,-3,-8,-1,-2,2,21,-2,13.47
2695,-2,2,21,11,5,0,-6,-1,13.475
2696,5,8,14,7,2,1,0,1,13.48
2697,-7,-10,-13,-12,-7,-3,-4,-2,13.485
2698,-8,-2,-9,-8,7,5,17,3,13.49
2699,-3,-8,12,-1,-3,-2,-12,-4,13.495000000000001
2700,-1,7,4,-2,0,-1,-8,-3,13.5
2701,6,12,27,22,9,5,2,-1,13.505
2702,-3,8,-35,-13,-11,-6,5,0,13.51
2703,-1,-4,10,-5,-1,-2,-3,-1,13.515
2704,0,8,-9,-3,-3,-1,6,0,13.52
2705,0,7,7,-3,3,1,3,3,13.525
2706,0,-18,33,19,1,-1,-2,0,13.530000000000001
2707,-4,2,-13,3,1,1,2,3,13.535
2708,-1,-3,23,-13,-8,-5,-5,-8,13.540000000000001
2709,-5,-5,-14,-4,-4,-4,2,0,13.545
2710,2,5,12,-8,-3,-2,-3,-2,13.55
2711,0,-10,3,0,-1,0,-5,0,13.555
2712,3,0,8,21,6,6,0,3,13.56
2713,-8,-10,-46,-23,-5,-4,2,-3,13.565
2714,2,-1,-3,-6,-1,-1,-3,0,13.57
2715,4,15,4,5,-1,-1,-1,-2,13.575000000000001
2716,3,11,-11,-2,-3,-5,-4,0,13.58
2717,4,18,9,3,6,3,3,4,13.585
2718,-2,3,6,15,0,-1,-15,-1,13.59
2719,2,-13,-3,-13,1,1,12,1,13.595
2720,-8,-1,-8,-13,-4,-2,6,-1,13.6
2721,0,2,15,12,0,1,-3,0,13.605
2722,1,-7,17,5,2,0,10,-1,13.61
2723,0,2,6,1,-2,1,9,3,13.615
2724,-4,-12,-3,-13,-1,-2,-9,-4,13.620000000000001
2725,1,3,11,9,0,-1,-2,-2,13.625
2726,-1,0,-14,-10,-3,0,-5,-4,13.63
2727,1,-1,2,10,-2,-3,-4,2,13.635
2728,3,6,5,-3,1,0,0,2,13.64
2729,0,13,11,2,0,1,1,0,13.645
2730,3,-9,-16,3,2,1,-5,-3,13.65
2731,-4,-3,4,-10,-2,-3,-3,-3,13.655000000000001
2732,2,-3,30,11,2,-2,0,0,13.66
2733,-2,-18,2,-3,0,1,3,0,13.665000000000001
2734,-4,0,12,5,-7,-4,-4,-2,13.67
2735,-5,-8,-25,-25,-3,-2,-1,-2,13.675
2736,0,0,-4,6,0,0,-4,0,13.68
2737,6,28,18,4,0,-2,-3,0,13.685
2738,4,21,23,6,3,2,12,3,13.69
2739,-1,-1,12,6,0,-2,8,1,13.695
2740,-5,-7,-24,-17,-6,0,7,-3,13.700000000000001
2741,-2,-8,11,-11,-3,-2,-4,-2,13.705
2742,0,-1,-5,-1,2,1,-3,0,13.71
2743,-1,3,8,3,1,2,-9,-3,13.715
2744,1,-7,-6,-3,0,0,5,1,13.72
2745,1,5,-8,8,0,1,1,-2,13.725
2746,2,-5,-9,-2,-1,-2,-7,-3,13.73
2747,-8,-6,-11,-6,-4,-5,5,-1,13.735
2748,-1,-3,-19,-7,-3,-4,-9,-2,13.74
2749,-3,-4,6,9,1,1,-9,-1,13.745000000000001
2750,-3,-5,-18,-7,-2,-2,1,0,13.75
2751,-3,-3,12,5,-2,-3,-6,-4,13.755
2752,2,-2,8,8,2,5,25,3,13.76
2753,-4,-14,-21,-15,-3,-2,-15,-4,13.765
2754,-1,6,20,11,0,2,10,1,13.77
2755,10,37,8,-4,1,-3,-33,-4,13.775
2756,-2,2,2,8,3,0,4,1,13.780000000000001
2757,1,-5,-3,-4,1,0,8,0,13.785
2758,-5,-8,-34,-3,-6,-5,3,-2,13.790000000000001
2759,-7,-29,0,-9,-3,1,-4,-4,13.795
2760,-4,-9,1,-2,0,-3,-12,-1,13.8
2761,8,15,-4,-3,-1,-1,3,2,13.805
2762,4,-8,17,4,2,0,-3,2,13.81
2763,-1,14,2,16,1,3,8,2,13.815
2764,-6,-19,-47,-21,-9,-5,-6,-4,13.82
2765,-7,-12,-15,-12,1,0,2,-3,13.825000000000001
2766,0,5,12,-6,-2,-3,-3,-2,13.83
2767,3,-1,0,12,2,2,3,2,13.835
2768,2,10,6,1,1,0,-23,3,13.84
2769,-4,-9,-1,-3,-1,1,61,4,13.845
2770,10,12,2,0,2,-4,-22,-4,13.85
2771,-3,-13,-2,3,-1,-3,-1,-2,13.855
2772,0,0,5,6,0,1,3,-2,13.86
2773,-1,-4,2,-3,0,0,-5,1,13.865
2774,-1,21,6,-10,-1,2,-4,-12,13.870000000000001
2775,-6,-8,-6,-2,-2,-4,2,6,13.875
2776,4,5,-10,2,-5,-4,-5,1,13.88
2777,-1,-4,9,20,-1,-3,-7,5,13.885
2778,-11,-20,-13,-22,-5,-2,6,-5,13.89
2779,5,17,-11,-2,3,1,-9,3,13.895
2780,-1,-16,8,2,-3,-1,2,0,13.9
2781,-3,-3,-17,-10,-1,-2,-10,-4,13.905000000000001
2782,4,14,14,11,3,0,2,8,13.91
2783,0,-4,-6,12,-1,-3,9,-7,13.915000000000001
2784,-7,-16,-9,-21,-2,1,0,-6,13.92
2785,-1,14,19,16,-4,-6,-23,-5,13.925
2786,-7,-8,11,-5,0,1,0,0,13.93
2787,-1,-17,-37,-1,-2,0,6,-1,13.935
2788,3,10,10,-4,1,-3,3,2,13.94
2789,-10,10,7,4,-4,0,-3,-2,13.945
2790,-6,-34,4,-15,-1,1,-8,-2,13.950000000000001
2791,-1,16,21,13,-4,-6,2,-1,13.955
2792,-2,-10,-5,0,-1,0,-5,-2,13.96
2793,-5,-5,-1,-4,1,-2,-2,-5,13.965
2794,9,2,-12,6,0,-3,-12,8,13.97
2795,-3,0,24,-8,0,3,6,3,13.975
2796,2,3,0,0,0,-3,-3,-1,13.98
2797,-1,4,-2,14,0,2,0,0,13.985
2798,-11,-3,-6,-5,-1,-1,7,-2,13.99
2799,0,-7,-12,-13,-4,-4,-3,-7,13.995000000000001
2800,0,2,5,6,0,-2,-5,-2,14.0
2801,2,6,10,-14,-1,-1,-5,-3,14.005
2802,-1,11,9,9,2,2,9,3,14.01
2803,-3,-21,-8,2,-4,-2,-9,-4,14.015
2804,2,15,-1,-3,-4,-3,7,-2,14.02
2805,-5,-9,1,0,0,-2,-6,-3,14.025
2806,7,4,-1,-1,-3,-2,-1,2,14.030000000000001
2807,-1,-5,-2,-10,0,-1,3,0,14.035
2808,-2,12,10,12,5,3,0,1,14.040000000000001
2809,5,33,-42,-19,-4,1,-1,0,14.045
2810,-1,2,9,6,1,0,5,-1,14.05
2811,-2,8,23,12,4,2,4,0,14.055
2812,-1,0,-13,-1,-6,-2,-23,-5,14.06
2813,-8,-39,-7,-10,-2,-4,-1,-1,14.065
2814,-3,-14,4,-1,1,1,-1,1,14.07
2815,-8,5,-4,-2,1,1,11,-3,14.075000000000001
2816,-13,10,0,-2,0,-3,-6,-10,14.08
2817,36,-1,8,4,4,1,7,19,14.085
2818,-6,3,-3,-8,-4,-1,-1,-4,14.09
2819,-11,-6,24,-1,1,3,-29,6,14.095
2820,0,-6,-16,-6,-4,-2,41,-8,14.1
2821,12,-10,5,0,-4,-1,-10,-3,14.105
2822,1,-4,-17,-1,1,0,-1,-2,14.11
2823,11,3,-2,-1,2,0,-12,-1,14.115
2824,-9,-1,8,8,0,0,-6,-2,14.120000000000001
2825,-9,-11,-2,-6,0,1,-2,-4,14.125
2826,5,7,-8,1,0,0,2,0,14.13
2827,-6,-4,-5,-17,-4,-2,-1,-6,14.135
2828,8,-5,2,0,2,-1,-4,6,14.14
2829,-6,-18,22,0,-4,0,6,-3,14.145
2830,0,2,-9,-4,-4,-4,-12,-3,14.15
2831,-8,-2,-17,11,-2,-1,26,1,14.155000000000001
2832,9,2,15,1,0,2,-16,4,14.16
2833,-4,8,-10,-3,0,-4,-14,-7,14.165000000000001
2834,-5,3,4,-2,0,0,1,-2,14.17
2835,2,-9,-10,0,0,0,-7,-1,14.175
2836,-3,-10,5,1,0,-1,8,2,14.18
2837,-7,3,14,7,0,2,6,1,14.185
2838,2,-2,-6,-3,-1,0,1,4,14.19
2839,-10,-1,-13,0,-2,-2,2,-1,14.195
2840,-1,-17,4,-9,0,0,-2,2,14.200000000000001
2841,-7,-3,-10,-2,-1,1,-4,-4,14.205
2842,3,-3,9,12,-1,-3,4,2,14.21
2843,3,-10,2,-14,0,0,3,0,14.215
2844,-13,-15,-11,5,-3,0,-2,-5,14.22
2845,9,8,4,0,1,0,7,7,14.225
2846,-2,-3,-16,7,-1,-2,-10,-2,14.23
2847,8,5,29,21,0,0,13,-6,14.235
2848,-11,6,-4,-26,-5,-3,-12,-2,14.24
2849,-3,-11,-8,-8,-4,-4,-8,-2,14.245000000000001
2850,-1,27,7,2,5,4,1,2,14.25
2851,4,1,5,7,-1,-2,-6,1,14.255
2852,7,6,-10,1,0,0,2,-1,14.26
2853,-4,10,8,11,0,2,4,-1,14.265
2854,-4,-2,-5,-12,1,-1,-3,1,14.27
2855,-2,-16,5,-7,-4,-2,-2,-8,14.275
2856,6,0,3,15,1,0,8,5,14.280000000000001
2857,-2,6,-13,2,0,2,-3,-1,14.285
2858,-4,-19,-16,-18,-3,-3,3,-4,14.290000000000001
2859,4,12,8,2,0,2,0,5,14.295
2860,1,-2,-1,-3,-2,0,0,2,14.3
2861,-7,6,-1,2,1,-1,-3,-6,14.305
2862,-2,17,22,16,4,5,2,2,14.31
2863,6,-5,-12,-5,-5,-6,0,6,14.315
2864,-10,-6,17,-8,-4,-2,0,-4,14.32
2865,0,1,0,-3,0,-1,-3,0,14.325000000000001
2866,-1,3,4,-3,-4,-3,3,-5,14.33
2867,-1,3,1,1,4,2,-6,0,14.335
2868,6,3,3,4,-1,-1,-2,1,14.34
2869,-1,-2,-7,-4,-1,-2,4,-2,14.345
2870,3,0,11,8,-3,-3,-6,-2,14.35
2871,2,29,-5,2,4,6,2,-2,14.355
2872,1,-13,-38,-11,-6,-5,0,2,14.36
2873,-5,-2,-18,-6,-1,-2,3,-3,14.365
2874,-6,-17,-3,-12,-4,-3,-3,-5,14.370000000000001
2875,1,-1,9,1,0,-1,-10,-1,14.375
2876,3,5,16,9,4,2,2,-1,14.38
2877,2,8,7,9,-1,0,-2,0,14.385
2878,-2,-12,-11,-1,-2,-2,3,-1,14.39
2879,-1,-3,5,-5,0,-1,-1,2,14.395
2880,10,20,10,9,3,3,2,2,14.4
2881,1,-18,-16,-10,-4,-2,2,0,14.405000000000001
2882,-7,-5,3,0,0,-1,-2,-2,14.41
2883,-7,-10,-52,-17,-8,-4,-5,-3,14.415000000000001
2884,4,8,21,7,2,-1,-2,-2,14.42
2885,2,3,5,4,1,1,-4,-1,14.425
2886,1,0,-10,0,-2,0,3,-1,14.43
2887,3,-5,17,4,0,-1,-1,1,14.435
2888,-3,-5,-2,0,1,-1,-1,1,14.44
2889,3,4,9,3,0,-2,0,-1,14.445
2890,3,-22,4,4,1,4,5,2,14.450000000000001
2891,-3,-9,2,-3,-4,-3,-10,-3,14.455
2892,-1,13,-10,-11,-1,-1,3,-2,14.46
2893,-4,3,19,10,2,-1,-1,2,14.465
2894,4,10,-3,1,0,-2,-2,0,14.47
2895,1,0,-31,-16,-3,-1,-6,-1,14.475
2896,-7,-13,3,-5,-3,-1,-3,-3,14.48
2897,0,-5,-3,-2,1,3,2,1,14.485
2898,1,4,5,3,-2,-3,-2,-1,14.49
2899,-2,-5,14,9,1,-1,3,1,14.495000000000001
2900,-6,-6,-4,-9,-7,1,-3,-2,14.5
2901,1,-3,-9,2,-2,0,4,-1,14.505
2902,-1,-4,2,-12,-2,-2,1,1,14.51
2903,-1,-1,-3,1,-2,-1,-1,-2,14.515
2904,2,5,8,1,4,0,0,0,14.52
2905,-4,-6,-41,4,-6,-3,-4,-5,14.525
2906,-4,-6,-10,-17,-4,-2,-1,-2,14.530000000000001
2907,1,5,12,-3,2,0,4,0,14.535
2908,3,0,11,3,1,0,-5,-1,14.540000000000001
2909,1,14,14,3,-1,1,0,0,14.545
2910,5,-15,4,6,-1,-2,-8,-2,14.55
2911,-6,-16,-4,-4,-2,1,3,-1,14.555
2912,1,-2,-1,12,5,0,16,2,14.56
2913,2,-3,-2,-27,-5,-2,-18,0,14.565
2914,-8,-1,-23,-2,-6,-7,-1,-1,14.57
2915,3,5,22,2,1,-1,-4,-2,14.575000000000001
2916,0,-1,-1,6,0,-1,-9,-2,14.58
2917,3,-2,14,3,1,-2,8,0,14.585
2918,-1,7,-1,8,2,1,0,2,14.59
2919,0,-2,1,2,3,3,-4,0,14.595
2920,-2,0,-4,-4,-3,-2,6,1,14.6
2921,-3,8,-1,-2,-2,-2,1,-2,14.605
2922,0,5,2,1,1,0,-2,-2,14.61
2923,0,4,4,2,-2,-2,3,0,14.615
2924,-1,-3,-3,-2,-1,-1,-4,-2,14.620000000000001
2925,-4,-3,1,-5,0,-2,-1,0,14.625
2926,-2,-6,0,0,0,-2,-2,0,14.63
2927,2,-1,8,-1,1,0,1,1,14.635
2928,-3,-9,6,-2,-3,-2,-6,-2,14.64
2929,-5,-6,-4,2,-1,0,-3,-1,14.645
2930,-6,4,-29,-5,0,2,4,-1,14.65
2931,-4,12,11,-10,-1,-2,3,-3,14.655000000000001
2932,1,3,-11,-4,-3,1,3,2,14.66
2933,-2,1,10,9,-1,-1,2,-2,14.665000000000001
2934,1,1,10,5,1,1,3,1,14.67
2935,0,7,4,6,1,-1,-6,-2,14.675
2936,-2,-6,-3,-3,0,2,-5,-3,14.68
2937,1,2,1,-3,-1,0,3,-2,14.685
2938,7,-4,14,12,-1,-1,-4,-2,14.69
2939,0,-15,-4,-12,-3,-1,1,1,14.695
2940,4,7,-20,-2,2,-1,-2,1,14.700000000000001
2941,-6,-21,25,-17,-6,-1,1,-3,14.705
2942,-5,-8,7,13,-1,-2,-4,-2,14.71
2943,-2,-4,-17,-3,-2,-2,0,-2,14.715
2944,2,8,13,-12,-2,0,1,-3,14.72
2945,0,3,-26,3,1,1,-5,0,14.725
2946,2,13,11,-6,0,0,0,-3,14.73
2947,0,1,7,9,-2,-2,-1,-1,14.735
2948,-4,-6,0,-1,0,-2,-4,-1,14.74
2949,0,-6,1,4,-3,0,-1,-1,14.745000000000001
2950,-3,-12,-13,-13,-4,-1,9,0,14.75
2951,4,10,-1,7,1,0,5,2,14.755
2952,-3,-13,-10,-6,-1,0,5,-1,14.76
2953,-4,-8,13,0,-5,-5,-2,-3,14.765
2954,1,6,8,0,1,-1,-18,-2,14.77
2955,1,0,3,-3,-1,-3,-2,0,14.775
2956,-4,-6,3,6,0,1,-1,-3,14.780000000000001
2957,-8,-10,-10,-1,3,3,4,0,14.785
2958,-2,-14,-3,-4,0,1,2,-2,14.790000000000001
2959,-1,23,-8,0,0,-1,-3,-2,14.795
2960,4,17,18,10,2,-2,-2,0,14.8
2961,-7,-16,-29,9,1,-1,-2,0,14.805
2962,-3,-11,-25,-31,-1,-1,-3,-2,14.81
2963,-2,-11,11,3,0,1,2,0,14.815
2964,3,3,-1,-8,1,1,-2,2,14.82
2965,6,21,13,17,0,-1,2,2,14.825000000000001
2966,1,3,1,3,0,1,1,0,14.83
2967,1,0,-3,-1,-3,-2,-3,-1,14.835
2968,1,4,1,2,1,0,-2,-1,14.84
2969,2,13,5,-1,0,0,-2,-1,14.845
2970,-4,-3,-9,-6,-5,-2,1,-2,14.85
2971,0,-7,-9,-14,-1,1,0,0,14.855
2972,-4,-2,-4,0,-2,-3,-5,-3,14.86
2973,3,3,5,0,-4,-3,0,-1,14.865
2974,1,3,3,7,-1,1,6,2,14.870000000000001
2975,-1,2,2,0,1,1,0,0,14.875
2976,0,-3,-2,12,-3,-1,1,-1,14.88
2977,-1,3,-6,-20,-5,-2,-6,-3,14.885
2978,2,7,-11,3,4,-2,-1,0,14.89
2979,-1,-4,2,3,-1,-2,-3,-1,14.895
2980,-2,-11,-9,-14,-2,-1,-2,-2,14.9
2981,0,-2,-4,6,2,1,0,-1,14.905000000000001
2982,-1,1,3,14,-3,-1,-1,-1,14.91
2983,-2,0,-17,-16,1,0,-1,-1,14.915000000000001
2984,-1,22,-17,-6,-2,1,1,0,14.92
2985,0,-1,-11,0,1,-2,-2,0,14.925
2986,4,-12,7,-2,2,1,1,1,14.93
2987,0,-1,10,26,0,1,0,0,14.935
2988,-4,-17,-13,-31,0,-1,-1,0,14.94
2989,-1,1,11,3,0,0,-2,-1,14.945
2990,-1,3,12,4,0,-1,1,1,14.950000000000001
2991,1,-8,19,-3,-1,-1,-1,0,14.955
2992,-6,-5,15,9,-4,-3,-1,-1,14.96
2993,-4,-11,6,-5,1,1,1,-2,14.965
2994,-1,-3,4,-2,0,1,0,-3,14.97
2995,-2,3,-8,-2,-1,0,0,-1,14.975
2996,1,-8,-8,9,-4,-1,1,-1,14.98
2997,1,4,-1,-8,0,1,-2,-1,14.985
2998,-1,6,10,6,-1,-3,-4,-2,14.99
2999,-3,-4,-5,-13,-2,-1,8,2,14.995000000000001
3000,0,-3,16,8,1,1,1,1,15.0
3001,-5,-6,-11,1,-2,-1,1,1,15.005
3002,-1,6,2,3,1,1,-5,0,15.01
3003,2,36,7,1,-2,-2,-6,-1,15.015
3004,1,-6,-3,1,-2,-1,-1,0,15.02
3005,0,-2,5,0,0,1,0,0,15.025
3006,-3,7,3,-9,1,0,1,1,15.030000000000001
3007,-7,-16,-33,12,-9,-5,-6,-5,15.035
3008,2,28,-6,-11,-1,-4,-2,-2,15.040000000000001
3009,2,8,2,-6,1,1,0,1,15.045
3010,-1,-9,5,-5,-4,-3,0,0,15.05
3011,-6,-17,1,5,1,0,1,-1,15.055
3012,-2,-4,1,2,0,0,-2,-1,15.06
3013,0,-4,2,2,-1,-2,-3,-2,15.065
3014,2,7,-7,1,1,2,2,0,15.07
3015,2,3,14,-6,-3,-1,-1,1,15.075000000000001
3016,-2,-11,-2,5,3,1,-4,-1,15.08
3017,-5,-5,1,-2,1,1,-1,1,15.085
3018,-7,-11,-23,-6,-4,-1,10,-1,15.09
3019,-2,2,4,-4,-1,-2,-4,-3,15.095
3020,-1,-4,5,-13,-2,0,0,-1,15.1
3021,3,2,11,8,1,0,-1,0,15.105
3022,2,16,6,7,-2,0,-3,-1,15.11
3023,0,-9,-1,-8,1,1,-1,-1,15.115
3024,1,0,-8,3,1,0,-1,1,15.120000000000001
3025,0,-1,-16,-6,-1,-2,-1,-1,15.125
3026,1,0,-2,3,-1,0,-1,-2,15.13
3027,-2,-17,14,4,5,4,2,1,15.135
3028,-3,-13,0,-15,-8,-4,-4,-2,15.14
3029,0,-6,9,-1,-1,0,5,-1,15.145
3030,-4,-13,-8,-5,-5,-4,-4,-4,15.15
3031,2,13,-15,-5,-1,0,-3,1,15.155000000000001
3032,1,4,3,8,0,0,1,-1,15.16
3033,-2,1,11,4,-2,1,0,0,15.165000000000001
3034,1,-2,10,-3,2,-2,-1,0,15.17
3035,2,3,4,8,0,-2,2,0,15.175
3036,0,4,-3,3,1,-1,1,0,15.18
3037,-3,5,-10,-25,-4,-4,-2,-1,15.185
3038,-1,-10,-3,5,2,1,-4,1,15.19
3039,-6,-13,-7,-5,-3,-4,0,-3,15.195
3040,0,3,2,8,0,2,4,1,15.200000000000001
3041,0,1,-4,4,0,-1,2,0,15.205
3042,0,6,3,-4,-2,-3,-3,0,15.21
3043,3,0,3,-1,0,0,-2,-1,15.215
3044,0,-16,-9,6,-3,-2,-3,-3,15.22
3045,2,1,-1,2,-3,-2,-3,-2,15.225
3046,-2,-7,-3,-16,-2,0,1,0,15.23
3047,1,5,7,4,-1,1,1,0,15.235
3048,1,16,1,-3,-1,-1,-3,1,15.24
3049,1,14,-9,6,1,0,-2,-1,15.245000000000001
3050,2,-7,5,1,0,-2,0,1,15.25
3051,-7,-10,-2,-3,1,3,2,1,15.255
3052,-2,-7,4,-8,1,1,0,0,15.26
3053,1,-8,-15,22,-6,-8,-5,-3,15.265
3054,-7,-6,-7,-12,1,2,3,2,15.27
3055,0,-1,0,1,-4,-3,-5,-3,15.275
3056,2,-7,-9,-9,0,0,1,-1,15.280000000000001
3057,2,6,7,1,4,4,0,1,15.285
3058,1,4,3,-3,-3,-4,-3,-1,15.290000000000001
3059,-2,1,-7,7,-5,-3,-3,-1,15.295
3060,-2,-2,5,3,0,-1,0,-1,15.3
3061,-4,-11,2,-4,-1,2,-2,0,15.305
3062,-3,8,0,3,0,-1,5,-2,15.31
3063,0,1,-2,-14,0,-2,-2,-2,15.315
3064,2,-7,-1,4,-3,-3,-9,-3,15.32
3065,-2,-5,-6,5,-1,1,8,-1,15.325000000000001
3066,-4,-11,-5,-5,-3,2,1,-1,15.33
3067,7,15,0,-2,-2,0,-1,0,15.335
3068,-4,-4,0,-3,-2,-2,1,-3,15.34
3069,-3,-9,-5,-13,-3,-1,-5,-2,15.345
3070,7,-1,-4,14,-2,-3,-3,1,15.35
3071,-2,-11,12,-9,-5,-3,-2,-2,15.355
3072,-2,1,-4,8,-1,0,1,1,15.36
3073,2,9,9,-5,1,-2,1,1,15.365
3074,0,2,-2,3,1,1,-2,-3,15.370000000000001
3075,-3,-4,3,-11,0,-2,-4,0,15.375
3076,-2,-4,0,9,-2,-1,0,-1,15.38
3077,-3,1,9,6,-2,-3,-1,-2,15.385
3078,-5,-12,3,-5,-2,-2,2,-3,15.39
3079,0,-1,1,-1,2,-1,-1,-1,15.395
3080,-4,-9,6,-5,1,1,1,-1,15.4
3081,0,24,-1,12,0,0,0,-1,15.405000000000001
3082,1,2,-12,-14,-4,-1,-6,-3,15.41
3083,-1,2,3,-2,-2,0,4,-1,15.415000000000001
3084,-3,5,-2,-3,2,0,0,1,15.42
3085,-2,-24,-2,-5,1,0,-2,1,15.425
3086,-4,3,3,12,-3,-3,-4,-3,15.43
3087,-5,-17,-9,0,-1,-1,-1,0,15.435
3088,-1,-1,-5,-6,-1,-3,2,-3,15.44
3089,1,-5,1,-7,1,1,-3,0,15.445
3090,1,8,3,0,-2,-1,2,1,15.450000000000001
3091,3,11,2,6,1,-2,-1,0,15.455
3092,-1,11,13,2,-1,-3,-4,-1,15.46
3093,-2,-4,-23,-6,-4,-3,-1,-1,15.465
3094,2,-6,1,-5,2,-2,-1,-1,15.47
3095,-6,8,2,10,3,1,1,-1,15.475
3096,3,-1,4,-5,0,0,-7,0,15.48
3097,0,3,-4,-2,-2,1,6,0,15.485000000000001
3098,0,5,0,4,1,-1,-2,-1,15.49
3099,-1,-6,-3,-6,-1,-3,-3,-1,15.495000000000001
3100,-2,-1,-4,-1,1,1,2,1,15.5
3101,-3,-31,2,-9,0,-1,-3,-2,15.505
3102,2,3,3,8,-3,-2,0,-1,15.51
3103,11,10,6,1,0,0,1,0,15.515
3104,-8,-3,-14,0,-5,-4,-4,-5,15.52
3105,2,5,-4,-9,1,1,-1,0,15.525
3106,1,5,4,4,2,1,1,2,15.530000000000001
3107,0,-7,1,3,1,2,0,1,15.535
3108,7,-7,-2,-28,-1,-1,0,-2,15.540000000000001
3109,-1,-1,1,17,-5,-3,-3,-3,15.545
3110,-7,-16,-47,-25,-6,-5,-3,-1,15.55
3111,-1,5,11,2,-2,-1,0,-2,15.555
3112,-1,-9,7,5,5,2,3,3,15.56
3113,1,21,23,-3,1,1,0,0,15.565
3114,9,3,9,-1,-2,-3,-2,-3,15.57
3115,-5,-17,-9,-4,-4,-3,-11,-2,15.575000000000001
3116,0,3,9,4,-3,-2,6,-2,15.58
3117,-10,-31,-4,-6,-2,0,6,0,15.585
3118,-9,-1,4,8,3,2,1,0,15.59
3119,0,-9,0,2,0,-2,4,-1,15.595
3120,20,7,-2,1,-3,0,-13,-3,15.6
3121,2,6,7,14,2,-2,0,1,15.605
3122,-15,-5,-11,-30,-4,-1,0,-2,15.610000000000001
3123,-8,-22,0,1,-1,1,-2,-3,15.615
3124,2,10,6,7,2,-1,2,2,15.620000000000001
3125,-4,11,12,-5,1,-2,-12,-2,15.625
3126,2,15,3,16,6,7,41,5,15.63
3127,-8,9,1,0,-8,-2,-13,-5,15.635
3128,-2,19,8,3,1,3,-2,0,15.64
3129,20,-11,-19,-13,-4,-5,0,-2,15.645
3130,-1,-11,19,1,0,0,-17,1,15.65
3131,16,-18,-10,4,4,4,11,2,15.655000000000001
3132,15,13,-13,-5,-4,-2,5,-3,15.66
3133,3,0,2,2,-4,-3,-9,-5,15.665000000000001
3134,-23,25,-13,5,2,1,11,-5,15.67
3135,1,-35,-28,-13,-8,-5,-4,3,15.675
3136,-24,-1,17,2,-1,-4,-10,-1,15.68
3137,24,16,-28,-8,4,3,4,1,15.685
3138,4,-12,17,3,-3,-4,-7,-2,15.69
3139,29,3,7,-1,3,1,-8,-5,15.695
3140,-19,-3,3,2,-5,-4,-15,2,15.700000000000001
3141,-19,-3,1,-3,-7,-7,-13,-6,15.705
3142,7,-9,4,-18,-4,-5,20,-3,15.71
3143,13,39,5,8,6,7,8,11,15.715
3144,-26,-7,8,-4,-5,-7,-6,-3,15.72
3145,5,-18,40,3,0,-1,-9,-1,15.725
3146,20,-9,14,4,5,6,-14,1,15.73
3147,-43,-25,2,-20,-10,-13,-14,-22,15.735000000000001
3148,24,-5,-2,11,4,5,14,8,15.74
3149,2,10,-19,-7,-5,-4,-10,-3,15.745000000000001
3150,11,10,-15,11,10,7,-5,8,15.75
3151,-9,21,-14,1,-1,4,26,11,15.755
3152,-5,-23,-11,1,-4,-3,-10,-6,15.76
3153,-47,18,-18,12,7,7,17,4,15.765
3154,-8,-22,6,-12,-10,-11,1,10,15.77
3155,34,16,-23,3,8,5,-15,-12,15.775
3156,-52,8,7,9,-4,-3,0,-1,15.780000000000001
3157,-15,-62,38,-23,-12,-15,-15,-14,15.785
3158,12,15,34,31,7,6,9,15,15.790000000000001
3159,-34,-82,-56,-53,-30,-30,-28,-31,15.795
3160,50,23,-41,11,14,17,23,25,15.8
3161,13,47,-28,20,10,17,18,8,15.805
3162,-34,-38,-7,-17,-5,-7,-21,-16,15.81
3163,0,49,96,27,8,6,10,15,15.815
3164,1,-11,49,53,-15,-5,-6,-9,15.82
3165,33,19,24,-52,22,7,5,2,15.825000000000001
3166,48,64,21,-8,-13,-6,4,11,15.83
3167,-27,-14,25,-9,8,-4,2,-2,15.835
3168,-28,-31,-18,-9,6,9,5,-4,15.84
3169,-14,12,0,40,-22,-11,2,3,15.845
3170,21,-28,-19,-3,-2,2,-12,-4,15.85
3171,-10,59,5,26,36,8,1,11,15.855
3172,57,13,-8,-16,-3,-4,-16,-14,15.860000000000001
3173,16,-33,-52,-3,-4,1,8,5,15.865
3174,-26,-28,-25,95,-25,-7,-7,-15,15.870000000000001
3175,57,58,-13,-69,14,8,18,21,15.875
3176,-23,-60,-23,-51,23,-1,-9,-14,15.88
3177,-25,31,-44,50,-10,-8,-10,9,15.885
3178,-13,19,-93,79,-9,-2,4,-4,15.89
3179,41,12,-102,-63,6,2,14,7,15.895
3180,25,42,-56,116,-16,-8,-2,6,15.9
3181,-42,-75,-86,-50,2,-1,-6,-13,15.905000000000001
3182,-55,-82,1,-90,12,4,7,3,15.91
3183,-39,-9,-40,72,-26,-7,5,6,15.915000000000001
3184,54,32,-23,-12,-12,-12,-12,-18,15.92
3185,18,25,-18,6,5,-7,0,12,15.925
3186,15,3,-75,-45,-2,4,2,12,15.93
3187,-59,-5,-39,34,3,11,18,14,15.935
3188,31,25,55,-35,2,-11,2,-6,15.94
3189,-47,-89,-19,17,-7,-8,-36,-55,15.945
3190,-32,17,25,13,-12,-19,-23,-26,15.950000000000001
3191,39,10,1,-39,14,13,10,20,15.955
3192,-68,13,0,-17,-13,-12,-10,-14,15.96
3193,29,71,26,13,7,8,20,19,15.965
3194,16,-42,-18,17,-16,-9,-22,-15,15.97
3195,-10,-4,31,0,3,-10,-15,-7,15.975
3196,-9,25,-9,-12,4,14,25,25,15.98
3197,-14,18,22,-1,-5,-14,-12,-25,15.985000000000001
3198,24,-1,32,-93,8,-3,-7,-6,15.99
3199,-9,-27,52,37,-1,6,-6,-9,15.995000000000001
3200,5,-41,41,9,-5,6,10,17,16.0
3201,-15,40,68,-15,1,-9,-5,-5,16.005
3202,-7,42,54,39,-6,13,5,-7,16.01
3203,39,55,39,46,23,16,19,12,16.015
3204,-87,-7,27,11,2,-4,-17,-16,16.02
3205,37,-79,27,16,17,24,34,43,16.025
3206,-26,28,21,8,9,-5,-16,-19,16.03
3207,17,38,31,-44,-4,-3,9,0,16.035
3208,-5,-27,-13,65,-8,-4,-7,28,16.04
3209,38,43,11,-69,2,7,7,-10,16.045
3210,-72,57,19,69,1,1,4,21,16.05
3211,36,-8,8,-76,1,2,-13,-30,16.055
3212,-6,-58,-11,-22,7,-5,-1,-11,16.06
3213,-38,44,5,41,-44,-2,11,14,16.065
3214,-20,-63,14,-78,34,-10,-18,-16,16.07
3215,29,78,-1,41,-25,-10,-6,8,16.075
3216,70,46,-11,10,-2,9,23,7,16.080000000000002
3217,-63,-82,10,-29,-18,-19,-26,0,16.085
3218,14,-2,0,51,25,6,0,-21,16.09
3219,-18,25,0,39,-16,-5,-6,6,16.095
3220,66,58,-4,3,15,17,7,-15,16.1
3221,-11,-7,3,24,4,9,18,38,16.105
3222,22,-13,20,-29,-19,-5,6,-10,16.11
3223,-21,-115,-18,-70,-22,-15,-21,-26,16.115000000000002
3224,30,26,22,-66,17,6,22,36,16.12
3225,12,34,12,-15,-24,-13,-22,-7,16.125
3226,89,40,9,68,12,20,24,33,16.13
3227,-84,-50,-9,-53,35,16,8,-11,16.135
3228,-22,4,71,-20,-28,-32,-25,-36,16.14
3229,15,-79,-28,-41,-32,-13,-17,8,16.145
3230,-17,11,-4,-10,32,-1,-7,7,16.15
3231,-3,-21,16,78,-46,2,4,-19,16.155
3232,3,75,1,8,62,32,35,43,16.16
3233,-8,27,37,-13,20,-9,3,39,16.165
3234,-11,-17,-15,-48,-9,-2,-5,-21,16.17
3235,18,-54,10,58,-12,-12,-13,-14,16.175
3236,-51,-50,-16,-60,-27,-8,-18,-57,16.18
3237,36,28,-26,11,-1,5,17,75,16.185
3238,-21,30,57,-13,-5,-13,-2,-35,16.19
3239,-6,-14,-24,108,-8,-7,-14,-26,16.195
3240,8,-24,25,-62,16,1,-9,5,16.2
3241,-20,-74,6,-16,20,7,-13,-109,16.205000000000002
3242,6,9,-60,32,-29,8,9,34,16.21
3243,31,89,-23,86,1,13,14,55,16.215
3244,-28,-16,46,-6,-10,-7,9,39,16.22
3245,30,23,24,57,42,10,9,-22,16.225
3246,-12,-36,12,49,-5,-17,-20,-10,16.23
3247,-38,-78,8,43,-9,-7,-4,-7,16.235
3248,24,-35,-41,-29,-6,27,42,56,16.240000000000002
3249,-15,19,41,-34,35,-28,-50,-80,16.245
3250,20,54,-29,-32,-21,8,-3,4,16.25
3251,-4,-66,-18,-41,37,6,2,8,16.255
3252,-20,-8,-9,53,-19,-8,-9,-16,16.26
3253,8,16,-83,-23,-15,25,34,42,16.265
3254,62,112,11,-62,44,8,20,59,16.27
3255,-24,-31,71,-57,-29,-30,-29,-32,16.275
3256,-39,-55,-86,18,-12,-9,-21,-41,16.28
3257,-1,4,5,37,-13,-16,5,27,16.285
3258,-10,43,21,34,-10,2,-11,-58,16.29
3259,6,0,-32,21,11,19,42,40,16.295
3260,18,-68,7,86,13,1,-41,-27,16.3
3261,60,127,3,-46,24,-10,4,73,16.305
3262,-104,-128,9,40,-42,-24,-24,-68,16.31
3263,27,-76,24,-14,29,12,12,44,16.315
3264,-5,-53,-40,-91,-38,-4,-14,-16,16.32
3265,45,66,-36,67,-1,25,36,18,16.325
3266,82,48,30,-54,87,21,29,35,16.330000000000002
3267,-104,-1,2,-52,-46,-45,-58,-83,16.335
3268,-25,-67,-13,72,-18,-5,13,24,16.34
3269,-13,-115,17,-57,-2,14,7,-29,16.345
3270,15,57,-31,-101,-48,-6,11,37,16.35
3271,8,114,18,117,28,11,0,44,16.355
3272,-17,-3,49,76,14,-13,-11,-65,16.36
3273,-37,55,-24,12,-44,-10,-29,-72,16.365000000000002
3274,-11,-128,-39,-20,-5,8,0,4,16.37
3275,40,56,-27,-4,3,15,28,114,16.375
3276,4,55,29,63,-4,-4,-84,-83,16.38
3277,4,-48,-4,80,0,15,104,88,16.385
3278,11,57,-14,-92,32,-7,-59,-42,16.39
3279,55,-20,-32,-19,-17,5,-38,-32,16.395
3280,-67,59,3,-45,-17,-21,45,-50,16.4
3281,5,-53,-20,3,45,0,-67,-4,16.405
3282,-24,-69,-34,97,-76,-34,-10,7,16.41
3283,17,23,-7,-24,34,17,7,29,16.415
3284,37,-30,-7,9,15,2,-15,6,16.42
3285,31,36,12,46,10,14,20,12,16.425
3286,-24,64,-34,44,-14,-7,14,-5,16.43
3287,-5,3,20,-69,19,8,-9,-50,16.435
3288,41,33,-60,41,-44,2,29,61,16.44
3289,-13,-73,19,-66,9,-7,13,16,16.445
3290,16,-15,17,27,16,11,-9,-30,16.45
3291,-23,51,-4,-3,-25,-29,-7,-9,16.455000000000002
3292,-1,4,1,0,24,11,14,-6,16.46
3293,26,0,22,-87,-35,-29,-43,-20,16.465
3294,15,19,5,-57,13,31,47,75,16.47
3295,-56,27,18,7,5,-30,-35,-105,16.475
3296,-23,-95,22,29,-5,6,-9,-12,16.48
3297,-1,35,17,-54,5,5,8,32,16.485
3298,10,2,-9,27,-31,-3,0,2,16.490000000000002
3299,35,17,15,-4,7,18,44,26,16.495
3300,7,-4,1,13,-7,-17,-20,-26,16.5
3301,-12,15,10,25,20,6,-3,-29,16.505
3302,-38,-43,29,74,-19,-7,-14,-5,16.51
3303,8,-62,-1,11,40,7,16,9,16.515
3304,48,24,24,-4,-32,10,28,39,16.52
3305,-15,82,8,27,12,-4,-6,0,16.525
3306,-12,-37,22,-11,9,0,-6,-5,16.53
3307,-15,-51,-10,42,-20,0,5,0,16.535
3308,68,31,14,-36,19,7,20,68,16.54
3309,-44,-45,9,11,-2,4,-17,-71,16.545
3310,0,31,2,-22,12,5,-5,-22,16.55
3311,-14,-27,0,-7,-35,-18,-33,-7,16.555
3312,5,7,6,-33,25,11,38,68,16.56
3313,50,84,-13,-2,-32,19,-15,14,16.565
3314,-32,-41,-2,124,15,-20,2,-3,16.57
3315,-10,-29,-1,-52,5,0,3,-28,16.575
3316,-18,46,5,-48,0,-7,-16,-5,16.580000000000002
3317,13,-7,-18,99,-71,8,23,66,16.585
3318,-26,-32,34,-40,44,9,-10,-20,16.59
3319,0,86,-3,31,-29,-12,-17,3,16.595
3320,-32,-52,5,8,5,-6,-19,1,16.6
3321,-31,-14,12,15,-22,-5,-12,-40,16.605
3322,75,12,3,-30,-2,19,40,80,16.61
3323,22,34,2,64,-3,4,27,30,16.615000000000002
3324,14,78,-11,-110,59,1,-19,-20,16.62
3325,-37,-73,-9,-4,-12,-19,-15,-47,16.625
3326,-8,5,-9,-14,-16,-5,1,-2,16.63
3327,2,-28,-6,-30,-3,-2,-18,-19,16.635
3328,10,75,-12,26,-17,19,70,77,16.64
3329,-35,-56,12,-45,14,-34,-49,-60,16.645
3330,7,-17,-14,-26,13,7,8,-26,16.65
3331,-3,-15,-1,23,-30,-5,-5,-10,16.655
3332,40,17,-8,-3,17,6,8,9,16.66
3333,-8,12,15,-13,15,10,14,35,16.665
3334,-9,32,-27,60,-34,-21,-33,-29,16.67
3335,10,-28,-23,-57,12,12,23,15,16.675
3336,-31,-4,-8,64,-28,-11,-2,3,16.68
3337,12,-46,-13,15,48,9,6,15,16.685
3338,-5,5,0,55,-44,-12,-12,-12,16.69
3339,20,40,0,-26,19,5,18,19,16.695
3340,-15,-93,0,12,-20,-15,-33,-36,16.7
3341,-17,19,-13,-22,-24,-8,-13,-30,16.705000000000002
3342,2,-6,-8,86,-37,-2,12,26,16.71
3343,20,23,1,-80,75,11,25,61,16.715
3344,-56,58,17,-19,-15,-22,-62,-83,16.72
3345,-2,-29,-17,25,-8,3,34,14,16.725
3346,6,-26,6,-35,18,3,1,-14,16.73
3347,-5,-24,3,-13,-26,-2,-44,3,16.735
3348,7,-7,3,-13,0,2,29,5,16.740000000000002
3349,9,31,7,-2,10,0,7,1,16.745
3350,1,20,4,-30,11,6,3,19,16.75
3351,-14,-24,7,8,-17,-2,-23,-70,16.755
3352,-4,-24,5,-8,12,-2,3,75,16.76
3353,14,33,5,34,-6,0,-3,-7,16.765
3354,6,-11,0,-43,8,2,10,20,16.77
3355,-7,8,14,30,-5,-2,-3,-4,16.775
3356,-8,9,9,-9,-11,4,-8,-26,16.78
3357,18,-3,19,-36,22,3,8,17,16.785
3358,-3,-40,23,-32,-3,-4,-10,-24,16.79
3359,-8,-7,30,7,-5,-1,-4,-7,16.795
3360,-6,5,26,12,-10,-3,3,-8,16.8
3361,-1,-10,41,2,-7,2,15,6,16.805
3362,7,24,29,-22,19,5,-9,-6,16.81
3363,9,0,1,4,-17,-3,-34,7,16.815
3364,5,7,12,-9,8,-4,30,6,16.82
3365,-1,6,22,8,4,7,-32,-26,16.825
3366,8,14,64,-12,7,2,59,13,16.830000000000002
3367,8,-11,103,3,-5,-1,30,32,16.835
3368,-7,2,75,-2,6,4,4,10,16.84
3369,-1,-5,17,-6,1,-4,-21,-7,16.845
3370,5,30,-46,-1,-2,-3,-24,-2,16.85
3371,1,1,-58,-1,-4,1,15,4,16.855
3372,-3,0,-49,-12,1,1,-5,-8,16.86
3373,1,29,-43,4,-9,-4,11,-7,16.865000000000002
3374,0,3,-7,-5,6,4,-9,10,16.87
3375,0,5,-13,-2,-7,-6,6,-8,16.875
3376,3,-1,-1,-2,2,-1,-7,-10,16.88
3377,-1,-4,-10,13,-1,1,-4,2,16.885
3378,1,1,-16,-4,5,1,-6,6,16.89
3379,-1,-2,0,-16,-3,-4,4,-7,16.895
3380,-3,-10,4,-5,-3,-3,-9,-5,16.9
3381,0,-5,2,6,-3,2,-2,4,16.905
3382,1,2,-7,-3,0,-4,4,5,16.91
3383,4,3,2,6,9,3,10,-7,16.915
3384,-1,-9,2,4,1,4,-8,-4,16.92
3385,0,-6,-7,-9,-3,-3,4,-1,16.925
3386,-2,-35,-14,-19,-3,-2,-2,-1,16.93
3387,1,3,-22,20,-1,-4,-3,-3,16.935
3388,-11,-11,-29,-8,-6,-2,-5,1,16.94
3389,-3,1,28,-2,-2,-2,-1,-5,16.945
3390,1,3,51,-2,2,-2,-5,7,16.95
3391,-1,-8,25,-6,-6,-4,5,-3,16.955000000000002
3392,7,-2,6,1,5,5,-5,-3,16.96
3393,-7,-23,-64,-2,-3,-1,5,-1,16.965
3394,0,11,-51,0,-1,-1,-7,-3,16.97
3395,-2,5,16,-6,-4,-3,-5,-3,16.975
3396,-2,4,38,0,-1,-2,-1,-4,16.98
3397,0,-10,80,0,2,-1,-6,-4,16.985
3398,-1,-1,38,-2,-1,-1,-2,1,16.990000000000002
3399,-2,10,3,0,-1,-4,-1,-1,16.995
3400,1,1,-53,-5,-2,-2,-5,-3,17.0
3401,-2,2,-56,1,0,-1,-2,2,17.005
3402,1,6,-59,4,2,0,5,0,17.01
3403,1,-5,-18,1,-1,-1,2,-2,17.015
3404,0,-5,55,0,-1,-1,-5,-1,17.02
3405,1,5,78,0,1,-1,-1,2,17.025
3406,0,6,28,2,0,-1,3,1,17.03
3407,-3,-6,-19,-6,-3,1,8,-1,17.035
3408,0,-7,-55,-2,1,-2,-3,0,17.04
3409,-2,-43,-45,-3,-1,-3,-10,-3,17.045
3410,0,14,-21,-2,-3,1,7,0,17.05
3411,-2,7,-31,0,-1,1,-5,-2,17.055
3412,-1,1,-36,-1,-1,0,16,2,17.06
3413,4,-9,-25,-2,-3,-2,-13,-5,17.065
3414,-3,-8,-14,0,-1,-1,-7,1,17.07
3415,-1,0,-15,-2,-4,-2,-5,-1,17.075
3416,0,7,-13,0,0,-2,6,-1,17.080000000000002
3417,-1,5,-13,-5,-1,0,3,1,17.085
3418,8,13,-4,1,2,0,-2,-1,17.09
