slno,emg1,emg2,emg3,emg4,emg5,emg6,emg7,emg8,Time
0,-1,0,1,0,-1,0,0,1,0.0
1,0,0,3,0,0,-2,0,0,0.005
2,-1,-1,5,5,-1,-1,-1,-1,0.01
3,-1,2,-12,-1,-1,0,-1,0,0.015
4,-1,-1,-8,-3,-2,-1,-1,-1,0.02
5,-2,0,-6,-1,0,1,-2,0,0.025
6,-1,2,5,-1,-1,0,1,1,0.03
7,-1,2,-15,-3,-1,-1,-2,0,0.035
8,-1,-5,12,4,0,-1,-1,-2,0.04
9,1,1,-1,-1,-1,-1,-1,-3,0.045
10,-1,1,3,5,1,-2,-1,0,0.05
11,0,-1,4,-2,-1,-2,0,-1,0.055
12,-1,5,3,1,0,-1,-3,1,0.06
13,-2,-6,-15,-8,-2,-2,0,-2,0.065
14,-1,-2,1,1,-1,0,0,0,0.07
15,-1,-1,5,-1,-3,-2,-1,-2,0.075
16,0,-4,18,3,-1,-1,-2,0,0.08
17,-3,-4,2,4,-3,-1,-1,-1,0.085
18,-1,3,-12,-6,-1,1,-1,-2,0.09
19,-1,-1,3,3,2,1,2,1,0.095
20,-3,-2,-8,5,-3,-1,-1,-3,0.1
21,0,2,13,-3,-1,-1,0,0,0.105
22,0,-1,6,0,0,0,-2,0,0.11
23,2,4,16,11,1,0,0,-1,0.115
24,-4,-13,-2,-9,-1,0,0,-1,0.12
25,0,2,1,3,-1,-1,1,1,0.125
26,-4,-5,-16,-3,-1,-1,0,-1,0.13
27,2,3,-2,0,1,0,-2,0,0.135
28,1,3,13,1,-2,-1,0,0,0.14
29,0,-1,5,2,-1,-1,-1,-2,0.145
30,-2,-1,6,1,1,1,-1,-2,0.15
31,-2,-1,-14,-7,-1,-3,0,-1,0.155
32,-2,2,2,0,-1,-1,-1,-1,0.16
33,0,-2,-7,-5,1,0,0,-1,0.165
34,0,3,8,8,0,-2,-1,0,0.17
35,-4,-1,13,2,-2,-2,-1,-3,0.17500000000000002
36,0,-2,-25,-12,-2,0,0,-2,0.18
37,3,4,14,-1,1,-2,0,0,0.185
38,-4,-11,-10,-3,-1,-1,0,-2,0.19
39,0,-3,6,-5,-1,0,-1,0,0.195
40,0,-3,-15,5,0,-2,-2,-1,0.2
41,-1,-1,4,-1,-3,0,-1,0,0.20500000000000002
42,-2,3,-3,-4,-2,-1,0,0,0.21
43,3,3,-6,-4,-2,-1,0,0,0.215
44,1,2,9,3,-1,-2,-1,0,0.22
45,-1,1,1,1,0,0,-2,0,0.225
46,1,-1,-7,-3,0,0,-2,-1,0.23
47,-2,-5,-5,4,-3,-1,-1,-2,0.23500000000000001
48,0,3,4,3,1,0,-1,-1,0.24
49,-1,-3,-3,2,0,0,-1,-3,0.245
50,0,-3,-3,-2,-1,-1,-1,-1,0.25
51,-2,0,2,0,0,0,-1,-1,0.255
52,-1,-1,-6,0,-2,0,-1,0,0.26
53,-2,-1,2,4,0,0,0,-1,0.265
54,-3,-1,9,3,0,0,-1,-1,0.27
55,-1,-4,-11,-3,1,1,1,0,0.275
56,-1,3,1,1,0,-1,0,-1,0.28
57,-2,-1,-8,-6,1,-2,-3,-1,0.28500000000000003
58,3,6,14,5,0,-1,0,-2,0.29
59,-2,-4,-9,-5,-2,-3,-1,0,0.295
60,-1,-4,13,2,-1,0,1,1,0.3
61,0,1,-1,-5,-1,0,0,0,0.305
62,-6,-6,-11,-2,-3,-2,-1,-2,0.31
63,-1,0,-15,-7,0,0,0,-1,0.315
64,0,0,13,9,0,-2,0,-3,0.32
65,-2,-7,-16,-12,-6,-2,0,-4,0.325
66,2,-1,-22,-3,0,0,2,1,0.33
67,1,-1,4,-4,-2,-1,-1,1,0.335
68,-1,1,-9,5,0,0,-2,0,0.34
69,-2,-2,0,1,0,0,1,1,0.34500000000000003
70,0,0,1,-4,-2,-2,0,0,0.35000000000000003
71,3,5,6,5,-1,0,-1,-1,0.355
72,-2,-11,-20,-12,-1,0,-3,-1,0.36
73,-1,0,2,3,-2,-3,-1,1,0.365
74,1,0,-11,-1,-2,-1,-2,-3,0.37
75,1,1,10,8,1,2,1,1,0.375
76,-1,2,16,-2,-1,1,0,0,0.38
77,-1,-3,-16,3,0,-1,-2,-1,0.385
78,1,2,8,-4,-1,-2,-1,1,0.39
79,-2,-2,-1,0,-1,-2,0,-3,0.395
80,0,1,-9,-1,0,-1,-1,-2,0.4
81,0,-1,6,6,2,0,0,0,0.405
82,0,-1,-4,-7,0,2,-2,0,0.41000000000000003
83,-1,0,15,3,0,-2,-2,0,0.41500000000000004
84,0,-1,-10,0,1,0,-1,0,0.42
85,-1,4,11,5,0,-1,-2,-3,0.425
86,-1,-1,-7,-7,0,0,0,-1,0.43
87,-3,-3,10,0,-1,0,0,-2,0.435
88,1,2,3,0,0,0,1,-2,0.44
89,0,-2,2,-1,-1,0,0,-1,0.445
90,-1,0,11,3,-1,-1,0,-1,0.45
91,-1,-4,-31,-11,-2,-2,-2,-1,0.455
92,0,2,1,-3,-3,-3,-1,-1,0.46
93,-1,1,15,2,2,-1,-1,-1,0.465
94,-1,-2,-8,-4,0,0,0,0,0.47000000000000003
95,1,1,-1,1,1,-1,-1,-1,0.47500000000000003
96,-1,-2,0,-3,-1,-1,-2,-1,0.48
97,0,0,-6,-3,-1,-1,0,1,0.485
98,1,1,15,6,-1,0,1,0,0.49
99,-2,-4,-10,-7,-3,-2,-2,0,0.495
100,-1,2,15,1,-1,0,0,-2,0.5
101,2,0,-17,-9,-1,0,-1,-2,0.505
102,-1,-7,13,2,-1,-2,-1,-1,0.51
103,-2,-3,-10,9,-1,1,-1,-1,0.515
104,-1,0,-3,-4,-3,-1,0,-1,0.52
105,0,-1,-5,1,0,-1,-1,-3,0.525
106,0,2,-3,0,2,2,2,-1,0.53
107,-2,1,8,-1,1,0,0,1,0.535
108,0,-1,-3,1,0,-2,-2,0,0.54
109,-2,-3,-6,-5,-2,-2,-1,1,0.545
110,0,3,14,9,-1,-2,-2,-2,0.55
111,-3,-2,4,-12,-1,-2,1,-1,0.555
112,-1,-1,-10,0,-1,-1,0,0,0.56
113,-1,1,5,6,-1,0,0,-3,0.5650000000000001
114,-1,0,6,-14,-3,-2,-2,-1,0.5700000000000001
115,1,-2,-15,2,-1,-1,2,-1,0.5750000000000001
116,2,2,0,-4,1,1,1,1,0.58
117,0,-2,-1,0,-4,-2,-2,-1,0.585
118,0,0,0,7,1,0,-1,-1,0.59
119,-3,-1,-4,1,-1,0,1,-1,0.595
120,1,2,2,-1,-1,-2,-1,-2,0.6
121,-4,-12,-8,-10,-1,0,-1,0,0.605
122,-1,3,-2,3,-1,-2,-2,-2,0.61
123,-2,-1,-5,-1,-2,0,-2,-1,0.615
124,0,3,2,0,-1,0,-1,-1,0.62
125,1,2,14,-1,0,-2,0,-1,0.625
126,0,0,8,-1,-1,0,0,0,0.63
127,-1,-1,-2,9,1,-1,-2,-1,0.635
128,-2,-5,-16,-13,-3,1,-1,-1,0.64
129,-3,0,1,-3,-1,1,0,-1,0.645
130,0,2,-11,-5,0,0,1,-1,0.65
131,0,1,11,5,-1,-3,-1,-1,0.655
132,-1,-2,14,6,-3,-2,-1,0,0.66
133,-1,0,-1,-1,-1,0,-1,-1,0.665
134,-1,-3,-11,-6,-3,1,-2,-2,0.67
135,0,0,12,-1,-1,-1,-2,0,0.675
136,-2,-4,-12,0,0,-2,-1,-3,0.68
137,1,0,-1,2,-3,-2,1,0,0.685
138,-3,-3,-14,-2,-1,0,-1,-1,0.6900000000000001
139,3,5,-2,-11,-1,3,0,-1,0.6950000000000001
140,-5,-13,6,0,-1,-1,-3,0,0.7000000000000001
141,1,-1,-4,1,1,1,1,0,0.705
142,0,3,-2,4,1,0,-1,-1,0.71
143,-1,0,10,-2,-2,0,0,1,0.715
144,-1,-1,-6,0,0,-1,1,-1,0.72
145,-2,2,6,4,-2,-2,-2,-3,0.725
146,0,-4,-10,-6,-2,-3,-2,-1,0.73
147,-1,0,-13,6,1,-2,-2,-1,0.735
148,1,5,13,8,2,1,-2,0,0.74
149,-3,0,14,3,-1,-2,-2,0,0.745
150,2,4,13,7,0,0,0,1,0.75
151,-3,-6,-15,-3,0,2,1,-1,0.755
152,2,3,4,1,-1,-2,1,0,0.76
153,-2,1,-10,-1,-1,1,-1,-1,0.765
154,2,6,15,4,1,0,0,0,0.77
155,-3,-1,9,-5,-2,-4,-3,-2,0.775
156,-2,-6,-7,-8,-2,-2,-1,-2,0.78
157,1,-1,7,-1,0,2,2,2,0.785
158,0,-3,-17,-4,-3,-3,-2,0,0.79
159,3,-3,2,-8,-2,-1,1,-1,0.795
160,-1,4,-15,-7,-2,0,-1,1,0.8
161,-1,-2,2,0,-1,-2,-2,-1,0.805
162,-4,-2,-1,-1,-2,-2,-2,0,0.81
163,2,-1,9,1,-1,0,-1,1,0.8150000000000001
164,-2,-1,-19,-2,-1,-3,-2,0,0.8200000000000001
165,0,-4,-12,-7,-1,0,0,0,0.8250000000000001
166,-3,-7,-14,1,-2,-2,-2,-1,0.8300000000000001
167,-4,3,-2,0,1,-1,-1,-2,0.835
168,4,-1,17,5,1,1,1,0,0.84
169,0,-1,-13,-18,-1,-3,-1,-1,0.845
170,0,-1,4,1,2,0,0,-1,0.85
171,2,6,-2,6,-1,-2,0,2,0.855
172,-2,-4,-52,-7,-4,-3,0,-3,0.86
173,1,-1,10,3,2,1,2,0,0.865
174,-1,0,17,8,2,1,1,1,0.87
175,0,-3,2,-4,-1,-2,-2,-1,0.875
176,-1,0,24,6,2,1,0,0,0.88
177,1,5,-2,1,0,-1,-1,0,0.885
178,-3,-10,-34,-4,-2,0,1,-2,0.89
179,5,10,29,6,2,0,1,1,0.895
180,-10,-17,6,-18,-7,-1,-2,-3,0.9
181,3,4,-4,-3,0,-1,-2,-1,0.905
182,-1,3,-6,-3,-1,-1,0,1,0.91
183,-5,-9,-4,-1,1,-2,-1,-2,0.915
184,-4,4,-4,7,1,1,2,-1,0.92
185,4,-14,-13,-5,-8,-1,0,1,0.925
186,2,11,11,5,-2,-2,-3,-1,0.93
187,0,1,-1,-1,0,0,-2,-1,0.935
188,-3,8,34,6,4,-2,-1,0,0.9400000000000001
189,1,-5,-28,12,0,0,-1,0,0.9450000000000001
190,1,-3,-7,7,2,1,0,-1,0.9500000000000001
191,-3,-11,-7,-12,-4,-1,-1,-1,0.9550000000000001
192,6,9,22,4,5,0,-3,-1,0.96
193,-6,-12,8,-5,-1,1,-1,0,0.965
194,-1,-2,-29,-12,-6,-5,-4,-4,0.97
195,-5,2,-7,6,0,-1,-1,-1,0.975
196,3,-1,-9,-1,0,-1,0,-3,0.98
197,-5,5,35,3,-5,-4,-2,-2,0.985
198,-1,1,9,-4,1,0,1,-2,0.99
199,-8,-11,5,1,-2,-3,-2,-13,0.995
200,7,4,-4,-10,-5,1,4,21,1.0
201,-14,-5,41,14,1,1,0,3,1.0050000000000001
202,20,9,-53,-8,-8,-4,-4,-2,1.01
203,4,19,-10,13,3,0,1,0,1.0150000000000001
204,-1,-6,2,1,1,-1,-3,-7,1.02
205,-3,0,8,11,-5,-5,-2,-4,1.025
206,-4,-2,48,0,7,3,5,4,1.03
207,2,-4,47,-10,3,6,3,2,1.035
208,-5,-9,-35,2,-4,-1,-2,-6,1.04
209,4,3,-29,-18,-1,-1,0,-1,1.045
210,-3,9,20,0,-6,-4,-3,-4,1.05
211,3,2,-2,2,-5,-1,0,0,1.055
212,-6,-8,-22,-8,-3,0,1,-1,1.06
213,-5,-4,25,3,2,-2,-2,-3,1.065
214,-4,-18,-26,-13,-20,-7,-1,1,1.07
215,0,7,-41,3,36,8,0,3,1.075
216,0,6,18,10,2,-1,-2,0,1.08
217,3,4,-58,-26,-17,-9,-3,-2,1.085
218,-8,-10,6,29,7,1,-1,-3,1.09
219,2,-5,-20,-20,-20,0,-1,2,1.095
220,-4,-2,35,22,9,1,-2,-3,1.1
221,1,4,-32,-12,1,2,1,-1,1.105
222,-2,-1,36,-2,-5,-10,-8,-3,1.11
223,-2,-3,16,6,-42,-12,-4,-4,1.115
224,4,7,2,-1,26,11,9,0,1.12
225,3,4,60,19,-5,0,1,2,1.125
226,-3,-3,-29,-13,-2,-1,1,2,1.1300000000000001
227,0,-8,-3,-7,6,-7,-9,-2,1.135
228,-4,-6,-13,-8,-14,-7,-6,-5,1.1400000000000001
229,-3,-3,-1,-5,0,-7,-1,0,1.145
230,3,16,8,-2,15,27,9,3,1.1500000000000001
231,-4,2,-17,2,8,1,4,-1,1.155
232,2,-5,7,1,-16,1,1,-1,1.16
233,-2,-7,10,12,11,-1,-4,-3,1.165
234,-3,-8,-52,-26,-5,-6,-6,-1,1.17
235,1,1,9,0,-10,-3,-2,0,1.175
236,2,3,2,-8,-7,-7,-4,-2,1.18
237,0,1,-24,-22,2,-2,-2,-2,1.185
238,1,-3,6,12,2,-3,-3,-1,1.19
239,-6,-5,19,2,0,-3,-4,1,1.195
240,6,5,15,-7,-3,4,4,0,1.2
241,3,6,-10,13,7,7,4,-1,1.205
242,-2,-6,9,-4,-1,-1,-2,0,1.21
243,2,-2,-16,-6,-1,-6,2,2,1.215
244,-1,8,11,0,-3,4,-6,-1,1.22
245,1,1,-37,-4,3,4,0,-2,1.225
246,1,-3,11,6,6,2,7,0,1.23
247,-3,5,15,11,-5,-5,0,-1,1.235
248,1,-7,-12,-1,8,-5,-5,-2,1.24
249,-7,16,3,-8,-6,-4,-5,-4,1.245
250,-2,-1,29,13,9,1,-1,-1,1.25
251,0,1,50,5,3,4,-1,1,1.2550000000000001
252,-3,-1,-19,-1,-4,-5,-1,0,1.26
253,3,-1,15,1,3,3,1,1,1.2650000000000001
254,-5,-2,26,4,-2,2,2,-1,1.27
255,-1,-1,-4,12,13,4,2,1,1.2750000000000001
256,1,6,5,-6,-7,-2,0,-3,1.28
257,1,-2,10,8,16,1,-1,1,1.285
258,-2,1,-12,-15,-8,-3,-1,0,1.29
259,-1,-5,-29,0,5,4,0,-2,1.295
260,-3,-5,-9,-14,-7,-5,-1,1,1.3
261,0,-2,-10,2,-7,-3,-3,-1,1.305
262,2,-2,5,-7,-4,-2,2,1,1.31
263,0,-3,-71,-16,1,-3,-3,-3,1.315
264,0,3,8,24,10,9,4,4,1.32
265,3,-1,-25,0,-7,3,2,2,1.325
266,-8,1,0,-9,0,-1,-2,-4,1.33
267,-1,-5,18,-2,2,-1,0,-2,1.335
268,-2,-1,-7,-10,-13,-5,-1,-3,1.34
269,1,-3,5,5,-6,-3,-3,-3,1.345
270,2,2,2,4,4,-2,-2,0,1.35
271,-3,-3,-16,-10,-10,-2,0,0,1.355
272,-3,-5,2,1,4,3,-1,-1,1.36
273,-1,1,19,-1,0,0,0,-1,1.365
274,-1,-10,-35,2,-7,-5,-4,-4,1.37
275,-5,-4,4,-8,-6,-1,-2,-2,1.375
276,2,3,-6,6,3,-1,0,1,1.3800000000000001
277,-7,-11,-49,-13,-5,-2,-1,-3,1.385
278,-4,-2,-7,-9,-3,-4,-2,-1,1.3900000000000001
279,6,7,-8,-8,3,1,2,0,1.395
280,-4,-12,15,15,-1,-3,-1,-2,1.4000000000000001
281,0,-2,16,0,1,0,0,0,1.405
282,2,1,4,5,2,2,0,0,1.41
283,-2,-1,12,-3,-3,1,-1,0,1.415
284,-1,4,10,0,2,-2,-1,-1,1.42
285,0,1,5,7,3,0,1,1,1.425
286,2,-2,-10,1,-3,0,0,0,1.43
287,1,-1,-19,-9,-4,0,-1,2,1.435
288,-1,3,7,-4,0,0,-1,0,1.44
289,-1,0,0,0,-2,-3,-2,1,1.445
290,0,-1,-2,-4,-2,1,-1,0,1.45
291,-1,0,5,8,3,1,2,-1,1.455
292,-1,1,-10,-6,-1,-3,-2,-2,1.46
293,1,-1,12,4,0,1,-1,0,1.465
294,-2,3,17,3,-1,-2,-1,-1,1.47
295,-2,0,19,7,1,-2,-1,0,1.475
296,-2,-3,-28,-11,-6,-3,-2,-2,1.48
297,-2,-3,10,5,-1,-3,-3,-2,1.485
298,2,1,0,2,0,-2,-1,-2,1.49
299,0,0,5,3,-4,-1,-1,-1,1.495
300,0,-1,-25,-9,-3,-1,1,0,1.5
301,-2,-2,6,-10,0,0,0,-2,1.5050000000000001
302,-1,-1,-9,5,-1,-1,-1,0,1.51
303,-1,-2,8,9,3,1,0,0,1.5150000000000001
304,1,0,-18,-13,0,0,0,0,1.52
305,0,0,8,-1,0,0,-2,-1,1.5250000000000001
306,-1,2,16,-1,1,1,-1,0,1.53
307,0,0,2,2,-2,-2,-2,0,1.5350000000000001
308,-1,1,18,1,2,1,0,0,1.54
309,-3,-2,-6,0,-2,0,1,-1,1.545
310,0,0,6,-4,-2,-1,0,-1,1.55
311,-2,-1,-11,1,-1,-4,-2,-3,1.555
312,-2,-3,3,-6,-2,1,1,-2,1.56
313,-1,-3,-17,1,-2,-2,-1,0,1.565
314,1,2,-1,-2,0,-1,0,0,1.57
315,-1,-2,-9,-4,-3,-2,-1,0,1.575
316,-2,2,17,13,1,-3,-1,-2,1.58
317,0,3,12,-10,-1,0,1,0,1.585
318,-3,-5,-21,-4,-2,-1,-2,1,1.59
319,0,0,18,0,-2,-2,0,-1,1.595
320,1,-1,-2,-4,2,0,-2,-1,1.6
321,1,1,16,5,2,-1,-3,-2,1.605
322,0,-2,-14,3,0,-2,-1,-1,1.61
323,1,1,20,-2,2,2,-1,0,1.615
324,-3,-9,-3,8,-3,-4,-2,-5,1.62
325,0,0,-8,0,0,-1,-2,0,1.625
326,-1,-1,11,-2,0,-2,-1,1,1.6300000000000001
327,-3,-3,-4,0,-1,-1,-1,-2,1.635
328,0,1,-9,-1,-1,-1,0,1,1.6400000000000001
329,0,0,-2,2,0,0,-2,-1,1.645
330,-3,0,8,4,0,-2,0,-3,1.6500000000000001
331,1,-1,-11,-1,-1,1,-2,0,1.655
332,-1,-3,-47,-9,0,0,-3,-1,1.6600000000000001
333,-2,-1,17,4,-3,0,-1,-1,1.665
334,-1,2,8,0,-1,1,-1,-1,1.67
335,-1,-1,2,3,0,0,0,0,1.675
336,-1,0,5,3,1,0,0,-1,1.68
337,-2,-4,-27,-12,-5,-4,-2,-4,1.685
338,0,-3,14,-1,-2,0,-1,-3,1.69
339,-1,0,-2,1,-2,-1,-2,-1,1.695
340,0,0,10,4,1,1,0,0,1.7
341,-1,1,4,-3,1,0,-1,0,1.705
342,-1,0,-12,3,-1,-1,-2,0,1.71
343,-3,-4,-38,-20,0,0,-1,-3,1.715
344,-1,2,13,-9,-4,-2,-2,-1,1.72
345,0,-2,-29,-9,-1,1,1,-2,1.725
346,0,-2,-5,-6,-1,0,-1,-1,1.73
347,-1,0,14,9,1,0,0,1,1.735
348,-1,-2,-4,-2,-4,-2,-1,-2,1.74
349,-1,-2,-7,2,-1,-2,-2,-1,1.745
350,-1,1,3,0,0,-1,1,0,1.75
351,-1,-3,-1,5,-6,-2,-2,1,1.7550000000000001
352,0,1,38,-2,1,-2,-2,0,1.76
353,-3,-7,-35,0,0,-1,0,-1,1.7650000000000001
354,-1,-3,3,-8,-3,-1,0,-2,1.77
355,0,-2,9,-5,-3,-1,-1,-2,1.7750000000000001
356,0,0,11,14,11,6,0,0,1.78
357,0,4,15,-5,-4,-3,-2,-1,1.7850000000000001
358,-1,1,2,-2,2,0,-1,-1,1.79
359,-1,-4,-37,-6,-2,-2,0,-2,1.795
360,-1,-1,-7,3,-7,-2,-2,-2,1.8
361,1,3,7,2,1,1,2,2,1.805
362,-2,-1,0,5,2,-1,-1,-2,1.81
363,1,5,19,0,-6,-5,-5,-2,1.815
364,-5,-6,6,-1,2,0,1,1,1.82
365,1,0,-6,3,2,0,1,0,1.825
366,0,2,14,-2,-2,0,0,1,1.83
367,-1,-4,5,-10,3,2,1,1,1.835
368,1,5,-15,1,0,-1,0,1,1.84
369,-3,0,26,5,-4,-4,-2,-3,1.845
370,-1,-1,11,1,-3,-1,-1,0,1.85
371,1,2,-2,-4,-4,0,0,-2,1.855
372,1,1,7,-7,0,-2,-1,-2,1.86
373,-1,-3,2,-3,4,1,-1,0,1.865
374,3,1,8,11,4,1,-1,0,1.87
375,-2,-3,-24,6,-1,-1,0,0,1.875
376,-2,-2,-6,-15,-8,-1,-1,0,1.8800000000000001
377,-1,2,17,8,1,0,1,0,1.885
378,-3,-4,8,-5,-2,-2,-2,-1,1.8900000000000001
379,1,3,-9,5,6,1,0,0,1.895
380,-2,-2,3,2,-2,-3,-2,-1,1.9000000000000001
381,1,2,3,-6,2,1,-1,0,1.905
382,-2,-2,-18,-4,-5,-1,-1,0,1.9100000000000001
383,0,-1,6,1,7,0,-2,-1,1.915
384,2,7,6,4,-1,-1,-3,-2,1.92
385,-2,-12,-33,-1,-3,3,2,1,1.925
386,0,1,-15,5,0,-3,-2,0,1.93
387,-3,-8,-16,-7,1,0,-2,-3,1.935
388,0,-1,-36,-18,-7,-2,-1,-3,1.94
389,2,1,5,4,-2,-3,-1,-1,1.945
390,-1,-1,-7,0,5,1,2,0,1.95
391,-2,-3,-3,0,-4,-2,-1,-2,1.955
392,-1,-3,0,6,2,0,0,1,1.96
393,-2,2,17,3,-3,-1,-2,-1,1.965
394,-1,-3,-13,-6,-1,0,-2,-2,1.97
395,0,1,-2,4,-3,-3,-2,1,1.975
396,0,0,24,2,1,0,1,-3,1.98
397,-3,-6,-42,-1,-1,1,-2,0,1.985
398,0,0,-17,-16,-4,-3,-1,-1,1.99
399,-1,1,22,-3,-3,0,0,0,1.995
400,0,0,10,13,3,1,-2,1,2.0
401,-1,-4,-32,-22,-8,-5,-1,-1,2.005
402,-1,1,-3,12,4,1,0,1,2.0100000000000002
403,-1,-3,-7,0,-4,0,-2,-4,2.015
404,-1,-1,-13,-7,2,-1,1,-1,2.02
405,1,7,32,9,6,2,1,0,2.025
406,1,0,4,-5,-3,-1,-1,3,2.0300000000000002
407,-2,-4,-9,-5,0,-1,-1,-2,2.035
408,-3,-4,-37,5,-1,0,1,-1,2.04
409,-1,1,-9,2,2,2,-2,0,2.045
410,-2,-1,-2,2,-3,-1,0,-1,2.05
411,0,2,18,-5,1,0,1,2,2.055
412,0,-1,12,0,-1,-1,-1,0,2.06
413,1,-2,3,-5,0,-2,-2,0,2.065
414,-1,-4,-3,0,-4,-2,1,-2,2.07
415,-3,1,8,-4,-1,-1,-3,-2,2.075
416,-1,-1,5,-1,-4,-3,-2,0,2.08
417,-2,-4,3,4,-1,0,0,-3,2.085
418,0,-1,-5,-3,-1,-1,-1,-2,2.09
419,-2,-1,0,5,0,-1,-1,-1,2.095
420,-1,-1,-3,2,-1,-1,-2,-1,2.1
421,-2,0,6,2,2,0,0,0,2.105
422,0,-1,8,-3,-4,-2,-2,-2,2.11
423,1,-2,-22,0,-1,0,1,0,2.115
424,-1,-1,18,-2,-2,-1,-2,-1,2.12
425,-1,2,14,5,-1,0,-1,-2,2.125
426,-2,-1,-1,-12,-1,-1,0,-1,2.13
427,-1,-2,-19,0,-2,-3,-2,-2,2.1350000000000002
428,0,-1,8,1,1,0,-1,-1,2.14
429,-1,0,6,-2,-2,-1,-1,0,2.145
430,-1,-1,-2,0,-1,1,-1,-1,2.15
431,1,0,5,0,0,0,-1,-1,2.1550000000000002
432,-1,-2,-5,-3,1,1,1,-1,2.16
433,-1,-2,0,-7,-1,-1,1,0,2.165
434,-1,1,1,4,-2,0,-1,0,2.17
435,-1,0,10,-1,-1,-2,-1,-1,2.1750000000000003
436,-1,-2,-6,-2,-2,-1,-1,-1,2.18
437,0,1,7,1,-3,-2,-2,0,2.185
438,-3,-2,-2,1,0,-1,0,-1,2.19
439,0,-1,7,1,2,4,0,0,2.195
440,-1,-1,-6,-3,-2,-2,-1,0,2.2
441,2,0,-1,-2,-3,-3,-2,-2,2.205
442,-2,-1,-2,-2,1,0,1,-1,2.21
443,-1,0,-2,-4,-1,-2,0,-2,2.215
444,0,-1,-1,0,-2,-1,1,-1,2.22
445,0,0,-1,-3,-1,-2,-2,-1,2.225
446,1,-2,-3,0,1,-2,-2,-2,2.23
447,0,-1,1,-2,1,1,1,-1,2.235
448,-1,0,-4,0,-1,1,-2,-2,2.24
449,-1,-1,-1,-1,-2,-2,0,0,2.245
450,-1,-3,-2,0,-1,-1,-2,1,2.25
451,-2,-1,-2,-1,1,1,1,1,2.255
452,-2,-2,-1,-1,1,-1,-2,0,2.2600000000000002
453,0,-2,-1,-1,3,2,2,1,2.265
454,1,-1,0,-1,-2,-1,-2,-2,2.27
455,0,-1,-3,-3,-2,-3,-2,0,2.275
456,0,0,-4,0,-2,-4,-3,-2,2.2800000000000002
457,-1,0,0,0,-1,-1,-1,-2,2.285
458,1,-1,0,-2,1,-2,1,-1,2.29
459,-3,-2,-1,-1,-1,-2,0,0,2.295
460,0,0,1,0,0,0,2,-1,2.3000000000000003
461,-1,-1,-1,-2,-3,0,0,-1,2.305
462,-3,-2,-3,-2,-3,-1,-3,-1,2.31
463,1,-1,-5,0,-1,-1,-1,-1,2.315
464,-1,-2,-8,-5,-1,0,-3,-1,2.32
465,-1,0,19,1,1,0,0,-2,2.325
466,-1,3,5,-1,2,2,1,0,2.33
467,0,-3,-12,-2,-1,-1,-2,-1,2.335
468,-1,-2,3,2,-1,-1,-1,0,2.34
469,-1,-1,0,0,1,-1,0,-1,2.345
470,-1,0,-3,1,-1,0,0,-2,2.35
471,-2,-3,-2,-5,-3,0,0,-1,2.355
472,1,0,9,3,-1,-2,1,0,2.36
473,-1,-2,-14,-11,-1,0,-2,0,2.365
474,0,-3,7,2,-1,-1,0,0,2.37
475,0,1,2,1,1,-3,-1,-1,2.375
476,0,0,1,1,-2,-1,1,0,2.38
477,1,-2,-1,-2,-2,-3,-1,-2,2.3850000000000002
478,1,-2,-11,-4,-1,-2,-2,-2,2.39
479,1,0,8,0,-1,1,1,0,2.395
480,0,-1,-1,-3,-1,0,-1,-1,2.4
481,-2,-1,-12,-1,-2,0,1,1,2.4050000000000002
482,1,0,9,5,-2,-2,-1,-1,2.41
483,-2,-1,5,1,-3,-1,-1,-3,2.415
484,-2,-4,-10,0,0,0,-2,0,2.42
485,0,-1,-3,3,1,1,1,0,2.4250000000000003
486,0,0,5,5,-2,0,-2,0,2.43
487,-3,-5,-26,-16,-1,-1,-2,0,2.435
488,1,1,1,-3,0,-1,-1,0,2.44
489,0,0,5,3,0,-2,-3,0,2.445
490,0,1,-1,0,1,-1,1,0,2.45
491,2,2,-2,3,1,-2,0,-1,2.455
492,-2,-1,-9,-8,-1,0,0,-1,2.46
493,-2,-5,-9,-3,-1,0,-2,-1,2.465
494,-1,1,11,-1,-1,-1,0,-2,2.47
495,0,0,3,4,-1,0,-2,0,2.475
496,-1,0,-2,-3,-1,-2,1,-1,2.48
497,0,-3,-5,2,0,0,1,-1,2.485
498,-1,1,0,-2,0,-1,0,0,2.49
499,0,0,3,1,-2,-3,-1,-1,2.495
500,0,-1,1,2,1,1,0,0,2.5
501,-1,0,4,1,-1,1,-1,0,2.505
502,-2,-3,-10,-4,-2,-1,-1,-2,2.5100000000000002
503,-2,1,5,2,0,0,-1,-1,2.515
504,-1,-4,-16,-2,0,0,0,0,2.52
505,0,-1,3,0,-3,-3,-1,-1,2.525
506,1,-2,-2,-1,-1,0,-1,-1,2.5300000000000002
507,2,1,5,1,0,1,1,-1,2.535
508,-1,1,8,-1,0,-1,0,0,2.54
509,-1,1,-2,-1,-2,0,1,-1,2.545
510,0,-1,-4,2,-3,-3,-2,-2,2.5500000000000003
511,0,-3,5,0,-2,-3,-1,-1,2.555
512,0,-2,-3,-6,-2,-3,1,-1,2.56
513,0,1,3,0,-1,-2,-2,0,2.565
514,-2,-2,-9,-2,-1,0,1,-1,2.57
515,-2,0,0,1,0,0,-2,0,2.575
516,-1,-1,7,1,0,-1,-1,0,2.58
517,-3,-7,-27,-3,-3,-3,-2,-3,2.585
518,1,-4,-19,-2,-2,-2,1,-1,2.59
519,-1,-2,4,-4,-2,1,-1,-2,2.595
520,0,0,-1,3,-2,-2,-1,-3,2.6
521,-1,1,5,0,0,0,-1,-1,2.605
522,0,0,3,-1,0,-1,0,-1,2.61
523,0,0,-9,-2,0,0,0,-1,2.615
524,-1,-2,5,2,-2,0,-1,-1,2.62
525,0,0,6,-3,-1,-2,0,-1,2.625
526,-2,1,-1,-1,-1,-1,-2,0,2.63
527,-2,-1,3,0,-2,0,0,1,2.6350000000000002
528,-2,0,6,1,-1,-1,-1,-3,2.64
529,0,0,1,1,-1,-2,-3,-2,2.645
530,-2,-1,4,-8,0,2,0,-1,2.65
531,-1,0,0,2,-3,-2,-3,-2,2.6550000000000002
532,-1,-2,-6,-1,0,2,-2,1,2.66
533,-2,-1,-1,1,-1,0,1,-1,2.665
534,-2,-3,-2,0,-2,0,-2,-2,2.67
535,-1,-1,-5,-2,0,-1,-3,0,2.6750000000000003
536,-2,1,11,3,-1,-1,-1,1,2.68
537,2,2,11,1,0,-2,-2,1,2.685
538,-2,-3,-23,-5,3,1,-1,0,2.69
539,-2,-2,-1,0,0,0,-1,0,2.695
540,0,-1,-5,-5,0,-1,0,-2,2.7
541,-1,-3,-10,5,-4,-1,0,-1,2.705
542,-1,1,8,4,-1,-1,-1,0,2.71
543,0,-1,-1,0,-1,-1,1,0,2.715
544,0,-1,-3,1,-1,-2,0,1,2.72
545,0,2,3,-2,0,3,1,-1,2.725
546,0,-1,-2,-1,0,2,1,-1,2.73
547,-1,-1,-2,1,1,-1,-1,-1,2.735
548,-2,-1,-1,0,-1,-2,-3,-1,2.74
549,-1,-1,0,-2,-1,-1,0,0,2.745
550,-1,-1,1,-1,-2,-1,-2,0,2.75
551,-1,0,2,-1,-1,1,-1,-3,2.755
552,-2,-1,-3,4,2,1,-1,-1,2.7600000000000002
553,-1,0,-6,0,1,-1,-1,-2,2.765
554,-1,0,-3,-1,-1,2,-1,0,2.77
555,1,0,6,2,-1,-2,-1,1,2.775
556,1,-1,-15,-8,-3,-3,-1,-1,2.7800000000000002
557,-1,-1,-5,-2,1,-1,-2,0,2.785
558,0,-1,7,1,-1,-3,-1,-1,2.79
559,-2,0,-2,0,-1,0,2,-1,2.795
560,0,-3,-5,-1,-3,0,-3,-1,2.8000000000000003
561,-1,-1,4,3,0,0,0,0,2.805
562,-1,-2,-6,-7,-2,-1,-1,-1,2.81
563,-1,-4,-24,-2,-1,0,0,0,2.815
564,0,1,0,0,0,1,1,-1,2.82
565,-1,-4,7,-2,-2,-2,1,-1,2.825
566,0,-1,1,1,-1,-1,-1,-1,2.83
567,-1,0,5,-4,2,-1,-1,0,2.835
568,-1,0,4,-2,-2,2,-1,-1,2.84
569,-2,1,4,-1,0,-1,-2,-1,2.845
570,1,-1,-2,0,-1,-2,0,0,2.85
571,0,1,3,-3,-1,0,0,1,2.855
572,1,0,1,4,-1,-3,-2,-1,2.86
573,0,1,-1,0,0,0,1,-2,2.865
574,-2,1,7,5,0,0,1,0,2.87
575,0,-1,-13,-2,0,-1,-1,0,2.875
576,-3,-2,9,1,-1,0,0,-1,2.88
577,-1,1,-4,-1,0,-1,-1,0,2.8850000000000002
578,-1,-2,-5,-2,-1,-2,-2,-1,2.89
579,-1,0,10,3,1,-2,0,-2,2.895
580,-1,1,5,3,-1,-1,-1,-1,2.9
581,-1,0,-7,-5,-2,-2,-1,-2,2.9050000000000002
582,0,-1,-11,-5,-2,-1,0,0,2.91
583,1,-1,4,-1,-2,1,0,-1,2.915
584,0,0,-2,-3,0,0,-1,-2,2.92
585,0,1,4,3,-1,0,1,-1,2.9250000000000003
586,-1,-2,-1,-4,-1,0,-1,0,2.93
587,-1,2,2,0,0,0,-1,-1,2.935
588,-1,-1,-16,-5,0,-3,-1,-2,2.94
589,-1,0,-1,-1,-2,0,0,0,2.945
590,-2,0,0,-1,0,-1,-2,-2,2.95
591,-1,-3,7,1,-4,-3,0,-2,2.955
592,0,-1,5,1,1,-1,-1,0,2.96
593,-1,-1,4,-2,2,2,1,-1,2.965
594,-1,0,4,3,0,0,0,0,2.97
595,0,0,0,-1,-1,-1,0,0,2.975
596,0,1,-1,-2,-1,0,0,0,2.98
597,-1,-3,-4,-3,-2,-1,-1,-1,2.985
598,0,1,4,3,0,-1,-2,0,2.99
599,-2,-2,-12,-3,-3,0,-2,-2,2.995
600,-1,1,10,1,1,0,0,0,3.0
601,1,0,-3,-2,1,-2,-2,-2,3.005
602,1,1,6,1,-2,-1,1,2,3.0100000000000002
603,0,-1,-2,-3,0,-1,0,-1,3.015
604,-1,-2,0,1,-2,0,-1,0,3.02
605,0,0,2,7,-2,0,1,-2,3.025
606,-2,-1,6,1,0,-1,0,-2,3.0300000000000002
607,-3,-2,-1,-9,-1,-3,-3,-1,3.035
608,0,-1,0,-3,1,1,0,0,3.04
609,-1,-1,-11,-1,1,0,0,0,3.045
610,-2,-3,-1,1,-1,-1,-2,-1,3.0500000000000003
611,-2,-1,2,2,-3,0,-1,0,3.055
612,-2,-2,0,1,-2,-3,-1,-1,3.06
613,-1,-2,1,-3,-1,-2,-3,-1,3.065
614,-2,1,-5,-1,0,-1,-1,-2,3.0700000000000003
615,1,2,14,0,1,0,0,1,3.075
616,-2,-3,-9,0,-2,-2,-1,-2,3.08
617,0,0,-5,-1,0,2,-1,2,3.085
618,-1,-1,2,0,0,-1,-1,-1,3.09
619,0,1,1,1,-1,-1,-1,-1,3.095
620,0,-1,0,0,-2,0,-1,-1,3.1
621,-1,-2,0,-4,-2,-1,-1,-2,3.105
622,-1,1,1,-2,-2,-1,-2,0,3.11
623,0,-2,-14,2,0,1,0,1,3.115
624,0,0,9,-5,0,-1,2,0,3.12
625,0,-3,-20,-2,-1,-1,-1,-2,3.125
626,0,-2,-6,-1,0,0,-1,-2,3.13
627,-1,0,9,4,-2,-2,-1,-2,3.1350000000000002
628,-1,-2,-2,-2,-1,1,-2,-1,3.14
629,-2,0,8,2,0,-1,0,-1,3.145
630,1,0,-3,-4,-1,-1,-1,-1,3.15
631,-1,-3,-8,-6,-1,-2,0,-2,3.1550000000000002
632,-1,-2,-2,0,0,1,0,-1,3.16
633,-1,-2,5,-3,-1,0,0,0,3.165
634,-2,-1,-1,2,-1,-3,-2,0,3.17
635,-1,1,8,-1,-1,-2,-3,-1,3.1750000000000003
636,-1,0,-8,4,0,2,0,-1,3.18
637,-1,0,2,-4,-4,-2,-2,1,3.185
638,1,1,11,6,1,1,2,-1,3.19
639,-2,-3,-17,-10,-4,0,2,-1,3.1950000000000003
640,-2,-2,-1,0,-1,-2,-1,-1,3.2
641,1,-1,-2,3,1,-1,-1,-1,3.205
642,-2,-1,4,2,-1,1,1,-3,3.21
643,-1,0,0,0,2,0,0,0,3.215
644,1,2,9,4,0,1,-1,1,3.22
645,0,-2,-16,3,2,1,0,-1,3.225
646,0,-1,-6,-6,-2,-1,-3,-2,3.23
647,-2,1,7,4,0,1,-1,-2,3.235
648,-1,-2,8,-5,-3,-2,-1,-4,3.24
649,0,1,11,-1,-2,0,-2,-1,3.245
650,-1,-1,-6,-2,0,-1,0,0,3.25
651,-1,-2,-4,1,0,-1,-1,0,3.255
652,0,-2,-4,-5,-2,-2,-3,1,3.2600000000000002
653,-2,0,7,6,-1,-1,0,1,3.265
654,0,-3,-12,-9,-1,0,0,0,3.27
655,-2,0,-5,-5,-2,-1,0,-1,3.275
656,-2,1,-2,-2,1,0,0,-1,3.2800000000000002
657,-2,-1,5,0,-1,-2,1,-2,3.285
658,-1,-2,-6,-1,1,0,1,1,3.29
659,0,1,6,5,0,0,-1,-2,3.295
660,-1,-1,-8,-1,0,0,0,-1,3.3000000000000003
661,-1,-1,-3,-3,-2,0,-1,0,3.305
662,-2,0,4,2,-1,-3,-1,-4,3.31
663,0,-1,0,-2,-1,-1,0,0,3.315
664,-2,-3,-11,-12,-4,-2,-2,-3,3.3200000000000003
665,0,-2,-13,-6,-2,0,-2,0,3.325
666,-2,-2,1,1,0,-1,-1,0,3.33
667,-1,-2,0,4,0,0,-2,1,3.335
668,-1,1,10,5,0,0,0,0,3.34
669,-3,-7,-30,-8,-3,-2,-1,0,3.345
670,0,0,-1,-1,0,2,-1,1,3.35
671,-2,-1,-6,-13,-3,-2,-1,-2,3.355
672,-1,-1,7,4,-1,-1,-1,0,3.36
673,2,3,11,13,2,0,-1,-2,3.365
674,-2,-2,-7,-7,-3,-2,0,0,3.37
675,-2,-2,-8,-1,0,0,-2,-1,3.375
676,0,0,-4,-7,-1,1,0,1,3.38
677,0,2,24,-8,-2,-3,1,-2,3.3850000000000002
678,-2,-2,-11,0,-2,-2,0,-2,3.39
679,0,0,6,4,0,1,0,1,3.395
680,-2,-3,-12,-2,-2,-1,-1,-2,3.4
681,-1,2,25,12,0,-1,-1,-2,3.4050000000000002
682,0,0,-5,-2,1,0,0,0,3.41
683,-1,0,-1,1,0,0,0,0,3.415
684,-1,0,1,0,0,-2,-2,-1,3.42
685,0,-1,2,-2,0,0,-1,-1,3.4250000000000003
686,-1,-1,2,-1,-3,-2,-2,-1,3.43
687,-1,0,-3,0,-1,-2,0,-1,3.435
688,-3,-2,-7,-11,-3,-2,0,0,3.44
689,-1,0,-6,-5,-3,-1,1,-1,3.4450000000000003
690,-2,-2,1,-1,-1,-1,-1,0,3.45
691,1,0,-3,3,1,-1,-2,-1,3.455
692,-1,-2,-1,10,-2,-1,0,-1,3.46
693,-1,-2,-7,-5,-2,0,1,1,3.465
694,-1,0,3,-1,-2,-1,-1,0,3.47
695,0,-1,2,-1,-1,1,1,0,3.475
696,-1,-1,-5,5,0,0,-2,-1,3.48
697,-1,-3,-4,-9,-1,-2,-2,0,3.485
698,1,1,2,4,-1,-2,-3,-2,3.49
699,-2,-1,-1,3,0,1,0,-2,3.495
700,0,0,-6,-3,-3,-1,0,-1,3.5
701,-1,-2,-1,1,1,-1,-1,-1,3.505
702,-1,-1,-3,-11,0,0,-2,-3,3.5100000000000002
703,0,-1,9,1,0,-2,0,1,3.515
704,1,-2,-15,-1,0,-1,0,0,3.52
705,-1,1,-8,2,-1,-2,0,1,3.525
706,0,-2,1,1,-1,-2,0,-1,3.5300000000000002
707,0,-2,-4,-4,-1,-2,-2,0,3.535
708,-2,0,2,0,1,0,0,0,3.54
709,-3,-2,10,0,0,-1,-2,-2,3.545
710,-1,0,-1,1,-2,-1,0,3,3.5500000000000003
711,-2,2,2,-1,-1,0,-2,-2,3.555
712,-2,-1,2,-1,1,-1,1,-1,3.56
713,-1,1,7,-3,-2,-1,-2,0,3.565
714,1,-1,-2,0,1,0,0,0,3.5700000000000003
715,0,-2,1,3,0,-1,2,-1,3.575
716,-1,1,9,0,-1,-2,-1,-2,3.58
717,1,0,-8,-3,0,-2,-2,0,3.585
718,-1,0,8,3,0,0,-1,-2,3.59
719,-1,-2,-12,-4,-4,-3,-4,-1,3.595
720,-1,0,17,2,0,0,-1,0,3.6
721,0,0,2,2,2,-1,0,0,3.605
722,-4,-5,-17,-11,-4,-1,-1,-2,3.61
723,0,-2,-2,0,0,-1,-2,-1,3.615
724,0,1,7,-1,-1,-1,-1,-1,3.62
725,-2,0,-4,3,-1,1,1,-1,3.625
726,0,1,1,2,1,-1,-3,-2,3.63
727,-1,0,-2,3,-1,0,0,0,3.6350000000000002
728,0,-1,-4,-4,-3,-3,-2,-2,3.64
729,0,0,-6,1,0,1,1,0,3.645
730,-2,-3,-10,-1,-2,-1,1,0,3.65
731,-2,-1,2,0,1,-1,1,1,3.6550000000000002
732,-1,-1,0,1,0,-1,0,0,3.66
733,-2,-3,-12,-5,-2,-3,-3,-2,3.665
734,0,-1,2,3,1,2,2,0,3.67
735,-1,2,14,-7,-2,-1,0,-2,3.6750000000000003
736,-2,-4,-23,1,-2,-2,-3,0,3.68
737,-1,-4,-4,-3,-1,-2,-3,-2,3.685
738,0,-2,9,6,0,-3,-3,-1,3.69
739,-1,-2,-7,-3,-1,0,1,0,3.6950000000000003
740,0,0,-1,-1,0,-1,2,1,3.7
741,1,1,7,0,-1,-1,-2,-1,3.705
742,-1,1,-1,1,-2,0,-1,0,3.71
743,-1,-2,0,2,-1,-1,-2,0,3.715
744,0,-1,6,1,0,-2,1,-2,3.72
745,-1,-2,-4,-5,-1,-1,-1,0,3.725
746,-1,-1,-3,0,-1,2,1,-1,3.73
747,0,-2,-4,-2,-1,0,-1,0,3.735
748,0,-1,-4,1,0,-1,-2,1,3.74
749,-1,-1,2,0,-1,-3,-2,-1,3.745
750,0,1,0,-1,-2,0,-1,-2,3.75
751,-1,0,-3,0,1,-1,-1,-3,3.755
752,-1,0,14,0,-3,-1,-3,-1,3.7600000000000002
753,-2,-2,-26,-2,-3,-1,-1,1,3.765
754,-1,0,8,8,2,-1,0,1,3.77
755,1,0,-12,-5,-1,1,0,-1,3.775
756,-1,-2,-4,-1,-1,0,0,1,3.7800000000000002
757,-1,1,14,-1,0,-1,1,-2,3.785
758,-2,-2,-6,-2,-1,-3,-3,-2,3.79
759,-1,-4,-1,0,-1,-1,-3,0,3.795
760,0,0,-4,-2,2,1,2,1,3.8000000000000003
761,-1,0,10,4,0,0,-2,0,3.805
762,-1,-1,-6,-3,-1,0,0,-1,3.81
763,-2,1,4,6,-1,-2,-2,-3,3.815
764,-1,-1,-10,-12,-3,0,1,0,3.8200000000000003
765,0,-1,-2,0,0,-1,0,0,3.825
766,-1,-1,1,-3,-1,-2,0,-2,3.83
767,-1,-2,-2,2,1,-3,0,-1,3.835
768,0,1,-2,-3,-2,-1,-2,0,3.84
769,0,-4,7,2,-1,0,1,-1,3.845
770,0,-1,-4,-8,-4,-2,-1,-2,3.85
771,0,0,-5,-4,-2,0,-2,-1,3.855
772,0,-1,3,7,1,1,0,0,3.86
773,-1,0,6,0,-1,-1,0,0,3.865
774,-2,0,-1,0,-1,-1,-3,0,3.87
775,-1,-1,3,-1,-1,-1,-1,0,3.875
776,0,-2,1,-1,0,1,0,-2,3.88
777,-1,0,-1,0,-2,0,0,0,3.8850000000000002
778,-1,-1,-4,-3,0,-1,1,-1,3.89
779,-1,1,0,-2,-2,-2,-1,-2,3.895
780,0,-1,2,0,-1,-2,0,-2,3.9
781,-2,0,-1,-1,1,-1,-2,0,3.9050000000000002
782,1,-2,-7,1,1,1,-2,-1,3.91
783,-1,-1,8,0,-1,2,-1,0,3.915
784,-3,1,-5,-2,0,-1,-3,1,3.92
785,0,-2,-18,-4,-1,-1,-2,-2,3.9250000000000003
786,0,-1,7,1,-2,-1,0,0,3.93
787,-2,-1,1,-2,-1,-2,0,-2,3.935
788,-1,-2,5,1,-1,-1,1,-2,3.94
789,0,1,1,0,-3,-3,-2,0,3.9450000000000003
790,1,0,7,5,1,1,-1,0,3.95
791,0,-5,-3,-1,0,1,0,0,3.955
792,1,3,3,-3,-2,-2,-3,-2,3.96
793,-2,0,4,-3,0,-1,-1,-2,3.9650000000000003
794,0,0,-2,-1,0,-1,0,-1,3.97
795,-2,1,2,6,-2,-3,0,-1,3.975
796,0,-1,-1,-9,-1,-2,0,-1,3.98
797,0,2,-28,-2,1,1,2,-1,3.985
798,-2,-4,3,0,0,-1,1,0,3.99
799,0,0,0,-1,0,1,-2,-1,3.995
800,-2,-2,-2,-1,-3,-1,0,-2,4.0
801,-1,0,-2,-2,-2,-1,-2,-2,4.005
802,0,0,3,-1,-2,-2,0,0,4.01
803,-1,5,0,-1,-2,-1,-1,-1,4.015
804,-1,-4,-2,4,2,3,1,0,4.0200000000000005
805,-2,-4,4,-4,-1,0,0,0,4.025
806,-1,0,-2,1,-1,-2,-2,-1,4.03
807,-1,-2,1,-3,-2,-3,-1,-1,4.035
808,-1,-1,-16,0,-1,-1,-3,-2,4.04
809,0,1,15,3,0,0,-1,0,4.045
810,0,1,6,1,0,1,-1,-1,4.05
811,-1,-7,-2,-12,-2,-2,0,1,4.055
812,-1,2,-1,-1,-3,-2,-2,-1,4.0600000000000005
813,-1,-5,1,-1,-2,-2,-1,-1,4.065
814,0,0,-5,-4,-1,-1,0,-2,4.07
815,1,2,5,7,2,0,-2,-1,4.075
816,-2,1,6,1,0,-2,-1,-2,4.08
817,-1,-6,-3,1,0,1,-1,-1,4.085
818,-2,2,1,-5,-5,-3,-1,-1,4.09
819,-2,5,2,2,1,0,0,-2,4.095
820,-1,-10,-3,0,-1,0,0,0,4.1
821,2,7,6,1,2,0,-1,-1,4.105
822,-4,-4,-7,-3,0,0,-1,-3,4.11
823,0,-2,-4,-1,-3,-1,1,-2,4.115
824,1,-2,-1,-1,-1,-1,1,-2,4.12
825,-3,-4,5,0,-1,0,0,-2,4.125
826,-1,-1,-14,-4,0,0,0,0,4.13
827,0,0,-4,1,-1,-3,-2,-1,4.135
828,0,-1,-4,-1,-1,1,-1,0,4.14
829,2,0,1,2,0,-1,0,0,4.1450000000000005
830,1,3,2,2,-2,-1,-2,-1,4.15
831,-1,-3,9,5,0,-1,-1,-1,4.155
832,-3,2,-10,-8,-4,-2,-2,-1,4.16
833,-1,1,-6,-6,-1,0,-1,-1,4.165
834,-1,-3,2,5,1,1,2,0,4.17
835,0,4,1,0,1,1,1,0,4.175
836,-2,-15,3,1,-1,-1,-2,-1,4.18
837,-2,-2,-7,-5,-2,-3,-1,0,4.1850000000000005
838,-1,-2,3,0,-1,-2,-1,-2,4.19
839,-2,-2,7,-6,-2,-1,-1,-2,4.195
840,0,1,-21,-3,2,1,1,2,4.2
841,-1,-3,2,-3,-2,-1,-1,-1,4.205
842,0,-1,-10,-4,-2,-1,0,0,4.21
843,-2,-1,-2,-2,-2,-2,-2,0,4.215
844,-2,2,4,0,0,-3,0,0,4.22
845,-1,-3,1,-1,-1,-1,-1,0,4.225
846,-1,2,2,0,-1,-1,-2,0,4.23
847,0,-3,-11,-1,1,0,-1,0,4.235
848,0,5,25,3,1,1,1,-2,4.24
849,-2,-3,-30,-1,-2,0,-1,-3,4.245
850,-1,-4,2,1,0,-2,2,-1,4.25
851,0,1,-2,-1,0,1,0,2,4.255
852,0,2,4,1,-2,-2,0,-2,4.26
853,2,6,8,-4,-2,0,-1,-1,4.265
854,-4,-14,-5,-2,0,-1,-1,-2,4.2700000000000005
855,-2,-7,-7,1,-2,-2,-1,0,4.275
856,-1,-1,6,4,-1,-2,-1,0,4.28
857,-2,-2,2,-4,2,1,1,-1,4.285
858,0,1,-21,-5,-1,1,0,1,4.29
859,-1,3,7,7,0,0,0,0,4.295
860,0,2,1,1,0,-1,-1,1,4.3
861,0,1,7,2,-1,-2,0,0,4.305
862,-2,3,11,1,-1,0,-3,-3,4.3100000000000005
863,0,-4,-1,-4,-3,-2,-1,-4,4.315
864,-3,1,-18,-9,-3,1,0,-2,4.32
865,0,3,5,8,2,2,1,1,4.325
866,2,-2,2,-3,-1,1,-1,2,4.33
867,-1,0,-3,-1,-1,0,-2,-1,4.335
868,0,-2,-1,2,-3,-1,-2,-2,4.34
869,-1,5,9,2,-2,-2,-3,-1,4.345
870,-1,-1,4,1,0,-1,-1,-1,4.3500000000000005
871,1,0,2,-1,-1,0,0,0,4.355
872,0,-3,2,0,1,-2,0,-1,4.36
873,-1,-5,-6,-3,-2,0,0,-1,4.365
874,-1,3,3,1,-1,-2,-2,-1,4.37
875,-1,2,-5,-7,1,0,-2,-1,4.375
876,-1,-3,-2,10,0,1,-2,-1,4.38
877,0,-2,-9,-8,-2,-2,-1,0,4.385
878,1,2,2,-1,-1,0,0,-1,4.39
879,-1,1,-23,-6,0,1,-1,-2,4.3950000000000005
880,-2,-11,0,-1,-1,-2,-1,-1,4.4
881,-2,-2,0,1,2,-1,0,-2,4.405
882,-3,-1,-8,1,-2,-1,0,-1,4.41
883,0,-1,4,6,0,-2,-2,-1,4.415
884,1,6,1,-12,-2,-1,-2,0,4.42
885,0,-3,-2,1,-1,-1,-2,0,4.425
886,-1,-1,-1,-3,0,0,0,-2,4.43
887,-1,-1,6,4,1,1,0,1,4.4350000000000005
888,-2,3,2,2,0,1,-1,0,4.44
889,0,-3,1,-2,-3,-1,-1,0,4.445
890,0,1,2,1,-1,-1,-1,0,4.45
891,0,-3,0,3,0,-1,0,-2,4.455
892,-1,1,0,-4,-2,-2,1,-1,4.46
893,-2,1,1,0,0,0,-1,-1,4.465
894,-2,-6,-3,-1,0,-1,-2,-1,4.47
895,-2,-1,1,-1,-2,-4,0,-2,4.4750000000000005
896,-1,1,0,-2,-3,-1,-2,-1,4.48
897,-1,0,-4,0,1,-1,-2,-1,4.485
898,1,0,1,-3,-4,0,-2,-2,4.49
899,-2,-2,-4,-6,-2,0,0,0,4.495
900,0,3,6,0,-1,0,-1,0,4.5
901,-3,-2,-1,2,-1,-2,0,-1,4.505
902,-1,3,10,-1,0,-1,-1,0,4.51
903,1,2,7,-1,0,-1,-1,1,4.515
904,-2,-3,-19,-6,-2,-3,-2,-3,4.5200000000000005
905,-1,-3,-6,-5,-1,3,1,-1,4.525
906,-2,-1,10,1,-1,-1,-1,-1,4.53
907,-3,-2,-2,-2,-3,-2,-2,-3,4.535
908,0,-1,-4,-1,0,1,0,-2,4.54
909,-1,2,1,1,-2,-2,-3,0,4.545
910,0,-1,-11,-3,-1,-1,0,0,4.55
911,-1,-2,-5,-2,0,1,0,0,4.555
912,-2,-1,-1,0,0,0,1,-1,4.5600000000000005
913,0,-3,-7,-1,-2,-1,0,-2,4.565
914,0,1,4,4,0,0,-1,-1,4.57
915,-1,-2,-3,-1,0,0,-2,0,4.575
916,0,2,3,0,0,2,0,0,4.58
917,-2,-2,-11,0,-3,-2,1,-3,4.585
918,0,1,2,2,0,-1,1,1,4.59
919,-1,-1,-3,-2,-1,-2,-1,-1,4.595
920,0,-2,-5,-4,-2,-1,0,0,4.6000000000000005
921,0,-2,5,0,-1,-1,-1,0,4.605
922,0,3,0,-1,0,-1,0,0,4.61
923,-2,-4,-10,0,0,0,0,-2,4.615
924,0,-2,5,-1,2,-1,-1,-2,4.62
925,0,1,-2,-4,1,-1,-1,-2,4.625
926,0,-2,5,-2,-3,0,-1,-2,4.63
927,0,0,6,-1,-1,1,1,1,4.635
928,1,2,-2,-1,-1,0,0,1,4.64
929,0,-1,13,3,-2,-2,-1,0,4.6450000000000005
930,-3,-1,-3,0,-1,-1,-1,-1,4.65
931,0,1,-2,2,-1,-1,-2,-1,4.655
932,1,0,0,0,0,-1,-1,-1,4.66
933,0,2,2,-3,0,0,-1,0,4.665
934,-1,-2,-2,0,0,-2,-3,-2,4.67
935,1,0,0,2,-2,-3,0,-1,4.675
936,0,-1,4,0,-1,-2,-1,-2,4.68
937,-1,1,-1,0,0,0,0,-2,4.6850000000000005
938,0,-1,-2,-2,1,1,1,-1,4.69
939,-2,-2,-2,0,0,0,0,0,4.695
940,-2,0,-2,0,-1,-1,0,0,4.7
941,1,0,14,2,-1,0,0,0,4.705
942,-1,-2,-10,-3,-1,0,-1,0,4.71
943,-1,-2,-1,-2,-1,-2,-2,-1,4.715
944,-2,-2,-7,-5,-1,-2,-2,0,4.72
945,-2,0,5,-1,1,0,1,1,4.7250000000000005
946,0,2,3,3,-2,-2,0,0,4.73
947,0,-2,-1,-1,-1,-1,1,-1,4.735
948,1,0,1,3,0,-1,1,0,4.74
949,0,-3,0,1,-2,-2,-1,-1,4.745
950,-2,-1,-3,-3,-1,0,0,-2,4.75
951,-3,-1,-9,-5,-1,0,-1,-3,4.755
952,-1,-3,13,6,-1,1,-1,0,4.76
953,0,0,-1,0,-1,-1,0,-1,4.765
954,-1,0,-6,-3,-4,-2,0,0,4.7700000000000005
955,1,0,12,4,-1,0,0,0,4.775
956,1,-1,-11,-4,-1,0,-2,-2,4.78
957,-2,-3,-2,-4,-1,-1,-2,-1,4.785
958,0,0,3,7,-1,-1,-1,-1,4.79
959,-1,0,-5,-8,-1,0,-1,0,4.795
960,-1,1,11,1,-2,0,0,1,4.8
961,-1,-4,-24,-1,0,-2,-3,-2,4.805
962,0,0,-9,-1,-1,-2,-2,0,4.8100000000000005
963,1,-1,7,4,1,0,1,0,4.815
964,-2,-2,-4,-4,0,-1,-2,-2,4.82
965,0,-1,2,-2,-2,0,0,-1,4.825
966,0,-1,-1,-1,0,0,0,-1,4.83
967,-1,-2,-4,2,-1,-2,-2,0,4.835
968,-1,-1,-5,-1,2,0,0,1,4.84
969,-2,1,10,3,0,0,0,0,4.845
970,-2,-2,6,-3,0,-1,-2,-2,4.8500000000000005
971,-2,-1,3,-1,-1,1,1,0,4.855
972,-1,0,-4,2,-1,-2,0,-2,4.86
973,-1,-1,-8,-3,-1,1,-2,0,4.865
974,1,-3,2,0,-2,0,0,0,4.87
975,-1,-2,0,0,-2,-1,-1,-1,4.875
976,-2,-2,1,1,-2,-2,-2,0,4.88
977,-1,-3,-4,0,-1,-1,1,-2,4.885
978,-1,0,0,2,1,0,-1,-2,4.89
979,0,-1,-9,-14,-2,0,0,-2,4.8950000000000005
980,0,0,4,0,-1,-1,0,-1,4.9
981,-2,-5,-15,-3,-1,-2,-2,-1,4.905
982,-1,0,-3,-1,1,0,0,-1,4.91
983,0,4,13,7,-1,-1,-3,-1,4.915
984,0,-2,7,-1,-2,1,1,-1,4.92
985,0,1,12,2,1,0,0,0,4.925
986,-2,-2,-5,-2,-2,-1,-2,0,4.93
987,-1,0,-3,-1,0,-1,0,0,4.9350000000000005
988,-2,1,4,3,-2,-2,-3,-1,4.94
989,0,-1,4,0,-2,-2,-1,-3,4.945
990,-1,-1,9,0,0,0,-1,-1,4.95
991,-1,2,-2,0,-1,0,0,-1,4.955
992,-1,-5,-16,-3,1,0,0,0,4.96
993,-2,-1,-2,-4,-1,-1,-1,-1,4.965
994,-1,-1,-5,-3,-1,-2,-1,0,4.97
995,1,-4,-5,-3,-2,-1,-1,-1,4.9750000000000005
996,-1,-1,-4,1,0,-1,0,0,4.98
997,0,1,0,-2,-1,-1,-1,0,4.985
998,0,0,3,1,-1,0,0,-2,4.99
999,-3,-1,0,-3,-1,0,0,-2,4.995
1000,-1,-1,5,3,-1,0,0,0,5.0
1001,0,-1,0,-2,0,-1,-1,-1,5.005
1002,0,0,12,-3,-1,-1,-2,-2,5.01
1003,-2,-3,-2,0,2,0,-1,-1,5.015
1004,1,0,-5,2,1,-1,-2,-2,5.0200000000000005
1005,0,0,7,4,-1,0,-1,1,5.025
1006,-2,-4,-22,-5,-2,-2,-1,1,5.03
1007,0,1,5,0,1,0,1,-1,5.035
1008,-1,2,4,0,-1,-3,-1,-2,5.04
1009,-1,1,3,1,2,-1,0,-3,5.045
1010,0,-1,-2,3,-1,0,-2,-1,5.05
1011,0,-1,-11,-3,-2,0,-1,-1,5.055
1012,0,-2,-3,-4,-2,-1,-1,-1,5.0600000000000005
1013,-1,3,2,-5,-1,2,-1,1,5.065
1014,-3,-5,-10,-2,-4,-2,-1,-1,5.07
1015,-1,-3,-10,-1,-1,-3,0,0,5.075
1016,0,1,11,0,0,1,0,-1,5.08
1017,-2,-1,-9,0,-2,-1,0,-1,5.085
1018,0,0,3,-3,0,0,-1,-1,5.09
1019,0,1,12,1,1,0,2,0,5.095
1020,-1,-1,-3,0,-3,0,-2,-1,5.1000000000000005
1021,-1,-2,0,-1,-2,-2,0,-2,5.105
1022,0,-2,-5,0,2,-1,-1,-1,5.11
1023,-1,1,2,0,-2,-2,-2,-1,5.115
1024,-2,1,4,-3,-1,0,0,-1,5.12
1025,-2,-1,-2,-1,1,2,-2,1,5.125
1026,0,-1,4,2,-3,-1,-1,-1,5.13
1027,-2,-3,1,-1,-1,-1,-3,0,5.135
1028,0,-1,-1,2,1,1,1,-1,5.14
1029,-1,0,0,3,-1,-1,0,-2,5.1450000000000005
1030,-1,2,6,-4,0,-2,-1,-1,5.15
1031,-2,-2,-16,3,0,0,0,-2,5.155
1032,-3,-5,-34,-9,-2,-2,-2,-2,5.16
1033,-2,-2,3,0,0,-1,-1,-2,5.165
1034,-1,1,16,1,-1,-1,-1,-1,5.17
1035,1,0,8,1,-1,-1,-3,0,5.175
1036,-1,0,5,-1,-2,-2,0,-1,5.18
1037,0,-3,-11,-2,-1,0,0,1,5.1850000000000005
1038,-1,-2,-4,1,-1,2,0,0,5.19
1039,-1,3,-10,-5,-3,-2,-3,-1,5.195
1040,1,-6,-1,-1,1,-1,-1,0,5.2
1041,1,0,0,1,-1,-1,-1,-1,5.205
1042,-2,-2,-10,-10,-3,-3,0,-2,5.21
1043,-1,-2,2,-1,-1,-3,-1,0,5.215
1044,0,0,5,3,1,3,0,-1,5.22
1045,-2,-2,-6,-5,-3,-3,0,-2,5.2250000000000005
1046,-2,0,-8,0,-2,-1,-1,0,5.23
1047,-1,-1,-5,-2,0,0,2,-1,5.235
1048,-1,1,4,0,-1,-1,-1,-1,5.24
1049,-1,-1,3,1,0,-1,0,-1,5.245
1050,-1,-1,-4,1,-1,-1,-2,1,5.25
1051,0,-1,4,-4,-3,-1,-2,-2,5.255
1052,-1,1,5,5,1,-1,-1,1,5.26
1053,-1,-1,2,-5,-2,1,0,1,5.265
1054,2,0,-3,5,1,-1,0,1,5.2700000000000005
1055,0,-2,0,-7,-1,-1,-1,-1,5.275
1056,-2,0,-10,-5,0,0,0,0,5.28
1057,-2,0,12,3,-1,-2,-2,-1,5.285
1058,-2,0,4,-2,-1,-1,-1,-1,5.29
1059,0,-5,-4,2,1,1,-1,-1,5.295
1060,0,0,-2,-2,-5,-2,-1,-2,5.3
1061,0,1,-19,-2,-1,-3,-2,0,5.305
1062,1,1,6,1,0,0,-1,-1,5.3100000000000005
1063,-3,-2,-4,-7,-4,-2,-2,0,5.315
1064,0,0,2,0,-1,-3,0,0,5.32
1065,0,-1,3,-4,-1,0,-2,-2,5.325
1066,-1,0,0,0,0,-1,0,0,5.33
1067,-1,0,-2,4,0,1,0,-1,5.335
1068,0,0,-1,1,-1,-1,-2,0,5.34
1069,0,0,-9,0,0,0,2,0,5.345
1070,-1,0,-3,-1,0,-1,0,-2,5.3500000000000005
1071,-2,0,4,1,-2,-2,-1,-1,5.355
1072,-3,-3,-1,-3,-1,-1,-1,-1,5.36
1073,0,-1,5,0,0,-1,-1,0,5.365
1074,0,0,-3,2,0,1,-1,0,5.37
1075,0,1,1,4,-1,1,1,1,5.375
1076,0,0,2,-2,-1,-1,-3,0,5.38
1077,-3,1,4,-1,0,1,-1,0,5.385
1078,-2,-2,1,-2,-1,0,-2,0,5.39
1079,-1,-2,-5,0,0,0,-2,-1,5.3950000000000005
1080,1,-1,3,-6,-1,2,0,-1,5.4
1081,-1,-2,-1,2,-3,-2,-2,-1,5.405
1082,0,-2,-2,-3,0,-2,-1,-2,5.41
1083,1,1,9,4,2,2,1,1,5.415
1084,-1,-3,3,0,-1,-3,-1,-1,5.42
1085,0,-1,-3,-1,-2,-1,0,0,5.425
1086,0,-2,1,0,-1,-1,0,-1,5.43
1087,-1,-1,-4,-5,-2,-2,-1,-1,5.4350000000000005
1088,2,-1,-17,-2,0,-1,0,0,5.44
1089,-2,1,5,2,0,-2,-1,-1,5.445
1090,-1,-1,-7,-2,-2,-1,0,-2,5.45
1091,-2,-1,0,-4,-1,-1,-2,-2,5.455
1092,0,0,2,2,-2,-1,0,-2,5.46
1093,-1,-2,-14,-4,-1,0,-2,-1,5.465
1094,1,-1,2,1,0,0,-1,-1,5.47
1095,0,0,7,0,1,0,0,0,5.4750000000000005
1096,-3,1,-7,-1,-2,-2,1,-1,5.48
1097,1,0,9,3,1,0,0,1,5.485
1098,0,1,-3,-5,0,2,-1,1,5.49
1099,0,-2,0,2,0,-1,-2,0,5.495
1100,-1,-2,11,1,0,-1,0,-2,5.5
1101,2,-3,-1,-2,-1,0,0,-2,5.505
1102,-2,-1,-3,-1,0,0,-1,-3,5.51
1103,0,0,-2,1,-3,-2,-1,-2,5.515
1104,0,2,5,1,1,4,0,0,5.5200000000000005
1105,0,-4,-25,-11,0,0,-1,1,5.525
1106,-1,0,11,1,-2,-2,-1,-2,5.53
1107,1,-3,-7,1,-1,1,-1,-1,5.535
1108,-2,-2,-5,-1,-1,-2,-3,-1,5.54
1109,-2,-1,4,4,-1,0,1,-1,5.545
1110,0,-1,-3,2,0,-1,-2,1,5.55
1111,-4,-1,-12,-14,-2,-1,-1,-2,5.555
1112,0,-1,-4,0,-2,-3,0,-1,5.5600000000000005
1113,-1,-1,0,4,-1,-2,-2,-3,5.565
1114,-1,0,2,4,-2,-1,0,-2,5.57
1115,-1,-2,-21,-3,-1,-1,0,-1,5.575
1116,-1,-1,12,-4,0,1,0,0,5.58
1117,-2,0,-2,-2,-1,-1,-1,-1,5.585
1118,-2,-2,-7,-4,0,-1,-1,0,5.59
1119,2,0,13,8,0,0,-2,1,5.595
1120,0,-1,-7,4,-1,-2,-2,-1,5.6000000000000005
1121,-1,0,1,-1,-1,-1,1,-1,5.605
1122,0,1,11,1,0,1,0,-2,5.61
1123,-1,1,1,-4,-3,-2,-2,-2,5.615
1124,-2,-1,-8,-1,0,-2,-1,0,5.62
1125,0,-1,7,-2,-1,0,0,0,5.625
1126,-1,-1,-7,-3,-1,-2,-1,0,5.63
1127,-1,0,4,3,-1,1,1,-2,5.635
1128,0,0,-6,-1,-1,-1,-2,-1,5.64
1129,-1,-1,6,2,-2,0,-5,-2,5.6450000000000005
1130,0,-1,8,-2,-1,1,0,0,5.65
1131,-3,-2,-7,-2,-1,-2,-1,1,5.655
1132,0,0,8,1,-1,-1,1,1,5.66
1133,-1,-1,-3,-1,-2,0,0,0,5.665
1134,0,-2,-7,1,-2,-3,-1,-1,5.67
1135,-1,-1,-5,2,0,0,-1,-1,5.675
1136,-1,-2,-6,-8,0,0,0,-1,5.68
1137,0,0,7,3,-1,-1,-1,-1,5.6850000000000005
1138,-1,0,-7,0,-1,-1,-2,-2,5.69
1139,1,-1,7,4,1,1,0,0,5.695
1140,-1,0,0,0,0,-1,-2,0,5.7
1141,-1,1,-3,-4,0,-2,0,0,5.705
1142,1,0,3,-4,-2,-3,-3,-2,5.71
1143,-1,1,5,-1,0,1,0,-2,5.715
1144,1,-1,-2,-2,0,1,1,-1,5.72
1145,0,1,23,4,-2,-1,0,-1,5.7250000000000005
1146,-2,-2,-6,-3,0,-1,-1,0,5.73
1147,-1,0,3,-3,-1,-1,0,-3,5.735
1148,-2,-2,-3,-1,-2,0,-1,-1,5.74
1149,0,1,-6,-1,1,2,2,-1,5.745
1150,-2,-1,5,-1,-1,-2,-1,0,5.75
1151,0,0,18,4,0,-1,-1,1,5.755
1152,0,-1,-8,-1,1,1,1,-2,5.76
1153,-3,-4,-11,-2,1,-2,-1,0,5.765
1154,-1,-1,-3,-2,1,1,0,-1,5.7700000000000005
1155,2,0,2,1,-3,-1,-2,-1,5.775
1156,0,-1,6,1,-1,-1,-2,-2,5.78
1157,-1,1,-9,-3,1,3,1,0,5.785
1158,-1,-2,3,3,-1,2,3,-1,5.79
1159,-1,-4,-11,0,0,-3,-1,-1,5.795
1160,-1,-1,1,-2,-1,-3,-1,0,5.8
1161,0,-1,-5,-2,-3,-2,-1,1,5.805
1162,1,0,-3,-1,-2,-1,-1,-1,5.8100000000000005
1163,-2,-1,-3,-3,-2,1,-1,-2,5.815
1164,-3,-1,0,-1,-1,0,-1,0,5.82
1165,-1,-4,-4,-1,0,1,1,-1,5.825
1166,0,1,7,5,0,0,1,1,5.83
1167,-1,-5,-22,-16,-4,-2,-1,-1,5.835
1168,-1,-1,1,3,-1,-1,-1,-1,5.84
1169,0,0,2,-1,-2,-3,-2,0,5.845
1170,-1,-1,-10,-9,-1,0,-1,0,5.8500000000000005
1171,-1,1,5,3,0,1,1,-1,5.855
1172,0,-3,-13,0,-3,-2,-2,-1,5.86
1173,-1,-1,8,-7,-2,-2,-2,-2,5.865
1174,-1,-5,-30,2,-1,-1,0,-2,5.87
1175,0,2,5,4,1,0,0,0,5.875
1176,-1,-1,2,-4,-3,-1,-1,-1,5.88
1177,-1,-2,0,3,0,0,1,-1,5.885
1178,-1,0,3,0,1,-1,0,0,5.89
1179,-1,0,1,-2,1,0,-2,0,5.8950000000000005
1180,0,-1,3,2,-1,-2,-1,1,5.9
1181,0,0,-1,0,0,-1,-1,-1,5.905
1182,-1,-2,1,-2,0,0,-2,0,5.91
1183,0,-2,4,1,-2,-1,-2,-1,5.915
1184,0,-1,6,-1,0,-2,-2,-1,5.92
1185,-2,-2,-9,-3,-1,-1,-2,-3,5.925
1186,-1,-1,-4,-5,-2,2,0,-1,5.93
1187,-1,2,1,4,1,1,1,2,5.9350000000000005
1188,-1,0,3,0,-3,-1,0,-1,5.94
1189,-3,1,2,1,-1,-2,0,-2,5.945
1190,0,-2,4,5,0,-2,0,1,5.95
1191,-1,-4,-29,-16,-1,-1,-2,-1,5.955
1192,-1,0,4,2,1,1,0,0,5.96
1193,-1,-3,-20,-4,-1,-1,-1,-1,5.965
1194,-2,-1,-4,-8,-3,-3,-2,-3,5.97
1195,-2,0,3,5,-2,0,0,0,5.9750000000000005
1196,-1,3,0,-1,0,1,0,-1,5.98
1197,0,0,0,1,1,0,-1,-1,5.985
1198,-1,0,5,0,-2,-3,0,1,5.99
1199,-1,-1,1,1,-1,-2,0,-2,5.995
1200,-1,-3,-15,-6,-2,-1,-2,0,6.0
1201,0,1,9,3,-1,0,0,0,6.005
1202,-2,0,2,-1,-2,1,-1,-1,6.01
1203,-1,-1,3,2,-1,0,-2,-1,6.015000000000001
1204,-4,-1,-1,-5,-2,-2,-1,-1,6.0200000000000005
1205,0,0,-5,-2,-1,-1,-1,1,6.025
1206,-1,2,23,-1,0,-1,-1,1,6.03
1207,-2,0,-7,1,-2,-3,-2,-2,6.035
1208,-2,-1,-6,0,2,0,0,-2,6.04
1209,-2,-3,0,-2,-1,-1,-1,-2,6.045
1210,0,1,3,3,0,-2,0,-2,6.05
1211,-1,1,22,-2,1,1,-1,0,6.055
1212,-1,-5,-9,-2,-2,-1,-1,0,6.0600000000000005
1213,0,-2,-1,0,-1,-2,-1,-1,6.065
1214,0,0,-6,-2,1,1,-1,0,6.07
1215,0,0,11,3,-1,-2,0,-2,6.075
1216,0,0,1,3,0,-1,0,2,6.08
1217,1,0,-2,0,-2,-1,0,0,6.085
1218,-2,-2,-4,0,0,-2,-4,-1,6.09
1219,0,-1,-5,-1,-1,-1,0,-1,6.095
1220,-1,-2,3,0,0,-2,-2,-2,6.1000000000000005
1221,1,-3,-5,-1,-1,-2,0,-2,6.105
1222,-1,-3,-10,3,-1,0,-2,-2,6.11
1223,0,-2,8,-3,-1,-1,-2,0,6.115
1224,-2,2,6,1,0,1,0,-1,6.12
1225,0,0,1,-1,-1,-1,-1,0,6.125
1226,-1,-2,-3,-2,-1,-1,-1,-1,6.13
1227,-1,-2,-4,-2,-1,0,0,-3,6.135
1228,0,1,0,2,-1,-1,-2,-1,6.140000000000001
1229,-2,-2,7,-3,-1,1,0,1,6.1450000000000005
1230,-1,-1,-1,-1,-1,-2,0,-1,6.15
1231,-1,0,-3,1,-3,-2,-1,-1,6.155
1232,-1,0,4,1,1,0,1,0,6.16
1233,-3,0,-6,-2,0,0,-1,0,6.165
1234,-2,-1,-1,-1,0,0,0,0,6.17
1235,-1,-1,-7,-2,-2,0,-2,-1,6.175
1236,-1,-3,-22,-5,-2,-1,-1,-2,6.18
1237,0,-1,-2,0,-2,0,-1,0,6.1850000000000005
1238,-1,-1,-1,-1,1,1,0,-2,6.19
1239,1,-2,-4,2,0,-2,-2,0,6.195
1240,-2,1,4,0,-3,-2,0,-1,6.2
1241,-1,0,1,0,-1,-2,-1,0,6.205
1242,0,0,-1,1,-2,-1,-2,-2,6.21
1243,0,-1,1,-2,-1,-1,-1,-1,6.215
1244,0,-1,-2,3,1,0,0,-1,6.22
1245,-1,0,-1,-1,0,-1,-1,-2,6.2250000000000005
1246,0,2,-2,1,1,-1,-1,-1,6.23
1247,-1,-1,0,3,2,0,-2,-1,6.235
1248,1,-1,5,-3,-1,-3,-2,-1,6.24
1249,-1,1,15,0,-1,-2,-1,-2,6.245
1250,1,-1,-6,-2,0,2,1,-1,6.25
1251,-2,-1,0,0,2,2,1,0,6.255
1252,0,-1,-1,-3,-2,1,-1,0,6.26
1253,-1,2,1,1,0,-2,0,-1,6.265000000000001
1254,-1,-2,6,-1,-1,1,0,-1,6.2700000000000005
1255,-1,0,-5,-4,-1,-1,-1,-1,6.275
1256,1,-2,2,2,-1,-1,-2,-2,6.28
1257,0,1,-3,0,0,-1,-1,-1,6.285
1258,1,3,1,-1,1,1,2,1,6.29
1259,-2,0,5,-1,-2,0,0,1,6.295
1260,0,-2,-11,-2,-2,-3,-2,-3,6.3
1261,-2,-1,-3,0,-2,-1,-2,0,6.305
1262,0,0,-4,-6,-3,-3,0,-1,6.3100000000000005
1263,-1,-3,-1,-1,-1,-1,1,-1,6.315
1264,1,-2,4,-4,-1,-2,-1,-3,6.32
1265,-1,-3,-6,-1,0,0,-2,-1,6.325
1266,-2,-1,6,0,-2,-2,-2,-1,6.33
1267,-1,-3,-12,-4,-2,-3,0,0,6.335
1268,0,0,1,-1,-1,-1,-2,-1,6.34
1269,0,-2,-2,3,0,-1,0,0,6.345
1270,-1,-2,0,-2,-2,-1,0,0,6.3500000000000005
1271,1,-1,0,3,0,1,-1,-1,6.355
1272,-3,-1,1,1,0,2,2,0,6.36
1273,0,-3,0,-2,-4,-2,-2,-2,6.365
1274,0,-1,-4,2,-2,-1,-1,-1,6.37
1275,0,0,-6,-3,0,0,-1,0,6.375
1276,-1,0,6,0,-1,-1,-1,2,6.38
1277,-2,-1,-5,-1,1,1,0,-2,6.385
1278,-1,0,6,0,-1,0,-2,0,6.390000000000001
1279,0,0,0,0,-3,-3,-1,-2,6.3950000000000005
1280,-2,-1,-8,-1,-1,-1,-1,-2,6.4
1281,-1,-3,-4,-2,0,0,0,-1,6.405
1282,1,-2,3,0,0,0,-1,0,6.41
1283,-1,0,0,3,0,0,-1,-1,6.415
1284,-1,0,6,-4,0,-1,-1,-1,6.42
1285,-1,-1,0,2,-1,-4,-1,-1,6.425
1286,-4,-3,-3,-1,-1,-2,-1,-1,6.43
1287,-1,-1,4,3,1,0,-1,0,6.4350000000000005
1288,0,-2,-10,3,0,1,1,0,6.44
1289,0,-1,3,-1,-1,0,-2,-2,6.445
1290,-1,0,-2,-1,-2,-3,-1,-2,6.45
1291,-2,0,-2,-1,-1,0,1,1,6.455
1292,-1,1,7,1,-1,0,1,-1,6.46
1293,-1,1,-5,-1,0,-1,-1,-1,6.465
1294,1,-2,-4,0,-1,-2,-1,-1,6.47
1295,0,-2,0,-1,-1,-1,-2,-1,6.4750000000000005
1296,0,1,5,0,0,-1,0,-1,6.48
1297,-2,-2,-4,-2,-1,2,-2,0,6.485
1298,-1,-1,-2,-5,-1,0,-1,-1,6.49
1299,0,0,1,1,-1,-2,-1,-1,6.495
1300,-2,0,9,-5,-2,0,-1,1,6.5
1301,-3,-2,-9,-4,-2,-1,1,-1,6.505
1302,1,0,3,6,0,-1,0,-1,6.51
1303,0,-2,-2,-1,0,0,-2,-1,6.515000000000001
1304,-1,0,4,-1,-2,0,-1,-2,6.5200000000000005
1305,-2,0,7,-8,-2,-1,0,-1,6.525
1306,0,-1,-17,3,-1,-2,-1,1,6.53
1307,-1,1,-3,-4,-3,-3,-2,-2,6.535
1308,-1,-2,-5,-1,-1,0,-1,-2,6.54
1309,0,1,-1,1,-1,0,1,0,6.545
1310,-2,-4,-1,-3,-1,2,-1,0,6.55
1311,0,0,10,0,0,1,2,0,6.555
1312,-2,-2,-8,4,1,0,-1,-1,6.5600000000000005
1313,0,-2,0,-2,0,0,-2,-1,6.565
1314,-1,1,1,1,-2,-3,-3,0,6.57
1315,-1,-2,0,0,-1,0,0,-1,6.575
1316,0,0,-7,-2,-1,0,-1,-1,6.58
1317,-2,-1,8,3,0,-2,0,0,6.585
1318,0,-1,2,-3,-1,-1,-1,1,6.59
1319,-2,-3,-5,-2,-2,-2,-1,0,6.595
1320,-2,-1,-4,-1,-1,0,2,1,6.6000000000000005
1321,0,0,-3,-1,1,-1,-1,0,6.605
1322,-1,1,-1,-2,-1,-2,-1,-2,6.61
1323,1,1,8,8,1,1,0,0,6.615
1324,-1,-1,-26,-13,-2,0,-1,-1,6.62
1325,0,1,-3,-2,-1,0,-1,-1,6.625
1326,-2,-1,0,1,0,0,1,-1,6.63
1327,1,-2,-1,-3,-1,-3,-2,-2,6.635
1328,-1,-2,0,3,0,-2,-1,0,6.640000000000001
1329,-1,-1,2,1,0,1,0,0,6.6450000000000005
1330,-2,-3,1,0,0,-1,0,-2,6.65
1331,-2,-1,-6,-5,-5,-1,0,-1,6.655
1332,1,0,5,-3,-2,-1,-2,-1,6.66
1333,-1,-3,-30,1,-2,-3,-1,-1,6.665
1334,1,0,3,-2,1,0,0,0,6.67
1335,-3,1,-3,-2,-1,-1,-1,0,6.675
1336,-2,0,-1,0,0,1,1,0,6.68
1337,-1,1,4,-1,-1,-2,-2,0,6.6850000000000005
1338,-2,1,4,1,-1,-1,-1,1,6.69
1339,-2,-4,-3,0,-1,-3,-2,0,6.695
1340,-1,1,7,-3,1,0,-2,-1,6.7
1341,1,1,5,1,0,-1,-3,-1,6.705
1342,-1,-3,-3,-4,0,2,0,0,6.71
1343,0,-1,-4,0,1,1,1,2,6.715
1344,-1,1,4,4,-2,-3,-3,-1,6.72
1345,0,0,1,-3,-1,-2,-3,-2,6.7250000000000005
1346,0,-2,-1,-2,1,1,2,0,6.73
1347,1,0,-2,-3,0,-1,-1,-2,6.735
1348,0,-2,2,2,-1,-3,-3,0,6.74
1349,1,-2,-5,-1,1,-1,1,-1,6.745
1350,0,0,2,-1,-2,-3,-2,-3,6.75
1351,-1,-2,-18,-3,-1,0,-3,-2,6.755
1352,0,-2,-1,-1,-2,-2,-1,-1,6.76
1353,0,1,7,0,0,0,-1,0,6.765000000000001
1354,-1,-1,-3,-2,-2,0,-1,-2,6.7700000000000005
1355,-2,-2,3,-1,0,-1,-2,-2,6.775
1356,0,0,-4,-3,-1,-1,0,-2,6.78
1357,-1,-3,-7,2,-1,-2,-2,-1,6.785
1358,0,-1,3,0,-1,-2,-2,0,6.79
1359,-1,-2,-6,-2,-1,-1,1,-1,6.795
1360,-1,-2,1,0,1,1,1,0,6.8
1361,-1,0,4,-2,-1,0,2,0,6.805
1362,0,1,-3,1,-2,-1,-1,1,6.8100000000000005
1363,-1,-1,-1,-1,-2,-1,-1,0,6.815
1364,-1,-3,-5,-4,-2,-2,-2,-2,6.82
1365,-1,-3,-15,0,0,2,3,1,6.825
1366,-1,-2,9,-2,-2,-1,-3,-1,6.83
1367,-2,0,-8,-2,1,-1,-1,0,6.835
1368,-1,0,3,1,0,-1,-1,1,6.84
1369,0,-3,0,-5,-1,-3,-2,0,6.845
1370,0,0,7,6,-2,-1,0,-1,6.8500000000000005
1371,1,0,2,-4,-1,1,0,-1,6.855
1372,1,-1,3,1,0,1,1,-1,6.86
1373,0,1,7,0,-1,0,0,0,6.865
1374,0,-2,-9,-3,2,2,1,1,6.87
1375,-2,0,6,1,-2,-3,-2,1,6.875
1376,-1,-1,-10,6,-3,-3,-2,-1,6.88
1377,-2,2,-2,0,0,-2,1,-1,6.885
1378,-1,-2,-7,-3,1,-2,-1,-2,6.890000000000001
1379,0,0,3,2,-2,-1,0,-1,6.8950000000000005
1380,-1,0,4,2,2,1,0,-1,6.9
1381,-1,-1,4,-1,-1,0,-2,-2,6.905
1382,-1,1,-5,0,-1,0,-2,-2,6.91
1383,-3,-1,-2,-2,0,0,-1,0,6.915
1384,1,0,4,1,0,-1,-2,0,6.92
1385,-2,-1,7,-3,-2,-1,-1,-1,6.925
1386,-2,-2,-16,2,2,-1,0,-2,6.93
1387,1,-2,9,-1,0,1,-1,-1,6.9350000000000005
1388,0,1,0,-1,-1,-3,-1,1,6.94
1389,-1,0,0,3,1,0,-1,0,6.945
1390,0,2,10,-3,-2,1,-1,0,6.95
1391,-1,-4,-22,-3,-1,-2,0,-2,6.955
1392,-3,-1,-8,-3,-3,-1,0,-1,6.96
1393,-1,0,4,2,-2,0,-1,-1,6.965
1394,0,-2,-8,2,-1,-1,-1,0,6.97
1395,-1,1,5,0,1,-2,0,0,6.9750000000000005
1396,0,-2,8,0,-1,-3,-2,-1,6.98
1397,-2,-6,-29,-7,-4,-3,-3,-2,6.985
1398,-3,0,-1,-3,-1,1,-1,-1,6.99
1399,1,1,5,-1,-1,0,0,-1,6.995
1400,0,0,0,2,0,-1,-1,-2,7.0
1401,0,0,11,-1,-1,-2,0,0,7.005
1402,0,1,-5,-4,-2,-1,1,0,7.01
1403,-2,-1,16,4,-2,0,0,-1,7.015000000000001
1404,-3,-3,-3,-3,-2,0,-2,-1,7.0200000000000005
1405,1,1,7,5,2,1,2,0,7.025
1406,-1,-1,-5,-7,-4,-1,-1,-1,7.03
1407,-1,-1,-1,-2,-2,-2,-1,-2,7.035
1408,0,-2,-5,-1,-2,-2,0,-2,7.04
1409,-2,-3,-7,-3,0,1,0,-2,7.045
1410,-1,-2,11,-1,0,-3,-2,-2,7.05
1411,0,1,-6,3,-1,-2,-1,-1,7.055
1412,0,-1,-2,-3,1,1,1,1,7.0600000000000005
1413,-1,0,-3,-5,-2,-1,0,0,7.065
1414,-1,0,4,2,-1,-1,0,0,7.07
1415,-1,0,-6,-3,0,0,-2,0,7.075
1416,-1,2,7,-2,0,-1,-1,-2,7.08
1417,-1,0,3,2,0,0,-1,0,7.085
1418,-2,-1,2,1,-1,1,0,1,7.09
1419,0,-2,0,-11,-3,-3,-1,-2,7.095
1420,0,1,-4,3,1,-1,2,1,7.1000000000000005
1421,1,0,4,-1,-3,-3,1,-1,7.105
1422,1,-1,-3,-1,0,-1,-3,-1,7.11
1423,0,-1,3,0,-1,3,-1,-2,7.115
1424,-1,-2,1,0,-1,-1,-2,1,7.12
1425,0,0,-2,-5,-2,-1,-3,-1,7.125
1426,0,-2,0,4,-1,-1,0,-1,7.13
1427,-2,-1,-6,-1,-1,0,-1,-1,7.135
1428,0,0,3,-3,-1,0,-1,-1,7.140000000000001
1429,0,1,9,4,2,-1,-1,-1,7.1450000000000005
1430,-1,-1,5,6,-1,1,0,-1,7.15
1431,-1,-2,0,-3,0,0,0,0,7.155
1432,-2,-1,-7,-2,-1,1,-2,-1,7.16
1433,-2,1,8,2,1,1,-1,-1,7.165
1434,-3,1,-2,-3,-1,-3,-2,-2,7.17
1435,-1,-2,4,2,0,-1,-1,-2,7.175
1436,0,0,-6,-3,0,-2,1,-1,7.18
1437,0,-3,-2,-1,0,-3,0,0,7.1850000000000005
1438,-1,1,-3,-3,-2,0,0,-2,7.19
1439,-2,0,-3,2,-1,-1,-2,0,7.195
1440,-1,-1,-2,-2,1,-1,0,0,7.2
1441,-1,-1,-9,-3,-4,-1,-2,-1,7.205
1442,-1,-1,-4,-1,0,-1,1,1,7.21
1443,-1,-4,-2,-6,-1,1,-1,0,7.215
1444,0,1,5,2,0,-1,-1,0,7.22
1445,-2,-5,-18,-3,1,0,0,1,7.2250000000000005
1446,1,1,10,-1,-2,-3,0,0,7.23
1447,1,1,-8,1,0,-1,-1,-2,7.235
1448,-2,-2,0,-3,-4,-3,0,-2,7.24
1449,0,-1,-2,-1,0,2,2,0,7.245
1450,-1,0,1,-3,-3,1,1,0,7.25
1451,-1,0,4,4,-1,-1,0,-1,7.255
1452,0,-1,14,-1,-1,-1,-1,0,7.26
1453,-1,-1,-6,-2,-2,-2,-3,-4,7.265000000000001
1454,-1,-3,-4,2,-1,0,-1,-1,7.2700000000000005
1455,-1,-1,-2,-4,1,-1,0,1,7.275
1456,0,-1,-4,-5,-2,0,0,0,7.28
1457,-3,0,11,0,0,-1,-2,-1,7.285
1458,-2,-3,-6,-2,0,0,-2,-2,7.29
1459,0,0,5,7,-2,0,-1,-1,7.295
1460,-1,-3,-10,-5,-1,0,1,-2,7.3
1461,0,-1,0,1,0,-2,0,-1,7.305
1462,-2,-1,-6,0,-1,-2,-2,-2,7.3100000000000005
1463,2,0,5,-1,-1,-2,-1,-1,7.315
1464,-1,-2,-11,-4,-3,-3,-3,-2,7.32
1465,-1,-2,-12,-2,-3,-1,-1,0,7.325
1466,-3,-4,-10,0,1,2,2,0,7.33
1467,-1,-1,-7,-2,-1,1,-1,-1,7.335
1468,-1,2,7,2,1,1,-1,1,7.34
1469,-1,1,3,-1,-3,-3,-1,0,7.345
1470,1,0,1,-2,1,-2,-1,0,7.3500000000000005
1471,-1,-1,-6,-2,-1,0,-1,-1,7.355
1472,-1,-1,0,2,1,0,-2,-2,7.36
1473,-1,-1,-6,-1,0,1,1,-1,7.365
1474,-1,-1,0,0,0,1,-1,-1,7.37
1475,1,0,5,3,-2,-3,0,-2,7.375
1476,1,0,5,-8,0,0,0,-2,7.38
1477,-1,-2,13,3,0,0,0,-1,7.385
1478,-3,0,-5,-7,0,0,-1,-1,7.390000000000001
1479,-2,0,-10,-1,-1,-1,-2,-1,7.3950000000000005
1480,-2,-1,7,3,-2,-1,1,-1,7.4
1481,1,-1,-4,-4,0,-1,1,1,7.405
1482,0,0,-1,-1,-1,-2,-1,-1,7.41
1483,-1,-2,11,1,1,0,-1,1,7.415
1484,-1,-3,-9,3,0,1,-1,-1,7.42
1485,-1,0,-4,-4,-1,-1,-4,2,7.425
1486,1,-1,0,-2,0,0,1,1,7.43
1487,-2,0,6,2,-1,-3,0,-2,7.4350000000000005
1488,0,0,10,3,0,-2,1,0,7.44
1489,0,-1,1,-1,-2,-1,0,-4,7.445
1490,-1,-1,-4,-2,1,1,-3,0,7.45
1491,-1,-1,0,0,0,0,-1,0,7.455
1492,-4,-3,-5,-4,0,0,0,1,7.46
1493,0,1,2,2,-2,-1,0,0,7.465
1494,-2,0,-6,0,-3,-2,0,-3,7.47
1495,-2,-4,-3,-10,-2,-1,1,-2,7.4750000000000005
1496,0,1,-1,2,0,1,0,-2,7.48
1497,-4,-2,-6,-5,-2,0,-1,-4,7.485
1498,1,1,17,5,-1,-1,-1,0,7.49
1499,-1,-2,-15,-8,-2,-1,-1,1,7.495
1500,2,0,2,-1,-1,0,-2,-1,7.5
1501,-1,-1,0,2,2,2,0,2,7.505
1502,-1,-4,-1,-2,0,0,-2,-2,7.51
1503,0,2,8,0,-2,-2,-2,0,7.515000000000001
1504,-1,0,-5,2,1,-2,-1,0,7.5200000000000005
1505,-2,-4,2,2,-4,-3,-4,0,7.525
1506,0,2,-4,-3,5,1,1,-1,7.53
1507,0,-7,-8,12,-1,-1,0,0,7.535
1508,-2,-5,-13,-12,-3,0,-1,0,7.54
1509,0,0,12,7,3,1,-1,0,7.545
1510,0,3,2,-17,-13,-6,-2,-2,7.55
1511,5,11,-15,-9,-5,-3,0,-1,7.555
1512,-4,-22,-29,1,-27,-3,2,1,7.5600000000000005
1513,5,20,14,7,18,8,5,4,7.565
1514,-5,-21,-16,-14,-26,-5,-6,-4,7.57
1515,-8,-15,12,8,7,-17,-6,-7,7.575
1516,8,11,5,1,49,42,10,3,7.58
1517,10,15,-21,8,-4,-4,2,5,7.585
1518,2,-35,-47,-22,-24,7,3,5,7.59
1519,-3,44,14,13,58,13,-2,-1,7.595
1520,-4,-2,39,36,2,-8,-2,-6,7.6000000000000005
1521,-16,-42,4,-12,21,6,1,-4,7.605
1522,36,24,14,-10,-67,-24,-5,9,7.61
1523,-28,-5,23,-6,-31,-1,-3,-7,7.615
1524,-18,-4,15,19,-14,-16,3,9,7.62
1525,-3,0,-4,-7,3,2,-1,-17,7.625
1526,18,14,50,-1,3,-5,4,18,7.63
1527,-26,3,-36,-4,-5,-6,-4,-32,7.635
1528,-7,-44,19,-3,-28,-12,-10,-18,7.640000000000001
1529,4,22,71,15,-28,-17,-6,-3,7.6450000000000005
1530,-19,-3,-74,-37,19,-1,-10,-11,7.65
1531,15,-15,-29,-15,-21,11,3,-5,7.655
1532,-10,15,-78,-15,20,0,0,16,7.66
1533,89,21,24,-2,-45,-1,7,58,7.665
1534,-85,5,20,59,77,25,10,-3,7.67
1535,-6,-41,11,-6,-2,11,-3,-24,7.675
1536,11,-8,-73,-23,-34,-30,-18,-32,7.68
1537,0,25,47,-28,-23,2,-2,1,7.6850000000000005
1538,27,-39,-51,33,65,43,16,5,7.69
1539,1,4,-34,-27,-81,-37,-2,24,7.695
1540,-8,-4,-25,3,24,-7,-12,-22,7.7
1541,17,-1,20,-12,-26,1,-3,-1,7.705
1542,53,30,-7,35,23,23,10,30,7.71
1543,-64,-6,14,12,34,-3,0,-39,7.715
1544,51,8,13,-4,-13,10,4,36,7.72
1545,-64,-33,-46,-8,-8,-14,0,-22,7.7250000000000005
1546,1,27,-10,-6,-23,-11,-18,-22,7.73
1547,61,-58,1,-15,-33,2,11,55,7.735
1548,17,80,69,48,41,13,4,43,7.74
1549,-35,11,25,-11,-32,-18,-14,-50,7.745
1550,-15,-5,71,11,37,14,10,-21,7.75
1551,38,50,98,30,42,21,8,31,7.755
1552,-59,-28,-19,-24,-23,-25,-8,-10,7.76
1553,16,22,-47,18,52,21,12,50,7.765000000000001
1554,4,-14,74,3,-7,-15,-8,-31,7.7700000000000005
1555,3,43,-26,-31,-7,8,-8,-23,7.775
1556,22,24,92,10,-56,-16,2,-20,7.78
1557,-21,-81,-73,14,-20,-10,-9,-15,7.785
1558,5,34,10,-43,-3,-1,7,23,7.79
1559,36,4,-21,32,54,15,3,-6,7.795
1560,-82,44,-4,-31,-53,-19,9,18,7.8
1561,13,-15,-7,20,46,22,-11,-53,7.805000000000001
1562,0,-6,11,-3,-13,-18,-9,-8,7.8100000000000005
1563,56,-16,-21,11,19,-10,4,49,7.815
1564,-70,-23,-35,-8,-3,11,-3,-34,7.82
1565,41,-1,-8,-12,4,5,13,27,7.825
1566,-72,-53,26,58,5,-17,-2,-2,7.83
1567,20,107,109,8,-9,25,-2,-50,7.835
1568,57,-74,1,4,13,1,-2,6,7.84
1569,-44,-24,42,-26,-54,-18,-11,18,7.845
1570,47,28,0,17,28,3,13,35,7.8500000000000005
1571,-97,-76,24,16,32,19,5,1,7.855
1572,37,87,69,-20,-27,-15,-8,-22,7.86
1573,-4,-42,-29,47,-7,7,4,21,7.865
1574,95,43,27,-20,-47,-19,-12,8,7.87
1575,35,-33,-23,-50,-116,-38,3,44,7.875
1576,-66,47,6,51,94,45,-3,-99,7.88
1577,-6,-56,10,-22,24,-1,-7,-65,7.885
1578,-25,14,68,-18,-79,-30,-15,-7,7.890000000000001
1579,107,-17,-119,-75,9,-44,-10,51,7.8950000000000005
1580,-62,-51,19,-38,-19,25,19,24,7.9
1581,93,85,24,-13,-7,-22,7,42,7.905
1582,4,-2,-23,30,51,29,-4,-32,7.91
1583,-128,19,16,-25,-8,-25,-15,-36,7.915
1584,51,-9,-71,25,-15,37,18,14,7.92
1585,36,-22,-29,-5,68,11,4,6,7.925
1586,-91,70,-57,-52,-26,-14,-20,1,7.930000000000001
1587,7,-50,7,47,30,10,-2,-12,7.9350000000000005
1588,70,-42,34,-25,-28,-23,-6,37,7.94
1589,-54,73,45,37,25,21,7,-28,7.945
1590,127,-55,-5,-22,-20,9,28,90,7.95
1591,-89,101,-17,-16,30,2,-17,-70,7.955
1592,-23,-29,-117,-25,42,-9,-18,-30,7.96
1593,6,-41,-73,-37,-31,-11,-9,-13,7.965
1594,11,29,-66,-4,-91,-39,1,2,7.97
1595,62,22,31,69,87,79,36,76,7.9750000000000005
1596,6,-74,53,-17,-40,-16,6,10,7.98
1597,-43,39,1,22,68,15,-7,-21,7.985
1598,-67,-26,-36,-20,-57,-15,-19,-43,7.99
1599,31,-21,-94,-35,-64,-26,-12,2,7.995
1600,61,62,62,62,-14,-15,-1,35,8.0
1601,39,27,0,-18,-26,13,10,17,8.005
1602,-62,-11,68,-20,70,2,-1,-47,8.01
1603,-12,-55,4,-44,-108,-27,-9,-33,8.015
1604,-79,4,-6,34,96,19,-3,-12,8.02
1605,-2,46,-4,43,-69,-27,-15,-26,8.025
1606,-13,0,-10,-17,5,6,2,-8,8.03
1607,24,-68,45,26,-9,-13,2,37,8.035
1608,76,2,-69,-57,-74,-26,-3,4,8.040000000000001
1609,-37,-4,-30,8,-15,5,-5,-36,8.045
1610,50,45,84,27,30,41,9,12,8.05
1611,-86,-19,46,30,-3,-9,-5,-11,8.055
1612,104,3,-18,-9,16,12,8,40,8.06
1613,-9,-52,62,-10,67,7,4,-5,8.065
1614,17,-32,72,7,-16,10,6,7,8.07
1615,-22,-54,16,17,35,13,-8,-27,8.075
1616,-12,7,-1,-5,16,-5,-11,14,8.08
1617,-37,28,25,-32,-61,-13,0,17,8.085
1618,17,-11,-40,19,43,16,15,17,8.09
1619,115,63,22,27,68,23,16,8,8.095
1620,-24,-13,64,-29,-19,-11,0,31,8.1
1621,-43,72,-62,-2,3,6,1,18,8.105
1622,-2,-62,-59,-8,-36,-33,-29,-66,8.11
1623,27,79,14,2,-29,-12,4,17,8.115
1624,43,-73,9,8,13,-3,-2,-27,8.120000000000001
1625,69,8,8,-24,-27,-9,13,111,8.125
1626,-72,-35,-73,11,65,18,-8,-59,8.13
1627,-60,50,40,-34,-91,-28,-23,-37,8.135
1628,12,-33,4,31,10,32,3,-15,8.14
1629,23,53,53,-12,-9,-7,-2,-8,8.145
1630,-21,-15,-19,38,14,-7,2,32,8.15
1631,80,20,-3,10,-12,13,20,67,8.155
1632,-79,87,40,-8,-3,-5,-12,-21,8.16
1633,48,-100,-36,-36,-10,-12,-13,-32,8.165000000000001
1634,-52,8,0,21,36,34,20,-28,8.17
1635,46,11,-53,-4,10,-12,-7,-6,8.175
1636,-24,10,18,36,27,7,2,3,8.18
1637,32,53,23,23,-17,-5,3,6,8.185
1638,-74,-94,-38,-21,5,17,5,12,8.19
1639,47,18,-40,38,14,0,-3,-3,8.195
1640,-20,10,3,-35,-21,-19,-6,8,8.2
1641,0,-36,103,24,21,13,5,27,8.205
1642,14,55,-22,-11,-47,-12,3,9,8.21
1643,25,-41,-7,-11,-38,4,8,31,8.215
1644,-90,10,-25,-49,-18,-16,-15,-67,8.22
1645,-36,-12,8,-5,37,-4,-11,-51,8.225
1646,127,-15,35,-9,-45,-11,3,47,8.23
1647,-128,19,-11,-33,-53,-48,-18,41,8.235
1648,36,-43,-93,39,68,61,21,-56,8.24
1649,-60,6,-98,-7,0,0,-6,-28,8.245000000000001
1650,-19,-69,-19,-38,-6,-21,-22,-18,8.25
1651,-6,-5,25,13,4,3,4,-2,8.255
1652,64,21,44,-19,2,1,23,72,8.26
1653,-64,5,-38,22,24,41,2,-9,8.265
1654,-51,67,42,-9,-25,-9,-2,-25,8.27
1655,56,-31,-57,-7,7,16,14,8,8.275
1656,-51,-42,-54,-18,-9,-11,-14,-47,8.28
1657,24,10,-18,-68,-30,-17,-16,-51,8.285
1658,65,20,31,32,-31,-28,-4,45,8.290000000000001
1659,-39,-55,27,-2,-27,14,10,5,8.295
1660,-19,3,18,1,-13,-1,-4,-11,8.3
1661,23,-25,-43,-8,-71,-29,-7,-8,8.305
1662,30,95,-15,11,6,-9,5,-3,8.31
1663,-75,-42,24,-25,-57,-32,-37,-37,8.315
1664,93,36,71,62,53,20,15,73,8.32
1665,-43,-48,31,13,32,13,4,-17,8.325
1666,84,66,-3,29,13,21,10,18,8.33
1667,-58,-55,-78,-8,38,10,9,-56,8.335
1668,8,86,-14,-26,-50,-22,-8,39,8.34
1669,14,-5,34,33,-33,-4,8,36,8.345
1670,-42,-75,-39,-5,10,-17,-18,2,8.35
1671,49,60,65,33,55,13,12,7,8.355
1672,18,-48,4,-34,-39,-1,-2,8,8.36
1673,-39,53,-23,4,57,34,19,-5,8.365
1674,21,-32,47,0,-19,2,-5,-21,8.370000000000001
1675,-39,-36,-4,-27,-15,-21,-19,-52,8.375
1676,-2,77,55,73,74,6,5,50,8.38
1677,40,-6,49,12,30,-3,-4,8,8.385
1678,-52,-45,-51,-15,1,-2,-3,-13,8.39
1679,74,5,17,-21,28,17,11,11,8.395
1680,31,-6,30,13,8,18,12,39,8.4
1681,-71,36,101,25,23,4,1,-32,8.405
1682,-4,-10,-6,-6,14,-15,-3,10,8.41
1683,55,6,47,2,-5,0,4,4,8.415000000000001
1684,-33,58,-79,-1,16,22,3,2,8.42
1685,-4,10,-13,-20,-53,-34,-11,-3,8.425
1686,-26,-4,-78,-31,44,31,4,-20,8.43
1687,64,-10,19,30,6,6,3,17,8.435
1688,-85,-50,41,-19,-95,-34,-14,-11,8.44
1689,10,-28,-29,19,6,11,2,-10,8.445
1690,66,40,98,27,19,47,28,45,8.45
1691,22,3,-55,11,80,6,2,23,8.455
1692,-46,68,64,-23,-23,-26,-24,-46,8.46
1693,27,-25,-54,-20,30,11,4,18,8.465
1694,-47,-42,22,12,1,-8,-3,32,8.47
1695,-57,1,-39,-11,-27,13,-8,-70,8.475
1696,76,34,55,16,25,-15,-2,-12,8.48
1697,-10,6,-34,6,-2,4,11,56,8.485
1698,-2,56,-12,3,14,-3,7,-20,8.49
1699,-25,34,19,-10,-25,-26,-17,42,8.495000000000001
1700,23,-69,-86,-24,-57,-10,-9,-35,8.5
1701,7,-18,4,-26,-39,-25,-7,-4,8.505
1702,18,19,-8,11,13,14,6,-8,8.51
1703,-5,-33,-13,2,3,-2,3,-6,8.515
1704,35,11,-61,-4,-25,-16,-3,15,8.52
1705,7,-39,17,-1,4,-5,-5,4,8.525
1706,-76,67,-3,-7,-17,3,1,-17,8.53
1707,-56,-51,-66,-16,21,2,-2,-59,8.535
1708,11,-22,12,16,-2,8,3,19,8.540000000000001
1709,20,18,-32,-11,-63,-22,-10,-16,8.545
1710,2,-26,43,20,27,-1,-11,3,8.55
1711,-16,64,44,21,-12,-1,3,-24,8.555
1712,24,-21,17,-8,11,10,9,-20,8.56
1713,-33,-26,-17,-5,-18,-10,2,64,8.565
1714,19,23,-17,-17,-37,-14,-7,1,8.57
1715,-8,-1,29,18,21,11,-5,-20,8.575000000000001
1716,61,-24,-38,-15,-20,-17,-7,-10,8.58
1717,-45,1,58,9,29,12,-4,-37,8.585
1718,-36,13,18,42,-1,-10,-11,-70,8.59
1719,25,14,11,-33,10,17,12,62,8.595
1720,-21,-10,-23,-1,3,0,-5,-64,8.6
1721,17,13,-29,1,7,5,-4,-11,8.605
1722,34,1,7,-14,-10,-10,10,35,8.61
1723,-36,17,-17,15,-17,-4,-9,-42,8.615
1724,-20,-19,7,-4,6,5,6,-2,8.620000000000001
1725,9,-2,49,5,10,-4,-6,-59,8.625
1726,1,-17,64,-15,-8,-4,-10,1,8.63
1727,18,14,127,14,-3,-3,4,40,8.635
1728,-4,1,126,-7,8,2,-2,38,8.64
1729,-2,-2,107,8,11,6,-1,-27,8.645
1730,2,-17,119,-11,-10,-8,-6,-9,8.65
1731,1,7,121,-1,2,5,1,4,8.655
1732,-48,-17,67,-1,-2,-6,-12,-39,8.66
1733,16,9,-70,15,-1,0,8,37,8.665000000000001
1734,7,-3,-117,-29,-10,-3,-1,14,8.67
1735,-11,3,-128,-4,0,0,0,11,8.675
1736,-18,5,-128,0,-5,-6,-22,-21,8.68
1737,18,3,-114,-1,3,0,20,6,8.685
1738,17,-6,-128,0,-2,-1,5,38,8.69
1739,-14,0,-128,-1,-1,-2,-8,-23,8.695
1740,0,1,-109,3,1,2,8,12,8.700000000000001
1741,15,7,-71,10,5,0,-1,4,8.705
1742,-16,-11,-40,-4,-8,-4,-4,-12,8.71
1743,-6,1,-13,1,-2,-1,1,-6,8.715
1744,-6,1,-54,-4,-2,-2,7,5,8.72
1745,11,3,-16,-5,0,0,-1,26,8.725
1746,-7,-4,-9,-8,-7,-4,-2,-22,8.73
1747,5,5,-2,-2,-1,0,0,7,8.735
1748,0,0,-3,-1,3,2,8,14,8.74
1749,1,-1,14,0,-2,-2,-4,-8,8.745000000000001
1750,1,-5,-42,-2,-2,0,-2,-1,8.75
1751,0,-2,-36,0,-2,-2,0,-2,8.755
1752,-9,-5,-31,1,1,6,5,5,8.76
1753,3,-1,13,-7,-1,-2,-3,4,8.765
1754,0,-1,16,-3,-2,-3,-1,-5,8.77
1755,-1,0,-5,6,1,-1,0,7,8.775
1756,-6,-1,-15,4,-2,-4,-1,-7,8.78
1757,3,-4,3,-15,-2,-2,0,5,8.785
1758,1,0,12,-1,-2,-3,-1,2,8.790000000000001
1759,-4,1,11,-1,2,3,1,-8,8.795
1760,-2,-2,-1,-2,-2,1,0,3,8.8
1761,2,1,6,0,0,1,0,2,8.805
1762,-4,-4,11,-4,-2,0,1,-1,8.81
1763,1,0,11,-7,-1,1,0,-1,8.815
1764,0,4,26,8,-1,-3,3,1,8.82
1765,2,-2,0,-2,2,0,-1,6,8.825000000000001
1766,-2,-1,8,-1,-1,-1,-1,-5,8.83
1767,2,2,8,0,0,-2,0,2,8.835
1768,1,0,7,-7,-2,1,1,1,8.84
1769,0,1,5,3,-2,-3,-3,-2,8.845
1770,1,1,17,1,2,0,0,1,8.85
1771,-2,-3,-13,1,-2,2,1,0,8.855
1772,-3,-2,2,-6,0,-3,-1,1,8.86
1773,1,-1,7,6,-1,0,-2,0,8.865
1774,-1,0,-4,-6,-3,-1,-2,-5,8.870000000000001
1775,-1,-2,-1,-13,-2,-1,0,-1,8.875
1776,0,-2,-6,-4,1,1,0,0,8.88
1777,1,-1,-4,-1,-1,-1,1,0,8.885
1778,1,0,4,3,-1,3,0,2,8.89
1779,-3,-1,3,5,-1,-1,-3,-3,8.895
1780,0,-1,5,-1,-2,-4,-3,1,8.9
1781,2,-1,5,-5,-1,-1,-4,0,8.905
1782,-4,-6,-6,-3,-2,1,-1,-2,8.91
1783,-1,-1,12,4,2,-2,-1,-2,8.915000000000001
1784,-1,0,4,-8,-1,-1,-1,-1,8.92
1785,-2,1,10,3,1,1,1,-1,8.925
1786,-3,0,4,-3,-2,-3,0,-3,8.93
1787,0,0,5,3,0,0,-2,-1,8.935
1788,-2,-1,-2,-4,1,-1,-1,0,8.94
1789,-1,1,-13,0,1,1,-1,-1,8.945
1790,0,-1,5,-2,-2,-2,-1,0,8.950000000000001
1791,0,3,28,9,0,-1,0,-1,8.955
1792,-2,-4,-26,-14,-3,-2,-1,-2,8.96
1793,2,-2,0,-4,-2,-2,-1,-1,8.965
1794,-1,-1,0,-1,-2,1,0,-1,8.97
1795,-3,3,15,9,1,0,-1,0,8.975
1796,-2,-1,11,-1,-2,1,0,-1,8.98
1797,1,0,2,-2,0,-2,-1,-1,8.985
1798,1,-2,-4,0,-1,-2,-3,-2,8.99
1799,0,-1,-2,-3,-4,-3,-1,-3,8.995000000000001
1800,-1,-1,3,5,-1,-2,-1,-1,9.0
1801,-2,-1,-3,-4,-1,0,0,-1,9.005
1802,-1,1,-2,3,0,0,0,0,9.01
1803,-1,-3,-15,-11,-1,0,-2,0,9.015
1804,-1,1,5,3,-2,1,-1,1,9.02
1805,-1,-1,-2,3,-1,0,-1,0,9.025
1806,-1,-1,3,1,-2,-2,-2,-2,9.03
1807,0,-2,-4,-3,-1,-1,-4,-2,9.035
1808,-1,-2,-16,-1,0,2,1,-2,9.040000000000001
1809,0,0,8,-4,-1,-2,-1,-1,9.045
1810,2,3,19,-4,1,0,0,1,9.05
1811,-2,-6,-42,-10,-4,-1,0,-2,9.055
1812,0,2,16,1,-1,0,-2,1,9.06
1813,-1,0,-10,7,1,-1,-1,0,9.065
1814,-2,0,-7,-7,-2,-3,-2,-1,9.07
1815,-2,-1,6,1,1,0,-1,-1,9.075000000000001
1816,-1,1,6,2,-1,0,-2,-2,9.08
1817,0,-2,12,-3,0,2,-1,0,9.085
1818,-2,-1,-1,0,-2,-3,-1,-1,9.09
1819,-1,0,1,-1,-1,-1,-3,0,9.095
1820,-1,1,-6,-1,-4,-2,-1,-1,9.1
1821,0,-1,7,-1,-3,-2,-3,0,9.105
1822,0,-2,-6,-1,0,2,1,-1,9.11
1823,0,-1,4,2,1,1,3,2,9.115
1824,-2,-1,6,2,1,-1,0,1,9.120000000000001
1825,-1,-1,-8,0,-2,-1,-3,0,9.125
1826,-1,-1,5,-1,-4,-2,-1,-2,9.13
1827,0,0,0,0,-2,-1,-1,-2,9.135
1828,0,1,-4,3,-1,-1,-3,-3,9.14
1829,-2,-3,12,-5,-2,0,0,0,9.145
1830,-3,-2,-17,1,0,-2,0,0,9.15
1831,-1,1,7,6,1,0,2,-2,9.155
1832,0,-2,5,-4,-1,-3,-2,-1,9.16
1833,-2,-4,-12,-8,-3,-2,-2,-2,9.165000000000001
1834,0,-1,-2,-2,1,0,-3,-2,9.17
1835,-1,-1,8,11,-1,0,-2,-1,9.175
1836,0,1,-2,-6,-3,-2,0,-2,9.18
1837,0,0,-12,0,1,0,0,0,9.185
1838,0,-1,-4,0,1,2,4,1,9.19
1839,-1,1,4,2,-1,-1,0,0,9.195
1840,-2,-2,-3,4,1,-1,1,-1,9.200000000000001
1841,0,-2,-3,-2,-2,0,-1,-2,9.205
1842,0,-1,6,-1,-3,-1,-3,-2,9.21
1843,0,-2,-5,-3,0,0,-1,-1,9.215
1844,-2,-4,4,1,-1,-1,1,-2,9.22
1845,0,3,9,0,-3,-2,-2,0,9.225
1846,0,-2,-19,-3,-1,0,1,1,9.23
1847,-1,0,0,-7,1,0,0,0,9.235
1848,0,0,-4,1,-1,-1,-1,0,9.24
1849,0,-2,0,1,2,0,1,-2,9.245000000000001
1850,-1,2,7,5,0,-2,-1,-1,9.25
1851,-1,-2,-9,-8,-4,-2,-3,0,9.255
1852,1,-1,-2,-4,-1,1,-2,-2,9.26
1853,0,-1,1,1,-2,-1,0,-1,9.265
1854,1,0,4,0,0,0,-1,-1,9.27
1855,0,0,10,2,-1,-1,1,-3,9.275
1856,-2,-2,1,3,1,-2,0,-1,9.28
1857,-1,-2,-5,-1,0,0,-1,0,9.285
1858,-1,0,0,-3,0,-1,-1,-1,9.290000000000001
1859,0,-2,2,3,-2,-2,-2,0,9.295
1860,-3,-4,-41,-3,-3,-3,-1,-2,9.3
1861,0,1,7,-1,1,2,2,-1,9.305
1862,0,0,3,5,0,0,-3,-1,9.31
1863,0,0,-7,-2,-1,-1,1,2,9.315
1864,-1,1,8,-2,-2,-3,-1,0,9.32
1865,-2,-2,-9,-1,0,1,1,-1,9.325000000000001
1866,-1,0,6,-1,-2,-1,0,-2,9.33
1867,-1,-2,-7,-2,-1,0,1,-2,9.335
1868,0,-3,-1,-1,1,1,0,1,9.34
1869,-2,0,-1,-2,1,-3,-2,0,9.345
1870,-2,0,4,0,-2,-3,-1,-1,9.35
1871,-1,1,2,-4,-1,0,-1,-2,9.355
1872,1,-1,6,2,1,0,-1,-2,9.36
1873,0,0,0,3,-1,-1,-1,0,9.365
1874,-2,-4,-18,-12,-3,-2,0,1,9.370000000000001
1875,-1,-1,10,1,0,-1,-2,-1,9.375
1876,0,2,-2,1,-2,1,0,0,9.38
1877,-1,-1,2,-3,-3,-1,-1,-2,9.385
1878,2,0,-1,2,-2,-2,-2,0,9.39
1879,0,-1,-3,0,-1,1,-1,1,9.395
1880,0,0,8,0,0,2,0,-1,9.4
1881,0,1,0,3,1,0,-1,0,9.405
1882,-2,-2,0,-1,-1,-1,-1,-3,9.41
1883,0,0,4,0,-2,-2,-3,0,9.415000000000001
1884,0,-1,2,-3,-1,0,-2,-1,9.42
1885,0,0,-3,1,-2,0,0,1,9.425
1886,-2,-3,-6,-2,-2,-2,-1,-2,9.43
1887,1,1,8,1,-1,-3,-2,-2,9.435
1888,-1,0,4,-2,-1,-2,-2,-3,9.44
1889,0,-2,-6,-7,-3,-1,-1,-1,9.445
1890,1,0,3,2,1,1,-1,1,9.450000000000001
1891,-3,-4,-12,-5,-3,-1,-3,-1,9.455
1892,-2,0,4,2,-1,0,-1,-1,9.46
1893,0,-3,-2,-1,0,-1,1,-2,9.465
1894,-1,1,5,1,1,-1,-2,0,9.47
1895,-1,0,1,0,-2,-1,0,0,9.475
1896,0,-1,-1,-9,-3,-4,-4,-2,9.48
1897,-1,0,-10,1,1,0,-2,-1,9.485
1898,0,0,20,4,0,1,2,-1,9.49
1899,-1,-2,-6,-2,0,0,1,-1,9.495000000000001
1900,-3,-3,2,0,0,0,1,-1,9.5
1901,-1,2,0,2,-2,-2,-2,-1,9.505
1902,-1,0,4,-3,-2,-2,-1,-2,9.51
1903,0,-1,-6,-1,-1,-2,-3,-4,9.515
1904,0,-1,2,4,1,-1,0,-1,9.52
1905,-1,1,-10,-9,-1,0,0,-2,9.525
1906,0,0,1,-1,-1,-1,-1,1,9.53
1907,-2,-2,20,-2,-4,-1,-1,0,9.535
1908,0,-2,1,0,-1,1,-1,-1,9.540000000000001
1909,-2,-3,4,1,-1,0,-1,0,9.545
1910,-1,-2,-4,-3,-2,0,-1,-1,9.55
1911,0,-1,-10,-2,-1,-1,-1,-2,9.555
1912,0,-1,1,1,-1,1,2,1,9.56
1913,0,1,6,0,1,0,-2,0,9.565
1914,0,0,-4,3,0,1,1,-1,9.57
1915,0,-3,-4,-4,2,2,2,2,9.575000000000001
1916,-1,-1,-9,-4,-2,-2,-1,-1,9.58
1917,1,0,-3,0,-2,-1,0,0,9.585
1918,-1,-1,-7,4,-1,0,-1,0,9.59
1919,-1,1,-5,-1,0,-1,0,-2,9.595
1920,1,2,2,0,-1,1,-3,1,9.6
1921,-1,-2,2,-3,-2,-4,-2,-1,9.605
1922,-2,-4,-20,0,0,1,0,-1,9.61
1923,0,-2,-11,1,1,-1,0,0,9.615
1924,-1,-1,3,-5,-1,-2,-1,-1,9.620000000000001
1925,1,0,1,3,-3,0,0,-1,9.625
1926,0,1,-2,-4,-1,-2,-1,0,9.63
1927,-1,-1,-2,-6,-1,1,-1,0,9.635
1928,-1,-2,-26,-1,0,-1,1,0,9.64
1929,-1,-1,9,2,-1,-2,-1,0,9.645
1930,0,-1,2,0,-1,0,1,0,9.65
1931,-2,-1,-4,4,-1,-2,-3,-1,9.655
1932,1,1,6,-4,-2,-3,-2,0,9.66
1933,1,0,-3,0,1,-1,-1,-1,9.665000000000001
1934,-2,-1,-2,-1,-1,1,0,-1,9.67
1935,1,1,3,1,-1,1,1,-1,9.675
1936,-2,0,3,1,-1,-2,-2,-2,9.68
1937,-2,-3,-4,-1,0,-1,-2,-1,9.685
1938,-1,-1,10,-3,-3,-3,-4,0,9.69
1939,0,-3,-15,-3,-2,0,-2,-2,9.695
1940,-2,-3,-5,0,-1,1,1,-1,9.700000000000001
1941,0,-3,-2,-2,-2,-1,-1,-2,9.705
1942,-2,-1,1,0,2,1,-1,0,9.71
1943,0,0,7,4,-1,-2,-2,0,9.715
1944,0,0,-2,-4,-3,-2,-1,-1,9.72
1945,-1,0,4,1,1,-1,2,0,9.725
1946,0,-1,-1,1,-1,-2,-1,0,9.73
1947,-2,-3,7,-4,-2,-2,-2,-1,9.735
1948,-1,-2,2,2,-2,-1,-2,-1,9.74
1949,0,0,0,2,1,1,1,-1,9.745000000000001
1950,0,1,1,1,1,-2,-1,0,9.75
1951,0,0,0,1,-1,1,1,1,9.755
1952,0,0,3,2,-1,-2,-2,0,9.76
1953,-1,-1,-7,-5,-2,-3,-2,-1,9.765
1954,-2,-3,-5,-3,-1,-1,-1,-2,9.77
1955,-1,1,-3,0,-1,-2,-1,-2,9.775
1956,-1,0,3,2,0,-1,1,0,9.78
1957,-2,-1,-2,-2,-2,-2,-2,-2,9.785
1958,-1,-2,1,-1,-2,-2,0,-2,9.790000000000001
1959,1,1,2,1,2,2,0,0,9.795
1960,0,-2,0,-1,0,0,1,0,9.8
1961,0,1,2,1,-1,0,0,0,9.805
1962,-2,-2,-9,-2,-1,-1,-1,-2,9.81
1963,-2,-1,4,2,-2,-1,0,0,9.815
1964,-2,-2,3,-10,-2,-2,-1,-2,9.82
1965,1,0,-5,8,2,0,1,-1,9.825000000000001
1966,-1,0,5,-10,0,0,-2,1,9.83
1967,0,-1,4,3,-2,0,0,-1,9.835
1968,0,2,21,7,2,0,-1,1,9.84
1969,-2,-5,-23,2,-2,1,-1,0,9.845
1970,1,-1,-1,-5,-2,-3,-1,0,9.85
1971,0,-1,-3,-7,-2,0,-1,1,9.855
1972,-1,0,5,1,-1,0,1,-1,9.86
1973,-1,0,5,-1,-3,0,0,-1,9.865
1974,0,-1,-3,2,-2,0,-1,-1,9.870000000000001
1975,-1,-1,-7,-1,1,1,-1,0,9.875
1976,0,0,-10,-1,-1,-1,-1,-2,9.88
1977,0,-2,1,-4,1,0,1,0,9.885
1978,0,1,-2,2,-2,-3,0,0,9.89
1979,-1,-1,1,-2,-1,-3,-2,-2,9.895
1980,-1,-4,-23,-4,-4,-1,-2,1,9.9
1981,-2,0,2,-2,-1,-1,-2,-1,9.905
1982,0,2,12,-1,0,-1,0,0,9.91
1983,-1,-2,-2,2,0,-2,0,0,9.915000000000001
1984,-1,-1,2,0,0,0,-2,-2,9.92
1985,-1,-1,-4,-2,0,-3,-1,0,9.925
1986,-2,-4,-9,0,-3,-1,0,-2,9.93
1987,0,1,4,3,-1,-1,-1,-2,9.935
1988,0,-2,-15,-2,-1,0,2,0,9.94
1989,0,0,-1,-12,-2,0,-2,-2,9.945
1990,-1,-1,3,0,0,2,0,0,9.950000000000001
1991,-1,-1,-11,-3,-2,-2,0,0,9.955
1992,-1,-1,6,3,0,-1,0,-1,9.96
1993,0,-1,6,-1,0,-1,-2,-1,9.965
1994,-1,-2,-22,-1,0,-1,0,0,9.97
1995,-1,-1,16,6,1,0,1,-1,9.975
1996,-2,-3,-2,0,1,-2,-2,-1,9.98
1997,0,-1,-2,-2,-2,-1,-1,-1,9.985
1998,-1,-1,5,0,0,-1,-1,-1,9.99
1999,0,0,0,-1,-1,-2,0,-1,9.995000000000001
2000,2,-2,3,-1,-2,-1,-2,-1,10.0
2001,1,-1,5,3,0,-1,-1,0,10.005
2002,0,0,0,1,0,0,0,-2,10.01
2003,-1,-1,-9,-5,-2,-1,-3,-2,10.015
2004,0,1,4,-2,-1,1,-2,-1,10.02
2005,0,-1,-3,0,-2,-2,-2,-2,10.025
2006,-2,0,3,0,-3,0,2,-1,10.03
2007,-2,-3,-5,-1,1,1,-2,-1,10.035
2008,-2,1,3,1,0,-1,0,0,10.040000000000001
2009,1,-1,3,-3,1,2,3,0,10.045
2010,-1,1,4,2,-2,-2,-2,-1,10.05
2011,-1,-1,-5,-5,-2,-3,-2,-1,10.055
2012,-2,-2,2,1,-1,1,-1,-1,10.06
2013,-2,-2,-11,-1,-1,-1,-2,-3,10.065
2014,-1,-2,8,-3,-1,-3,-2,-1,10.07
2015,-2,2,7,8,0,0,-1,-1,10.075000000000001
2016,0,-1,-10,-6,-2,-1,-1,0,10.08
2017,-1,-1,-2,-3,-2,-1,-1,-1,10.085
2018,-1,-1,3,0,1,1,0,0,10.09
2019,1,-2,-1,1,-1,0,-1,-1,10.095
2020,-1,-2,-9,-3,1,-1,-1,0,10.1
2021,0,0,2,2,-1,-1,0,-3,10.105
2022,0,0,-4,-3,-3,-1,-3,-2,10.11
2023,-1,-1,-6,-5,-1,-1,1,0,10.115
2024,0,0,1,2,0,-2,0,0,10.120000000000001
2025,-1,-2,1,1,-2,-1,-2,-1,10.125
2026,-1,-2,-7,1,0,-2,-1,-1,10.13
2027,-1,-1,-1,-3,0,3,3,0,10.135
2028,-1,0,1,0,-2,0,-3,-2,10.14
2029,-2,-1,2,-1,-2,-2,-1,-1,10.145
2030,-3,-1,-4,4,0,-1,0,0,10.15
2031,0,-1,-3,3,-1,-2,-1,-2,10.155
2032,-2,0,-11,-7,1,0,0,-1,10.16
2033,1,1,14,5,1,-2,1,0,10.165000000000001
2034,0,3,14,3,-2,-1,-1,-2,10.17
2035,-2,-4,-19,-4,-2,1,1,1,10.175
2036,-1,-2,-2,0,0,-1,0,-1,10.18
2037,0,-1,3,0,-1,0,-2,0,10.185
2038,-1,-1,-4,-4,0,-1,-2,-1,10.19
2039,0,0,2,1,0,-3,-3,-2,10.195
2040,0,2,8,5,-1,2,1,-1,10.200000000000001
2041,-2,-1,-5,-4,-1,-2,-2,-1,10.205
2042,1,-1,2,1,1,-1,0,-1,10.21
2043,-3,-3,-10,-4,-2,0,-2,-2,10.215
2044,-1,-1,4,-3,-2,-3,-2,-2,10.22
2045,-2,-2,-2,-1,-1,-2,-2,1,10.225
2046,-1,-1,-7,-4,-2,2,-1,-1,10.23
2047,2,1,9,-1,-2,0,1,-1,10.235
2048,0,-1,-8,-4,-4,-2,-1,0,10.24
2049,-1,-4,-16,-1,0,-1,0,-2,10.245000000000001
2050,-1,-1,4,0,0,-1,-2,-2,10.25
2051,-1,1,12,-1,-2,-1,0,-1,10.255
2052,-1,-1,-10,-2,-2,0,0,-3,10.26
2053,-2,1,3,2,-1,0,0,-1,10.265
2054,-2,-2,-6,-2,1,-1,-2,0,10.27
2055,1,0,2,5,1,-1,0,0,10.275
2056,0,-2,3,-2,-2,-2,-1,0,10.28
2057,-1,-2,3,3,0,-1,-1,-1,10.285
2058,1,0,4,-5,0,0,0,-1,10.290000000000001
2059,0,0,-2,1,-2,-1,-3,-1,10.295
2060,-1,1,0,-3,0,-1,1,0,10.3
2061,-2,0,-4,-2,-2,0,0,-1,10.305
2062,-2,-4,-3,1,-3,1,0,0,10.31
2063,-1,-2,0,-3,-1,-1,-2,-2,10.315
2064,-2,0,7,2,-2,0,0,0,10.32
2065,-2,-1,1,-4,-1,-1,-2,-2,10.325000000000001
2066,-1,1,-1,-1,-1,-1,0,-1,10.33
2067,-2,-1,-3,-3,-1,1,-1,0,10.335
2068,-2,-2,-4,1,0,1,-1,-2,10.34
2069,2,1,0,-3,-1,-1,0,1,10.345
2070,1,0,-1,-3,0,-2,-1,0,10.35
2071,0,1,6,1,2,0,-1,1,10.355
2072,-1,-1,0,-3,-2,-2,-2,0,10.36
2073,-1,-1,0,-2,-1,0,0,-1,10.365
2074,-1,-2,-6,-1,-1,-3,-2,-1,10.370000000000001
2075,-1,0,4,0,-3,-2,-2,-3,10.375
2076,-1,-2,-2,3,2,-2,0,0,10.38
2077,0,0,-5,-3,2,3,2,0,10.385
2078,-2,-3,-6,-1,0,0,0,-1,10.39
2079,-2,-2,-1,-8,0,-3,-2,-2,10.395
2080,-1,-1,2,3,-1,-2,-2,-1,10.4
2081,-1,0,3,0,-3,-1,-1,1,10.405
2082,0,-1,-1,0,-2,-2,0,-1,10.41
2083,-1,1,8,3,-1,-2,2,0,10.415000000000001
2084,0,-3,-1,0,-1,-1,0,-1,10.42
2085,0,-1,-3,-7,0,0,0,0,10.425
2086,-1,-2,0,3,0,0,-1,0,10.43
2087,0,-1,-2,0,0,0,1,0,10.435
2088,-1,0,2,-1,-1,0,0,-1,10.44
2089,-1,0,-2,8,-1,-3,-2,-3,10.445
2090,-2,-1,-4,-3,-1,1,1,-2,10.450000000000001
2091,-2,-2,-12,-2,1,0,0,0,10.455
2092,-3,0,8,-2,-1,0,-2,-1,10.46
2093,1,-1,0,-2,-2,0,0,2,10.465
2094,-1,-1,1,-1,-1,-3,-1,0,10.47
2095,0,0,6,0,-3,0,-1,-1,10.475
2096,0,-1,-6,0,0,1,2,-1,10.48
2097,-3,-1,2,-1,-1,-1,-4,-2,10.485
2098,-1,0,-4,-1,-2,-1,0,0,10.49
2099,0,-2,-1,4,1,0,-1,0,10.495000000000001
2100,0,-2,-9,-13,-1,-3,-4,0,10.5
2101,0,-2,-3,2,-1,-1,-2,-2,10.505
2102,0,-1,6,1,-1,0,-2,0,10.51
2103,0,-1,-15,1,0,1,1,-2,10.515
2104,0,1,5,3,1,1,-2,-1,10.52
2105,-2,-2,-2,-1,-1,-2,-2,-1,10.525
2106,-1,2,4,-1,-3,-2,-1,-1,10.53
2107,-1,-2,-16,-8,-3,-1,-2,-3,10.535
2108,-1,-1,3,6,0,1,1,0,10.540000000000001
2109,0,0,2,-4,0,0,-1,0,10.545
2110,-3,-2,-5,-3,-3,-1,-2,-1,10.55
2111,0,-2,-1,-3,-2,-2,-2,0,10.555
2112,-1,2,6,4,-1,1,1,-1,10.56
2113,0,0,1,-1,1,-1,0,-2,10.565
2114,0,-1,5,-2,-1,-1,-1,-1,10.57
2115,-1,-1,0,0,1,1,-1,1,10.575000000000001
2116,0,1,1,1,-1,-1,-2,-1,10.58
2117,-1,-1,1,2,-2,-2,-1,0,10.585
2118,0,0,-5,0,0,2,-2,0,10.59
2119,-1,-2,-1,-2,0,0,1,-3,10.595
2120,1,-1,2,2,-2,-1,-3,-1,10.6
2121,-1,-3,-7,-1,0,1,1,-1,10.605
2122,0,0,-9,-3,0,1,0,0,10.61
2123,-1,-2,9,-3,0,0,0,1,10.615
2124,0,-1,-9,-2,-1,-1,-2,0,10.620000000000001
2125,0,0,2,2,-3,-2,-2,-1,10.625
2126,0,-1,-5,-10,-2,-3,0,-3,10.63
2127,0,-1,0,-1,-3,-1,0,-1,10.635
2128,-1,-1,0,-2,-2,-1,-1,-2,10.64
2129,0,0,-3,-1,-1,-1,-2,-1,10.645
2130,-1,-4,-2,-1,0,1,1,-2,10.65
2131,-1,2,2,2,-2,-2,0,-1,10.655
2132,-2,-5,-25,-4,3,-2,0,-1,10.66
2133,-1,0,-1,-2,-3,-3,0,-1,10.665000000000001
2134,1,1,1,1,-1,1,0,1,10.67
2135,-2,-1,-8,-2,-3,-3,-3,-1,10.675
2136,-2,-4,3,-1,-2,-3,-1,0,10.68
2137,-2,0,1,1,0,1,0,-1,10.685
2138,1,-1,12,-1,-2,-1,0,-1,10.69
2139,2,-1,5,-1,-1,-1,-1,-1,10.695
2140,-1,0,-5,-3,-4,-2,-1,-2,10.700000000000001
2141,-1,-2,1,-5,-2,1,-1,-2,10.705
2142,-1,-2,-10,2,-1,-2,-1,1,10.71
2143,-2,1,7,2,1,0,0,0,10.715
2144,0,0,11,0,-1,-1,-1,0,10.72
2145,-1,-1,-4,0,-2,-2,-1,-1,10.725
2146,0,-1,1,1,1,1,0,0,10.73
2147,0,-2,3,3,1,-2,-3,-2,10.735
2148,-1,-2,-7,-4,-1,0,0,-3,10.74
2149,-1,-5,-18,-6,-2,0,-1,-2,10.745000000000001
2150,-1,1,4,0,-3,-3,-1,-2,10.75
2151,-1,-2,-8,-3,-1,-1,0,-1,10.755
2152,-1,0,4,1,0,1,0,-1,10.76
2153,1,1,7,4,2,1,0,-1,10.765
2154,-1,-1,-2,-3,-1,-1,-2,-2,10.77
2155,1,1,4,1,-1,-1,-1,0,10.775
2156,0,-3,4,2,0,0,-1,0,10.78
2157,0,0,-4,-5,-2,-1,0,1,10.785
2158,-1,0,0,2,-2,-2,-1,0,10.790000000000001
2159,-1,-1,-2,0,0,-1,0,-1,10.795
2160,-1,1,0,-1,0,-1,0,0,10.8
2161,-2,-1,0,0,-1,-2,-1,-2,10.805
2162,-1,-1,1,2,0,-1,-4,-1,10.81
2163,-2,-2,-5,-2,-2,0,0,-2,10.815
2164,1,-1,10,-3,0,0,-2,0,10.82
2165,0,-2,-11,1,-2,-1,-2,-1,10.825000000000001
2166,1,1,7,0,1,0,1,0,10.83
2167,0,-1,3,-3,0,-2,-1,-3,10.835
2168,1,-1,3,5,-1,0,1,1,10.84
2169,-1,0,-5,-6,-2,-1,1,-1,10.845
2170,-1,-3,-4,-4,-3,-2,-2,-1,10.85
2171,1,1,6,0,-1,-1,-1,0,10.855
2172,-2,0,-2,-1,-2,1,0,0,10.86
2173,0,0,0,4,-1,-1,-1,1,10.865
2174,-1,2,3,3,0,-2,0,-1,10.870000000000001
2175,-1,-3,-20,-7,-1,0,0,0,10.875
2176,-1,-1,7,0,-2,-3,0,-1,10.88
2177,0,-1,1,1,1,-1,0,-2,10.885
2178,-2,-3,-7,-2,-1,-1,-2,-1,10.89
2179,0,0,1,3,1,1,-1,0,10.895
2180,-1,-1,-2,-1,-1,2,-1,-1,10.9
2181,0,-1,6,-2,-2,0,-1,-1,10.905
2182,-1,-2,-1,-1,-1,-1,-1,0,10.91
2183,-1,-2,-4,2,-1,-3,-1,-1,10.915000000000001
2184,-1,0,-1,3,-1,-1,1,0,10.92
2185,-1,-1,0,-3,0,0,0,0,10.925
2186,-1,-2,-9,-5,-1,-1,1,-1,10.93
2187,0,-2,-2,-4,-3,-1,-2,0,10.935
2188,0,2,4,2,0,-1,-1,-1,10.94
2189,-1,-3,-10,-3,-1,-3,-2,-2,10.945
2190,-1,-1,-4,0,-1,-1,-1,0,10.950000000000001
2191,-1,-3,2,0,-1,-3,0,-1,10.955
2192,1,-1,1,4,-1,1,1,-1,10.96
2193,0,-1,-4,-3,0,1,-1,0,10.965
2194,1,2,3,1,-1,3,0,-1,10.97
2195,-1,2,9,1,0,0,1,0,10.975
2196,-2,-1,-3,1,1,-2,0,-1,10.98
2197,-3,-1,-2,-3,-1,-1,0,0,10.985
2198,0,0,-1,-2,-2,-3,-2,-3,10.99
2199,0,1,-1,1,-1,1,-1,-2,10.995000000000001
2200,-2,-2,-7,-2,-3,-1,-2,0,11.0
2201,0,1,11,0,4,0,1,0,11.005
2202,-1,-1,2,-2,-1,0,-2,-1,11.01
2203,-1,-1,-2,0,0,-2,-1,-1,11.015
2204,-1,-3,-5,-5,-2,-3,-3,-1,11.02
2205,-1,0,2,2,-2,1,0,-1,11.025
2206,0,1,0,1,0,-1,-1,1,11.03
2207,-1,-1,-5,-1,0,-1,-1,-2,11.035
2208,0,2,13,-3,-1,0,-3,-1,11.040000000000001
2209,0,-2,-8,9,2,-1,0,1,11.045
2210,0,-1,-8,-8,-2,-1,0,-1,11.05
2211,0,0,4,2,-1,-1,0,-1,11.055
2212,2,0,-3,-12,-1,-1,-2,-1,11.06
2213,0,1,9,5,-1,-1,-3,-3,11.065
2214,-2,-1,8,3,-1,-1,-1,0,11.07
2215,0,-1,-5,-1,-2,0,1,2,11.075000000000001
2216,0,0,-7,2,0,-2,0,0,11.08
2217,-1,0,-3,-3,-2,-1,0,-1,11.085
2218,0,-1,-1,2,-1,0,-1,0,11.09
2219,-1,2,0,-2,-1,-1,-2,-1,11.095
2220,-2,-1,-1,1,-1,-1,0,-2,11.1
2221,-1,-1,2,-3,-3,-1,-2,0,11.105
2222,-1,-1,-1,0,-2,0,-2,0,11.11
2223,0,-2,6,-2,0,2,0,-1,11.115
2224,-2,-2,-5,2,-1,0,0,-2,11.120000000000001
2225,1,0,1,-3,0,-1,0,0,11.125
2226,0,-2,-6,2,-1,0,0,-3,11.13
2227,-1,1,5,-3,0,-3,-1,0,11.135
2228,-1,-3,-6,2,-1,-1,-1,0,11.14
2229,-2,-1,2,-3,-1,-1,-2,-3,11.145
2230,-1,-1,-3,-5,1,0,3,0,11.15
2231,0,0,0,6,0,2,2,0,11.155
2232,-2,-2,-5,-9,-3,-3,-1,-2,11.16
2233,-1,-2,-5,3,-1,-3,-1,-2,11.165000000000001
2234,-1,1,-3,0,1,-1,-1,-2,11.17
2235,-1,0,-6,-8,-3,-1,-2,0,11.175
2236,0,-1,5,1,1,-1,1,-1,11.18
2237,0,0,-2,-3,0,0,-1,-2,11.185
2238,-1,-4,-12,-1,-4,-2,0,-1,11.19
2239,-2,-2,-6,4,-1,0,0,-1,11.195
2240,-1,0,-1,2,-1,-1,-1,0,11.200000000000001
2241,0,-1,3,-3,-2,0,-1,1,11.205
2242,-1,0,4,2,0,-1,-1,0,11.21
2243,0,0,-6,-3,-2,-3,-3,-2,11.215
2244,-1,0,-4,0,-2,-1,0,-2,11.22
2245,-1,1,-2,2,0,2,0,0,11.225
2246,0,-4,-5,-3,-1,1,0,1,11.23
2247,0,0,-2,1,0,-1,-1,0,11.235
2248,-1,0,8,-4,-1,-1,-2,0,11.24
2249,-2,-4,-19,-1,-2,-3,-3,-1,11.245000000000001
2250,0,1,5,-3,-1,-3,-1,-1,11.25
2251,0,-2,4,0,-1,0,-1,-1,11.255
2252,-1,-3,0,5,0,-1,0,1,11.26
2253,-1,-2,-4,-11,-3,0,-1,0,11.265
2254,-1,4,24,8,2,2,1,-2,11.27
2255,-3,-7,-41,-7,-3,-2,-1,-1,11.275
2256,1,-1,0,0,-2,0,-4,-1,11.28
2257,1,0,12,3,1,1,-2,0,11.285
2258,0,1,-2,-2,-1,-2,-1,-1,11.290000000000001
2259,-1,1,13,0,1,0,0,-1,11.295
2260,0,0,-6,-1,0,1,-1,-1,11.3
2261,-2,-3,-1,0,-2,0,-1,-1,11.305
2262,-2,-2,-10,-4,-1,0,-2,-2,11.31
2263,0,0,4,1,0,-2,-1,1,11.315
2264,-2,0,-6,-5,-1,0,0,-1,11.32
2265,0,0,2,0,-1,-1,-1,0,11.325000000000001
2266,1,0,-4,6,0,0,-1,0,11.33
2267,-2,1,4,-2,-1,-2,-2,-2,11.335
2268,-1,-3,-6,-2,0,-2,-1,-2,11.34
2269,-1,1,-9,-9,0,-1,0,0,11.345
2270,-2,0,-2,1,0,0,-1,0,11.35
2271,-1,0,3,0,-1,-2,0,0,11.355
2272,0,1,1,1,0,-3,-2,1,11.36
2273,-2,-1,2,5,-2,-2,-1,-1,11.365
2274,-1,-2,-2,-6,0,-4,-2,-3,11.370000000000001
2275,-1,-3,-6,-3,0,1,0,0,11.375
2276,0,-1,5,-1,-1,1,0,-1,11.38
2277,0,-3,-2,-1,0,0,1,-1,11.385
2278,-1,-2,-1,-2,-1,-3,-1,-2,11.39
2279,0,1,5,3,-1,0,-2,0,11.395
2280,-1,-1,4,0,-1,2,0,-1,11.4
2281,-1,-1,-6,-1,2,-1,-1,-1,11.405
2282,-1,-1,-4,-2,-2,-2,-1,-1,11.41
2283,-2,-1,5,1,-1,-1,-1,-2,11.415000000000001
2284,1,-1,-10,0,-2,-2,-2,-1,11.42
2285,0,2,10,1,0,-1,0,-1,11.425
2286,1,-2,-1,0,-1,0,-1,-1,11.43
2287,-1,0,12,-2,-2,-1,-1,0,11.435
2288,-1,0,9,0,0,-1,0,-1,11.44
2289,-1,-1,0,0,0,0,0,-1,11.445
2290,0,-1,-3,1,1,-1,1,-2,11.450000000000001
2291,-2,-1,-9,-1,-2,-1,-2,0,11.455
2292,-2,-2,0,-7,-2,0,0,0,11.46
2293,0,-1,1,0,-2,0,1,0,11.465
2294,-2,-1,-1,-2,-2,-1,-2,-2,11.47
2295,0,-1,-4,4,0,-3,0,-2,11.475
2296,-1,-1,-2,0,1,-1,-1,0,11.48
2297,0,-1,-6,-2,-2,0,-1,-1,11.485
2298,-2,0,-6,1,-2,-1,-2,-1,11.49
2299,0,-2,-6,-6,-2,-3,-2,-3,11.495000000000001
2300,1,-1,-6,0,-1,-1,0,-1,11.5
2301,-1,-2,1,5,0,1,2,0,11.505
2302,1,-2,-4,-3,-1,-1,-1,1,11.51
2303,0,0,9,4,2,-1,-1,-1,11.515
2304,-2,-3,-18,-4,-3,-3,-3,-3,11.52
2305,0,-1,-2,2,1,-1,-1,0,11.525
2306,-1,-1,0,0,-1,1,0,0,11.53
2307,-1,-1,-1,0,0,-1,0,-3,11.535
2308,1,0,-5,-4,-1,1,0,-1,11.540000000000001
2309,0,1,13,0,-1,-4,-1,-1,11.545
2310,-1,-3,-12,-4,-1,-2,-2,0,11.55
2311,-1,-1,0,-5,-2,1,1,1,11.555
2312,-1,0,9,6,2,0,0,0,11.56
2313,0,0,-3,-4,-3,-1,-3,-1,11.565
2314,-1,-1,2,1,-2,-1,0,-1,11.57
2315,0,-1,1,3,-2,0,-2,0,11.575000000000001
2316,-1,1,8,4,0,-1,-1,-1,11.58
2317,-1,-3,-10,-4,-2,-1,0,0,11.585
2318,1,0,9,-8,-2,0,-2,-1,11.59
2319,-1,-2,-11,-1,-1,-1,-1,-1,11.595
2320,-1,-2,3,-6,-1,-4,-1,0,11.6
2321,-1,-1,-1,2,1,0,1,0,11.605
2322,0,1,5,3,-1,0,0,-1,11.61
2323,-2,0,-1,-4,-2,-2,-2,-1,11.615
2324,-1,-1,-1,-2,0,-1,1,-1,11.620000000000001
2325,-2,-2,1,-2,0,0,-1,-1,11.625
2326,-2,-1,-3,-1,0,-2,1,0,11.63
2327,0,-1,0,0,0,1,0,1,11.635
2328,-2,0,1,-3,-2,-2,-3,0,11.64
2329,0,0,0,-1,-1,1,0,0,11.645
2330,-1,-4,3,3,0,0,0,-1,11.65
2331,-2,0,11,-1,-3,-1,-1,-2,11.655
2332,-1,-3,-10,-1,-1,-1,-1,-2,11.66
2333,-1,0,-1,-1,-2,-4,-1,-1,11.665000000000001
2334,0,0,0,-4,-2,-2,-1,-1,11.67
2335,-2,-4,2,2,0,-1,0,-2,11.675
2336,1,-1,-4,2,1,1,-1,-1,11.68
2337,-1,-3,7,2,-1,-1,-1,-2,11.685
2338,0,0,1,-3,0,-2,-1,0,11.69
2339,0,-2,-7,-3,0,-1,1,0,11.695
2340,-2,0,-6,0,-1,0,-2,-3,11.700000000000001
2341,0,-1,-3,1,-1,-1,0,-1,11.705
2342,-2,-1,-5,1,-2,-1,-1,-1,11.71
2343,-1,-1,7,0,1,1,-1,0,11.715
2344,-2,-7,-15,-2,-4,-3,-1,1,11.72
2345,-1,-1,1,-3,-2,0,-2,-1,11.725
2346,0,0,1,2,1,1,2,2,11.73
2347,2,1,-10,-2,0,-2,-1,-1,11.735
2348,-1,0,8,3,-1,0,0,-1,11.74
2349,-2,1,-2,-1,-1,0,-1,1,11.745000000000001
2350,-2,-3,-13,-5,-2,1,0,-1,11.75
2351,-1,-2,3,1,-1,-3,-1,-3,11.755
2352,-1,0,1,0,1,-1,-1,-2,11.76
2353,1,1,8,-5,-2,-2,0,-1,11.765
2354,-2,-5,-28,4,-2,-3,-2,-2,11.77
2355,0,0,5,3,-1,-1,1,-1,11.775
2356,-1,2,1,-4,0,0,1,0,11.78
2357,0,-3,-7,3,2,1,0,2,11.785
2358,-1,1,1,-13,-2,-1,-3,-1,11.790000000000001
2359,-2,-3,-9,0,-1,0,1,-1,11.795
2360,1,-1,1,2,-1,-2,-1,-2,11.8
2361,0,0,-4,-2,-1,0,-2,-1,11.805
2362,0,1,12,3,-1,-2,-2,-1,11.81
2363,-1,-1,-3,0,0,1,1,-1,11.815
2364,-1,3,14,-5,-1,0,-1,0,11.82
2365,-2,-2,-4,2,-2,0,0,-1,11.825000000000001
2366,2,0,0,1,-1,1,1,-1,11.83
2367,0,-1,-2,-3,0,-1,-2,0,11.835
2368,-1,-2,3,1,-1,-2,0,-1,11.84
2369,-2,-1,-3,-3,-2,-2,-2,-1,11.845
2370,0,0,0,1,0,0,-1,-1,11.85
2371,-2,-2,-1,-4,-2,-2,-2,-1,11.855
2372,0,-3,-10,0,0,0,0,-1,11.86
2373,2,0,-4,0,1,-1,-3,-1,11.865
2374,-1,-1,4,0,-2,-1,-2,0,11.870000000000001
2375,1,0,0,-2,1,0,-1,-2,11.875
2376,-2,0,-3,-1,0,-2,-3,-2,11.88
2377,-2,-1,-1,-5,0,1,3,1,11.885
2378,-1,0,3,9,3,2,0,0,11.89
2379,-2,-6,-27,-15,-4,-1,-1,-1,11.895
2380,-1,-1,7,-1,-1,0,1,0,11.9
2381,0,0,-1,-1,-2,-3,-1,-3,11.905
2382,0,1,3,-4,0,0,0,-2,11.91
2383,0,1,0,4,1,-1,0,2,11.915000000000001
2384,0,-1,8,-4,-1,-2,-1,-1,11.92
2385,1,0,3,1,1,-2,-1,0,11.925
2386,-3,-5,0,-2,-2,-4,-2,-3,11.93
2387,2,6,-2,1,0,-1,-1,0,11.935
2388,-3,-1,-4,-5,-1,-1,-1,-1,11.94
2389,1,5,18,0,1,-1,0,-1,11.945
2390,0,2,7,-1,-14,-4,0,-1,11.950000000000001
2391,-2,-14,-24,4,6,0,-1,0,11.955
2392,-2,2,-1,1,-2,-1,-1,-1,11.96
2393,-2,1,3,-10,-3,1,-4,-1,11.965
2394,1,13,-12,-1,4,1,-1,-1,11.97
2395,-1,-8,17,2,-3,2,1,0,11.975
2396,-2,-11,-22,-14,-4,-3,-3,-1,11.98
2397,-4,5,7,13,1,-2,0,-2,11.985
2398,-5,-5,-57,-14,0,-5,-6,-5,11.99
2399,7,20,40,9,-4,-2,1,1,11.995000000000001
2400,4,-17,-18,-5,0,-6,-5,-2,12.0
2401,-13,-27,-16,14,47,21,6,-1,12.005
2402,-1,0,-12,-25,-11,-3,-2,-3,12.01
2403,-6,22,16,29,-9,-7,-1,-1,12.015
2404,-4,3,-41,-14,17,13,2,-1,12.02
2405,5,-24,-32,-7,-27,-5,-1,1,12.025
2406,-1,2,47,7,-23,-13,0,-1,12.030000000000001
2407,4,-13,41,1,34,16,1,3,12.035
2408,11,45,-6,-13,-29,2,3,1,12.040000000000001
2409,-9,44,-6,-5,-21,-11,-1,3,12.045
2410,-13,-28,-14,-8,9,6,-5,-12,12.05
2411,5,10,11,-9,-11,-12,-3,0,12.055
2412,14,2,22,22,10,3,1,6,12.06
2413,7,-13,1,-14,-13,-12,-10,-8,12.065
2414,23,33,60,7,0,-3,5,10,12.07
2415,-9,-22,-69,-10,12,6,1,16,12.075000000000001
2416,-2,-2,6,6,17,0,-3,-11,12.08
2417,-24,23,59,11,-15,14,9,7,12.085
2418,41,23,20,4,-12,-14,-4,-7,12.09
2419,-53,-51,-45,-20,22,8,-6,23,12.095
2420,-10,-33,0,-4,-86,-22,-4,-21,12.1
2421,-2,-11,-42,-9,18,-6,-6,-12,12.105
2422,-5,27,63,19,-19,3,2,-4,12.11
2423,27,46,-14,-20,-1,-9,-5,0,12.115
2424,-5,3,21,22,0,2,6,13,12.120000000000001
2425,23,-24,1,20,66,26,12,17,12.125
2426,-41,-8,31,46,81,28,6,12,12.13
2427,26,6,-69,-11,-38,-7,4,-17,12.135
2428,0,4,45,6,26,0,-4,0,12.14
2429,22,-7,-16,2,-11,-2,0,5,12.145
2430,-29,-20,-51,-16,-32,-16,0,15,12.15
2431,-30,22,35,20,31,21,5,-25,12.155000000000001
2432,32,35,45,14,-19,-9,0,0,12.16
2433,-7,-10,-2,-10,-49,-17,0,0,12.165000000000001
2434,39,-24,30,24,44,30,12,59,12.17
2435,-76,-33,-16,-30,-31,-28,-22,-29,12.175
2436,4,-22,-43,-22,13,8,-3,-11,12.18
2437,-11,18,60,12,10,-16,-12,-14,12.185
2438,11,8,-43,-8,12,-2,3,-14,12.19
2439,45,24,59,19,-8,10,12,28,12.195
2440,-29,-24,-59,-9,17,9,-1,5,12.200000000000001
2441,14,3,9,10,-12,-12,-2,2,12.205
2442,-2,-17,-85,-34,-24,-3,-4,-15,12.21
2443,32,13,27,9,-23,-13,-1,30,12.215
2444,17,21,63,6,3,-4,4,-26,12.22
2445,-22,-10,36,5,8,11,0,-1,12.225
2446,-36,7,-46,1,2,-7,-9,-39,12.23
2447,15,9,-16,-24,-52,4,4,-28,12.235
2448,14,51,45,-2,6,-6,-8,8,12.24
2449,12,-14,-59,-49,-29,-19,-11,-3,12.245000000000001
2450,-4,-2,-34,6,38,10,1,9,12.25
2451,19,-15,4,1,41,1,0,-2,12.255
2452,-44,-8,-6,0,9,21,7,-6,12.26
2453,25,24,-73,-18,1,3,5,18,12.265
2454,-59,18,33,-5,-25,-16,-9,-21,12.27
2455,15,-1,-33,7,-28,-10,-5,-25,12.275
2456,27,9,-5,-18,0,4,7,30,12.280000000000001
2457,-28,-83,9,11,2,-6,-6,-29,12.285
2458,26,-5,91,23,-9,-5,2,2,12.290000000000001
2459,50,4,66,11,20,3,3,45,12.295
2460,-45,65,10,14,14,-9,-11,-20,12.3
2461,-29,-31,-18,-33,-25,1,0,-15,12.305
2462,18,8,7,-9,-33,3,6,8,12.31
2463,-10,10,30,9,15,4,8,11,12.315
2464,29,14,-94,13,26,0,0,11,12.32
2465,-4,19,103,27,14,-10,-6,-5,12.325000000000001
2466,-18,0,-82,-33,-40,-6,-3,-12,12.33
2467,0,-17,-39,-30,33,-5,-15,-49,12.335
2468,-2,36,2,-28,-69,1,0,-1,12.34
2469,-7,58,24,31,52,6,0,9,12.345
2470,-5,-30,-86,-19,-15,1,6,3,12.35
2471,28,10,-2,13,5,8,2,-20,12.355
2472,-17,-17,44,10,1,-17,-8,-15,12.36
2473,22,34,-42,-24,5,12,0,4,12.365
2474,47,10,97,38,-11,3,9,33,12.370000000000001
2475,-102,-42,11,-11,-42,-21,-15,-63,12.375
2476,30,-84,17,21,39,-2,-11,-32,12.38
2477,44,22,-23,21,-47,0,-8,-30,12.385
2478,119,44,9,-13,13,-21,-3,23,12.39
2479,-75,-78,-44,-17,-1,13,9,39,12.395
2480,-46,-31,-66,16,1,5,6,14,12.4
2481,26,-5,36,-33,-64,-36,-9,-8,12.405000000000001
2482,-28,81,-83,18,84,35,-3,-38,12.41
2483,29,-36,-53,-4,-5,2,-3,-2,12.415000000000001
2484,4,-3,-66,-22,-35,-28,-11,25,12.42
2485,28,22,-20,3,1,7,13,31,12.425
2486,-24,-9,10,27,-33,-23,-4,24,12.43
2487,37,28,9,-5,55,35,7,-8,12.435
2488,-61,21,66,40,29,10,1,-26,12.44
2489,19,-79,-25,7,-23,-19,1,27,12.445
2490,32,54,4,-44,-19,7,4,30,12.450000000000001
2491,-50,-2,36,7,-37,-3,0,-21,12.455
2492,25,7,57,27,58,47,20,29,12.46
2493,37,26,-25,-17,-19,-7,-1,5,12.465
2494,-56,-52,35,1,-26,-13,-13,-25,12.47
2495,56,5,25,42,46,21,6,23,12.475
2496,0,-24,14,-8,-26,-15,1,11,12.48
2497,-80,7,7,5,56,16,10,21,12.485
2498,46,-91,-14,-39,3,0,-6,-22,12.49
2499,35,16,24,5,-18,-23,-11,-4,12.495000000000001
2500,-28,-11,-5,-14,27,7,0,-49,12.5
2501,-18,-30,41,-7,-12,-4,-8,7,12.505
2502,-30,80,67,6,60,18,4,-2,12.51
2503,7,30,-2,-33,-43,-27,-6,26,12.515
2504,39,-14,-49,-53,-43,5,9,30,12.52
2505,-3,0,46,16,-6,-24,-12,7,12.525
2506,-81,-24,12,55,40,39,9,-52,12.530000000000001
2507,-37,6,-64,-43,-30,-32,-27,-36,12.535
2508,96,31,43,-32,1,-11,11,59,12.540000000000001
2509,-42,95,-35,1,5,18,11,11,12.545
2510,-42,-81,-45,-4,-69,-25,-21,-71,12.55
2511,21,11,-39,-2,24,7,10,17,12.555
2512,-38,-106,-77,-31,-23,-14,-21,-19,12.56
2513,34,35,67,22,82,56,25,17,12.565
2514,-72,-9,50,-16,-52,-33,-10,34,12.57
2515,32,5,64,37,18,25,15,2,12.575000000000001
2516,21,-42,3,-22,0,-19,-8,11,12.58
2517,25,-13,71,24,11,20,7,28,12.585
2518,-17,66,18,-11,53,45,7,-13,12.59
2519,28,0,-53,-27,-19,-32,-13,-5,12.595
2520,-3,-59,37,-21,-90,-5,0,17,12.6
2521,-26,-5,-13,37,36,-1,-3,-21,12.605
2522,-44,-102,-2,-16,29,7,-4,-36,12.61
2523,17,-12,-50,57,-27,-8,8,32,12.615
2524,12,-15,16,24,2,-10,-19,-56,12.620000000000001
2525,34,12,-90,-62,-29,-5,8,17,12.625
2526,33,17,-18,-20,-36,-25,5,69,12.63
2527,-6,36,-1,-3,24,8,-5,-25,12.635
2528,-79,-8,6,33,-20,-3,5,-6,12.64
2529,-3,-100,-113,8,-27,-27,-17,-23,12.645
2530,19,4,37,27,0,17,9,-11,12.65
2531,-30,6,116,-20,14,3,-6,-16,12.655000000000001
2532,5,8,-79,3,23,0,-6,-2,12.66
2533,-28,32,38,-11,-4,-10,-8,-27,12.665000000000001
2534,80,43,-33,-10,-28,0,9,10,12.67
2535,-2,1,-24,-15,12,6,2,4,12.675
2536,33,80,16,-2,27,7,9,28,12.68
2537,-10,-15,-43,12,33,16,-1,-15,12.685
2538,2,-8,-52,0,2,-1,-3,-17,12.69
2539,-40,-78,65,5,4,29,14,41,12.695
2540,-7,64,5,-3,-11,-18,-10,-3,12.700000000000001
2541,70,30,-42,-46,-16,-4,-8,11,12.705
2542,63,-6,-31,-7,-38,-25,-9,-11,12.71
2543,9,78,12,-2,-5,-4,11,28,12.715
2544,-10,46,31,23,-6,12,-2,23,12.72
2545,-51,-13,89,48,40,0,2,-26,12.725
2546,-2,56,14,-17,12,-3,-3,9,12.73
2547,66,18,43,-3,-45,19,14,34,12.735
2548,-45,-79,-87,-39,22,0,-5,-17,12.74
2549,-37,-26,-36,-12,-28,-10,-5,-48,12.745000000000001
2550,26,18,21,-1,-27,-10,1,23,12.75
2551,10,55,50,20,-3,8,14,27,12.755
2552,-41,100,53,7,-30,0,-3,-12,12.76
2553,6,-62,-16,-21,-1,-2,-21,-49,12.765
2554,-23,-14,-38,17,-3,1,8,17,12.77
2555,51,-3,26,-6,-35,-28,-16,-18,12.775
2556,30,14,61,41,44,24,23,82,12.780000000000001
2557,-35,-14,8,-31,-84,-26,-15,-31,12.785
2558,13,6,41,-24,17,4,6,4,12.790000000000001
2559,-40,3,15,1,7,-2,-6,-32,12.795
2560,33,-43,-41,-4,-1,-18,-9,-34,12.8
2561,112,30,16,-8,-9,-13,5,35,12.805
2562,29,-65,-77,-30,7,-4,-2,23,12.81
2563,-90,-2,15,68,70,22,-5,-29,12.815
2564,11,69,54,18,6,-9,-4,-29,12.82
2565,-11,-11,8,28,-15,1,11,30,12.825000000000001
2566,18,-5,39,3,46,14,-5,-23,12.83
2567,-4,-32,-37,42,-18,-1,9,11,12.835
2568,28,32,29,-15,-14,5,-2,-2,12.84
2569,-46,45,7,6,39,10,-5,-37,12.845
2570,5,-29,-5,2,-25,-15,-3,25,12.85
2571,45,-4,77,10,-21,-4,9,59,12.855
2572,-22,-23,-7,27,55,33,10,-20,12.86
2573,13,50,32,-3,-49,-5,-5,-5,12.865
2574,-39,10,27,23,63,21,3,4,12.870000000000001
2575,-51,-78,-69,-34,-45,-37,-32,-71,12.875
2576,68,66,-4,-21,-19,0,19,42,12.88
2577,-100,-104,-5,9,34,10,-5,-17,12.885
2578,19,70,46,17,-7,-6,-10,-25,12.89
2579,-14,-11,-4,0,-4,-3,1,6,12.895
2580,25,6,25,-2,-54,-24,-1,20,12.9
2581,-66,32,80,33,68,34,6,-5,12.905000000000001
2582,29,-16,-19,18,45,11,7,17,12.91
2583,24,3,-37,-52,-9,-9,0,19,12.915000000000001
2584,-49,-47,37,2,-23,1,-2,-28,12.92
2585,49,2,56,9,4,13,5,-12,12.925
2586,-29,-39,12,-17,8,0,-4,13,12.93
2587,55,47,-32,4,22,8,4,15,12.935
2588,-59,-28,-42,-37,16,-26,-26,-61,12.94
2589,60,86,-12,-20,-45,2,16,44,12.945
2590,-50,-42,-42,10,-35,-12,-10,-51,12.950000000000001
2591,8,18,24,4,22,3,0,4,12.955
2592,-27,-4,-14,-22,-25,-6,-3,11,12.96
2593,37,-30,-42,-21,20,-26,-9,-4,12.965
2594,-34,24,23,23,-28,35,15,11,12.97
2595,12,-8,-32,-6,43,7,-6,-37,12.975
2596,-8,-45,-72,12,26,1,-4,-15,12.98
2597,2,6,-27,-37,-44,-31,-12,3,12.985
2598,52,-32,73,18,4,4,11,49,12.99
2599,-53,22,57,22,9,-8,-11,-8,12.995000000000001
2600,29,68,41,2,8,10,8,13,13.0
2601,16,-48,-41,-28,-47,-11,-5,-5,13.005
2602,-13,1,-5,-48,-34,-31,-8,8,13.01
2603,-22,20,-5,24,27,25,5,-20,13.015
2604,41,-31,-43,3,-4,-6,1,-1,13.02
2605,-28,4,1,7,-9,-9,-3,22,13.025
2606,25,13,41,-21,-20,-1,1,-6,13.030000000000001
2607,-16,-14,-52,-11,-40,-18,-2,17,13.035
2608,-25,13,10,4,-3,22,10,12,13.040000000000001
2609,12,-3,-36,16,44,16,-9,-55,13.045
2610,-9,2,-35,20,-19,-23,-18,-35,13.05
2611,30,19,-20,-38,-52,-25,0,4,13.055
2612,26,-1,48,3,-2,21,12,54,13.06
2613,-45,8,30,2,-24,-7,-4,-3,13.065
2614,40,82,15,21,68,4,-3,-29,13.07
2615,-25,-12,-28,-32,-37,-15,-2,26,13.075000000000001
2616,1,-4,-9,3,29,11,-7,-29,13.08
2617,21,-3,73,18,14,20,16,33,13.085
2618,-12,-4,-27,-38,-11,-6,2,-3,13.09
2619,-3,16,-20,-25,1,-6,-6,-11,13.095
2620,18,-8,-18,-15,-16,-7,1,9,13.1
2621,-42,-21,-39,-2,54,16,-2,-13,13.105
2622,24,10,1,13,7,4,6,32,13.11
2623,-46,-16,34,22,1,9,-5,-80,13.115
2624,26,-14,11,13,2,-8,2,22,13.120000000000001
2625,3,19,-1,14,-15,-7,3,15,13.125
2626,12,13,12,-1,-16,-8,-1,18,13.13
2627,2,-4,-13,-6,9,5,-8,-75,13.135
2628,-16,-7,7,7,9,3,7,53,13.14
2629,27,21,12,-6,-8,-1,4,12,13.145
2630,-21,-23,5,11,-1,0,-4,-3,13.15
2631,-7,-4,9,1,4,1,1,-18,13.155000000000001
2632,4,-9,23,9,-2,-3,-4,-26,13.16
2633,17,39,0,9,1,-1,-4,1,13.165000000000001
2634,-14,-58,1,-20,-15,-4,-5,17,13.17
2635,-3,-2,33,-1,5,3,4,21,13.175
2636,0,12,80,-9,-8,-11,-3,1,13.18
2637,-2,-8,100,-6,-2,5,5,-15,13.185
2638,-19,14,121,13,-3,-5,-9,-26,13.19
2639,12,-10,127,-2,1,1,2,35,13.195
2640,0,-3,111,6,5,-2,-4,-19,13.200000000000001
2641,8,7,109,-3,-4,0,-3,4,13.205
2642,-12,0,-14,1,-9,-3,-3,-1,13.21
2643,8,-6,-84,-4,4,2,0,26,13.215
2644,-8,-14,-109,-1,-7,-4,-10,-19,13.22
2645,-8,-7,-115,-4,-3,-3,-1,5,13.225
2646,9,12,-42,2,-4,-4,-5,-1,13.23
2647,5,-9,-86,1,0,-1,0,9,13.235
2648,-15,-10,-104,3,3,1,1,-15,13.24
2649,1,2,-93,-1,-7,-1,1,-8,13.245000000000001
2650,-7,-4,-68,-4,-1,-2,-1,-13,13.25
2651,5,2,-16,5,1,2,4,11,13.255
2652,-4,-5,-15,2,-2,-2,-5,-18,13.26
2653,-1,-1,-28,-1,1,0,4,13,13.265
2654,-2,2,-51,-2,-5,-4,0,-2,13.27
2655,3,-7,-68,-1,0,-1,0,3,13.275
2656,-1,-2,-54,2,-1,-1,-3,-8,13.280000000000001
2657,-1,-3,-103,3,-1,0,2,6,13.285
2658,-7,-1,-96,-2,-3,-2,0,-4,13.290000000000001
2659,6,1,-62,2,1,-2,2,10,13.295
2660,-6,-6,-69,0,2,1,2,-9,13.3
2661,-3,2,-46,-2,-3,-2,0,6,13.305
2662,2,1,-29,2,-1,1,1,-2,13.31
2663,0,-1,-23,-1,1,1,4,7,13.315
2664,0,0,-4,-1,-2,-2,-1,-7,13.32
2665,0,0,0,-1,-2,-1,2,-1,13.325000000000001
2666,4,1,-2,2,-2,0,1,2,13.33
2667,4,-1,9,-1,1,1,3,3,13.335
2668,-4,-2,11,0,1,-1,-2,-7,13.34
2669,1,1,15,1,2,0,1,4,13.345
2670,-2,-1,11,-1,0,0,0,0,13.35
2671,0,1,19,-2,0,0,0,5,13.355
2672,-2,-3,13,-1,-2,-2,-4,-4,13.36
2673,0,-1,10,1,0,-1,0,1,13.365
2674,0,0,20,-1,-2,0,1,1,13.370000000000001
2675,0,-3,19,-1,0,2,0,2,13.375
2676,0,1,14,0,-1,-1,0,-3,13.38
2677,-1,-1,14,-1,-1,-1,0,0,13.385
2678,-1,-1,6,-1,0,-1,2,-1,13.39
2679,1,-1,9,1,0,0,-2,0,13.395
2680,-3,-3,16,-1,-1,0,-1,-2,13.4
2681,-1,-1,12,0,-1,0,-3,0,13.405000000000001
2682,-1,0,8,-1,1,0,-1,-1,13.41
2683,0,-2,1,-1,0,-1,-2,1,13.415000000000001
2684,-2,-2,0,-1,-1,-2,-1,-1,13.42
2685,-3,-1,-1,-2,-2,-2,-2,-1,13.425
2686,0,-1,-1,0,1,2,0,-1,13.43
2687,-1,0,2,0,-2,-1,-1,1,13.435
2688,-2,0,4,0,-1,-2,-2,-2,13.44
2689,0,0,10,2,-1,-1,-2,1,13.445
2690,-2,-5,-11,-1,-2,0,1,0,13.450000000000001
2691,-2,1,10,-1,-1,-3,-1,0,13.455
2692,0,-1,5,0,-2,-1,-2,-2,13.46
2693,0,0,8,0,0,0,-1,0,13.465
2694,1,-1,10,-2,-1,-1,-2,-1,13.47
2695,-1,0,7,-1,-1,1,-1,1,13.475
2696,0,-3,-9,-2,-1,-1,-1,-2,13.48
2697,-2,0,2,-2,-1,-2,-1,0,13.485
2698,-1,0,4,1,-1,-1,-2,-3,13.49
2699,0,-3,2,-4,-3,-2,1,-2,13.495000000000001
2700,-2,0,4,0,-1,-1,0,-1,13.5
2701,-2,0,0,-3,-2,-1,-1,-1,13.505
2702,0,0,5,-1,0,-2,-2,-1,13.51
2703,-2,0,1,3,-1,1,-2,1,13.515
2704,-2,-1,2,-4,0,2,1,1,13.52
2705,-1,-4,-15,-4,-2,-3,-2,0,13.525
2706,-1,3,5,-2,-2,-4,-1,-2,13.530000000000001
2707,0,1,2,-1,3,2,1,-1,13.535
2708,-2,-1,2,1,0,-1,-2,-1,13.540000000000001
2709,1,-1,5,-1,0,0,-1,-1,13.545
2710,-3,0,4,-3,-1,-1,-3,0,13.55
2711,-1,-1,-2,1,-1,-1,-1,-1,13.555
2712,-1,1,4,-3,1,0,0,-2,13.56
2713,0,0,4,0,0,-1,0,1,13.565
2714,-1,-1,2,0,-1,-1,-1,-2,13.57
2715,-2,0,17,3,1,0,-1,-1,13.575000000000001
2716,-1,-4,-9,-11,-4,-2,-2,-1,13.58
2717,0,-3,1,-2,-1,-1,1,-2,13.585
2718,1,-1,3,5,1,0,-1,-2,13.59
2719,-1,-4,-1,-2,-4,-3,-3,-1,13.595
2720,0,0,4,2,-1,-1,1,-2,13.6
2721,-2,1,0,2,1,2,0,-1,13.605
2722,-1,0,-13,-3,0,-1,1,0,13.61
2723,-1,0,-1,0,-2,-3,-1,0,13.615
2724,0,0,5,5,-3,-3,-3,0,13.620000000000001
2725,-2,-1,-1,-6,-1,-1,1,0,13.625
2726,-1,-1,-3,-1,-3,-2,-3,-1,13.63
2727,0,-2,-5,-1,1,2,1,0,13.635
2728,0,-3,-4,-3,-2,-1,-1,-2,13.64
2729,0,1,6,4,1,-1,-1,0,13.645
2730,-1,0,7,-1,0,-1,-1,-1,13.65
2731,0,-2,-2,0,-1,0,1,-2,13.655000000000001
2732,0,1,6,2,0,1,-1,-2,13.66
2733,-2,0,0,1,-1,-1,-1,0,13.665000000000001
2734,0,-2,1,-2,-2,-1,1,0,13.67
2735,-2,-1,-2,0,-3,-2,-3,-2,13.675
2736,0,-1,0,2,-2,-3,0,1,13.68
2737,0,-3,-2,0,-2,-3,-2,-1,13.685
2738,-1,1,0,-2,-1,1,-1,-2,13.69
2739,1,-1,-1,-2,0,-2,-1,-1,13.695
2740,-1,-2,-2,-2,2,3,-1,0,13.700000000000001
2741,1,0,-1,-1,-1,1,-2,0,13.705
2742,-1,-2,3,-1,0,-1,-1,0,13.71
2743,-2,2,-3,-1,1,-1,-2,1,13.715
2744,1,0,4,1,-2,-1,0,0,13.72
2745,0,-3,-15,-6,-2,-2,-1,-2,13.725
2746,1,1,15,8,1,-1,-2,0,13.73
2747,-3,-6,-34,-21,-1,1,-1,0,13.735
2748,0,-1,4,4,1,-1,0,-1,13.74
2749,-1,1,4,1,-2,0,1,1,13.745000000000001
2750,0,-1,0,0,-2,-1,-1,-1,13.75
2751,-1,2,5,1,-1,-2,-2,-1,13.755
2752,-2,-1,-1,-2,0,-2,-4,-2,13.76
2753,0,-2,0,-1,-1,-1,-2,-1,13.765
2754,-1,-3,-11,-5,-2,-2,0,0,13.77
2755,0,0,8,6,0,0,-1,-1,13.775
2756,-1,-1,-7,-2,1,-2,1,-2,13.780000000000001
2757,0,-2,5,1,-1,-1,0,-1,13.785
2758,-1,-1,-1,-4,-1,1,2,-1,13.790000000000001
2759,0,0,2,1,-1,0,-1,0,13.795
2760,-1,-2,1,-2,-3,-2,-2,-1,13.8
2761,-2,-1,-1,-2,1,-1,-1,-3,13.805
2762,-1,0,-2,1,-1,0,0,-1,13.81
2763,-1,1,6,-1,0,2,0,-3,13.815
2764,-1,0,4,-2,0,0,0,0,13.82
2765,-2,-2,4,3,0,-1,-3,1,13.825000000000001
2766,1,-1,-6,-4,-1,-1,-3,1,13.83
2767,-1,0,3,1,-1,-3,-1,-1,13.835
2768,-1,-1,-2,-1,1,1,1,0,13.84
2769,-2,1,1,0,-1,-1,0,-2,13.845
2770,0,0,6,-1,-1,0,0,0,13.85
2771,-1,-2,-1,-3,-1,-2,-2,-1,13.855
2772,0,-1,6,1,1,0,-2,1,13.86
2773,2,1,-7,4,-1,1,-1,0,13.865
2774,-1,-2,-2,0,1,-1,-1,-3,13.870000000000001
2775,-2,0,2,-1,-1,-1,-1,-1,13.875
2776,-3,1,-4,2,-1,0,-1,0,13.88
2777,-2,0,3,-4,-2,-1,-2,-1,13.885
2778,-1,-2,-2,-2,-1,-1,-2,-3,13.89
2779,0,0,-3,3,0,0,-2,-2,13.895
2780,-1,0,-6,-4,-3,-2,1,-3,13.9
2781,-2,-2,5,0,-1,-1,1,-1,13.905000000000001
2782,-1,-2,-5,-3,-3,0,1,0,13.91
2783,0,-1,-1,0,0,-1,-1,0,13.915000000000001
2784,-1,0,-3,-3,-2,-1,-1,0,13.92
2785,-1,-1,2,-4,-2,-3,-3,-2,13.925
2786,0,0,1,0,1,-1,1,-2,13.93
2787,0,-2,1,-1,-1,-1,3,-1,13.935
2788,-1,-2,-2,-1,-1,-1,-3,-1,13.94
2789,-1,-2,-3,0,0,-1,0,-1,13.945
2790,-1,-1,2,3,1,1,-2,-1,13.950000000000001
2791,-1,0,-4,-6,-2,-2,0,-1,13.955
2792,1,-1,-3,-4,-1,0,-1,-1,13.96
2793,1,-1,-6,-2,1,3,1,0,13.965
2794,-2,0,0,0,-4,-1,0,-1,13.97
2795,-1,0,4,3,-2,-3,-1,-2,13.975
2796,-2,0,-2,0,-1,-2,0,-1,13.98
2797,0,-1,-1,-2,-1,-2,-2,-1,13.985
2798,-1,0,2,-2,-1,0,-1,-1,13.99
2799,-3,-3,-7,4,0,-2,-2,-2,13.995000000000001
2800,-2,-1,-1,-7,-1,1,1,0,14.0
2801,-1,-1,-2,-2,-1,0,0,0,14.005
2802,0,-1,-1,-1,-1,-1,-1,0,14.01
2803,1,-1,2,-2,1,1,1,1,14.015
2804,0,0,-2,3,0,-2,-2,-1,14.02
2805,0,-1,0,0,0,0,-1,0,14.025
2806,0,-1,-3,-1,0,0,0,-1,14.030000000000001
2807,0,-2,1,-3,-2,-1,0,0,14.035
2808,-1,-1,-1,3,-1,-1,-2,-2,14.040000000000001
2809,0,0,-2,-1,-2,0,-1,-1,14.045
2810,0,0,-3,-1,2,2,0,-2,14.05
2811,-1,-1,1,0,-2,-1,-2,-1,14.055
2812,0,-1,0,1,0,-2,0,-1,14.06
2813,-2,-1,-3,-6,-3,-3,-3,-1,14.065
2814,-2,-3,-2,0,-1,-3,-3,0,14.07
2815,0,1,-5,0,0,1,1,-1,14.075000000000001
2816,0,-2,0,-1,-1,0,1,1,14.08
2817,0,2,10,3,-1,2,0,0,14.085
2818,-2,-1,-16,-3,-2,-3,-2,0,14.09
2819,0,1,2,-1,-1,0,-1,0,14.095
2820,0,2,14,-1,-2,-1,-3,0,14.1
2821,-2,-1,1,3,0,-1,0,0,14.105
2822,0,-1,-2,-1,0,-1,-1,0,14.11
2823,1,0,-1,2,0,0,1,2,14.115
2824,-2,0,-1,4,0,1,0,-1,14.120000000000001
2825,0,-1,-11,-11,-2,-1,-2,0,14.125
2826,-2,-2,17,4,-1,0,-1,-2,14.13
2827,-1,-1,3,-2,0,0,-2,0,14.135
2828,0,-3,-4,1,0,0,-1,-2,14.14
2829,-1,-1,-6,-1,-3,-1,-1,0,14.145
2830,0,1,-1,-2,-3,-1,-2,0,14.15
2831,-2,-1,-2,-1,0,0,0,-1,14.155000000000001
2832,-1,-1,-5,-3,0,-1,0,-1,14.16
2833,-3,0,-4,0,-2,-3,-3,-2,14.165000000000001
2834,1,0,3,2,1,2,2,0,14.17
2835,-1,0,0,-3,-1,0,-1,-1,14.175
2836,0,0,-6,-2,1,0,0,0,14.18
2837,0,-2,1,1,0,-2,-1,0,14.185
2838,-2,0,-2,0,-1,-2,-1,-1,14.19
2839,-1,-1,-2,1,-2,-1,-2,-1,14.195
2840,-1,-3,-5,-1,1,0,0,-2,14.200000000000001
2841,1,-1,6,-1,0,0,0,-1,14.205
2842,0,-2,-20,0,1,1,1,0,14.21
2843,-1,-1,-6,-6,-2,-1,-2,-2,14.215
2844,-1,-4,-9,-1,-3,-3,-1,-1,14.22
2845,-2,1,1,2,-1,0,-2,0,14.225
2846,0,-2,0,-4,-1,0,0,-2,14.23
2847,-1,-2,0,0,-2,-1,-1,-2,14.235
2848,0,0,0,1,-2,0,-1,0,14.24
2849,-1,0,-1,-3,0,-1,0,-2,14.245000000000001
2850,-2,-1,1,2,0,-3,0,-1,14.25
2851,0,-1,-4,-5,-2,-2,0,0,14.255
2852,0,-2,3,2,-1,-1,0,0,14.26
2853,0,0,-7,-2,-1,0,1,0,14.265
2854,0,-1,2,-1,-1,1,0,-1,14.27
2855,0,-1,-7,5,1,-1,1,0,14.275
2856,-1,1,0,-1,0,0,0,1,14.280000000000001
2857,-1,-3,-6,0,-1,-1,0,-1,14.285
2858,-2,1,5,-3,-2,-3,-3,0,14.290000000000001
2859,-1,0,2,0,0,-2,-1,-1,14.295
2860,0,-1,2,-2,-1,1,-2,-1,14.3
2861,-1,-1,-1,3,0,0,0,-1,14.305
2862,-1,0,2,-1,-2,-1,-2,-1,14.31
2863,0,0,0,-1,-2,-3,-1,-1,14.315
2864,0,1,9,0,-3,-3,-2,-2,14.32
2865,0,-1,-5,-2,-2,0,-1,-1,14.325000000000001
2866,0,0,1,1,0,-2,-2,0,14.33
2867,0,0,3,2,0,2,2,0,14.335
2868,-1,-2,-9,-4,-1,-2,0,0,14.34
2869,-1,0,5,2,-1,0,-2,-1,14.345
2870,-1,-2,-3,-4,-2,-1,-1,-2,14.35
2871,-2,-3,-17,-1,0,-2,-2,0,14.355
2872,1,0,1,-8,-2,-2,-2,-1,14.36
2873,1,-2,1,0,0,-1,1,-1,14.365
2874,0,-2,0,1,0,2,1,0,14.370000000000001
2875,0,0,3,0,-1,-3,-2,-1,14.375
2876,-3,-2,-2,1,1,2,-1,-1,14.38
2877,-2,-1,-3,0,0,-1,1,-1,14.385
2878,1,0,-1,0,-1,2,1,-1,14.39
2879,1,1,5,5,0,0,0,-1,14.395
2880,0,-1,-8,-9,-1,-3,0,0,14.4
2881,-1,-2,-4,-1,-1,-2,-2,-2,14.405000000000001
2882,-2,-2,11,0,-1,0,-3,0,14.41
2883,0,1,2,3,-1,0,1,1,14.415000000000001
2884,0,0,1,0,1,0,-2,-2,14.42
2885,-1,-1,-5,-1,0,0,1,0,14.425
2886,-1,-2,-11,-2,-4,-3,-2,0,14.43
2887,-2,-1,1,-1,-1,-1,-3,-2,14.435
2888,-2,0,3,3,-1,1,0,-1,14.44
2889,-1,-1,-2,-4,-1,-2,-2,-1,14.445
2890,0,1,-2,1,-2,-1,-1,-1,14.450000000000001
2891,-1,-1,3,-1,-1,0,-1,-1,14.455
2892,-2,-2,-11,-1,-2,-1,-1,1,14.46
2893,-1,-1,-1,-3,-1,-1,0,0,14.465
2894,-1,0,1,1,-1,-1,0,0,14.47
2895,-1,-1,1,-2,-4,-3,-1,-2,14.475
2896,1,1,0,1,1,0,1,0,14.48
2897,0,-1,-1,4,-4,-1,-2,-1,14.485
2898,-1,-1,-3,-2,-2,-1,-3,-3,14.49
2899,0,-3,-3,-8,0,2,0,0,14.495000000000001
2900,0,-1,-4,-2,0,2,2,0,14.5
2901,-1,-1,6,3,-1,-1,1,-1,14.505
2902,0,1,-2,0,1,-2,1,-1,14.51
2903,-1,-2,0,-2,-2,-1,-2,-1,14.515
2904,0,0,6,2,-1,-3,0,-1,14.52
2905,-1,-1,-3,-4,-1,0,-2,-2,14.525
2906,-1,0,12,-4,-1,-1,-2,-2,14.530000000000001
2907,-2,-1,-4,4,1,2,1,2,14.535
2908,0,-1,-1,-2,-1,0,-1,0,14.540000000000001
2909,-1,0,0,-1,-1,0,-2,1,14.545
2910,0,0,2,1,0,0,0,-1,14.55
2911,-1,0,1,-2,-1,-3,-3,-3,14.555
2912,-2,-2,-2,1,-1,0,0,-2,14.56
2913,-2,-1,2,-2,-1,0,0,-1,14.565
2914,-1,1,2,-1,-1,0,0,0,14.57
2915,0,-2,-2,-1,-1,-2,-1,-1,14.575000000000001
2916,1,-1,1,4,0,-1,-1,1,14.58
2917,0,0,-6,-3,-1,0,1,0,14.585
2918,-1,-3,-5,-1,-2,-2,-1,0,14.59
2919,0,-1,-4,-2,-2,-1,-1,-2,14.595
2920,-1,0,5,0,-3,-4,-3,-2,14.6
2921,-1,-1,3,-3,-1,-1,-2,-1,14.605
2922,-1,-1,-8,-3,-3,-2,-1,-2,14.61
2923,0,1,0,3,1,3,0,0,14.615
2924,-1,-2,4,-3,-1,-2,-2,-2,14.620000000000001
2925,-1,-1,2,-5,0,-1,-1,-1,14.625
2926,0,-2,-5,-2,-2,0,-1,-2,14.63
2927,-1,-1,3,1,-1,0,0,-1,14.635
2928,0,0,1,2,-1,1,-1,0,14.64
2929,-1,0,1,2,1,-1,0,0,14.645
2930,-1,1,-2,-1,1,0,0,-1,14.65
2931,-2,-2,1,-3,-3,-2,0,1,14.655000000000001
2932,-2,-2,0,-1,0,-1,-1,0,14.66
2933,0,-1,-1,2,1,-1,0,-1,14.665000000000001
2934,0,-2,-7,0,-1,-3,-1,-1,14.67
2935,-1,0,1,0,0,0,-2,-1,14.675
2936,0,-2,-7,-2,-3,-2,-2,-2,14.68
2937,-1,-2,-1,1,0,3,2,0,14.685
2938,-1,0,1,1,2,3,1,-2,14.69
2939,0,-3,-4,-2,-1,-1,-1,0,14.695
2940,-2,-1,-5,-1,0,-1,-1,-3,14.700000000000001
2941,-1,-2,-2,0,1,0,-1,0,14.705
2942,-2,-2,5,-7,-3,-2,-2,-1,14.71
2943,0,-3,-14,-1,-3,-2,-3,-3,14.715
2944,0,-2,-2,-2,0,-1,-1,-1,14.72
2945,0,1,3,2,-1,-1,-2,0,14.725
2946,-2,1,3,-1,-1,1,-1,1,14.73
2947,0,-1,-8,0,1,-1,-2,-1,14.735
2948,-1,-1,3,1,-1,-2,1,1,14.74
2949,0,0,-5,0,-2,-3,0,-1,14.745000000000001
2950,-1,-3,5,4,1,0,1,-1,14.75
2951,-2,2,-2,-7,-1,-1,0,-1,14.755
2952,-1,-1,-2,-2,-1,0,-1,-1,14.76
2953,-2,-1,-3,0,-2,0,0,-1,14.765
2954,0,0,-4,1,-1,1,0,-1,14.77
2955,1,0,4,3,-1,1,0,0,14.775
2956,-3,-4,-9,-3,-1,-2,-1,-2,14.780000000000001
2957,-1,-1,1,-2,-2,-2,-3,-3,14.785
2958,1,-1,-5,1,0,-1,2,0,14.790000000000001
2959,-1,0,3,-1,-1,-2,-2,-2,14.795
2960,0,0,-1,-2,0,-1,1,2,14.8
2961,-1,0,4,4,-1,-3,0,-1,14.805
2962,-1,-5,-19,-7,-4,-2,-1,0,14.81
2963,-1,-4,-7,-4,-1,0,-2,1,14.815
2964,0,0,3,1,-1,1,-1,-2,14.82
2965,-1,-3,-2,-1,-1,1,0,0,14.825000000000001
2966,0,0,3,2,1,1,0,-2,14.83
2967,-2,0,4,-2,-3,-1,0,-3,14.835
2968,-1,-2,-4,-1,-1,-3,-1,-2,14.84
2969,-1,-2,0,-1,1,-1,0,-1,14.845
2970,0,1,-1,2,0,-1,-3,0,14.85
2971,-1,-1,13,-5,-1,-1,0,-1,14.855
2972,-2,1,-3,2,-1,0,-1,-1,14.86
2973,-1,-1,-3,0,-1,-1,-1,-2,14.865
2974,0,-1,0,-2,-1,-2,-1,-1,14.870000000000001
2975,-1,-2,0,0,1,-1,0,0,14.875
2976,-1,-1,2,3,-1,2,-1,-1,14.88
2977,1,0,0,-3,-1,0,0,1,14.885
2978,-2,-1,-3,1,0,-1,-2,0,14.89
2979,-1,-1,-6,5,-2,-1,0,0,14.895
2980,-1,-1,5,-2,-1,0,-1,1,14.9
2981,-2,0,-2,0,1,0,-1,0,14.905000000000001
2982,-1,-1,4,-2,-2,-2,-1,-2,14.91
2983,-1,0,1,1,1,-1,-2,-1,14.915000000000001
2984,1,-1,-1,-1,1,1,0,-2,14.92
2985,-3,1,-4,-1,-1,-1,-2,0,14.925
2986,0,1,7,4,0,-2,-1,-1,14.93
2987,-1,-3,-6,-13,-2,-1,-2,0,14.935
2988,0,-2,-3,-2,0,1,0,0,14.94
2989,-2,-2,2,0,-1,0,-1,-2,14.945
2990,-1,-1,-2,-1,-1,-1,0,-1,14.950000000000001
2991,-1,0,8,5,-1,-1,1,-1,14.955
2992,-1,-1,-1,1,1,1,0,0,14.96
2993,0,-2,-13,-7,-1,-2,1,0,14.965
2994,-1,1,6,-3,0,-2,0,-2,14.97
2995,-1,-1,-6,-1,-2,-1,-2,-2,14.975
2996,0,0,0,0,0,-1,-3,-2,14.98
2997,-1,-2,-1,3,-1,-2,-1,-2,14.985
2998,-1,-1,1,-3,-2,0,-1,-2,14.99
2999,1,0,-1,-1,0,0,-1,1,14.995000000000001
3000,-1,-1,-2,-7,-3,-2,-1,1,15.0
3001,1,-1,3,1,-2,-2,-3,0,15.005
3002,0,0,-2,0,1,2,2,2,15.01
3003,-2,-3,-10,0,-1,-3,0,-1,15.015
3004,0,-2,-2,0,-1,-2,0,-1,15.02
3005,-1,2,4,-3,-2,-3,-2,-1,15.025
3006,0,0,-3,1,-1,-2,0,0,15.030000000000001
3007,0,1,4,0,1,1,0,0,15.035
3008,-1,1,2,-1,0,-2,0,-2,15.040000000000001
3009,-1,-1,-3,3,0,0,-1,-2,15.045
3010,-2,-2,2,-4,-2,-3,-2,-2,15.05
3011,-2,0,5,0,-1,0,1,-1,15.055
3012,-2,-1,0,-1,-2,-4,-2,-1,15.06
3013,1,-1,0,1,1,2,1,1,15.065
3014,-1,-2,-1,-1,-1,0,1,-1,15.07
3015,-1,0,1,0,0,-3,-2,-1,15.075000000000001
3016,-1,1,-3,-1,-2,-1,-1,1,15.08
3017,-1,-1,4,1,-1,0,0,0,15.085
3018,1,-2,6,2,-1,-1,-1,-2,15.09
3019,0,-1,-17,1,1,-1,-1,-1,15.095
3020,-1,-2,-2,-5,-2,2,2,-1,15.1
3021,1,0,1,-3,-1,-1,-1,-1,15.105
3022,-2,-2,-15,-1,0,-2,-1,-1,15.11
3023,2,2,7,0,-1,0,0,-1,15.115
3024,-1,-2,-3,-2,-2,0,-2,-2,15.120000000000001
3025,-1,-2,-6,-3,0,-1,-1,-2,15.125
3026,-2,0,3,1,-2,-2,-1,1,15.13
3027,-2,-2,5,5,-2,0,0,-2,15.135
3028,-1,-3,-10,-1,1,-1,-1,0,15.14
3029,-1,-1,-2,-3,0,1,-1,0,15.145
3030,0,0,4,2,-1,-1,-3,0,15.15
3031,0,0,1,-1,-2,-3,-1,-2,15.155000000000001
3032,0,0,7,1,-2,1,0,-1,15.16
3033,-1,-1,-2,-1,0,-1,-2,-1,15.165000000000001
3034,-2,-2,-7,-3,-1,0,-2,-1,15.17
3035,-2,0,-3,0,-1,-1,0,0,15.175
3036,-1,0,2,3,1,-2,-1,1,15.18
3037,0,0,4,0,-1,-2,-1,-1,15.185
3038,-1,-3,-15,-6,-2,1,0,-2,15.19
3039,-1,-3,3,0,1,-1,-2,-1,15.195
3040,0,0,-2,2,1,0,-2,-1,15.200000000000001
3041,-1,-1,-6,-1,-1,-1,-1,1,15.205
3042,-1,1,13,-1,-2,0,0,1,15.21
3043,0,2,1,2,1,0,-1,-2,15.215
3044,-1,-2,-11,-1,-2,-2,-2,-2,15.22
3045,0,0,1,-2,0,2,2,1,15.225
3046,1,-1,0,1,0,-1,-1,1,15.23
3047,0,-2,0,-1,0,0,0,0,15.235
3048,0,1,6,1,-2,-1,-2,-1,15.24
3049,-1,-3,-4,-4,-3,-2,-2,-2,15.245000000000001
3050,-1,0,-9,-3,1,0,0,-2,15.25
3051,-2,1,-6,-2,0,0,-2,-1,15.255
3052,-1,0,6,5,0,1,0,-3,15.26
3053,-1,-2,-1,0,-3,-4,0,-2,15.265
3054,0,-1,-2,-1,-1,0,0,1,15.27
3055,-1,-1,-2,-2,0,-1,0,0,15.275
3056,-1,-3,1,-2,0,0,0,-1,15.280000000000001
3057,-1,-1,0,-3,0,0,-1,-1,15.285
3058,-2,1,6,4,-1,-1,-1,-2,15.290000000000001
3059,1,1,5,-1,-1,-1,-2,-2,15.295
3060,-1,-2,-2,-3,-1,-1,0,-1,15.3
3061,1,-1,-12,3,1,-2,-1,-1,15.305
3062,-1,-1,0,-3,1,0,-1,0,15.31
3063,-2,-1,0,-1,-3,0,-2,-2,15.315
3064,-2,-1,-4,-3,0,0,0,-1,15.32
3065,-3,0,4,1,-1,0,0,0,15.325000000000001
3066,-1,-2,0,0,-1,-1,0,-1,15.33
3067,0,-2,3,-3,-2,-1,-1,-1,15.335
3068,0,1,2,0,0,-1,1,-1,15.34
3069,-2,0,2,1,0,0,-1,0,15.345
3070,1,1,-6,-3,-2,-1,-2,1,15.35
3071,0,-3,-6,-5,0,-1,0,-2,15.355
3072,0,0,0,-3,0,-2,-3,0,15.36
3073,1,0,1,3,-1,0,-1,-2,15.365
3074,-2,-1,-5,-2,1,-2,0,-2,15.370000000000001
3075,-1,0,-2,1,0,-2,-1,-1,15.375
3076,-1,0,2,-1,-2,-1,1,-2,15.38
3077,-1,0,0,-1,-1,1,-1,-1,15.385
3078,0,0,2,-2,-1,-1,0,-3,15.39
3079,-2,-2,1,-1,-2,-1,0,-1,15.395
3080,0,-1,-8,-2,-1,-1,-1,-1,15.4
3081,0,0,6,2,-2,-2,0,-1,15.405000000000001
3082,0,-3,-14,-8,-2,-1,1,-2,15.41
3083,-2,0,16,5,-2,-2,-1,1,15.415000000000001
3084,0,-1,-2,-2,-2,-1,-3,0,15.42
3085,-1,-1,5,-2,-1,-2,-2,-4,15.425
3086,1,0,3,1,-1,0,-1,-1,15.43
3087,0,1,2,4,-2,0,-3,-1,15.435
3088,-1,-1,1,0,1,0,-1,-1,15.44
3089,1,-2,0,-2,-1,0,0,1,15.445
3090,-2,-3,3,2,-3,-2,-1,-1,15.450000000000001
3091,-2,0,-4,-1,0,-1,-1,2,15.455
3092,-1,0,1,-1,-2,-2,0,-1,15.46
3093,1,-1,-3,-2,0,-2,-1,0,15.465
3094,0,-1,-4,1,0,-1,-3,-1,15.47
3095,0,-1,-12,-3,-2,-1,0,1,15.475
3096,-1,-3,-4,0,-3,-3,0,0,15.48
3097,-1,-1,-4,-5,2,2,0,-1,15.485000000000001
3098,1,-2,3,1,-3,-1,-1,-1,15.49
3099,0,-1,-2,-2,0,0,1,-2,15.495000000000001
3100,-1,1,0,1,-1,0,0,-1,15.5
3101,1,1,1,4,-1,0,0,1,15.505
3102,-2,-2,2,-3,0,-2,1,-1,15.51
3103,-1,-2,-5,-5,-1,0,-1,-1,15.515
3104,-1,-1,-1,-4,3,0,1,1,15.52
3105,-2,2,9,3,-3,-2,-2,-1,15.525
3106,-1,1,-4,3,0,-1,-2,-1,15.530000000000001
3107,-1,0,9,4,-2,-4,-1,-3,15.535
3108,-2,-3,-13,-10,-2,0,-2,-1,15.540000000000001
3109,-1,0,-2,-1,1,1,1,1,15.545
3110,-3,0,3,2,1,1,0,0,15.55
3111,-2,0,-1,1,-1,0,0,0,15.555
3112,1,0,2,0,-1,-2,0,-1,15.56
3113,2,-1,-5,-1,-2,-2,-1,-2,15.565
3114,0,-1,-3,-1,-2,-2,-1,1,15.57
3115,-1,-4,-11,-5,1,1,-1,0,15.575000000000001
3116,0,0,4,1,-3,-1,-1,-1,15.58
3117,-1,-2,-4,-2,-1,-1,0,-1,15.585
3118,1,0,2,0,0,-1,0,0,15.59
3119,1,-1,1,-1,-1,0,-1,-1,15.595
3120,-1,-2,1,1,-1,0,1,-1,15.6
3121,-5,-1,-3,-4,-2,-2,-1,1,15.605
3122,0,0,2,0,-2,0,1,-1,15.610000000000001
3123,-1,-2,-4,-1,-1,-1,-1,0,15.615
3124,0,0,0,-2,0,-1,2,-1,15.620000000000001
3125,1,-1,-4,-1,-1,-2,-2,0,15.625
3126,-3,-2,1,-3,-2,-2,-2,-2,15.63
3127,0,1,-2,0,0,-2,0,-2,15.635
3128,-2,-1,2,1,1,-1,-3,-1,15.64
3129,-2,-1,-3,-3,-1,-1,0,-2,15.645
3130,0,-2,0,3,0,-1,1,0,15.65
3131,0,0,3,-1,1,-1,-1,0,15.655000000000001
3132,0,1,1,2,0,-3,-2,-2,15.66
3133,-1,0,-5,-3,-2,-1,0,0,15.665000000000001
3134,0,0,-5,-2,-1,-1,-2,-1,15.67
3135,0,0,-1,0,-1,1,0,0,15.675
3136,-1,-1,7,1,-1,1,1,-1,15.68
3137,-1,-3,4,-1,-1,2,0,0,15.685
3138,-2,0,-2,-1,0,-1,-2,-2,15.69
3139,-2,-2,-3,-2,-2,0,-1,-1,15.695
3140,-1,-1,-2,3,-1,-1,-2,-4,15.700000000000001
3141,-2,-2,-11,-19,-3,-2,-1,-3,15.705
3142,1,0,1,1,-1,1,-1,0,15.71
3143,-2,0,1,1,-1,-1,0,0,15.715
3144,1,1,-3,-4,-1,0,-3,1,15.72
3145,-1,-3,-2,5,0,1,2,0,15.725
3146,0,1,1,-2,-2,-1,-2,-1,15.73
3147,0,1,-15,-9,-3,0,-1,-1,15.735000000000001
3148,-1,-2,-7,7,0,-2,-3,0,15.74
3149,-2,-1,-1,-1,-1,-3,-2,-2,15.745000000000001
3150,-1,1,3,-4,0,0,0,0,15.75
3151,-2,0,21,8,0,-3,-1,-2,15.755
3152,-2,-1,-3,-3,-3,-1,-2,-4,15.76
3153,0,-2,5,5,-1,-2,-1,0,15.765
3154,-1,-1,-2,-3,1,-2,-1,-2,15.77
3155,-1,-1,0,-3,0,-2,-2,0,15.775
3156,-1,0,-1,-1,-1,-2,1,-1,15.780000000000001
3157,-3,-3,1,5,-2,2,1,-1,15.785
3158,-3,-2,-4,-10,-3,-1,0,0,15.790000000000001
3159,0,-2,-4,-2,0,0,1,-1,15.795
3160,-1,-2,-2,-1,0,2,0,2,15.8
3161,-1,2,2,2,0,-2,0,-1,15.805
3162,0,-1,0,5,-2,0,-2,-1,15.81
3163,-1,-1,-7,-4,-1,-3,-1,-1,15.815
3164,0,2,1,6,2,0,-2,0,15.82
3165,-3,-1,9,-6,1,1,-2,-1,15.825000000000001
3166,-1,-1,1,-1,-2,-3,1,0,15.83
3167,-1,-2,-7,0,0,-2,-1,0,15.835
3168,-1,-1,2,0,1,-3,0,1,15.84
3169,-1,0,0,2,0,-2,-2,0,15.845
3170,0,-1,-1,2,0,1,0,-3,15.85
3171,0,-2,-4,-4,-1,-2,0,-2,15.855
3172,-1,0,-1,-7,-3,-3,-2,-2,15.860000000000001
3173,0,-2,-15,-3,-1,1,-2,-2,15.865
3174,0,1,5,-1,-1,1,-1,1,15.870000000000001
3175,0,-4,1,2,0,0,-2,-1,15.875
3176,-2,-2,-3,-2,0,1,-2,1,15.88
3177,-1,-1,3,-2,-1,-4,-2,-1,15.885
3178,-2,-1,-3,3,0,2,1,0,15.89
3179,-1,-2,-2,-3,0,0,-1,-1,15.895
3180,-1,-2,1,-3,-3,-1,0,0,15.9
3181,0,-1,-4,0,-3,-2,-1,0,15.905000000000001
3182,-1,-3,-16,-1,0,-4,-1,-2,15.91
3183,-1,-1,3,-2,-2,1,1,0,15.915000000000001
3184,-1,-2,-6,-3,-1,-2,2,0,15.92
3185,-1,0,0,0,0,-1,-2,-2,15.925
3186,0,-1,-2,-1,-2,-2,-2,-1,15.93
3187,-1,0,6,1,2,2,0,0,15.935
3188,-1,0,-2,1,0,2,2,0,15.94
3189,0,-3,-4,1,1,-2,0,1,15.945
3190,1,-1,1,4,-1,0,-2,0,15.950000000000001
3191,-1,0,-2,0,-1,-2,-1,0,15.955
3192,-1,0,1,-7,0,-2,-1,-1,15.96
3193,1,1,-2,-4,-2,0,0,-1,15.965
3194,0,-2,1,-3,0,-2,-1,-1,15.97
3195,0,0,1,5,1,0,-1,-2,15.975
3196,-1,0,-4,2,0,-2,-1,0,15.98
3197,-1,0,1,1,-2,0,-1,0,15.985000000000001
3198,0,0,2,0,-2,-1,0,0,15.99
3199,0,-1,0,-2,-2,0,-1,0,15.995000000000001
3200,1,-1,10,-6,-2,0,-1,-2,16.0
3201,0,0,-3,-3,-2,-1,0,-1,16.005
3202,0,0,2,1,-3,-1,0,-2,16.01
3203,-1,-1,-1,-1,-3,-1,-2,-1,16.015
3204,-1,-2,-1,0,0,-2,-1,1,16.02
3205,0,1,0,-4,0,0,-1,-1,16.025
3206,-1,-2,2,-2,-1,-2,-2,-1,16.03
3207,-1,-2,0,-1,1,-1,1,-1,16.035
3208,0,0,0,4,0,-1,-2,-1,16.04
3209,-2,-2,-3,-2,-1,-1,-2,-1,16.045
3210,-1,0,2,1,1,-1,0,0,16.05
3211,-1,0,0,-2,0,-1,-2,-1,16.055
3212,-1,1,2,0,0,1,-1,-2,16.06
3213,-3,-4,9,4,-2,-3,-1,1,16.065
3214,-2,-2,-8,-10,-2,0,-2,-1,16.07
3215,-2,-2,3,4,-2,-2,-2,-1,16.075
3216,-1,-1,-15,-1,-1,-1,0,-1,16.080000000000002
3217,0,0,1,-3,-2,-1,-1,-1,16.085
3218,0,0,4,1,-1,-1,-1,-1,16.09
3219,0,-1,-4,-2,-1,-2,0,0,16.095
3220,1,0,-2,-3,-1,-1,0,-2,16.1
3221,0,0,0,-2,1,0,-1,-2,16.105
3222,-3,0,0,4,1,0,0,-2,16.11
3223,0,-1,-2,-3,-2,-2,-1,-1,16.115000000000002
3224,0,-2,2,1,0,-1,0,0,16.12
3225,0,0,-4,1,1,-1,1,0,16.125
3226,-2,-1,-2,-1,0,1,2,-1,16.13
3227,0,-1,0,2,-3,0,0,0,16.135
3228,-1,-2,5,-3,-3,1,-2,-2,16.14
3229,-1,-2,4,0,0,1,0,0,16.145
3230,0,0,-3,0,-1,-2,-2,0,16.15
3231,-1,0,-2,-2,-1,1,-1,-1,16.155
3232,0,-1,1,2,0,-1,0,-1,16.16
3233,-1,-2,-10,-2,-1,1,-2,1,16.165
3234,2,-1,6,0,0,0,-2,-1,16.17
3235,-1,-3,-11,0,-1,-1,0,0,16.175
3236,-3,0,-3,0,-2,-3,-2,0,16.18
3237,-1,0,-3,-3,0,0,0,1,16.185
3238,-1,-1,9,7,0,-1,-2,0,16.19
3239,-2,-1,-15,-9,-2,-2,-2,-1,16.195
3240,-1,-2,-17,-3,0,-1,-1,-1,16.2
3241,-1,-2,1,-2,-2,0,-1,-1,16.205000000000002
3242,-1,-1,-5,-3,-2,-1,-3,0,16.21
3243,1,0,3,-1,1,0,1,-1,16.215
3244,0,-1,2,1,-2,0,-1,-2,16.22
3245,-1,0,1,1,0,1,0,-2,16.225
3246,0,-1,-4,-2,-1,-1,-1,-1,16.23
3247,-3,-1,4,0,-1,0,-2,-1,16.235
3248,-2,-2,0,-1,-1,-2,0,2,16.240000000000002
3249,1,-3,-11,2,0,0,1,-2,16.245
3250,0,-3,-9,-10,-2,-1,-2,1,16.25
3251,-1,4,4,1,0,-2,0,0,16.255
3252,1,-5,-18,-3,-1,-2,-1,-1,16.26
3253,-3,8,-5,-3,-4,-3,-2,-3,16.265
3254,-3,-12,5,1,-2,0,1,-2,16.27
3255,-1,-4,10,5,2,-1,0,0,16.275
3256,-1,4,-3,-6,-2,1,-1,0,16.28
3257,2,-3,11,9,-1,0,-2,1,16.285
3258,0,3,-4,-4,0,-1,-1,0,16.29
3259,-2,-2,-8,-5,0,-1,-1,0,16.295
3260,1,7,12,3,-1,0,0,-2,16.3
3261,1,-7,-1,-1,1,-1,-2,1,16.305
3262,-3,0,0,2,1,-1,-1,-3,16.31
3263,2,-2,-2,0,1,1,0,0,16.315
3264,-2,-4,3,0,0,-1,-1,-1,16.32
3265,0,12,8,-4,-1,1,1,0,16.325
3266,-1,-5,7,3,-2,-2,-1,-1,16.330000000000002
3267,-1,1,-17,-6,-4,-3,-3,-3,16.335
3268,2,2,12,-10,-1,-2,-3,-2,16.34
3269,-3,5,-6,3,-7,-4,-4,-3,16.345
3270,3,-2,6,2,7,2,3,3,16.35
3271,-1,3,12,2,0,-2,0,-2,16.355
3272,-4,-20,-8,-4,-5,-5,-1,-3,16.36
3273,-2,-10,-21,6,11,1,0,-1,16.365000000000002
3274,3,7,-67,-10,3,-3,-2,-1,16.37
3275,-1,15,-9,-8,-6,-3,-2,-1,16.375
3276,-6,13,-9,-6,3,3,0,-2,16.38
3277,-5,-26,-13,8,10,3,0,-2,16.385
3278,1,12,10,4,-7,0,-2,-1,16.39
3279,2,6,7,0,13,2,0,1,16.395
3280,-4,-13,-7,-1,-16,-11,-5,-3,16.4
3281,2,-12,33,-5,-6,-3,1,0,16.405
3282,-1,19,22,7,11,5,1,0,16.41
3283,8,-12,36,4,-27,-1,3,5,16.415
3284,-6,-4,28,17,31,7,1,3,16.42
3285,2,36,27,18,37,13,5,-2,16.425
3286,-5,-54,-50,-14,10,3,-2,-4,16.43
3287,6,-2,18,8,-1,-3,-4,3,16.435
3288,-11,3,-4,1,-16,-6,-3,-4,16.44
3289,-10,-4,2,-5,-5,0,-2,-2,16.445
3290,25,16,5,-4,1,0,3,3,16.45
3291,-39,19,-11,-8,-9,-15,-7,-13,16.455000000000002
3292,27,-83,-29,-6,-32,1,0,3,16.46
3293,-20,7,11,12,27,7,2,-2,16.465
3294,-6,32,25,-6,-13,-3,0,8,16.47
3295,13,-17,-16,-1,-16,-4,-2,3,16.475
3296,-10,46,7,6,4,1,-3,-23,16.48
3297,0,-33,-16,-11,-33,-17,-6,-7,16.485
3298,21,3,4,-10,0,0,1,12,16.490000000000002
3299,-28,7,13,8,-2,4,-3,-10,16.495
3300,38,16,-8,-7,-8,-5,0,-1,16.5
3301,26,24,9,0,-10,-2,1,13,16.505
3302,-61,-37,-27,-18,-20,-22,-14,-31,16.51
3303,9,2,13,11,64,25,6,6,16.515
3304,5,15,-31,-25,-26,-11,-3,5,16.52
3305,-13,18,-6,-2,-1,5,5,9,16.525
3306,25,-14,13,1,-31,-16,-3,-1,16.53
3307,-12,10,22,-20,-9,7,-2,-12,16.535
3308,-43,-6,9,5,-4,-4,-4,-11,16.54
3309,14,-24,-14,-2,-52,-16,-2,0,16.545
3310,-29,-53,-19,20,57,30,9,-16,16.55
3311,9,-26,14,-23,-20,-12,-2,8,16.555
3312,21,-5,39,5,20,4,1,13,16.56
3313,6,67,22,-8,-8,-2,3,14,16.565
3314,38,-8,0,-2,-27,-9,-4,2,16.57
3315,-6,-29,-29,22,20,9,1,-3,16.575
3316,-31,3,-5,14,2,0,5,-1,16.580000000000002
3317,5,-10,-3,-23,-16,11,5,7,16.585
3318,-10,-38,62,35,35,-3,-3,4,16.59
3319,49,44,-16,-4,-3,-2,10,26,16.595
3320,36,11,-90,-20,-17,-7,-9,9,16.6
3321,-39,-11,-22,-27,2,0,-3,-25,16.605
3322,-66,11,5,8,-41,-13,-5,-4,16.61
3323,26,57,9,10,61,22,3,-6,16.615000000000002
3324,-22,13,31,-4,9,3,6,16,16.62
3325,24,9,-3,3,-11,0,-4,-14,16.625
3326,52,33,37,25,7,-8,8,50,16.63
3327,-25,6,59,-20,-73,-32,0,49,16.635
3328,-61,66,-3,23,56,38,-16,-95,16.64
3329,-38,-106,-90,-8,24,-2,-11,-9,16.645
3330,24,43,48,3,2,4,2,-16,16.65
3331,-12,-22,43,18,-24,-18,2,7,16.655
3332,26,55,42,-9,-16,10,13,41,16.66
3333,17,39,27,9,-9,-10,-6,-20,16.665
3334,-5,5,-21,-5,48,26,10,22,16.67
3335,38,-24,-86,-15,12,-5,-8,-3,16.675
3336,-53,-22,41,9,-38,-12,-1,-23,16.68
3337,-10,-22,-26,-15,23,4,1,26,16.685
3338,-27,-23,-9,-8,-40,-8,3,-7,16.69
3339,10,60,4,9,1,4,-11,-82,16.695
3340,48,-52,-28,-27,-18,-14,-4,10,16.7
3341,-16,-11,-32,13,18,-2,-2,-12,16.705000000000002
3342,74,81,42,8,-49,-14,5,17,16.71
3343,-63,-89,-47,-62,35,32,2,-4,16.715
3344,16,9,-7,19,36,-8,7,32,16.72
3345,-25,-15,6,-1,-5,3,-11,-39,16.725
3346,-10,25,-27,-44,17,4,-4,0,16.73
3347,52,-71,-15,21,-13,-19,0,36,16.735
3348,25,-34,-22,-20,6,13,11,33,16.740000000000002
3349,-63,17,84,-1,25,12,10,12,16.745
3350,-24,-3,-99,-19,-17,-21,-30,-70,16.75
3351,88,12,12,14,21,3,2,7,16.755
3352,-93,-43,8,-2,-31,-11,1,16,16.76
3353,124,26,17,6,3,-6,10,68,16.765
3354,-81,-57,-62,-4,-11,0,-1,-5,16.77
3355,-42,-6,-55,-25,-14,14,-1,-56,16.775
3356,31,14,63,21,3,-15,-5,2,16.78
3357,-40,-47,-77,-36,7,7,-8,-54,16.785
3358,100,120,80,21,63,16,10,45,16.79
3359,-74,-44,23,-5,-8,4,1,4,16.795
3360,-11,-23,3,40,58,3,-6,-17,16.8
3361,10,22,8,-17,-73,-19,-5,-32,16.805
3362,-49,-4,-8,26,64,21,-1,-9,16.81
3363,23,78,24,24,-5,-1,2,0,16.815
3364,50,11,44,-5,-6,-7,1,13,16.82
3365,-73,31,12,-2,45,7,-3,-19,16.825
3366,20,-34,17,-17,-45,-18,-8,5,16.830000000000002
3367,5,-28,11,8,-12,-3,10,26,16.835
3368,18,-9,-76,-34,0,-1,-10,13,16.84
3369,-7,25,-15,19,-7,-2,-4,-18,16.845
3370,-69,-86,-5,-12,-55,-28,-19,-53,16.85
3371,0,74,-59,-25,29,-6,-4,17,16.855
3372,-32,18,47,20,41,17,4,-34,16.86
3373,-12,-41,-42,-33,-45,-13,-4,28,16.865000000000002
3374,-11,16,-33,4,28,0,-2,-31,16.87
3375,-5,-55,-16,-20,-37,-23,-9,-1,16.875
3376,103,38,-20,-11,-11,6,9,61,16.88
3377,-78,25,41,26,-9,-9,-13,-24,16.885
3378,29,-15,10,11,27,34,20,17,16.89
3379,11,-14,6,-8,3,-33,-13,-16,16.895
3380,0,30,20,-10,18,24,-7,-49,16.9
3381,94,-29,-29,4,-41,-15,5,61,16.905
3382,-2,29,41,6,-11,11,4,11,16.91
3383,-32,-55,-7,-3,10,8,3,-16,16.915
3384,-23,-17,-4,32,19,-3,2,5,16.92
3385,70,46,109,-20,-49,-25,6,15,16.925
3386,14,39,39,51,75,28,14,49,16.93
3387,-40,-7,-22,12,-36,-11,-19,-49,16.935
3388,-103,-58,-7,9,8,5,-1,-22,16.94
3389,86,-14,-12,-23,-39,-1,6,22,16.945
3390,-13,17,-11,-30,-54,-24,-8,-4,16.95
3391,-5,71,59,12,18,9,3,-16,16.955000000000002
3392,14,-42,-33,-23,-8,10,3,47,16.96
3393,0,25,15,-5,10,-7,-2,-23,16.965
3394,-22,22,-2,-20,-20,20,17,9,16.97
3395,58,-15,-47,0,-87,-34,-17,-3,16.975
3396,24,-35,100,17,32,13,14,31,16.98
3397,-64,65,53,21,92,38,7,-5,16.985
3398,15,75,-31,4,1,-7,-7,6,16.990000000000002
3399,35,14,4,-7,4,24,11,31,16.995
3400,40,34,3,16,-28,-19,2,6,17.0
3401,30,-10,-72,-24,-7,5,1,21,17.005
3402,17,13,32,-20,-42,-17,0,10,17.01
3403,-53,26,-9,27,65,18,4,-13,17.015
3404,-66,-75,-80,-35,-53,-29,-15,-49,17.02
3405,56,-31,-4,19,16,21,9,31,17.025
3406,-2,-52,1,20,11,-33,-10,-13,17.03
3407,-2,57,58,0,19,29,14,22,17.035
3408,-33,-9,-18,-29,-42,-11,-3,-22,17.04
3409,-35,-8,-14,-16,0,-6,-11,-36,17.045
3410,54,-35,-1,-3,-42,-39,-18,2,17.05
3411,25,19,59,6,-42,-8,15,71,17.055
3412,14,-8,-71,7,46,4,-7,-46,17.06
3413,22,43,44,6,29,10,10,48,17.065
3414,-127,-6,-58,-17,4,4,-13,-46,17.07
3415,18,-7,14,26,-9,-16,-10,-27,17.075
3416,26,18,11,-25,-29,8,10,14,17.080000000000002
3417,28,4,-5,13,-44,-22,-3,12,17.085
3418,12,-112,-24,-18,54,12,3,13,17.09
3419,-109,-14,49,-21,-11,-22,-26,-54,17.095
3420,49,70,16,-1,-52,-6,0,24,17.1
3421,-17,-26,29,48,59,27,18,18,17.105
3422,-45,14,27,14,4,34,16,-46,17.11
3423,0,-5,-8,2,33,-7,-17,-5,17.115000000000002
3424,23,38,49,-2,-42,-25,-12,-15,17.12
3425,-7,19,70,-13,30,12,9,-10,17.125
3426,34,-52,-55,-17,-72,-11,-9,-5,17.13
3427,105,-4,-29,26,79,18,22,54,17.135
3428,-57,39,15,-17,-16,-2,-1,-5,17.14
3429,-68,-43,-64,3,4,5,-17,-76,17.145
3430,-52,45,-15,-10,0,-8,0,-11,17.150000000000002
3431,-4,-29,-128,-49,-38,-22,-8,0,17.155
3432,-28,-77,-38,31,19,10,2,-16,17.16
3433,42,17,-5,-4,-16,-5,10,37,17.165
3434,17,-15,-45,-3,17,1,-5,1,17.17
