slno,emg1,emg2,emg3,emg4,emg5,emg6,emg7,emg8,Time
0,-5,-3,-2,-1,1,-2,-1,-1,0.0
1,-3,0,5,0,3,-3,-3,3,0.005
2,-5,-1,3,0,-1,0,-5,1,0.01
3,0,2,-2,4,1,2,-1,-3,0.015
4,2,0,-5,4,-1,-2,-4,-7,0.02
5,1,2,-6,4,-3,0,3,-5,0.025
6,6,-2,-7,1,-3,-2,3,-3,0.03
7,4,-7,-4,-5,-1,-1,3,7,0.035
8,-3,-6,1,-7,-1,-10,2,9,0.04
9,-8,-5,-2,-1,-2,1,-5,-2,0.045
10,-5,-2,-1,-3,-3,4,-3,-5,0.05
11,-2,1,2,0,-1,7,-4,-9,0.055
12,6,5,10,-2,0,2,2,-4,0.06
13,2,1,2,-1,-1,-7,0,-6,0.065
14,-4,1,3,1,-3,-3,-7,-4,0.07
15,0,-2,2,-4,-5,-7,-3,2,0.075
16,0,1,-3,-6,1,2,-1,9,0.08
17,3,3,2,1,4,1,7,7,0.085
18,1,4,-8,0,0,0,6,0,0.09
19,-2,-5,-10,5,-2,-7,0,-4,0.095
20,-4,-4,-3,7,-3,-4,-9,-3,0.1
21,1,-1,-4,1,-1,-4,-8,-8,0.105
22,0,3,5,3,2,0,0,-5,0.11
23,0,2,3,-4,3,3,6,-6,0.115
24,-4,3,4,0,-1,5,-3,8,0.12
25,-1,-3,4,1,-3,2,0,10,0.125
26,-5,-11,4,-6,0,-4,-1,2,0.13
27,-1,-4,1,-9,1,-3,0,4,0.135
28,-2,1,-7,-3,0,-1,-1,2,0.14
29,-1,4,-3,-2,3,-1,2,-7,0.145
30,6,0,-2,4,0,-2,2,-8,0.15
31,2,-2,-6,1,0,1,-3,-4,0.155
32,3,-5,-2,-2,-1,-1,-2,-1,0.16
33,1,-7,-2,0,-5,2,2,5,0.165
34,-6,-5,-1,2,-5,5,1,3,0.17
35,-1,-3,0,2,-6,-6,5,-3,0.17500000000000002
36,-2,-2,-3,-5,-1,-1,3,-4,0.18
37,-8,-1,-4,3,-2,-4,-5,0,0.185
38,1,0,-3,-3,-4,-4,-7,2,0.19
39,-1,2,2,-3,0,0,-8,1,0.195
40,1,4,1,-1,4,-1,-3,3,0.2
41,5,0,2,-3,2,-6,3,-4,0.20500000000000002
42,1,1,-1,4,2,-4,-1,-3,0.21
43,-2,-5,-1,3,-4,2,-3,-5,0.215
44,-5,-5,0,-3,-6,3,0,-3,0.22
45,-9,1,-3,2,-6,4,0,1,0.225
46,0,4,0,-5,1,7,3,8,0.23
47,5,-3,-1,-7,-1,-2,2,6,0.23500000000000001
48,1,-4,-3,1,-4,-4,5,-3,0.24
49,3,-2,-1,3,-2,-3,-3,-2,0.245
50,5,-2,-9,3,4,-4,-5,0,0.25
51,3,0,-3,-3,6,1,1,-2,0.255
52,0,-2,-1,-1,0,1,-3,-2,0.26
53,4,2,5,-3,-3,-1,2,-7,0.265
54,-8,0,7,5,-1,-1,4,-5,0.27
55,-12,1,1,3,-1,1,-4,-5,0.275
56,-10,1,-4,3,-2,0,-2,0,0.28
57,-6,-2,-2,-5,-5,-9,-5,6,0.28500000000000003
58,3,1,1,-6,-4,-6,0,3,0.29
59,0,-3,-1,-3,-1,-4,1,-4,0.295
60,2,-3,-4,0,6,-7,2,-6,0.3
61,-1,-3,-2,2,3,-1,0,-6,0.305
62,2,2,0,-2,0,5,-3,-1,0.31
63,8,3,0,2,0,4,2,3,0.315
64,12,-1,4,0,0,6,-7,8,0.32
65,7,1,-4,-8,-2,4,-9,1,0.325
66,-3,1,-2,-7,0,1,-2,2,0.33
67,-3,-1,5,-5,-9,-6,-1,-3,0.335
68,-10,-4,-5,1,-2,-3,3,-8,0.34
69,-8,-1,-1,7,3,0,3,1,0.34500000000000003
70,-4,-4,-2,3,0,-3,7,-4,0.35000000000000003
71,-2,-6,-2,1,-1,-5,8,0,0.355
72,-1,-4,5,0,3,0,8,3,0.36
73,-3,-2,-2,-2,3,2,-7,-2,0.365
74,-4,1,0,4,1,1,-7,-6,0.37
75,-2,4,1,4,1,-1,-5,0,0.375
76,3,7,0,-4,1,0,-2,1,0.38
77,7,5,-3,-7,4,4,-4,2,0.385
78,2,-3,1,-4,1,-1,-3,1,0.39
79,0,-3,-2,1,-5,2,3,0,0.395
80,-4,-1,3,-2,-6,-8,-7,-4,0.4
81,-3,3,6,0,-4,2,-1,2,0.405
82,3,0,1,-5,-7,2,-5,2,0.41000000000000003
83,-5,-5,-6,1,-4,-4,-5,5,0.41500000000000004
84,-3,-4,-8,0,-5,-1,2,-1,0.42
85,3,-3,-3,-8,-2,-3,5,-8,0.425
86,6,1,1,-5,-2,-5,4,-8,0.43
87,1,4,2,6,2,2,0,-6,0.435
88,0,-2,-4,7,1,-3,-5,-5,0.44
89,-10,1,-8,3,3,-3,-1,-3,0.445
90,-4,1,-4,0,1,6,-2,1,0.45
91,-1,-2,2,-11,-1,3,-3,3,0.455
92,-2,-4,6,0,-4,-1,0,3,0.46
93,1,-11,8,-4,-6,1,3,4,0.465
94,-3,-8,0,-2,-3,3,4,0,0.47000000000000003
95,-1,3,-1,-2,-2,-4,-2,2,0.47500000000000003
96,-2,3,-2,1,-1,-1,-2,-2,0.48
97,1,-1,-2,0,-2,-1,-1,3,0.485
98,2,5,-8,-1,-4,-10,-6,-1,0.49
99,1,8,-5,0,4,-6,-7,-5,0.495
100,6,4,-1,-4,6,-1,2,-3,0.5
101,3,3,5,6,3,0,7,1,0.505
102,-4,-4,0,1,0,4,4,1,0.51
103,1,-6,-2,-2,0,2,-1,-1,0.515
104,4,-3,-6,-5,-1,-3,-3,1,0.52
105,-5,-4,-1,-3,0,-1,-6,-1,0.525
106,-10,-3,5,0,-2,-6,-3,0,0.53
107,-3,-3,-2,-4,-2,2,-4,0,0.535
108,1,3,2,0,-3,3,0,4,0.54
109,2,3,-2,3,-4,-4,7,1,0.545
110,1,-4,-2,-2,-2,-3,5,-2,0.55
111,-2,-2,-2,-1,0,4,5,-8,0.555
112,-2,-4,0,0,2,12,1,-3,0.56
113,-6,-1,-5,-1,0,0,-9,2,0.5650000000000001
114,-3,4,-1,4,0,-1,-10,-3,0.5700000000000001
115,6,2,6,3,5,5,1,-2,0.5750000000000001
116,2,-1,2,-3,4,0,2,-5,0.58
117,2,-2,-4,-5,-2,-9,2,-10,0.585
118,-2,-4,2,3,-3,-6,12,-1,0.59
119,-2,-1,-3,4,-3,-2,4,4,0.595
120,0,-2,-2,1,-4,-4,-2,5,0.6
121,-2,-7,-3,-7,1,-1,-8,-4,0.605
122,1,0,-6,-11,-2,-1,-14,-6,0.61
123,-4,3,-7,2,-2,3,-8,-1,0.615
124,2,-2,-2,3,-3,-1,-5,-3,0.62
125,1,2,2,3,4,-3,0,4,0.625
126,-3,3,1,5,-2,-1,-6,7,0.63
127,0,2,1,5,-1,-2,1,6,0.635
128,-2,0,0,-3,2,-2,3,0,0.64
129,2,-1,-2,-1,7,3,7,-2,0.645
130,3,-2,-1,-8,0,1,7,-8,0.65
131,-1,-4,-1,-3,-6,1,3,-2,0.655
132,-9,-2,-3,0,-9,-2,4,-2,0.66
133,-2,-1,3,4,-8,-1,-1,0,0.665
134,-1,5,2,2,4,-1,-3,7,0.67
135,-7,-1,0,-1,4,-10,-6,4,0.675
136,4,1,-1,-3,3,-4,-2,-1,0.68
137,5,-3,-2,-3,-1,0,3,-3,0.685
138,3,-4,5,0,0,3,7,0,0.6900000000000001
139,6,-4,4,-6,-2,0,-8,-7,0.6950000000000001
140,-2,0,-4,-6,0,5,-8,-4,0.7000000000000001
141,-7,-1,-7,4,-1,0,-3,-9,0.705
142,-1,-1,-4,2,-1,-4,0,5,0.71
143,2,-2,-1,2,0,-6,6,3,0.715
144,0,-4,2,5,-3,-4,3,1,0.72
145,-4,0,1,-2,-3,0,0,1,0.725
146,-3,1,-2,-3,-4,-5,-6,-6,0.73
147,-3,4,0,0,1,1,-4,-7,0.735
148,-1,4,-1,0,4,2,-5,-6,0.74
149,-4,-1,-3,-8,1,4,-8,-3,0.745
150,-2,-5,-6,-7,-1,2,-2,-4,0.75
151,-2,-1,-3,-8,3,5,2,3,0.755
152,4,1,5,-3,-2,-2,-2,6,0.76
153,-2,3,3,-3,-3,-1,4,1,0.765
154,-4,-1,0,5,2,-2,0,-3,0.77
155,-3,-7,-2,4,-6,-2,4,-3,0.775
156,3,-1,-5,1,-6,-2,-1,-2,0.78
157,0,3,-1,1,-4,-3,-1,3,0.785
158,-1,4,-3,-1,1,-1,-3,8,0.79
159,-5,-3,1,2,-1,-3,-6,0,0.795
160,-1,-5,3,1,-1,-9,-8,-2,0.8
161,4,0,0,3,-4,-3,-8,-4,0.805
162,8,-3,0,2,-1,4,4,-4,0.81
163,2,-5,2,-1,-1,2,6,1,0.8150000000000001
164,0,-5,-2,-4,-1,7,2,0,0.8200000000000001
165,2,3,-10,0,0,2,2,-7,0.8250000000000001
166,-2,-1,-11,0,1,0,1,-6,0.8300000000000001
167,-3,0,-2,-2,2,-2,-2,-6,0.835
168,-9,-1,3,-4,1,-7,-3,-4,0.84
169,-5,1,8,-3,2,-3,-2,5,0.845
170,-3,1,5,-4,4,-6,-2,7,0.85
171,4,4,4,-5,-4,-2,0,3,0.855
172,7,6,2,0,2,3,2,4,0.86
173,5,-1,-3,-2,-1,4,-1,0,0.865
174,0,-3,0,-2,-1,1,-3,-5,0.87
175,-5,-3,-7,1,-7,-1,-6,1,0.875
176,-5,-2,-1,5,-5,6,-4,2,0.88
177,-5,-2,6,4,-2,7,1,0,0.885
178,-2,-4,3,2,1,0,4,2,0.89
179,1,0,0,1,4,-5,6,-5,0.895
180,-3,4,-3,-2,4,-4,2,-3,0.9
181,6,1,7,-1,0,-2,-2,3,0.905
182,0,-1,0,-5,0,2,-2,3,0.91
183,0,-5,-4,-4,-1,1,-4,0,0.915
184,1,-4,-3,3,1,2,3,-3,0.92
185,7,-2,-4,2,2,2,1,-2,0.925
186,1,0,-1,7,-3,1,1,-2,0.93
187,-5,0,-4,2,-5,-5,0,1,0.935
188,-6,-1,1,1,-4,-9,-6,1,0.9400000000000001
189,-8,0,2,-5,-1,-8,1,0,0.9450000000000001
190,2,1,1,-5,3,-4,1,-1,0.9500000000000001
191,7,-2,-5,-6,6,4,0,-1,0.9550000000000001
192,-3,-3,1,-5,-4,4,-4,0,0.96
193,-6,-9,-3,-2,-5,1,-4,-5,0.965
194,-6,0,-1,6,-8,3,0,-5,0.97
195,-8,5,2,3,2,-2,-2,0,0.975
196,-4,3,0,4,5,-1,6,2,0.98
197,5,-3,-5,-1,-1,-5,-1,7,0.985
198,8,-4,-2,-5,-4,-1,-2,1,0.99
199,8,-7,-3,2,-1,-1,-3,-7,0.995
200,1,-6,1,3,2,1,-2,-11,1.0
201,-2,0,-1,-2,0,1,-2,-5,1.0050000000000001
202,-7,5,-3,-3,-2,2,0,-6,1.01
203,-5,7,3,-6,4,3,1,1,1.0150000000000001
204,-7,1,0,-9,-1,-1,1,2,1.02
205,-3,-8,2,1,2,3,2,2,1.025
206,1,-7,1,-2,2,-2,0,2,1.03
207,3,-5,-5,-1,-3,-7,2,1,1.035
208,5,2,-6,0,-2,-3,3,3,1.04
209,-5,2,-5,2,-5,-3,-5,-3,1.045
210,-3,5,-4,2,-4,-2,-10,0,1.05
211,-3,4,-2,3,-4,1,-3,-4,1.055
212,4,4,5,0,1,1,3,4,1.06
213,5,1,0,-5,3,7,-5,3,1.065
214,2,0,3,-5,-1,0,-8,0,1.07
215,-5,1,6,1,-5,-5,-3,-5,1.075
216,0,-7,2,0,-6,-4,2,-5,1.08
217,-2,-1,1,2,-1,-2,4,-6,1.085
218,-3,0,-3,2,-2,5,2,-7,1.09
219,-2,-1,-5,-3,-1,-1,-5,1,1.095
220,-6,-4,-5,-1,2,-2,-4,0,1.1
221,0,-4,-3,6,2,-6,-3,5,1.105
222,3,-1,-5,4,2,-7,-4,2,1.11
223,2,2,1,-2,-3,2,4,0,1.115
224,-3,-2,-3,-1,-3,3,6,-2,1.12
225,-6,-1,3,-7,2,-5,3,-2,1.125
226,2,6,3,-2,4,-3,4,5,1.1300000000000001
227,5,1,2,-1,0,-2,-1,6,1.135
228,7,2,0,-9,-4,-1,-5,0,1.1400000000000001
229,0,0,-1,-1,-7,-4,-6,-3,1.145
230,-7,0,0,-4,0,1,-4,-5,1.1500000000000001
231,-7,0,-2,-4,-2,2,-7,-6,1.155
232,4,-4,0,-1,-2,0,-4,1,1.16
233,-2,-2,1,3,3,4,0,-4,1.165
234,-2,-4,2,8,0,1,-1,-5,1.17
235,0,-3,0,7,5,2,4,-5,1.175
236,0,-3,-4,4,2,-2,-2,0,1.18
237,4,-5,-6,-8,-1,-1,-4,4,1.185
238,-3,-8,-4,-6,-3,-3,-1,-2,1.19
239,-4,-3,-6,-4,-4,-1,-2,1,1.195
240,-5,4,-2,1,-5,-3,6,-3,1.2
241,1,9,-2,4,-3,3,8,1,1.205
242,0,2,-9,2,-3,1,3,5,1.21
243,1,-2,2,-2,-2,3,2,4,1.215
244,8,-3,3,-5,1,2,0,4,1.22
245,8,1,4,-6,1,2,0,-4,1.225
246,-2,2,4,-3,-2,-1,1,-8,1.23
247,-3,-1,1,0,4,-3,-3,-7,1.235
248,-10,-3,-4,0,0,-7,-6,-5,1.24
249,-10,-7,-4,0,0,-6,-2,-6,1.245
250,-2,3,-1,4,0,-1,-2,2,1.25
251,2,7,-4,4,0,0,-1,5,1.2550000000000001
252,-3,1,3,3,3,1,-6,1,1.26
253,1,-2,5,0,-1,-5,-9,1,1.2650000000000001
254,-3,-5,1,-8,-4,-3,-4,5,1.27
255,2,-3,2,-2,-4,-2,1,6,1.2750000000000001
256,0,0,-1,-2,1,1,7,1,1.28
257,-4,2,-1,-1,-4,3,12,-5,1.285
258,-2,-3,1,-1,-2,2,11,-6,1.29
259,-3,-1,-2,-7,-2,4,2,-4,1.295
260,2,1,-5,0,-5,-7,-3,2,1.3
261,0,-4,-3,7,-3,-7,-1,-1,1.305
262,5,-4,-4,-2,-1,1,-7,-4,1.31
263,2,-3,-6,-2,-1,1,-13,-7,1.315
264,-6,1,-3,2,3,6,-12,-6,1.32
265,-9,-1,-2,-2,0,-1,-10,1,1.325
266,-3,-1,0,0,-2,1,-3,3,1.33
267,3,2,7,5,6,7,7,3,1.335
268,9,1,3,-4,-2,-3,6,2,1.34
269,8,-2,5,-5,-5,-1,1,2,1.345
270,0,-5,1,-5,-6,-4,0,1,1.35
271,-3,-8,0,-1,-2,-9,-4,-2,1.355
272,-5,0,-2,0,1,1,-3,2,1.36
273,1,6,-4,1,4,4,2,-1,1.365
274,2,6,-2,3,-3,4,2,-3,1.37
275,-5,-1,-7,-2,1,2,4,-3,1.375
276,-7,-2,-5,-4,3,-7,3,-7,1.3800000000000001
277,-7,-3,-3,-1,2,-6,1,3,1.385
278,-4,-3,-1,4,0,-3,-5,4,1.3900000000000001
279,0,-2,-6,-1,-2,-5,-8,-5,1.395
280,-2,-3,6,0,0,-4,-4,-4,1.4000000000000001
281,-3,-3,0,-6,3,2,-3,-6,1.405
282,0,-2,4,4,6,4,4,0,1.41
283,1,-3,1,4,-1,7,2,3,1.415
284,4,-1,-5,-2,-8,3,-1,2,1.42
285,-1,3,-5,-3,-9,-6,0,0,1.425
286,0,-1,-2,0,0,-4,4,-2,1.43
287,2,3,3,-3,-5,-5,4,3,1.435
288,5,-6,5,2,-5,1,-2,-4,1.44
289,2,1,2,-1,0,1,-6,2,1.445
290,0,-4,0,-7,3,0,-7,-3,1.45
291,-7,5,-1,-10,5,-1,-1,-1,1.455
292,-5,6,-6,-2,3,1,5,-3,1.46
293,-8,-2,-5,3,1,-2,2,-1,1.465
294,-2,-2,-2,-2,-3,-1,2,-7,1.47
295,2,-5,2,3,-6,2,-4,0,1.475
296,0,-4,2,1,-3,1,-4,7,1.48
297,2,-4,-7,4,2,1,0,9,1.485
298,-6,2,-5,7,3,-7,-5,7,1.49
299,-2,1,-3,1,0,-2,-2,-2,1.495
300,3,3,0,-3,-2,-1,-3,-5,1.5
301,5,2,5,-5,-2,0,-5,-8,1.5050000000000001
302,5,0,4,-4,-3,0,-2,-6,1.51
303,-4,-3,3,1,-4,0,-1,-6,1.5150000000000001
304,-3,-3,-1,4,-1,3,1,2,1.52
305,1,-2,2,-1,-1,5,1,3,1.5250000000000001
306,-1,-3,1,-4,4,4,2,4,1.53
307,-7,0,-6,-1,3,-3,0,1,1.5350000000000001
308,0,-1,-7,-5,-2,0,-3,-3,1.54
309,-2,-2,-3,0,-4,-8,-2,-2,1.545
310,-5,-7,2,4,-3,-1,2,1,1.55
311,-3,-4,-6,1,-1,-3,1,-1,1.555
312,-9,3,-5,1,4,-9,-3,-2,1.56
313,-2,3,-1,-3,-2,-6,0,-10,1.565
314,6,3,3,4,-3,-3,-3,-7,1.57
315,8,-2,7,0,-3,-5,-2,3,1.575
316,6,-3,1,6,-9,3,2,-3,1.58
317,7,1,1,2,-3,3,5,4,1.585
318,0,4,-3,-7,-3,-4,1,6,1.59
319,-7,2,-3,-2,0,0,2,2,1.595
320,-4,-2,3,-3,5,2,0,1,1.6
321,-5,-4,-3,-2,2,0,-2,0,1.605
322,0,-4,-2,-5,0,2,-3,1,1.61
323,1,-5,5,-4,-3,-6,-5,-2,1.615
324,-6,-1,1,0,1,-2,-2,-1,1.62
325,-5,-2,-3,-2,2,2,3,-5,1.625
326,0,0,-2,-7,4,1,1,-8,1.6300000000000001
327,1,2,-8,0,-3,3,-4,-6,1.635
328,9,2,-5,9,-4,-2,-2,0,1.6400000000000001
329,5,-3,-2,6,-6,-5,-10,6,1.645
330,0,3,-3,3,-8,-5,-4,4,1.6500000000000001
331,-5,2,-3,1,-3,1,5,5,1.655
332,-6,-1,6,-2,1,2,3,6,1.6600000000000001
333,-3,4,3,-1,1,4,0,-1,1.665
334,-5,-4,5,-3,-1,0,-1,-7,1.67
335,5,-1,5,-9,-3,-7,1,-5,1.675
336,6,0,1,-1,2,-7,1,-1,1.68
337,1,-3,-2,4,2,-2,0,-2,1.685
338,-3,-4,-6,2,-2,4,-4,1,1.69
339,-1,-5,-5,-3,-1,6,0,-1,1.695
340,-4,2,-5,-6,-2,3,5,-8,1.7
341,-3,2,2,1,0,2,7,-4,1.705
342,-5,4,3,4,-2,-2,7,-7,1.71
343,1,2,1,4,1,-4,-2,-1,1.715
344,6,-2,1,0,0,-3,-4,4,1.72
345,2,-2,-3,-1,-2,-3,-6,-1,1.725
346,1,0,-1,2,1,-3,-6,7,1.73
347,0,-2,-2,-2,0,-2,-10,1,1.735
348,-3,-8,1,-5,-2,-4,-4,-1,1.74
349,-4,-2,1,-4,0,-5,2,1,1.745
350,-1,-4,-2,-4,0,-1,-1,-2,1.75
351,-2,-2,2,-4,-2,4,0,-2,1.7550000000000001
352,0,2,2,-2,-1,3,-4,0,1.76
353,4,2,2,-3,1,10,2,5,1.7650000000000001
354,0,0,-8,-2,2,3,1,-1,1.77
355,-3,1,0,7,1,-1,-1,-6,1.7750000000000001
356,-5,1,-3,4,-2,-3,0,-7,1.78
357,2,1,0,1,-4,1,6,-3,1.7850000000000001
358,3,3,0,0,-1,3,4,0,1.79
359,0,3,-2,-1,-5,1,3,5,1.795
360,1,2,-5,-3,-3,1,2,2,1.8
361,-5,-2,-1,-5,1,-3,3,-1,1.805
362,-6,-2,-1,-6,1,-1,0,3,1.81
363,-3,-5,-2,-6,3,-3,-3,-1,1.815
364,3,-6,2,-2,1,-8,-7,-3,1.82
365,1,0,-2,2,-1,-7,-11,-3,1.825
366,1,3,-3,5,-2,-7,-4,-1,1.83
367,1,4,1,7,-4,-8,0,-6,1.835
368,1,3,-4,4,3,5,8,-1,1.84
369,-1,-5,-5,-2,-3,0,0,1,1.845
370,2,-1,-2,-6,-3,2,-2,5,1.85
371,0,-3,2,-8,3,2,4,7,1.855
372,-5,-4,2,-7,0,-4,3,-3,1.86
373,-4,-4,6,0,1,2,1,-3,1.865
374,-7,-2,6,2,2,-1,-2,-2,1.87
375,2,-3,-3,3,-1,-1,-4,-3,1.875
376,0,-2,-7,-3,-3,5,-6,-4,1.8800000000000001
377,3,5,-2,-5,-1,-7,-5,-1,1.885
378,3,2,-3,-2,-4,-7,-7,-4,1.8900000000000001
379,4,3,0,1,-2,3,2,2,1.895
380,0,0,3,4,-1,0,1,-4,1.9000000000000001
381,-8,-4,-1,4,1,0,-2,-5,1.905
382,3,-5,-2,-3,-5,0,0,0,1.9100000000000001
383,-7,2,0,-7,-2,4,-1,0,1.915
384,-5,-1,-3,-4,0,7,5,7,1.92
385,-1,-5,1,-2,-1,1,4,3,1.925
386,-8,-4,-2,3,3,-4,3,-2,1.93
387,-4,-3,2,4,-1,-10,1,-1,1.935
388,-3,0,4,0,-3,-4,-3,-7,1.94
389,0,2,-1,-4,-4,9,-4,-6,1.945
390,4,-3,0,-2,-1,6,0,-6,1.95
391,5,0,-4,1,-1,0,2,2,1.955
392,-2,1,-4,5,-2,-9,-2,4,1.96
393,1,-3,-3,7,-3,-6,0,3,1.965
394,0,-1,3,0,0,-1,2,2,1.97
395,-3,-6,4,-5,0,3,0,-4,1.975
396,3,1,5,-8,0,1,-2,-4,1.98
397,2,1,-2,-3,1,-5,-5,-2,1.985
398,-1,1,-2,-5,4,2,-1,3,1.99
399,-1,-4,-7,3,1,1,1,2,1.995
400,-2,-3,0,-3,1,3,2,4,2.0
401,-2,1,-6,-9,-3,-5,-2,1,2.005
402,0,4,-3,-1,-3,-5,1,-4,2.0100000000000002
403,-7,1,0,1,-4,-1,-3,-3,2.015
404,-4,-1,-1,8,-7,1,-4,-4,2.02
405,0,4,3,-2,-2,-1,-4,-2,2.025
406,4,4,4,-4,-2,-3,-4,2,2.0300000000000002
407,5,6,-1,-3,-2,3,1,0,2.035
408,4,-1,-5,-3,-3,1,0,3,2.04
409,1,-1,-4,0,2,3,10,1,2.045
410,-3,-4,-8,-1,1,-1,6,-1,2.05
411,-4,-1,-1,2,4,-1,1,-4,2.055
412,-2,-2,4,1,3,-3,3,-9,2.06
413,1,1,6,2,3,1,0,-2,2.065
414,2,-3,0,-5,-4,2,-8,-1,2.07
415,1,-3,0,-10,-2,3,-4,6,2.075
416,0,-5,-6,-2,2,1,-3,8,2.08
417,-3,-7,-8,5,3,0,0,-1,2.085
418,2,-2,-1,8,-1,-7,3,-2,2.09
419,4,2,3,10,-1,-4,-4,-2,2.095
420,-3,-1,4,-2,-1,1,-5,2,2.1
421,-3,2,3,-6,-1,3,-3,2,2.105
422,-1,0,-1,-4,-3,3,1,0,2.11
423,-5,-2,-2,-7,-5,-9,3,1,2.115
424,4,2,-3,-1,-8,1,-4,0,2.12
425,-6,0,-1,4,-4,2,-3,-7,2.125
426,-3,-1,-1,5,-1,-3,1,-6,2.13
427,-1,-3,-6,2,4,-1,4,-2,2.1350000000000002
428,0,0,-4,-3,1,-3,1,-2,2.14
429,3,5,3,4,3,2,-5,3,2.145
430,1,3,1,-1,-2,-1,-5,-1,2.15
431,5,-3,1,-5,-2,-4,4,-3,2.1550000000000002
432,-2,-1,-1,-10,-3,-10,0,-5,2.16
433,-5,-2,1,-8,-3,-5,3,-2,2.165
434,-8,1,1,-1,0,0,6,1,2.17
435,2,3,0,3,1,5,0,3,2.1750000000000003
436,3,-2,-2,5,4,8,3,7,2.18
437,2,-4,0,-1,-4,6,-4,1,2.185
438,-4,-7,0,-3,0,4,-8,-4,2.19
439,-6,-6,1,-6,-1,1,-6,-3,2.195
440,-4,-4,2,2,1,0,-4,0,2.2
441,4,1,0,10,5,3,3,-1,2.205
442,-1,4,-4,7,-2,-6,-2,1,2.21
443,-2,4,-3,-2,-2,-8,1,-1,2.215
444,1,5,1,-6,-1,-6,2,-3,2.22
445,-2,-3,-3,-7,-5,-6,3,2,2.225
446,2,-7,-1,-1,-3,1,-6,4,2.23
447,2,-7,-2,2,1,0,-7,-3,2.235
448,2,-2,0,-1,2,-1,0,-1,2.24
449,8,3,1,1,1,-1,-3,-1,2.245
450,3,4,-1,-5,0,1,0,-5,2.25
451,-3,4,-1,0,-10,-3,-2,-5,2.255
452,-5,5,-1,1,-5,4,-1,-3,2.2600000000000002
453,-9,-1,1,1,-1,-1,8,-2,2.265
454,-8,-4,5,0,1,1,10,-1,2.27
455,-6,-3,2,4,6,4,6,5,2.275
456,-3,-8,-3,5,2,-6,0,5,2.2800000000000002
457,3,-4,-2,5,1,-3,-10,1,2.285
458,1,2,1,-1,-3,6,-10,-1,2.29
459,2,1,0,-4,-4,0,-9,-4,2.295
460,-2,-1,0,-4,-3,0,-2,-3,2.3000000000000003
461,-3,-1,-1,-2,-3,-2,-1,4,2.305
462,-2,-1,-3,-1,-1,-5,-2,2,2.31
463,0,4,-3,-2,3,-1,-3,0,2.315
464,1,2,-5,-6,-4,0,1,-3,2.32
465,-6,-2,-5,-5,-4,-4,5,-5,2.325
466,2,-3,2,-7,0,-1,3,0,2.33
467,4,-4,1,-5,-3,5,1,0,2.335
468,2,-4,0,3,-5,-2,-3,1,2.34
469,8,-1,-1,5,1,2,-2,0,2.345
470,-1,0,0,4,0,-4,-3,-1,2.35
471,-4,5,0,8,-1,-3,0,-1,2.355
472,-6,0,-2,4,3,-4,4,-3,2.36
473,-1,3,-4,0,1,-1,-3,-5,2.365
474,-2,-7,-8,3,-5,0,-1,-5,2.37
475,-4,-3,-2,-2,-3,4,-5,-2,2.375
476,3,-2,5,-3,-3,4,-3,4,2.38
477,2,2,4,-8,-2,2,3,4,2.3850000000000002
478,5,4,2,-9,2,0,2,2,2.39
479,5,2,0,-5,0,-7,5,-1,2.395
480,0,0,0,2,-1,0,4,1,2.4
481,-3,-5,2,1,3,-4,-2,4,2.4050000000000002
482,3,-4,4,-1,2,-7,-5,5,2.41
483,-2,-6,2,0,2,-1,-5,-1,2.415
484,-2,0,-5,0,2,0,-3,-7,2.42
485,-7,0,-8,-6,0,-4,-2,-9,2.4250000000000003
486,-8,1,-4,2,1,1,-2,-7,2.43
487,-4,-3,-3,-2,-2,2,-2,-2,2.435
488,-1,2,1,-6,-4,0,0,1,2.44
489,-1,0,-2,-2,-4,2,-1,5,2.445
490,-1,-1,-3,-2,-1,-5,3,6,2.45
491,3,2,-2,0,1,-4,5,5,2.455
492,5,-2,5,3,-1,4,3,1,2.46
493,1,-5,3,-3,-6,-1,-2,-8,2.465
494,-3,-1,2,0,0,0,-4,-4,2.47
495,-2,-1,-2,1,-2,0,-4,-5,2.475
496,-4,0,-6,-1,-3,0,-4,5,2.48
497,1,6,-2,-3,2,0,-6,2,2.485
498,0,6,2,-3,2,3,1,0,2.49
499,-8,0,1,3,1,2,3,2,2.495
500,-3,-5,3,2,0,-4,0,-1,2.5
501,5,-6,4,2,-2,-4,3,3,2.505
502,3,-7,-3,-5,-4,-1,-1,3,2.5100000000000002
503,4,1,1,0,0,3,-2,1,2.515
504,1,-2,-3,1,-2,-4,-2,-6,2.52
505,1,0,-8,1,-2,-3,0,-5,2.525
506,1,3,-8,7,-6,3,5,-5,2.5300000000000002
507,-2,-1,0,-3,-3,1,2,0,2.535
508,-6,3,-1,-3,1,0,1,-4,2.54
509,-6,1,5,0,0,2,3,-3,2.545
510,-1,2,-2,-3,0,-5,1,-3,2.5500000000000003
511,4,-4,-1,-3,2,-5,-2,-3,2.555
512,3,5,1,-5,2,0,-5,-6,2.56
513,-5,-3,-6,-4,-1,3,-7,-1,2.565
514,-7,-9,-1,-3,-1,-2,-6,4,2.57
515,1,-1,5,-2,0,-1,2,5,2.575
516,5,1,3,-4,0,2,-2,-3,2.58
517,-2,1,3,0,0,4,-4,0,2.585
518,4,3,2,9,1,-2,1,9,2.59
519,0,1,-10,6,-4,-8,1,1,2.595
520,-8,-3,-3,3,-1,-6,2,-3,2.6
521,-2,-3,-6,0,-2,1,-1,-4,2.605
522,-2,-6,-4,-3,-3,1,-1,-9,2.61
523,-1,-1,-3,2,4,1,4,0,2.615
524,4,-2,-4,1,4,10,1,9,2.62
525,-4,-1,2,-3,0,2,-3,4,2.625
526,1,-2,1,-3,1,-5,-3,-3,2.63
527,4,-1,-1,-5,2,-2,-1,-5,2.6350000000000002
528,-4,-2,0,-1,0,-3,1,-5,2.64
529,1,-1,1,0,1,-1,4,-2,2.645
530,-1,3,3,-1,-1,4,-2,-1,2.65
531,2,3,0,0,-5,-1,-1,-3,2.6550000000000002
532,-1,-2,0,-3,-8,-12,-3,2,2.66
533,0,3,-2,-1,-1,-8,1,2,2.665
534,-3,1,2,-2,0,-5,4,0,2.67
535,1,3,1,1,0,8,-1,-2,2.6750000000000003
536,-2,0,0,1,2,9,-4,0,2.68
537,-2,0,-1,4,1,2,-3,-4,2.685
538,3,3,-4,6,-2,6,-2,-1,2.69
539,-2,-4,-1,0,-3,0,-3,3,2.695
540,-4,-2,1,-2,-3,-5,1,3,2.7
541,-4,-3,1,-4,0,-4,0,3,2.705
542,-1,-3,-1,-2,0,2,-1,0,2.71
543,-5,-4,-5,-7,-2,-2,0,0,2.715
544,4,-3,-2,-1,-3,0,4,-2,2.72
545,6,0,-3,-2,-4,-5,1,-4,2.725
546,-1,2,-1,-4,0,-1,-1,-4,2.73
547,2,-1,-4,-2,3,2,-1,-5,2.735
548,-1,-1,-7,-5,0,-3,-1,-6,2.74
549,-1,-4,-1,1,3,-4,3,2,2.745
550,-5,-2,-2,-1,1,-2,1,2,2.75
551,-10,-1,4,3,0,-5,0,-1,2.755
552,-1,0,0,-3,-2,-5,3,-1,2.7600000000000002
553,1,-1,-1,0,-7,-4,0,-2,2.765
554,4,0,1,2,-2,-3,-5,1,2.77
555,0,1,-2,5,-4,5,-5,0,2.775
556,-3,-2,-1,9,0,6,-2,3,2.7800000000000002
557,-3,-2,-3,1,-3,-1,-3,5,2.785
558,-7,-1,-4,-4,-3,-6,-3,4,2.79
559,-3,0,0,-4,-2,-10,-3,-4,2.795
560,3,3,4,-8,4,-3,-3,-4,2.8000000000000003
561,3,-2,0,-8,0,1,0,-7,2.805
562,5,-1,4,-4,-4,4,5,-6,2.81
563,6,-1,-2,0,-2,6,2,0,2.815
564,0,6,-6,2,-1,7,3,-5,2.82
565,-7,1,-4,2,2,1,-4,-6,2.825
566,-1,-1,-4,-2,-2,-1,1,1,2.83
567,-2,-7,-4,1,-2,-11,2,4,2.835
568,-1,-1,5,0,3,-4,4,8,2.84
569,0,3,3,0,-3,4,-3,2,2.845
570,-6,-2,-1,1,-3,2,-7,-3,2.85
571,-9,1,2,0,-1,-1,-6,2,2.855
572,2,2,-3,3,-1,-8,-5,2,2.86
573,8,-2,0,6,-1,-6,5,-1,2.865
574,8,-5,-1,2,-3,-6,-1,-5,2.87
575,0,-4,-3,-6,-4,5,4,-4,2.875
576,-10,-3,-2,-8,-4,2,-2,-5,2.88
577,-8,-2,1,-3,1,4,0,-1,2.8850000000000002
578,2,-1,0,0,5,-4,0,5,2.89
579,3,3,-1,7,7,0,1,1,2.895
580,-2,-3,-1,8,4,6,-5,-1,2.9
581,-4,1,1,-2,0,2,-4,5,2.9050000000000002
582,-3,2,-1,-5,3,1,4,-3,2.91
583,-4,0,-1,-9,-4,-2,5,-3,2.915
584,-2,1,-3,-7,-2,-2,5,-4,2.92
585,1,-2,-4,-1,1,-1,-1,0,2.9250000000000003
586,-1,-6,-2,4,-2,0,-6,4,2.93
587,9,0,4,0,-4,0,-5,-1,2.935
588,7,1,-1,-1,-6,-2,2,0,2.94
589,-2,1,4,-2,-6,-8,1,2,2.945
590,-4,2,1,1,-2,-9,0,-1,2.95
591,-7,-1,-1,1,-5,1,-1,-1,2.955
592,-6,-7,0,-2,-3,4,-2,-1,2.96
593,0,-4,-7,-1,1,9,-2,1,2.965
594,3,-2,-2,1,1,3,1,-3,2.97
595,1,-1,0,2,4,-1,-5,-1,2.975
596,0,-5,-1,2,1,-7,-3,-3,2.98
597,-3,-4,2,2,1,-4,3,-3,2.985
598,-6,0,0,2,-1,-4,3,-2,2.99
599,-1,3,-1,0,-1,0,-3,-1,2.995
600,2,4,-4,-1,1,3,-5,-4,3.0
601,5,2,-1,-3,-2,-3,-7,-8,3.005
602,3,2,-3,-2,-1,2,4,-3,3.0100000000000002
603,-3,-3,-3,-6,0,0,4,2,3.015
604,-8,-8,-1,0,0,0,5,10,3.02
605,-8,-3,-1,-1,-1,-2,-1,2,3.025
606,-6,1,4,-2,-1,-1,-3,-1,3.0300000000000002
607,0,0,0,-2,0,-5,-3,-4,3.035
608,-4,-2,4,-6,0,-1,-2,-2,3.04
609,3,1,0,-2,1,4,-2,-3,3.045
610,0,-2,1,-4,-1,5,-4,-2,3.0500000000000003
611,4,0,-7,-1,-4,-1,2,0,3.055
612,8,1,-6,3,0,-5,0,-5,3.06
613,2,0,-7,3,-1,2,4,-3,3.065
614,0,4,0,0,-3,2,1,-2,3.0700000000000003
615,4,1,3,-1,-4,3,-2,-2,3.075
616,0,-1,1,-7,-6,-1,-3,-2,3.08
617,-2,1,3,4,1,-8,3,5,3.085
618,1,2,2,4,0,-5,7,7,3.09
619,-3,-2,-2,0,2,-2,2,4,3.095
620,-2,-2,-4,-3,-3,-4,0,-1,3.1
621,-4,-5,-6,-2,-2,1,2,-3,3.105
622,-1,-3,-1,3,3,-1,-1,-8,3.11
623,-1,1,2,2,-3,1,-7,-4,3.115
624,2,2,5,6,-2,5,-6,1,3.12
625,-5,2,3,-3,-1,0,-6,-2,3.125
626,0,-4,-6,-4,1,-7,-5,6,3.13
627,-6,-10,1,-10,1,-7,1,4,3.1350000000000002
628,-4,0,1,-1,6,1,1,-3,3.14
629,-2,0,3,0,-4,-3,-3,-5,3.145
630,-2,-3,3,-3,-1,2,-5,0,3.15
631,-2,0,-4,-1,-2,1,0,4,3.1550000000000002
632,-3,1,-6,2,-3,-2,5,3,3.16
633,-1,5,-7,1,-1,-2,5,-4,3.165
634,1,5,-2,0,0,0,-1,-7,3.17
635,-1,4,1,2,2,-3,-5,1,3.1750000000000003
636,5,0,-1,0,-2,-5,4,4,3.18
637,0,-2,-4,-3,-3,2,5,4,3.185
638,2,-3,-1,-5,-5,3,1,1,3.19
639,-2,-3,1,-3,-2,-4,-6,-2,3.1950000000000003
640,1,-3,-1,0,-2,-2,-1,-3,3.2
641,4,-3,-2,-2,-4,0,-3,-6,3.205
642,0,0,-1,-1,0,9,-7,-2,3.21
643,1,1,0,5,1,4,-2,-1,3.215
644,2,0,1,6,1,-2,-8,3,3.22
645,0,-2,1,0,0,-1,0,0,3.225
646,-2,-1,-3,-6,1,-4,7,-6,3.23
647,-6,-2,0,-3,-1,1,5,-5,3.235
648,-4,-3,-4,-3,-4,5,2,-4,3.24
649,-8,-2,2,0,1,2,1,4,3.245
650,-8,-1,1,-1,5,-3,-2,-3,3.25
651,1,1,1,3,6,-2,-2,-1,3.255
652,5,1,4,2,2,-5,-7,-4,3.2600000000000002
653,5,1,1,3,0,-4,-3,1,3.265
654,1,4,-2,2,-1,-6,5,5,3.27
655,-2,-1,-2,-1,-7,-5,2,2,3.275
656,-3,-4,-5,-4,-5,-1,-1,0,3.2800000000000002
657,3,-4,-6,-4,-4,4,-4,-3,3.285
658,0,-4,-4,2,-2,9,0,-2,3.29
659,2,-1,1,3,0,8,2,-5,3.295
660,-1,2,3,-3,0,-5,-1,-4,3.3000000000000003
661,-4,2,1,-3,2,-9,-3,-2,3.305
662,-6,-4,0,-7,-1,-1,1,2,3.31
663,0,2,3,-9,-4,-3,-2,4,3.315
664,0,2,3,0,-2,-3,-5,9,3.3200000000000003
665,2,3,2,4,-1,-4,-6,9,3.325
666,-3,-1,-1,7,-5,-1,-1,0,3.33
667,-7,-6,-2,-1,2,2,2,-2,3.335
668,-2,-5,-4,-3,2,0,-1,-4,3.34
669,2,-5,-5,-3,3,5,-1,-1,3.345
670,3,-1,-2,2,0,-2,-2,-1,3.35
671,1,6,-1,1,-4,-2,1,-3,3.355
672,1,-3,1,0,-5,-2,3,-5,3.36
673,0,-1,4,-6,-2,2,-1,-4,3.365
674,2,-2,-3,-9,-6,2,-3,1,3.37
675,-1,-3,-3,-3,-1,-6,0,0,3.375
676,-6,-2,-6,-5,3,-1,-2,2,3.38
677,-5,6,-6,6,5,6,9,-1,3.3850000000000002
678,-4,4,-2,8,-1,5,1,-13,3.39
679,1,-2,-2,5,-3,3,-2,-6,3.395
680,6,-1,5,-4,-3,-6,-1,-2,3.4
681,6,-5,6,-1,-3,-7,0,4,3.4050000000000002
682,1,2,1,-5,0,-8,-1,5,3.41
683,-1,3,-3,2,3,-1,0,0,3.415
684,3,4,0,1,3,4,5,2,3.42
685,1,-3,4,0,1,3,-2,4,3.4250000000000003
686,-3,0,2,2,2,2,-1,4,3.43
687,-2,-2,-3,-4,-3,1,-5,0,3.435
688,-5,0,-2,-2,-2,2,-6,-4,3.44
689,-6,1,-2,-5,-1,-4,1,-6,3.4450000000000003
690,-1,-2,-6,-5,3,-1,3,-1,3.45
691,-1,-2,-2,0,2,-2,3,-2,3.455
692,-2,-4,0,5,1,-2,3,1,3.46
693,-1,-3,-3,-1,-4,-4,-5,6,3.465
694,-1,-2,1,-1,-7,-3,-2,2,3.47
695,-4,0,1,-1,-7,4,0,-7,3.475
696,-2,0,1,-1,-1,1,8,-8,3.48
697,1,-1,0,-1,-1,2,-1,-8,3.485
698,-2,-2,-1,1,0,1,-8,-3,3.49
699,1,-2,-2,-1,3,2,-9,-1,3.495
700,1,-3,0,-3,2,1,-4,7,3.5
701,2,1,1,-2,2,-3,-2,9,3.505
702,0,1,0,1,0,-3,-1,6,3.5100000000000002
703,-2,2,-2,1,-4,-6,-1,-1,3.515
704,-6,0,-2,2,1,-4,-4,-3,3.52
705,-1,-1,-3,0,-2,2,-2,-5,3.525
706,4,-4,-1,1,-3,-1,0,-7,3.5300000000000002
707,5,-4,3,1,1,-1,6,-1,3.535
708,1,-2,0,-3,-1,1,8,5,3.54
709,-4,-1,3,0,-2,-2,0,3,3.545
710,1,1,2,-6,-1,1,-1,3,3.5500000000000003
711,0,-3,-4,-4,1,-6,-6,-6,3.555
712,-1,2,-6,0,-2,2,-4,-5,3.56
713,-5,2,-5,-1,-1,1,2,-5,3.565
714,-4,0,-5,1,-1,4,2,-9,3.5700000000000003
715,0,-1,1,4,4,0,-2,0,3.575
716,2,-1,2,6,1,-3,0,2,3.58
717,2,-4,-2,5,-4,-2,-2,-3,3.585
718,-2,-1,-3,-6,-1,-3,2,3,3.59
719,2,1,-3,-8,-1,3,2,-2,3.595
720,-2,0,3,-3,-2,2,-4,-5,3.6
721,-3,1,0,-2,-1,-4,-3,0,3.605
722,-4,-4,-2,-2,0,-5,-6,1,3.61
723,-2,-2,-2,5,-3,-6,-6,7,3.615
724,4,0,-1,2,-1,2,2,3,3.62
725,3,-2,1,-2,0,3,5,-3,3.625
726,1,1,4,0,-5,-2,-1,-5,3.63
727,0,2,2,-8,-1,-1,-1,-3,3.6350000000000002
728,-2,-3,-1,-5,1,-2,-3,-1,3.64
729,-3,-5,-4,0,-2,-3,-1,-1,3.645
730,-4,-1,-4,4,1,5,0,4,3.65
731,0,-1,2,4,-2,4,1,2,3.6550000000000002
732,-3,1,-1,-4,2,4,-1,3,3.66
733,-2,0,-3,-3,1,-1,0,-2,3.665
734,1,1,-7,3,2,-7,-4,-5,3.67
735,4,2,-2,1,-1,-3,4,0,3.6750000000000003
736,1,-1,-2,-4,-7,-4,3,-3,3.68
737,-1,-7,4,-4,-4,-5,0,-4,3.685
738,-2,1,9,-2,1,-1,2,0,3.69
739,-5,1,2,-1,3,3,0,-5,3.6950000000000003
740,2,0,-6,3,4,2,-2,-6,3.7
741,-5,4,0,-2,1,-4,-1,-5,3.705
742,1,0,2,0,0,-2,-1,-3,3.71
743,-4,-2,0,-4,2,-3,0,7,3.715
744,1,-2,-3,-1,-2,-4,-5,6,3.72
745,8,-4,-8,-2,-3,2,-2,4,3.725
746,4,-2,-2,3,-2,-2,3,1,3.73
747,5,0,-1,6,-3,4,5,5,3.735
748,-7,-1,-1,-1,-3,3,-3,2,3.74
749,-8,1,3,-2,-1,4,-5,1,3.745
750,-4,-2,6,3,0,3,-1,1,3.75
751,-2,-4,-2,2,-1,-3,-2,-3,3.755
752,-2,0,1,0,0,-6,0,-10,3.7600000000000002
753,0,-1,-1,0,1,-3,0,-10,3.765
754,5,-1,-4,-4,0,0,-2,-8,3.77
755,0,2,2,-2,-4,2,0,-4,3.775
756,-1,-1,-6,0,-5,0,-5,4,3.7800000000000002
757,3,-1,-1,4,-2,1,-1,3,3.785
758,1,-2,-2,-5,0,-7,0,0,3.79
759,2,1,-6,-5,3,-5,2,1,3.795
760,-3,1,3,-6,1,-1,0,0,3.8000000000000003
761,-1,0,5,-6,-1,1,-2,1,3.805
762,0,0,-1,-2,-1,-2,-4,3,3.81
763,-1,-1,-2,1,-4,-2,-6,-3,3.815
764,1,-1,-1,3,4,2,5,-1,3.8200000000000003
765,-2,-2,-1,3,1,5,6,3,3.825
766,-5,-3,0,-1,-3,1,6,-1,3.83
767,-11,-2,1,-2,-5,-2,3,0,3.835
768,-3,5,1,4,0,-4,5,3,3.84
769,-2,6,1,4,0,-1,0,2,3.845
770,6,2,-3,-1,2,-1,-2,1,3.85
771,4,-2,-2,-2,0,-2,-9,-5,3.855
772,4,-6,0,1,0,0,-5,-6,3.86
773,4,-2,3,-3,-2,1,2,-3,3.865
774,-3,-4,0,-5,-1,1,5,1,3.87
775,5,0,-4,-4,-2,-1,0,-1,3.875
776,-2,-2,-5,-3,-1,-2,-6,-4,3.88
777,-5,0,-5,0,-2,-3,-1,-2,3.8850000000000002
778,-4,1,0,4,-5,-1,-3,0,3.89
779,-3,1,5,6,-2,0,-1,3,3.895
780,-5,1,1,1,-4,-7,2,1,3.9
781,1,1,-2,4,2,-2,1,-1,3.9050000000000002
782,0,-3,-4,-3,0,-1,1,3,3.91
783,-3,-2,-6,-2,1,0,0,-2,3.915
784,-1,-1,2,-4,0,4,-1,-5,3.92
785,-7,-8,-1,-4,2,-2,-7,-8,3.9250000000000003
786,-5,-4,2,-4,-1,0,-7,-8,3.93
787,0,-2,-2,-6,-1,-3,-6,-1,3.935
788,1,3,-5,-4,-6,-5,-2,4,3.94
789,1,4,-5,3,-3,-4,0,5,3.9450000000000003
790,4,4,3,3,1,4,-1,4,3.95
791,1,1,0,1,4,1,1,1,3.955
792,0,-2,-1,1,-1,5,3,-1,3.96
793,5,0,-2,-2,-6,0,-1,7,3.9650000000000003
794,1,-2,4,1,-2,1,-2,3,3.97
795,-3,-6,2,-3,-4,-3,4,-3,3.975
796,-2,-3,-2,2,1,-3,2,-8,3.98
797,3,-2,-9,-6,-5,-4,-1,-8,3.985
798,5,0,-9,-2,-2,-7,6,-5,3.99
799,-2,1,0,-4,1,0,0,0,3.995
800,-5,0,0,1,0,1,-2,6,4.0
801,-3,0,2,-2,2,1,-1,3,4.005
802,1,0,-2,-1,3,-4,-1,3,4.01
803,0,-3,3,0,4,3,2,-1,4.015
804,-2,-3,3,1,0,3,0,-12,4.0200000000000005
805,0,-1,-1,2,-5,4,4,-4,4.025
806,-2,0,-6,-2,-5,-2,-6,0,4.03
807,-3,2,-2,-1,1,1,-6,3,4.035
808,1,6,-1,-5,-1,6,-3,8,4.04
809,-6,2,1,-1,4,4,1,4,4.045
810,-3,-3,0,2,1,-1,0,-1,4.05
811,1,-2,0,-4,-3,-4,-2,-1,4.055
812,2,-6,-1,-3,-1,-7,-4,-6,4.0600000000000005
813,0,-1,-5,-4,-1,-6,-1,-7,4.065
814,0,-2,-5,2,-1,-4,6,-4,4.07
815,3,-2,-3,3,-3,-4,1,-4,4.075
816,-2,3,0,1,-4,1,0,6,4.08
817,-1,1,-2,2,0,-1,-4,2,4.085
818,-8,0,2,-2,-1,0,-8,2,4.09
819,0,-2,1,-4,-2,1,-1,-1,4.095
820,-1,0,-1,0,-3,0,0,-5,4.1
821,2,-4,4,5,-6,-1,1,-2,4.105
822,0,-2,3,3,-1,8,2,-4,4.11
823,-2,1,1,3,3,-3,-3,4,4.115
824,-3,4,0,-3,1,-4,-4,3,4.12
825,2,4,-3,-5,1,-8,-1,0,4.125
826,1,1,-4,-7,-3,-4,-1,-5,4.13
827,-4,-5,1,-4,-1,-1,-2,-3,4.135
828,0,-6,-5,-4,1,1,0,0,4.14
829,-6,-5,-4,3,-2,3,0,1,4.1450000000000005
830,0,-2,-1,-2,-1,-1,4,5,4.15
831,4,1,-3,-2,-1,0,5,3,4.155
832,-2,-2,0,0,1,-5,-4,-1,4.16
833,0,2,3,-3,3,-4,-3,-5,4.165
834,0,2,-3,0,2,-2,-2,-4,4.17
835,-3,3,-2,2,1,6,1,-2,4.175
836,9,-5,0,-4,0,3,-1,3,4.18
837,5,-1,5,-2,-1,3,-3,0,4.1850000000000005
838,-5,1,4,2,-4,-2,-4,-4,4.19
839,-5,0,-3,3,-7,-2,-2,-5,4.195
840,-2,0,-1,-1,-6,2,-1,-4,4.2
841,-6,-4,-3,-4,-2,-1,0,1,4.205
842,-2,-1,2,-2,-4,-6,0,-1,4.21
843,0,0,-2,-3,-1,-6,1,-1,4.215
844,-5,-2,-4,7,5,2,1,2,4.22
845,-2,-1,-6,5,5,-2,-1,2,4.225
846,1,-2,0,1,4,2,1,1,4.23
847,0,0,0,0,-3,-1,-4,-2,4.235
848,6,4,2,-5,-1,0,-2,1,4.24
849,2,1,3,-5,-3,-3,-4,-1,4.245
850,1,4,-1,-4,1,0,-3,2,4.25
851,0,4,0,4,1,1,3,4,4.255
852,-4,-1,-3,-2,0,3,0,0,4.26
853,0,-4,-2,-6,0,1,3,-6,4.265
854,-1,-8,-1,0,2,-1,0,-2,4.2700000000000005
855,3,-4,1,-1,-4,-4,3,-2,4.275
856,-1,-5,0,0,-3,-4,-3,-5,4.28
857,-1,-5,2,-3,2,-1,-1,-4,4.285
858,-2,-1,0,-3,0,0,-2,-5,4.29
859,-4,0,-6,-3,-2,-4,0,-4,4.295
860,-6,-2,-1,4,-2,4,6,0,4.3
861,-2,-1,0,9,-2,1,-4,2,4.305
862,0,-1,-2,4,1,2,-3,2,4.3100000000000005
863,9,0,-3,1,5,0,-5,1,4.315
864,8,1,-4,-2,-1,-6,-1,1,4.32
865,-4,-1,-3,-5,-3,0,4,-2,4.325
866,-7,-1,-2,-1,-1,0,5,2,4.33
867,-2,4,-3,-3,-2,-1,0,3,4.335
868,-2,2,3,-4,-2,-4,-1,3,4.34
869,1,2,1,-2,0,-2,0,3,4.345
870,0,-2,-2,-7,-2,2,-6,-5,4.3500000000000005
871,-3,-6,2,1,-5,-1,-9,-7,4.355
872,-3,-2,1,-1,-4,-1,-4,-3,4.36
873,-2,-1,2,0,-4,-2,-1,2,4.365
874,6,1,-2,0,-3,-4,-2,-1,4.37
875,1,2,-4,-5,3,-2,-3,-2,4.375
876,8,2,0,0,5,3,1,0,4.38
877,-1,1,-3,-2,1,1,2,-2,4.385
878,-3,-4,3,1,0,0,2,-1,4.39
879,-7,-6,2,7,-2,-2,-2,2,4.3950000000000005
880,-9,-5,-7,3,-3,-9,-5,-1,4.4
881,2,-1,-1,1,2,2,-1,2,4.405
882,-1,1,0,-1,0,5,3,5,4.41
883,-2,1,2,-5,-1,7,5,4,4.415
884,2,-1,-3,-6,-2,-3,2,-4,4.42
885,4,-2,0,3,-2,-4,-6,-9,4.425
886,7,-5,0,1,-4,-5,-6,-7,4.43
887,7,-2,3,-3,-1,3,3,0,4.4350000000000005
888,-1,1,4,-2,-3,1,1,2,4.44
889,-3,1,0,-2,-2,-2,2,3,4.445
890,-8,4,-5,2,-1,-7,2,2,4.45
891,0,4,-7,1,1,-3,4,-3,4.455
892,-3,2,-7,2,1,-1,-3,-2,4.46
893,-4,-2,-1,-3,-1,-1,-5,-2,4.465
894,2,0,1,0,0,2,-3,3,4.47
895,-4,-3,1,0,-1,0,-1,3,4.4750000000000005
896,-8,-1,1,-3,0,7,1,-1,4.48
897,-1,1,1,-1,-1,1,-2,-2,4.485
898,3,-2,3,-4,0,-3,-1,-1,4.49
899,9,0,-3,-5,1,0,-3,1,4.495
900,8,0,1,0,2,-2,-4,0,4.5
901,-4,-2,-3,-3,3,-2,1,-3,4.505
902,-2,2,-4,-1,-2,-8,-1,-2,4.51
903,-2,-1,2,4,2,-1,3,-6,4.515
904,-5,-1,3,3,0,0,3,1,4.5200000000000005
905,-4,-5,-2,2,-2,0,0,5,4.525
906,-3,-7,0,-1,-4,5,-1,4,4.53
907,-1,-6,5,3,-4,5,-1,-3,4.535
908,0,1,3,-6,-3,-4,2,-6,4.54
909,5,2,-5,-3,-2,-3,5,-3,4.545
910,-1,1,-5,1,0,2,-2,-3,4.55
911,-5,-1,-7,0,-2,-2,-9,-2,4.555
912,-6,0,-4,-2,-5,-2,-4,-6,4.5600000000000005
913,-1,2,4,1,-3,-2,-1,2,4.565
914,1,-2,3,-7,-4,1,1,2,4.57
915,3,-5,3,-2,1,-3,1,3,4.575
916,1,-3,0,4,2,-2,3,-5,4.58
917,1,0,-3,-1,1,-1,0,-5,4.585
918,-2,3,-3,3,0,0,-2,-3,4.59
919,-4,3,1,5,0,3,-5,3,4.595
920,0,2,-1,4,3,5,-4,5,4.6000000000000005
921,-1,3,-5,0,2,6,-3,3,4.605
922,3,-2,0,-3,-1,7,1,6,4.61
923,0,-6,-3,-4,-1,-2,0,-3,4.615
924,-1,-9,-2,-7,-2,-10,1,-6,4.62
925,-1,-1,2,-4,-1,-6,1,-3,4.625
926,-6,-3,-1,-1,1,-5,1,2,4.63
927,-6,0,-1,-3,-4,-2,0,1,4.635
928,1,3,0,-2,-3,2,0,1,4.64
929,5,-1,2,-2,1,2,3,-4,4.6450000000000005
930,1,3,2,-1,-1,-3,-2,-4,4.65
931,4,4,-3,1,-1,-4,1,2,4.655
932,-1,0,1,1,-1,0,1,5,4.66
933,-3,-3,-2,-1,-3,0,-3,-2,4.665
934,-4,-4,-6,0,0,0,-7,-6,4.67
935,-6,-3,-2,1,-2,2,0,-5,4.675
936,0,-3,-3,4,-4,1,0,3,4.68
937,-4,-2,-4,-1,-2,0,0,9,4.6850000000000005
938,5,1,1,-2,3,-7,0,3,4.69
939,3,5,1,-7,-1,-2,-3,-5,4.695
940,3,-3,3,-2,0,-3,-3,-7,4.7
941,0,-2,1,3,0,-4,-4,-6,4.705
942,0,1,-3,-3,0,-3,-1,-3,4.71
943,-4,2,-4,-3,0,-1,3,-4,4.715
944,-7,-1,-9,0,-3,-2,-3,-1,4.72
945,-6,-5,-6,-1,-6,-2,1,4,4.7250000000000005
946,0,-1,-3,-1,-2,1,2,0,4.73
947,3,-2,0,2,0,3,1,2,4.735
948,2,0,0,-1,-3,0,1,0,4.74
949,-1,0,4,0,0,0,3,0,4.745
950,1,-4,0,3,0,0,4,-3,4.75
951,4,-6,1,-2,1,-3,0,1,4.755
952,4,2,-2,-1,2,-2,-1,-3,4.76
953,4,3,-2,2,-1,-3,1,-3,4.765
954,-5,1,1,0,-3,1,-3,-2,4.7700000000000005
955,-2,1,1,-1,-1,1,-2,-3,4.775
956,-3,-5,-3,-7,3,1,-4,0,4.78
957,2,-5,-2,-5,0,3,-4,3,4.785
958,-1,2,-2,-6,-1,3,-4,-2,4.79
959,-8,2,0,0,-2,-5,1,-5,4.795
960,-2,5,2,3,-2,1,1,4,4.8
961,5,4,6,2,0,0,4,3,4.805
962,4,3,2,1,-3,2,3,3,4.8100000000000005
963,0,-4,-1,1,0,-4,0,2,4.815
964,-4,-3,-2,1,2,-3,3,-1,4.82
965,-1,-2,-6,6,0,-2,-2,0,4.825
966,-2,-4,-7,3,-1,0,-5,-3,4.83
967,-4,3,0,-1,2,0,1,1,4.835
968,1,-2,2,2,-1,2,4,-2,4.84
969,2,0,2,-2,0,1,-1,-7,4.845
970,2,1,0,-5,-3,-4,0,-9,4.8500000000000005
971,0,-2,-4,-8,-4,-1,-1,-4,4.855
972,-2,1,0,-3,-2,-2,-6,3,4.86
973,-3,-2,-3,-4,-3,-5,-6,-2,4.865
974,-4,-3,-4,3,1,-2,-3,-1,4.87
975,-2,-1,-2,1,-1,-2,1,1,4.875
976,-3,-4,0,-2,0,4,1,-4,4.88
977,-1,-5,-4,-2,-2,6,3,-6,4.885
978,-4,-3,1,-1,0,3,2,3,4.89
979,2,-1,2,-1,-2,2,-2,5,4.8950000000000005
980,1,3,6,2,1,-1,-2,6,4.9
981,1,-1,4,4,4,-2,-1,3,4.905
982,-4,-7,-2,5,4,-6,-1,1,4.91
983,0,-3,-4,3,2,-4,-1,-4,4.915
984,1,4,-6,-9,-2,-2,-2,-6,4.92
985,2,4,-1,-8,-3,2,2,-6,4.925
986,6,3,0,0,-2,3,2,-2,4.93
987,3,-1,1,5,0,4,-5,2,4.9350000000000005
988,3,-5,2,-4,-4,-1,-5,-5,4.94
989,-2,3,4,-4,-3,-1,-1,3,4.945
990,-5,2,-4,-4,-3,-8,3,1,4.95
991,-4,0,-3,1,-2,-9,-1,-1,4.955
992,-3,1,-4,7,0,-6,2,1,4.96
993,-2,2,-1,7,5,-3,-1,-2,4.965
994,1,2,1,2,5,4,-1,-1,4.97
995,3,-5,0,0,-2,1,-3,-2,4.9750000000000005
996,-4,-5,0,-8,-4,0,-5,1,4.98
997,-3,-4,-3,-7,-5,1,-4,0,4.985
998,-8,-2,-6,-4,-2,-2,1,1,4.99
999,-2,-5,-4,1,-1,3,3,-5,4.995
1000,2,2,-1,4,2,-1,3,0,5.0
1001,0,-2,-3,4,2,-3,0,2,5.005
1002,-2,-1,3,1,0,-1,-8,-2,5.01
1003,-7,1,3,-4,-2,3,-5,4,5.015
1004,-4,-1,0,0,0,6,-2,1,5.0200000000000005
1005,-3,3,3,-4,1,-1,1,-4,5.025
1006,0,1,2,-3,2,-1,0,-5,5.03
1007,4,0,-2,-1,0,-3,2,0,5.035
1008,6,-2,-1,3,-2,3,0,4,5.04
1009,3,-2,-3,-3,-4,-1,-3,3,5.045
1010,-2,2,0,-4,-1,-2,0,0,5.05
1011,-1,7,-2,0,-2,-3,6,-7,5.055
1012,2,3,1,0,2,-2,-1,-5,5.0600000000000005
1013,3,-3,1,3,-1,-2,0,-3,5.065
1014,2,-6,-1,5,-5,-1,-1,1,5.07
1015,-4,-7,-3,1,-1,-2,-4,1,5.075
1016,-2,-3,-1,1,1,-3,3,1,5.08
1017,-4,0,-1,-4,2,3,2,3,5.085
1018,1,-1,-6,-5,-1,1,-1,2,5.09
1019,0,1,1,-3,-4,6,-5,-3,5.095
1020,3,3,-5,-1,-3,0,-3,2,5.1000000000000005
1021,1,4,0,-5,-7,-5,-5,6,5.105
1022,1,0,3,5,-4,-3,-2,2,5.11
1023,0,-3,-2,0,1,-1,4,0,5.115
1024,0,-1,6,1,2,-2,5,-1,5.12
1025,0,-1,3,-3,3,-4,2,-5,5.125
1026,0,0,-1,-9,5,0,1,0,5.13
1027,0,-1,0,-4,1,1,-1,0,5.135
1028,-4,-4,-5,-5,-4,-2,-6,-3,5.14
1029,0,2,0,2,-2,3,1,-7,5.1450000000000005
1030,-1,1,4,2,-1,-1,3,-5,5.15
1031,-1,0,3,0,1,-8,-5,-1,5.155
1032,-5,1,-3,3,-2,-4,-1,0,5.16
1033,-2,-4,-4,2,-1,-4,-6,-4,5.165
1034,-1,-5,0,-5,-4,-1,-3,-3,5.17
1035,0,2,-3,-6,-1,0,1,6,5.175
1036,0,-1,-8,-1,-1,-3,0,4,5.18
1037,-2,-5,-5,4,-2,3,0,2,5.1850000000000005
1038,3,-4,-4,0,-3,5,-1,4,5.19
1039,-4,-2,2,-3,1,0,1,0,5.195
1040,-3,0,1,-1,0,-1,2,-2,5.2
1041,1,-1,0,3,-1,-1,3,3,5.205
1042,-4,1,-1,4,0,-5,-2,-3,5.21
1043,2,0,-4,3,-2,-5,-8,0,5.215
1044,1,2,-2,-6,1,2,-2,-3,5.22
1045,4,2,1,-3,1,2,1,-7,5.2250000000000005
1046,-2,-4,-1,-3,-2,1,-1,-2,5.23
1047,0,-3,2,0,-3,3,1,5,5.235
1048,1,0,-3,-4,-3,-1,1,1,5.24
1049,-2,-1,0,-5,-2,1,3,1,5.245
1050,-1,4,-3,1,1,-1,1,-7,5.25
1051,-2,1,-1,2,1,3,6,-7,5.255
1052,-2,-5,0,4,2,5,1,-3,5.26
1053,-7,-5,-1,2,-1,-3,-2,-3,5.265
1054,-2,-1,1,3,0,-7,-1,3,5.2700000000000005
1055,-1,2,0,2,-2,-11,-3,0,5.275
1056,5,1,0,-5,-2,-5,-3,-1,5.28
1057,4,2,-4,-3,-3,0,-5,-1,5.285
1058,0,-2,2,-6,-1,10,-4,-1,5.29
1059,1,1,1,-2,4,3,4,0,5.295
1060,-2,-6,1,2,2,-2,0,0,5.3
1061,3,0,-4,2,-3,-4,-4,2,5.305
1062,1,-1,-4,1,-3,-6,-6,0,5.3100000000000005
1063,0,2,-4,-1,-4,0,1,-1,5.315
1064,-4,-2,-2,1,-1,-1,3,-7,5.32
1065,-9,-3,-4,-4,-2,-2,1,-4,5.325
1066,-5,-1,-2,-4,-2,0,4,0,5.33
1067,-1,-4,-5,-3,-5,-3,-5,0,5.335
1068,4,-2,1,1,1,-4,-4,-1,5.34
1069,0,-1,3,1,2,-5,-2,-2,5.345
1070,-1,1,2,-1,3,-1,2,3,5.3500000000000005
1071,-3,-1,-1,-3,2,1,-1,3,5.355
1072,-4,-2,-1,0,0,4,1,7,5.36
1073,-5,-1,2,0,-2,8,-2,2,5.365
1074,0,-1,0,-2,-4,0,-2,0,5.37
1075,2,-3,-2,1,-2,-1,-5,-2,5.375
1076,2,1,-3,-1,-2,0,-4,-4,5.38
1077,-2,-1,0,-6,4,5,-1,-3,5.385
1078,3,2,1,-2,5,1,1,-4,5.39
1079,1,-5,-3,2,0,-4,-4,-2,5.3950000000000005
1080,5,2,-3,4,-2,-7,-2,-2,5.4
1081,1,-3,-2,8,-2,-4,2,-1,5.405
1082,-1,1,1,0,-1,3,5,3,5.41
1083,-4,0,5,-1,-2,1,5,2,5.415
1084,-6,1,0,-1,-1,1,3,1,5.42
1085,-2,1,-4,3,0,-4,-5,1,5.425
1086,-1,-3,-4,-1,-3,-6,-5,2,5.43
1087,-2,-1,0,2,1,0,-7,4,5.4350000000000005
1088,-2,1,1,-1,-1,5,-4,-2,5.44
1089,2,1,-1,-1,1,1,-3,-6,5.445
1090,-2,3,-2,-2,-1,0,-2,-9,5.45
1091,-2,0,-1,-9,0,-1,1,-13,5.455
1092,-3,-4,-1,-7,-2,-2,3,-1,5.46
1093,0,-3,-2,-5,-3,-3,5,5,5.465
1094,4,-6,0,-4,-1,-2,5,6,5.47
1095,3,0,0,-2,0,-1,3,4,5.4750000000000005
1096,0,0,2,5,-3,2,-3,1,5.48
1097,1,-1,-1,5,-2,-2,-3,2,5.485
1098,-1,2,-2,7,-1,1,-3,-3,5.49
1099,-1,1,-1,6,0,-3,-5,-3,5.495
1100,0,-1,1,3,1,1,-1,1,5.5
1101,-1,-4,-5,-2,-2,-3,-1,4,5.505
1102,-3,-2,-5,-4,-2,-4,-5,1,5.51
1103,-5,-4,-5,-4,-2,1,1,-5,5.515
1104,-4,-5,-2,-6,-1,-3,-3,-7,5.5200000000000005
1105,-3,3,3,-6,0,0,3,-5,5.525
1106,-1,-1,3,-4,1,-1,2,-4,5.53
1107,7,-2,5,-3,-1,1,1,2,5.535
1108,5,1,-1,3,-3,3,2,4,5.54
1109,-1,-2,-1,2,-1,5,-5,2,5.545
1110,-7,1,-5,9,1,0,-5,2,5.55
1111,-9,3,-2,4,-1,-1,4,-2,5.555
1112,-3,-2,-2,-7,-1,-7,3,-3,5.5600000000000005
1113,5,0,0,-5,0,-6,1,-3,5.565
1114,6,-1,-3,1,-1,-5,-3,-4,5.57
1115,2,-4,0,0,-5,4,-6,1,5.575
1116,-6,-3,2,1,1,-1,-1,2,5.58
1117,-3,-4,5,-1,1,-2,1,-1,5.585
1118,3,-1,5,-1,2,-1,3,0,5.59
1119,3,0,-4,3,3,1,-5,-3,5.595
1120,-3,1,-2,-4,4,6,-4,0,5.6000000000000005
1121,-10,2,1,-1,-1,4,-2,-2,5.605
1122,-2,4,5,-5,-3,4,-4,-2,5.61
1123,-1,0,0,-2,-2,-1,0,2,5.615
1124,-1,1,-1,1,-1,-1,-2,4,5.62
1125,6,-3,-4,5,-1,0,2,4,5.625
1126,5,-4,-5,1,-4,0,2,4,5.63
1127,2,0,-5,-3,-2,-6,2,-2,5.635
1128,1,2,1,-1,2,-6,-1,-6,5.64
1129,0,0,2,-5,-2,-9,-1,-3,5.6450000000000005
1130,-6,-2,1,1,1,1,-2,-8,5.65
1131,-5,-1,0,-3,1,0,1,-3,5.655
1132,-5,-3,1,-5,3,0,4,-3,5.66
1133,-3,-3,0,-5,0,-2,1,-1,5.665
1134,-1,-1,-4,-5,-1,7,-3,3,5.67
1135,0,-2,3,3,-2,2,-4,-2,5.675
1136,-4,-5,0,4,-6,-4,-3,-6,5.68
1137,-3,1,1,6,-1,-3,0,-3,5.6850000000000005
1138,-1,-1,-6,1,-1,-6,5,2,5.69
1139,4,1,-4,2,5,3,7,4,5.695
1140,6,-4,1,-1,-3,2,-2,1,5.7
1141,1,-2,1,-1,-4,-3,-8,0,5.705
1142,-1,1,-1,-4,-4,-2,-5,-3,5.71
1143,0,0,-2,-4,-2,-5,-1,-5,5.715
1144,-1,2,-4,-1,2,3,3,3,5.72
1145,2,5,-5,-1,2,7,0,4,5.7250000000000005
1146,-1,-1,2,-1,-1,1,-3,3,5.73
1147,-2,0,5,-1,3,-2,-6,-5,5.735
1148,-1,2,-1,1,0,1,2,-8,5.74
1149,-7,1,-4,0,-2,1,5,-9,5.745
1150,-4,-1,-2,-5,0,-2,3,-2,5.75
1151,-3,-2,-3,-1,-1,0,1,1,5.755
1152,-3,-3,-1,0,1,-1,-4,6,5.76
1153,2,0,1,-3,0,-1,-4,-1,5.765
1154,4,0,2,1,-5,-5,-3,-8,5.7700000000000005
1155,0,0,-1,1,-5,-4,-2,-3,5.775
1156,4,-3,-6,3,-5,-2,-4,4,5.78
1157,-1,-3,-5,2,-2,0,3,2,5.785
1158,-5,-3,-1,-1,-1,2,-3,-4,5.79
1159,-1,-1,1,-1,1,3,2,-3,5.795
1160,-1,1,2,-1,4,1,4,1,5.8
1161,1,-2,-1,2,5,2,-3,6,5.805
1162,2,0,-2,1,3,-2,-2,6,5.8100000000000005
1163,4,2,0,0,-3,-4,-7,-1,5.815
1164,-2,1,1,-2,-5,-6,-8,-4,5.82
1165,-4,1,0,-6,-2,1,-4,1,5.825
1166,-5,-5,2,-6,1,0,3,0,5.83
1167,-7,-3,-5,-6,-4,0,2,4,5.835
1168,-1,-1,-1,-5,3,3,2,-3,5.84
1169,-2,-5,0,1,-2,-3,1,-4,5.845
1170,-2,-1,-3,5,0,0,1,1,5.8500000000000005
1171,-2,-3,-2,-2,1,-1,-1,-2,5.855
1172,-2,-1,-2,-2,-6,-3,-7,-1,5.86
1173,3,2,3,-1,1,4,-2,0,5.865
1174,4,3,7,1,0,0,1,-2,5.87
1175,-2,-2,0,1,-2,2,6,-4,5.875
1176,0,0,-3,1,-1,-4,5,-4,5.88
1177,0,2,-3,-5,-2,-1,13,-2,5.885
1178,0,0,-3,-1,-2,-5,6,0,5.89
1179,2,2,0,-2,2,-3,5,1,5.8950000000000005
1180,2,-1,-7,0,-2,0,-3,-1,5.9
1181,-4,-4,-3,4,-3,-3,-8,-7,5.905
1182,-3,-1,-3,-1,0,0,8,-4,5.91
1183,-6,-6,-4,-1,-3,2,1,1,5.915
1184,-2,1,2,-2,-2,-2,-1,5,5.92
1185,0,3,2,2,0,-4,-10,2,5.925
1186,-3,1,-2,2,1,-3,-10,-2,5.93
1187,1,0,4,-1,1,0,-6,1,5.9350000000000005
1188,5,-3,3,-3,4,3,-3,-2,5.94
1189,1,-4,1,-7,2,0,-2,1,5.945
1190,4,1,-1,-9,-6,-1,-1,1,5.95
1191,1,2,-3,-5,-5,1,2,-2,5.955
1192,-4,0,-5,2,-8,-4,-4,-2,5.96
1193,-5,-3,-4,2,-5,-5,-3,-2,5.965
1194,1,0,2,0,1,-3,-3,0,5.97
1195,0,0,2,2,7,7,0,0,5.9750000000000005
1196,-3,-3,1,-6,1,1,-1,-5,5.98
1197,-1,-2,-2,0,-1,-1,-4,-6,5.985
1198,-1,-3,0,2,2,4,-4,0,5.99
1199,1,1,-1,2,-1,-5,-8,1,5.995
1200,-2,4,0,2,1,-1,-3,5,6.0
1201,-7,3,-2,0,0,-5,4,4,6.005
1202,-2,2,2,0,-5,-4,5,3,6.01
1203,-2,0,6,-3,-3,-2,1,0,6.015000000000001
1204,0,-4,3,-4,-4,-3,0,0,6.0200000000000005
1205,2,-3,-1,1,-1,2,-3,1,6.025
1206,0,-4,-2,3,1,5,-6,-2,6.03
1207,-2,-1,-5,3,-1,-1,-2,-3,6.035
1208,-2,3,-2,1,-2,3,-1,-6,6.04
1209,0,4,2,-5,2,3,3,-3,6.045
1210,-4,2,-2,-1,0,0,0,-3,6.05
1211,1,0,-3,-5,-2,-4,-3,1,6.055
1212,5,-4,-3,-3,3,-5,-3,0,6.0600000000000005
1213,4,-6,-2,-8,4,-2,0,-2,6.065
1214,2,-8,-2,-9,-2,-5,-3,-6,6.07
1215,-3,-1,0,-5,-1,-2,-1,0,6.075
1216,-6,4,0,1,-2,1,2,2,6.08
1217,-3,2,4,6,-3,-3,1,1,6.085
1218,-4,4,-1,6,1,0,2,6,6.09
1219,0,2,-2,5,-1,3,0,0,6.095
1220,4,0,-3,1,0,3,1,-1,6.1000000000000005
1221,2,-4,-3,2,1,2,2,-3,6.105
1222,0,-3,0,1,-3,1,-6,-6,6.11
1223,1,-3,-2,1,1,-1,-4,-1,6.115
1224,-1,-4,1,0,1,2,0,1,6.12
1225,1,-1,-2,-4,0,-4,1,0,6.125
1226,-1,3,-5,-5,0,-1,4,6,6.13
1227,-3,1,0,0,-6,-1,2,5,6.135
1228,-5,-4,2,1,-4,-4,2,1,6.140000000000001
1229,-4,-1,-3,-1,-4,1,-3,-6,6.1450000000000005
1230,-2,-3,-3,-5,-2,0,-4,-7,6.15
1231,2,-3,4,-2,4,-1,1,-5,6.155
1232,-1,-3,2,-2,0,2,-5,-4,6.16
1233,0,0,-2,1,2,0,-2,0,6.165
1234,-1,0,-2,1,0,1,0,-4,6.17
1235,0,-3,-3,-1,0,-1,2,-2,6.175
1236,-1,1,1,-2,-1,-1,0,-2,6.18
1237,0,1,1,1,-2,-3,1,-1,6.1850000000000005
1238,1,0,-1,-2,-6,-3,0,3,6.19
1239,-3,-4,-3,-2,-3,-7,-1,-1,6.195
1240,6,1,-1,-4,0,-1,4,-4,6.2
1241,1,-4,0,-3,-3,4,0,-1,6.205
1242,-2,-2,1,-1,0,-5,-2,-2,6.21
1243,-3,1,-1,6,1,0,0,4,6.215
1244,-3,1,-3,4,-5,-4,-3,2,6.22
1245,-9,-3,-3,-2,1,3,-4,0,6.2250000000000005
1246,-4,-3,4,1,1,11,4,3,6.23
1247,-1,-5,0,-3,-4,3,-3,2,6.235
1248,-5,-2,-5,-2,1,-3,-2,4,6.24
1249,2,1,-3,-3,1,-4,-6,0,6.245
1250,4,1,4,1,1,-1,-1,0,6.25
1251,7,8,0,-2,1,-2,1,0,6.255
1252,5,4,-5,1,1,-1,6,1,6.26
1253,3,0,-2,1,-4,-7,1,-1,6.265000000000001
1254,3,2,-3,0,3,-2,2,3,6.2700000000000005
1255,-3,-3,-3,-4,-1,-1,-4,-7,6.275
1256,-4,-6,3,-4,-1,5,-7,-6,6.28
1257,-5,0,0,-8,-5,-1,-4,-10,6.285
1258,-5,-6,2,-6,-9,-1,-3,-3,6.29
1259,-2,-2,1,1,-7,-1,0,-1,6.295
1260,2,0,-1,4,1,-3,-1,3,6.3
1261,0,-1,1,9,5,0,0,3,6.305
1262,0,1,2,4,-1,1,-1,1,6.3100000000000005
1263,-4,0,3,-2,3,1,1,-4,6.315
1264,-2,-1,-1,-1,-1,-4,-1,0,6.32
1265,5,0,2,-2,-1,-2,4,3,6.325
1266,2,-4,-4,-1,-2,-4,1,0,6.33
1267,4,0,-4,-5,-4,2,0,4,6.335
1268,-1,2,1,-3,-2,5,3,3,6.34
1269,-3,1,-1,-1,3,0,-1,3,6.345
1270,-2,-1,-10,-2,-1,-3,-6,1,6.3500000000000005
1271,-2,1,-5,5,0,-1,-3,-3,6.355
1272,-6,0,2,0,0,-3,3,-7,6.36
1273,-2,-1,1,-3,0,-3,2,-4,6.365
1274,0,1,-5,-7,1,-7,-2,-2,6.37
1275,-3,-3,-5,-2,-3,-4,-6,-8,6.375
1276,5,-4,-1,1,-2,-1,1,-4,6.38
1277,-1,-4,0,1,-4,4,3,-3,6.385
1278,0,0,1,0,-2,6,2,-3,6.390000000000001
1279,-2,0,3,-2,1,2,-2,2,6.3950000000000005
1280,-3,2,-4,-2,-1,2,-3,3,6.4
1281,1,-2,-2,-2,-1,2,0,4,6.405
1282,1,-1,2,3,2,-3,0,-2,6.41
1283,-4,-1,1,2,1,-2,-3,-2,6.415
1284,0,-4,1,1,1,-2,-5,-4,6.42
1285,0,-2,0,3,-4,-1,-3,3,6.425
1286,1,-2,-2,-3,-5,-2,-3,3,6.43
1287,5,3,-1,-7,-2,-3,1,0,6.4350000000000005
1288,2,4,3,-3,0,-3,0,-1,6.44
1289,0,2,-4,-2,0,-3,2,-3,6.445
1290,-7,-4,-4,-3,1,0,-4,-5,6.45
1291,-1,-2,-2,5,0,2,2,-2,6.455
1292,-1,0,-3,0,-2,0,1,1,6.46
1293,0,1,2,3,-1,0,0,1,6.465
1294,-1,2,3,1,0,-3,-1,4,6.47
1295,-1,2,2,-1,1,-1,2,2,6.4750000000000005
1296,-6,-4,-5,-5,-3,-2,-4,-1,6.48
1297,-1,-1,-1,-6,2,3,-1,-1,6.485
1298,-1,0,1,-1,-3,0,-2,-3,6.49
1299,1,-1,5,-1,0,-2,3,2,6.495
1300,1,-1,6,5,1,-3,1,2,6.5
1301,-2,1,-4,4,-2,0,-3,1,6.505
1302,-5,1,-6,1,1,2,-3,0,6.51
1303,0,-2,-3,0,1,2,2,-1,6.515000000000001
1304,4,-3,-5,0,3,-2,-2,-3,6.5200000000000005
1305,4,-3,2,0,3,-4,2,-1,6.525
1306,3,0,-1,2,2,0,0,-3,6.53
1307,-2,-1,-1,-4,-2,4,1,-2,6.535
1308,-1,0,-3,-5,-2,-2,-3,0,6.54
1309,-4,-2,-3,-2,-1,-2,-3,-4,6.545
1310,-3,1,2,-2,-1,-4,2,1,6.55
1311,-2,3,-6,-3,-2,-4,-5,3,6.555
1312,-4,-2,2,-4,0,3,0,-3,6.5600000000000005
1313,0,-2,3,-3,-4,-2,1,-4,6.565
1314,1,-5,3,-1,-1,1,2,-2,6.57
1315,-1,-6,2,-1,0,-3,0,0,6.575
1316,4,0,3,1,1,-1,-1,4,6.58
1317,0,-3,-2,1,-4,0,-3,1,6.585
1318,2,3,-1,1,1,2,3,1,6.59
1319,-3,2,-3,-1,-4,-4,-2,-2,6.595
1320,-6,1,0,-1,-2,1,-1,-2,6.6000000000000005
1321,-4,-1,-2,0,-2,-2,-5,1,6.605
1322,1,-2,-5,-1,0,-2,-6,1,6.61
1323,-3,-5,-4,4,2,1,2,1,6.615
1324,2,0,-1,3,3,1,2,-1,6.62
1325,3,2,0,0,2,7,4,-1,6.625
1326,1,3,1,-2,-4,1,1,-6,6.63
1327,0,5,3,-3,-4,-1,2,-2,6.635
1328,-1,-1,-1,-5,-5,1,4,-2,6.640000000000001
1329,-3,-2,1,3,-5,-4,-3,-7,6.6450000000000005
1330,0,-5,-6,6,-2,-5,-5,-6,6.65
1331,-2,-8,-1,2,-2,-2,-6,-8,6.655
1332,-3,-4,-1,-2,-3,0,0,-1,6.66
1333,0,0,1,-6,1,3,1,8,6.665
1334,-5,0,5,-4,1,2,3,5,6.67
1335,-6,2,0,-6,0,-3,1,1,6.675
1336,1,1,-2,-5,-1,-5,-6,-2,6.68
1337,0,1,-2,-2,1,-3,-3,-1,6.6850000000000005
1338,2,1,0,-3,2,-5,-3,-1,6.69
1339,1,1,-3,-2,1,-1,-4,3,6.695
1340,-1,-1,-4,1,-2,-1,-1,3,6.7
1341,0,-1,-6,1,0,3,2,2,6.705
1342,-3,-1,-3,4,0,-2,3,2,6.71
1343,0,0,-1,2,-2,-1,4,-9,6.715
1344,-1,0,2,1,-2,-1,3,-7,6.72
1345,-3,-6,3,-2,-2,0,-1,-9,6.7250000000000005
1346,1,-4,3,-2,1,4,-7,-2,6.73
1347,4,0,3,-4,-2,4,-4,3,6.735
1348,5,2,2,-2,0,0,-3,3,6.74
1349,2,3,-1,-3,2,-5,1,5,6.745
1350,-4,2,-8,1,-2,-3,2,2,6.75
1351,-1,1,-3,2,2,0,1,1,6.755
1352,-4,0,-3,5,1,-3,-3,0,6.76
1353,-3,-3,-2,-1,-3,-2,-5,0,6.765000000000001
1354,-4,-2,2,-3,-7,0,-3,-2,6.7700000000000005
1355,3,-2,3,2,-3,2,3,-2,6.775
1356,1,-2,0,0,1,-1,9,-6,6.78
1357,2,-1,-2,0,1,-5,3,-2,6.785
1358,2,-1,-1,-1,3,3,2,1,6.79
1359,-2,0,-3,-3,-1,0,-4,7,6.795
1360,-2,1,-3,-5,1,1,-1,2,6.8
1361,-5,1,-6,-5,-1,0,2,-3,6.805
1362,-5,-5,-2,-2,1,-1,4,-3,6.8100000000000005
1363,-1,-4,-1,3,0,-1,1,-9,6.815
1364,0,-2,-3,3,-1,-3,-8,-6,6.82
1365,4,2,6,2,0,-2,-9,-1,6.825
1366,5,2,4,-2,-1,3,-5,-3,6.83
1367,-3,2,2,3,1,-1,-3,-5,6.835
1368,-6,-1,2,2,-6,-4,-1,-4,6.84
1369,-9,1,-4,-1,-3,0,3,-3,6.845
1370,0,-1,-2,-3,1,-2,2,7,6.8500000000000005
1371,0,-4,-5,-4,1,-2,0,4,6.855
1372,2,-2,-5,-6,-1,1,0,2,6.86
1373,0,-1,4,-2,-2,-4,-2,-1,6.865
1374,0,1,4,-1,0,-8,0,0,6.87
1375,-1,-6,-2,3,-2,-3,-2,1,6.875
1376,-3,-4,-4,1,1,-2,-2,2,6.88
1377,0,-3,-3,-4,-1,1,-1,-1,6.885
1378,2,0,-1,-5,-3,1,-6,-2,6.890000000000001
1379,0,4,-2,-6,-1,-3,-3,5,6.8950000000000005
1380,0,3,3,-2,0,2,0,0,6.9
1381,-1,3,1,0,-3,-2,-2,-3,6.905
1382,-6,-2,4,5,0,2,4,-7,6.91
1383,-1,-1,0,2,-3,-2,4,-3,6.915
1384,2,-3,-4,5,-2,-1,0,1,6.92
1385,0,-3,-3,4,1,3,-5,1,6.925
1386,3,-3,-4,-2,-2,0,-3,0,6.93
1387,3,-1,-1,-4,-2,-1,-1,-1,6.9350000000000005
1388,-1,4,-2,-4,-1,-2,3,2,6.94
1389,3,0,-3,-4,-3,-2,3,-2,6.945
1390,-4,0,3,0,2,1,7,-3,6.95
1391,-5,1,2,0,1,1,0,0,6.955
1392,-2,-2,0,1,0,1,-2,2,6.96
1393,-1,-3,-2,6,-7,1,-5,-1,6.965
1394,-3,-2,-3,5,-4,2,-1,2,6.97
1395,-5,-4,1,4,-2,0,-1,-5,6.9750000000000005
1396,-3,-2,-5,-1,0,-1,5,-4,6.98
1397,1,-1,-4,-3,5,2,5,-3,6.985
1398,7,1,-3,-6,-2,1,-4,-3,6.99
1399,4,0,-3,-1,3,2,-6,3,6.995
1400,3,0,1,-3,0,-1,-10,5,7.0
1401,0,-2,1,-5,2,-6,-4,3,7.005
1402,-1,3,-5,-2,1,-6,-1,1,7.01
1403,-1,-3,-4,-1,-1,2,0,0,7.015000000000001
1404,-2,-4,1,-2,-4,0,-3,-4,7.0200000000000005
1405,-4,0,5,3,2,0,0,-2,7.025
1406,-4,-2,6,4,-1,-4,-1,-1,7.03
1407,0,0,5,3,1,-2,3,7,7.035
1408,-3,0,-3,-1,-2,0,5,3,7.04
1409,0,0,-3,-1,-3,1,2,0,7.045
1410,5,1,-2,-3,-3,-1,-1,-4,7.05
1411,4,-2,-2,-6,-2,-7,-1,-6,7.055
1412,1,-4,2,-3,-1,-4,2,0,7.0600000000000005
1413,-2,0,-4,-3,1,-2,-5,0,7.065
1414,-4,-1,-9,2,0,2,3,-4,7.07
1415,0,0,-6,1,1,2,2,0,7.075
1416,1,-2,-2,2,-4,2,-2,0,7.08
1417,0,-3,4,2,-5,2,0,5,7.085
1418,-4,1,5,0,-3,2,-6,0,7.09
1419,-6,4,1,-2,-1,1,-7,-3,7.095
1420,-1,3,3,-2,5,3,0,1,7.1000000000000005
1421,-6,-1,-3,-5,1,-1,1,0,7.105
1422,-3,-8,-5,-1,1,-6,2,1,7.11
1423,-3,-4,-6,1,-2,-1,3,-8,7.115
1424,2,2,-3,-3,-2,-4,1,-3,7.12
1425,2,-3,3,-3,-1,-2,2,-4,7.125
1426,-1,0,2,-2,2,-3,2,5,7.13
1427,-2,0,2,-2,0,-4,-4,0,7.135
1428,-2,1,2,0,-2,-1,-4,-5,7.140000000000001
1429,-2,3,-5,4,-1,-3,-4,-4,7.1450000000000005
1430,-3,-1,-6,2,-2,-2,-4,-2,7.15
1431,1,-2,2,-1,-3,7,-4,7,7.155
1432,0,0,1,-2,1,9,-4,6,7.16
1433,-3,-1,1,-6,-1,4,-6,0,7.165
1434,2,1,-1,-2,0,-2,-1,-5,7.17
1435,6,1,-3,3,0,-6,3,-2,7.175
1436,1,-4,1,4,0,-1,8,-2,7.18
1437,2,-4,0,3,0,-1,3,2,7.1850000000000005
1438,-5,0,-1,-1,-4,-4,-1,3,7.19
1439,0,0,0,-1,-4,-3,-4,2,7.195
1440,-4,1,4,1,-2,-3,-4,-2,7.2
1441,2,1,1,-2,0,0,-1,-3,7.205
1442,-4,3,0,-2,0,-1,-2,-4,7.21
1443,-1,1,-3,-7,-3,-2,-3,-3,7.215
1444,1,-1,-2,-1,0,1,-2,1,7.22
1445,0,-1,3,-4,1,2,-1,0,7.2250000000000005
1446,0,-4,0,-3,-1,-3,1,0,7.23
1447,3,1,0,-1,4,5,9,0,7.235
1448,-1,-4,-6,1,-2,-1,-2,-4,7.24
1449,-1,-5,-2,5,-1,-3,1,0,7.245
1450,0,0,2,-4,3,2,-2,5,7.25
1451,-6,-1,0,-3,1,-2,-1,0,7.255
1452,-2,-1,-4,-1,-1,-2,-2,0,7.26
1453,-7,3,-2,9,0,-1,1,1,7.265000000000001
1454,-2,3,-3,6,-4,3,-2,3,7.2700000000000005
1455,-2,-2,-2,1,-5,2,-3,-2,7.275
1456,0,-2,-2,-1,-4,1,1,-6,7.28
1457,5,-4,1,-2,-1,-1,1,-2,7.285
1458,3,-3,1,-2,4,3,-2,-4,7.29
1459,2,1,1,-2,4,2,3,0,7.295
1460,-2,2,-3,-3,1,-4,1,-1,7.3
1461,0,-1,-2,-2,-2,-2,-3,3,7.305
1462,2,-3,0,-1,-6,0,-4,5,7.3100000000000005
1463,-4,-1,-4,-2,-3,0,-3,4,7.315
1464,-3,-3,-3,-4,0,-2,3,0,7.32
1465,1,-1,-3,2,0,-1,3,0,7.325
1466,3,-4,-1,-4,-2,-9,-2,-5,7.33
1467,4,0,2,2,-2,-6,-7,-3,7.335
1468,1,1,1,0,-2,-1,-2,-3,7.34
1469,-4,1,1,-4,0,3,-1,-3,7.345
1470,-2,0,3,-1,-1,2,1,0,7.3500000000000005
1471,-2,0,-2,-1,1,-1,2,-1,7.355
1472,-2,0,-2,-1,-1,-4,2,0,7.36
1473,-7,2,-2,1,-1,0,2,2,7.365
1474,-2,1,-5,-1,-2,4,1,-5,7.37
1475,-2,-6,0,-1,-3,-3,-2,0,7.375
1476,-2,-8,0,1,0,2,-2,-4,7.38
1477,3,-4,1,1,2,1,-1,-2,7.385
1478,0,-3,2,-1,-1,-2,-4,0,7.390000000000001
1479,-5,-1,-1,-3,-4,-2,-3,-1,7.3950000000000005
1480,-1,1,-4,-1,-3,2,-7,6,7.4
1481,-1,1,-9,5,-2,0,0,4,7.405
1482,-3,1,-6,5,2,3,6,1,7.41
1483,2,1,1,5,1,3,5,0,7.415
1484,2,1,0,2,-1,0,-3,0,7.42
1485,4,3,0,-5,-4,0,-2,2,7.425
1486,0,-1,1,-7,-2,-1,-6,0,7.43
1487,-1,-4,4,-7,1,-1,-5,-2,7.4350000000000005
1488,-4,-5,4,-2,1,-5,-4,-6,7.44
1489,-1,-1,-1,-2,1,-1,-2,-2,7.445
1490,-3,-3,-7,-4,-2,0,2,-3,7.45
1491,-3,0,-7,-4,0,-3,0,-4,7.455
1492,1,-1,-1,-3,-1,0,-2,0,7.46
1493,0,0,-4,-2,-4,1,3,-3,7.465
1494,2,1,0,7,0,-2,6,-4,7.47
1495,0,0,-2,4,-2,-2,-1,-9,7.4750000000000005
1496,1,1,-2,1,2,0,-2,-7,7.48
1497,-1,-1,2,-7,1,-4,-1,-1,7.485
1498,-6,0,3,-4,1,-6,-3,3,7.49
1499,-4,-2,-1,-3,-1,3,3,8,7.495
1500,-3,2,0,0,-3,-1,2,11,7.5
1501,-7,-5,-3,0,0,3,-3,0,7.505
1502,5,-2,-2,4,-3,0,-4,-1,7.51
1503,8,-2,-6,0,1,-3,-5,-4,7.515000000000001
1504,5,-1,-1,-2,-3,-1,-2,-1,7.5200000000000005
1505,4,-1,1,-4,-3,-5,-5,-7,7.525
1506,0,0,1,-4,1,5,5,1,7.53
1507,-3,1,4,-5,-2,2,1,0,7.535
1508,-2,2,-3,-1,0,2,2,3,7.54
1509,-1,1,0,6,0,-2,2,5,7.545
1510,-4,-2,-4,7,1,-2,-1,-1,7.55
1511,-6,0,-6,4,0,-1,0,-1,7.555
1512,-11,-3,-5,-4,-1,-2,-3,-1,7.5600000000000005
1513,-3,-1,-3,-1,-3,-6,-4,-5,7.565
1514,3,-2,2,-1,-3,-2,-1,-2,7.57
1515,2,-1,2,-3,-4,-1,0,-1,7.575
1516,4,1,3,-5,2,4,1,3,7.58
1517,0,-6,0,-3,3,6,2,0,7.585
1518,-1,-4,-2,0,-2,1,0,0,7.59
1519,-1,-3,2,6,1,0,3,-5,7.595
1520,0,-3,1,1,-2,-8,0,-3,7.6000000000000005
1521,0,-1,-4,-5,-1,1,0,1,7.605
1522,2,1,-3,-8,2,1,-2,-3,7.61
1523,1,3,-4,0,-3,-1,-5,-4,7.615
1524,1,0,1,3,-2,-5,4,-3,7.62
1525,-4,2,1,5,3,-4,-1,1,7.625
1526,-7,3,0,0,2,2,-2,1,7.63
1527,-6,1,-3,-3,1,-1,-1,0,7.635
1528,-5,-1,-5,0,-1,-3,0,1,7.640000000000001
1529,-2,1,0,1,-5,-5,-4,1,7.6450000000000005
1530,0,-5,3,-2,-4,-5,-6,-5,7.65
1531,3,-3,-1,-3,-2,-1,0,1,7.655
1532,2,-5,0,-6,-3,3,0,-2,7.66
1533,1,0,-2,-3,0,3,-1,0,7.665
1534,-4,2,1,5,0,0,3,2,7.67
1535,-2,-4,4,-2,2,-2,4,1,7.675
1536,-2,-4,-2,-4,-3,-2,-1,-2,7.68
1537,1,-1,-3,-4,-1,3,2,1,7.6850000000000005
1538,1,-2,-4,1,-2,-3,-4,3,7.69
1539,1,3,1,0,0,-1,-1,0,7.695
1540,-4,1,0,3,0,-1,-1,-4,7.7
1541,-2,-2,-1,-1,-2,-3,-7,-7,7.705
1542,0,0,1,-1,0,-1,-2,-8,7.71
1543,4,-1,1,2,1,0,-3,-3,7.715
1544,5,3,-4,-2,2,6,3,0,7.72
1545,-2,1,-3,-2,-1,-1,5,-3,7.7250000000000005
1546,1,-3,-1,-1,-2,-2,5,-1,7.73
1547,1,-4,-2,0,-2,-2,3,0,7.735
1548,2,-6,1,0,-2,2,1,-1,7.74
1549,-1,-3,-1,1,-2,1,-3,0,7.745
1550,-7,1,-5,-2,1,-3,-8,5,7.75
1551,-5,-1,-6,0,0,-4,-6,6,7.755
1552,-2,1,3,-2,-3,-5,-4,3,7.76
1553,-4,0,3,2,3,-4,3,4,7.765000000000001
1554,-3,-1,3,0,4,0,5,-6,7.7700000000000005
1555,-2,0,5,0,1,2,2,-9,7.775
1556,2,0,-2,0,2,-3,5,-4,7.78
1557,3,-3,2,-4,-4,-4,0,-5,7.785
1558,4,-5,3,-2,-4,-7,-4,-1,7.79
1559,1,-2,-1,0,0,-2,-1,1,7.795
1560,-6,1,-3,0,0,1,-3,0,7.8
1561,-1,2,-2,-4,1,4,-3,0,7.805000000000001
1562,-3,3,-4,-5,-1,7,0,-1,7.8100000000000005
1563,-4,1,-6,-3,-5,3,-2,-1,7.815
1564,-4,-1,-3,5,1,3,-1,-1,7.82
1565,0,-3,-3,2,0,3,-2,4,7.825
1566,3,-2,-1,-2,2,1,2,5,7.83
1567,3,-1,2,-1,0,-2,-1,-1,7.835
1568,1,0,2,-2,1,-7,-4,-6,7.84
1569,3,-1,-2,0,-4,-6,-5,-3,7.845
1570,0,-3,-1,-2,-3,-2,0,-7,7.8500000000000005
1571,-9,-3,-7,-1,-1,-1,-2,0,7.855
1572,-7,0,-1,-3,-4,-5,-1,-1,7.86
1573,3,0,-1,2,-2,1,4,4,7.865
1574,1,-2,1,5,-1,6,5,2,7.87
1575,6,1,5,6,0,1,0,2,7.875
1576,1,-1,3,2,-1,0,-3,1,7.88
1577,1,-3,0,-3,3,1,-4,-1,7.885
1578,0,-2,-8,-8,1,-4,-4,-4,7.890000000000001
1579,-3,2,-2,-4,2,2,0,1,7.8950000000000005
1580,-4,2,1,-2,3,4,3,1,7.9
1581,-5,2,-1,0,2,5,4,1,7.905
1582,1,-1,-4,-3,0,5,3,1,7.91
1583,3,-5,-4,-1,-2,2,2,-7,7.915
1584,6,0,-1,1,0,-5,0,-1,7.92
1585,-1,2,0,3,0,-7,-2,-1,7.925
1586,-1,3,3,2,-1,-7,-4,1,7.930000000000001
1587,-2,1,-4,0,-5,-2,-2,4,7.9350000000000005
1588,-4,-2,-4,-1,-6,-1,0,1,7.94
1589,-3,-1,-1,2,-6,-2,1,-1,7.945
1590,-1,3,-1,2,1,-3,-4,-2,7.95
1591,-3,1,0,-2,0,1,-2,-8,7.955
1592,3,-1,0,-5,1,1,-6,-7,7.96
1593,2,-1,3,-3,3,3,0,1,7.965
1594,1,-2,1,-4,0,1,-1,4,7.97
1595,4,3,0,-3,-1,-6,3,11,7.9750000000000005
1596,-2,-4,2,1,0,3,3,2,7.98
1597,-4,-6,2,-3,-2,1,0,-5,7.985
1598,-6,-3,4,-4,-1,0,3,-2,7.99
1599,-7,-3,-1,-4,-2,0,2,0,7.995
1600,-1,1,-11,-4,-3,-5,2,-4,8.0
1601,0,2,-9,0,4,-3,-3,-2,8.005
1602,3,-1,-7,1,-4,0,-4,-1,8.01
1603,5,0,1,0,0,-1,-3,2,8.015
1604,2,-2,0,1,-2,2,-2,-1,8.02
1605,2,-2,-2,2,-4,-1,2,-4,8.025
1606,-5,1,-1,5,2,2,2,-2,8.03
1607,-6,-1,6,2,2,1,-5,-5,8.035
1608,-5,0,7,-1,3,3,-1,1,8.040000000000001
1609,-6,0,0,-5,0,0,-2,-1,8.045
1610,-3,-2,-5,-2,-2,-3,0,-2,8.05
1611,2,-5,-4,1,-5,-2,0,-4,8.055
1612,6,-3,1,-1,-5,-4,-3,-3,8.06
1613,5,-3,1,0,-2,-1,1,-2,8.065
1614,3,1,-1,-3,0,-1,-3,3,8.07
1615,0,-1,-6,-3,2,-4,-2,2,8.075
1616,1,0,-7,-1,0,-5,-1,2,8.08
1617,-2,1,-7,-2,-2,-1,2,0,8.085
1618,-3,1,-4,0,-3,-3,1,-7,8.09
1619,-7,-1,5,1,-2,0,2,0,8.095
1620,-7,3,7,-1,-1,1,5,4,8.1
1621,-5,2,1,-3,0,-1,-2,-4,8.105
1622,-1,-2,0,5,4,4,0,-1,8.11
1623,-1,-2,-1,4,-1,2,-3,-1,8.115
1624,1,-4,-3,1,0,-1,-6,0,8.120000000000001
1625,3,-5,-7,-4,-3,-3,-2,0,8.125
1626,-1,-4,-4,-3,-2,-1,-3,-3,8.13
1627,4,-2,0,-2,-2,0,-2,-3,8.135
1628,4,-3,1,-2,0,2,1,-2,8.14
1629,-3,-1,7,-3,2,-5,4,3,8.145
1630,-1,2,5,-6,-4,-9,4,2,8.15
1631,-5,1,1,-6,-1,-2,-3,2,8.155
1632,-6,-1,-3,-1,-1,3,-3,1,8.16
1633,-2,2,-3,3,1,4,1,2,8.165000000000001
1634,-3,-2,-3,1,-2,2,1,3,8.17
1635,5,-4,1,4,0,-4,-1,-6,8.175
1636,3,1,1,0,3,-2,-1,-4,8.18
1637,-2,-1,1,2,0,-3,-4,-4,8.185
1638,3,-1,0,-1,2,-2,-4,1,8.19
1639,3,-1,-6,-7,-3,1,-5,-3,8.195
1640,2,-5,-4,-3,-4,0,-4,-5,8.2
1641,-3,-3,3,2,-3,1,-5,-3,8.205
1642,-5,1,3,-2,0,-4,-7,-3,8.21
1643,-2,4,-2,-2,1,-3,2,-4,8.215
1644,-1,1,-1,0,-1,3,2,-1,8.22
1645,0,-4,1,-6,-5,1,-1,-1,8.225
1646,3,-2,2,-3,-6,1,5,2,8.23
1647,2,-1,-2,-2,-3,-4,4,3,8.235
1648,0,1,-5,6,-1,-4,4,5,8.24
1649,-2,1,-4,0,0,-3,-2,-3,8.245000000000001
1650,2,0,0,3,3,-2,3,-8,8.25
1651,1,2,2,-2,2,0,0,-2,8.255
1652,-7,-2,1,0,0,2,-3,-4,8.26
1653,-4,-3,-6,0,-3,6,0,3,8.265
1654,-4,-3,-4,2,0,2,-7,-2,8.27
1655,-2,-2,-1,3,0,-4,-1,0,8.275
1656,1,-1,-1,-2,-1,-3,-3,3,8.28
1657,1,-4,1,-5,-1,-4,-2,2,8.285
1658,1,1,0,-2,-2,1,2,2,8.290000000000001
1659,0,1,0,1,-1,3,2,-1,8.295
1660,-2,2,3,-1,-3,-2,0,-3,8.3
1661,-3,0,2,-2,2,-7,2,-6,8.305
1662,0,1,3,-3,-4,-1,1,2,8.31
1663,-5,-2,0,-3,-1,1,-3,1,8.315
1664,-1,-2,-2,-1,1,2,-3,1,8.32
1665,2,3,-1,2,3,2,0,0,8.325
1666,0,-3,-1,-2,1,-2,-3,-3,8.33
1667,1,-6,-1,2,1,-2,-4,-4,8.335
1668,4,-2,-5,-3,-4,-5,-4,-1,8.34
1669,2,-3,-6,0,-4,-1,0,-8,8.345
1670,-2,-1,-2,2,-3,5,3,-4,8.35
1671,0,3,1,1,-1,8,6,1,8.355
1672,-1,0,4,-1,-2,4,-1,0,8.36
1673,0,0,0,-1,-4,-2,-7,4,8.365
1674,1,-1,0,3,-3,-4,-6,1,8.370000000000001
1675,-4,-3,1,0,0,-6,-2,1,8.375
1676,-2,1,1,0,0,-8,1,0,8.38
1677,0,2,-7,-2,-1,1,3,0,8.385
1678,-4,2,-7,-1,-2,2,3,3,8.39
1679,-2,0,-5,0,0,3,1,-1,8.395
1680,-3,-4,-2,-4,3,0,-3,-5,8.4
1681,-2,-3,2,-5,6,1,1,-4,8.405
1682,-5,-3,2,-4,2,0,0,-2,8.41
1683,-2,-1,0,-4,-1,-3,0,3,8.415000000000001
1684,-2,5,3,4,0,-4,2,0,8.42
1685,1,-1,0,1,-2,-5,-3,-2,8.425
1686,5,-3,-1,0,2,1,-5,-1,8.43
1687,3,0,-3,-1,0,1,-5,0,8.435
1688,1,-5,-5,-1,-1,1,-1,1,8.44
1689,-1,0,0,-3,0,-3,-1,3,8.445
1690,-5,-2,-1,-6,0,-2,0,-2,8.45
1691,-4,0,2,1,-4,-3,2,-6,8.455
1692,-3,-1,0,1,-6,-1,4,-2,8.46
1693,-1,-1,0,6,-5,6,2,2,8.465
1694,4,2,-2,1,-2,1,-1,3,8.47
1695,1,3,-2,-1,1,-4,-4,3,8.475
1696,-3,-2,-1,-4,-2,-5,-5,-2,8.48
1697,3,2,0,3,2,1,0,-4,8.485
1698,2,-3,-1,-1,-1,0,0,-4,8.49
1699,5,-3,1,-1,-1,0,3,-6,8.495000000000001
1700,-3,-3,2,0,2,-2,1,-3,8.5
1701,-4,-5,1,-2,1,0,0,-1,8.505
1702,-4,-3,0,-2,0,0,1,-4,8.51
1703,-3,1,-1,2,-2,3,2,-4,8.515
1704,-1,2,1,-2,0,5,2,-2,8.52
1705,1,1,1,-1,0,0,2,4,8.525
1706,-1,-2,-1,-3,-1,-6,-5,5,8.53
1707,-4,-2,-5,-1,-1,-4,1,8,8.535
1708,1,2,-4,-2,-2,-2,-2,0,8.540000000000001
1709,-2,-3,-7,-3,-1,-4,-3,-6,8.545
1710,3,-1,-5,2,-2,-5,-3,-1,8.55
1711,-4,-3,-4,2,-3,-1,-8,-1,8.555
1712,-2,2,-1,1,-1,2,-4,1,8.56
1713,-4,2,6,1,-2,0,0,2,8.565
1714,-1,-3,9,1,0,0,0,3,8.57
1715,3,-3,4,-3,0,1,-1,3,8.575000000000001
1716,4,-1,-7,-2,0,1,3,0,8.58
1717,2,3,-3,-6,0,0,-1,-5,8.585
1718,0,4,-3,-2,1,0,8,-4,8.59
1719,0,-1,0,3,-2,0,2,-2,8.595
1720,1,-3,2,-1,-4,-1,-1,1,8.6
1721,0,-2,2,1,-2,-2,-3,0,8.605
1722,0,-3,-3,3,-1,0,-9,-2,8.61
1723,0,-3,-1,-2,-2,-1,-7,-5,8.615
1724,0,1,-2,-2,-1,1,2,0,8.620000000000001
1725,-3,-1,-3,2,1,0,2,2,8.625
1726,-5,1,0,-1,1,2,1,3,8.63
1727,-1,-1,-1,-4,0,1,2,-1,8.635
1728,-4,-1,2,-3,1,0,3,0,8.64
1729,1,-3,3,-1,-3,-2,-3,2,8.645
1730,-7,-3,-3,-2,-6,-7,-4,-8,8.65
1731,3,1,-5,4,0,2,1,1,8.655
1732,5,-2,-3,2,-5,-2,-3,-1,8.66
1733,7,1,-3,0,-2,0,-2,0,8.665000000000001
1734,-2,0,-2,-5,1,2,0,1,8.67
1735,-3,1,0,-7,1,1,0,0,8.675
1736,-5,-4,-3,-1,2,-1,-7,-5,8.68
1737,1,-4,-2,-2,-1,2,-1,-6,8.685
1738,-4,1,1,-1,0,1,2,-7,8.69
1739,-10,-1,3,-2,1,-4,1,-8,8.695
1740,-2,1,4,1,2,-3,5,-1,8.700000000000001
1741,1,-2,-1,5,-1,-6,0,5,8.705
1742,5,0,1,2,-3,-3,2,6,8.71
1743,2,-1,-2,2,-2,-2,-3,1,8.715
1744,0,0,-3,0,-1,4,3,6,8.72
1745,-1,-2,-4,-4,2,5,4,-2,8.725
1746,-1,-3,-4,-2,1,5,1,-1,8.73
1747,0,1,-2,-4,-1,-3,-4,3,8.735
1748,-5,1,-3,-1,-1,-9,-5,-4,8.74
1749,-6,3,1,0,-2,-2,-2,-4,8.745000000000001
1750,-1,1,1,-2,0,0,-1,-3,8.75
1751,1,-2,-4,1,-1,-2,1,-2,8.755
1752,2,-2,0,1,3,2,-2,2,8.76
1753,2,-3,-5,-4,-2,-3,-6,0,8.765
1754,6,-2,-3,1,0,-2,-5,-2,8.77
1755,2,0,-1,-3,-2,1,0,-3,8.775
1756,0,2,0,0,-3,2,2,-5,8.78
1757,-5,0,-1,3,-3,0,1,-3,8.785
1758,-2,-4,2,-2,-3,-2,-3,-1,8.790000000000001
1759,6,-3,8,3,-1,2,1,3,8.795
1760,-1,-2,4,2,1,0,-6,3,8.8
1761,-6,-1,3,-2,0,-1,-4,-2,8.805
1762,-2,1,0,5,1,-1,1,2,8.81
1763,-2,5,-5,-5,-3,-6,3,0,8.815
1764,0,1,-8,-3,-4,-1,1,3,8.82
1765,-1,0,-8,-1,1,3,0,3,8.825000000000001
1766,-2,-1,-2,-1,1,3,-3,-2,8.83
1767,-2,-4,-3,1,0,2,-5,-2,8.835
1768,2,-2,0,-1,5,3,-6,-1,8.84
1769,4,-1,5,-2,2,-5,-5,1,8.845
1770,2,-2,6,-2,-2,-7,-2,0,8.85
1771,0,-5,4,-1,2,1,6,-1,8.855
1772,-2,-2,-1,1,-5,-1,7,-2,8.86
1773,1,0,-2,2,0,3,3,-1,8.865
1774,-1,0,0,-1,-1,-1,1,-2,8.870000000000001
1775,0,-3,-1,-1,-3,-4,-5,0,8.875
1776,-4,-1,-5,-5,-3,-6,1,0,8.88
1777,-2,-1,0,-4,-2,-7,1,0,8.885
1778,-1,-2,-4,-2,-4,0,-1,1,8.89
1779,-2,2,-4,-1,1,1,-1,-1,8.895
1780,-4,1,-1,2,-1,-4,-1,-1,8.9
1781,-1,0,-1,2,-2,-2,2,1,8.905
1782,4,1,-1,5,-4,-4,1,3,8.91
1783,1,-1,0,0,-4,2,-3,3,8.915000000000001
1784,2,-1,5,0,1,4,0,0,8.92
1785,-4,-3,4,-2,-3,1,-4,-3,8.925
1786,-2,0,-6,-5,-3,-1,-2,-2,8.93
1787,-2,2,-1,0,-3,-1,-1,-7,8.935
1788,-2,2,-5,-3,-2,2,-1,-6,8.94
1789,-5,0,1,-4,2,1,-3,0,8.945
1790,0,0,-1,-4,4,-1,-5,2,8.950000000000001
1791,1,0,0,-1,0,-6,-2,1,8.955
1792,2,-1,0,2,-5,-2,0,-1,8.96
1793,-1,-4,-1,2,-2,4,1,-3,8.965
1794,-7,-4,0,-2,0,0,5,-4,8.97
1795,-1,-3,-1,-4,4,-3,0,2,8.975
1796,3,-1,-3,-1,1,-2,-2,0,8.98
1797,2,-2,-3,0,-3,-1,-4,-1,8.985
1798,1,2,-3,1,-3,2,-4,1,8.99
1799,0,0,-2,0,-2,0,-4,-3,8.995000000000001
1800,3,-4,3,-5,-3,-4,1,0,9.0
1801,2,-1,-5,-1,-3,-2,3,2,9.005
1802,-2,1,-2,1,1,1,0,2,9.01
1803,-2,-1,-1,1,0,0,2,3,9.015
1804,-3,1,4,0,1,-3,-5,0,9.02
1805,-5,0,4,-3,1,-5,-3,-5,9.025
1806,-4,-3,1,-1,0,-2,-2,-10,9.03
1807,-5,-2,-5,-2,-1,-5,-1,-7,9.035
1808,0,0,-4,-2,3,0,-3,0,9.040000000000001
1809,6,0,-2,0,-5,-1,0,4,9.045
1810,2,-1,1,4,-3,3,2,8,9.05
1811,2,-1,5,1,-1,6,-1,7,9.055
1812,-3,-3,-2,0,-3,4,-3,-2,9.06
1813,-3,2,-4,-4,-1,-3,1,-3,9.065
1814,-3,3,-3,1,3,-4,4,-3,9.07
1815,0,-1,-3,-2,-2,-2,0,-8,9.075000000000001
1816,3,-3,3,-2,-2,-1,0,0,9.08
1817,3,-4,2,-1,1,0,-1,4,9.085
1818,0,-2,1,-2,0,0,4,5,9.09
1819,-4,-2,-1,1,-2,-4,1,2,9.095
1820,-4,1,-5,1,3,9,5,0,9.1
1821,1,-1,-8,-2,-4,6,2,-3,9.105
1822,-1,-3,-1,-1,-2,4,-3,-2,9.11
1823,-3,-2,5,0,2,-2,-2,3,9.115
1824,-1,1,2,1,4,-1,-6,0,9.120000000000001
1825,-2,2,-1,-4,1,-3,-7,0,9.125
1826,2,0,-2,-2,-3,-5,-7,-4,9.13
1827,2,-2,-3,2,-2,-4,2,-10,9.135
1828,1,0,2,-5,-4,-3,4,-7,9.14
1829,-6,2,2,4,-3,-1,0,0,9.145
1830,-1,1,-3,-1,-1,1,-5,2,9.15
1831,-3,-4,-2,-5,-2,2,-4,6,9.155
1832,-2,-2,-4,0,-2,3,1,1,9.16
1833,-3,0,0,3,2,4,7,-2,9.165000000000001
1834,1,0,2,3,0,0,-1,-1,9.17
1835,-3,-1,1,1,2,-2,1,-3,9.175
1836,0,-2,-2,-4,-3,-7,-2,2,9.18
1837,3,-4,-3,-3,-3,-1,-4,1,9.185
1838,2,-4,0,-2,0,-4,1,-4,9.19
1839,0,-1,-2,-5,1,0,3,-2,9.195
1840,0,-2,-2,3,2,-4,3,-5,9.200000000000001
1841,-2,-1,-1,4,2,-3,5,-3,9.205
1842,-4,3,-1,-1,-1,3,1,-1,9.21
1843,2,4,0,-3,-2,2,-8,-6,9.215
1844,-3,-1,1,-2,-6,-2,-6,1,9.22
1845,5,-3,4,-1,-3,-1,0,3,9.225
1846,1,-4,2,-4,-2,-6,-2,2,9.23
1847,-2,-1,-3,4,-3,-3,-5,3,9.235
1848,-2,3,-4,5,0,0,-6,0,9.24
1849,-7,-1,-1,6,5,2,-5,-9,9.245000000000001
1850,-5,-2,-1,1,2,4,4,-4,9.25
1851,-3,0,1,-2,-2,4,5,2,9.255
1852,0,-1,1,-1,-2,0,5,1,9.26
1853,5,1,2,-6,-2,2,3,3,9.265
1854,2,3,-1,-4,0,-3,1,-4,9.27
1855,1,1,-1,-3,0,-1,2,-1,9.275
1856,-4,-1,-3,0,0,-1,-2,-4,9.28
1857,0,-1,-2,-1,2,-3,-4,-1,9.285
1858,0,-3,-6,0,-1,-6,-8,-2,9.290000000000001
1859,2,-3,-2,1,-2,-2,-3,4,9.295
1860,-4,-4,1,-2,-1,2,-6,3,9.3
1861,-7,-2,1,-2,-2,-1,2,-3,9.305
1862,-2,-3,3,0,-2,-4,4,-2,9.31
1863,3,-3,-1,-1,-1,-2,4,-5,9.315
1864,-2,1,-3,-3,0,-1,0,-5,9.32
1865,-4,3,-3,1,-3,-3,-9,1,9.325000000000001
1866,-4,-3,-4,2,-1,2,-1,4,9.33
1867,2,-1,-2,1,-1,2,1,2,9.335
1868,1,-5,-3,-2,-1,3,3,0,9.34
1869,2,0,0,-5,-3,1,0,-1,9.345
1870,-2,2,-2,-2,-1,4,-1,-4,9.35
1871,-5,1,3,-2,1,3,-1,-2,9.355
1872,-3,0,-2,-2,0,-1,-1,1,9.36
1873,1,-1,-1,-3,2,-3,-2,1,9.365
1874,-2,2,0,-1,3,-2,-1,-1,9.370000000000001
1875,1,-4,0,1,-1,-7,-5,-7,9.375
1876,0,-2,-1,5,-1,-6,-5,-1,9.38
1877,-1,-2,-2,3,-3,-1,-3,0,9.385
1878,1,-2,1,2,-6,-1,-2,-3,9.39
1879,1,3,-1,-4,-1,6,3,0,9.395
1880,3,0,1,-5,-1,8,1,0,9.4
1881,3,0,1,-2,1,3,4,-3,9.405
1882,-3,0,-1,-2,0,-1,5,-3,9.41
1883,-4,-3,-1,-2,1,-6,5,2,9.415000000000001
1884,-3,-4,-1,-4,-3,-5,1,1,9.42
1885,-2,-2,-2,-4,-2,-1,-4,2,9.425
1886,-4,0,1,0,-2,1,0,5,9.43
1887,-7,-1,-1,1,-1,2,-6,-1,9.435
1888,3,-1,-2,5,2,0,-1,0,9.44
1889,3,0,-5,2,4,-5,-2,-2,9.445
1890,3,1,0,4,0,-3,-3,-1,9.450000000000001
1891,0,0,-3,3,1,-2,-3,0,9.455
1892,-1,-1,0,-2,-1,-1,3,-6,9.46
1893,-5,-3,1,1,-4,-1,2,-6,9.465
1894,-4,-2,-1,-5,-5,-1,-2,-1,9.47
1895,-1,-1,-2,-3,1,-2,-2,3,9.475
1896,0,0,0,-3,1,-4,-3,1,9.48
1897,0,1,2,-6,2,-3,-2,-2,9.485
1898,5,2,4,-1,0,2,2,-1,9.49
1899,-2,-1,-2,-1,-2,0,-4,-1,9.495000000000001
1900,0,-1,-1,1,-3,4,-1,3,9.5
1901,-2,-1,-5,-3,2,1,1,3,9.505
1902,1,-2,-3,0,1,-3,-2,2,9.51
1903,5,-2,-2,2,-4,-2,-2,-5,9.515
1904,6,-4,-1,-1,-2,2,-2,-6,9.52
1905,1,0,0,3,-4,2,-3,-2,9.525
1906,-5,-1,-4,0,-3,1,-4,-2,9.53
1907,-1,6,2,-1,-1,-1,3,2,9.535
1908,-5,1,-1,-4,-2,-2,0,1,9.540000000000001
1909,-4,1,-1,-2,-1,-3,-1,-3,9.545
1910,-1,0,1,0,1,-3,1,0,9.55
1911,-1,0,-1,3,-3,0,1,1,9.555
1912,-4,-2,-3,4,-4,1,3,0,9.56
1913,5,-3,-1,-5,-1,1,3,0,9.565
1914,-3,-3,-2,-8,3,2,-5,1,9.57
1915,-4,-1,-4,-5,2,-3,-8,2,9.575000000000001
1916,-1,-2,-2,-1,1,-6,-4,0,9.58
1917,1,-2,-4,6,-1,-2,0,2,9.585
1918,1,-2,-2,1,-3,-2,1,1,9.59
1919,1,-1,6,-1,-3,1,3,2,9.595
1920,2,-2,4,-1,-3,-2,-1,-3,9.6
1921,-3,-2,0,-2,-5,-4,1,-7,9.605
1922,2,0,-2,-1,-1,-1,1,-3,9.61
1923,0,1,-5,1,2,2,-2,0,9.615
1924,0,0,-1,-2,3,4,-1,-6,9.620000000000001
1925,-3,0,-1,-5,-2,5,0,-6,9.625
1926,-3,-1,1,-1,2,3,1,-4,9.63
1927,-5,-2,0,-4,1,-3,1,-2,9.635
1928,-2,1,-2,0,0,-5,-3,5,9.64
1929,-1,-1,1,3,-5,-4,-3,6,9.645
1930,1,1,0,3,-5,-1,-2,-3,9.65
1931,2,0,1,4,-4,-5,-2,-3,9.655
1932,-1,0,-3,0,1,-5,1,-7,9.66
1933,-3,-1,-2,1,0,-6,-1,-3,9.665000000000001
1934,-2,-4,0,-3,0,-4,0,4,9.67
1935,-5,-6,-2,-5,-1,3,0,2,9.675
1936,-2,2,3,-4,-1,5,0,8,9.68
1937,-1,1,-1,-5,3,7,0,3,9.685
1938,3,-1,-1,0,1,3,-5,-4,9.69
1939,2,1,1,0,0,6,0,-5,9.695
1940,-3,1,-2,3,-1,-5,-1,-4,9.700000000000001
1941,-1,-1,-2,2,2,-3,2,-3,9.705
1942,-1,-3,-6,-4,-2,-7,0,0,9.71
1943,-2,-6,-6,-3,-2,-1,2,-3,9.715
1944,6,-2,3,-3,-4,1,3,2,9.72
1945,5,-3,3,3,-2,-1,-2,4,9.725
1946,0,0,1,5,0,-1,-2,2,9.73
1947,-1,3,-1,2,-1,-6,-1,3,9.735
1948,0,2,0,-2,-2,2,2,1,9.74
1949,2,1,-3,-3,-3,3,-1,-4,9.745000000000001
1950,-2,2,0,-2,2,0,-2,-3,9.75
1951,-3,1,0,2,-1,-4,-4,-1,9.755
1952,-1,-2,2,-1,1,-3,-4,3,9.76
1953,0,-1,0,-2,-1,-1,1,5,9.765
1954,0,-1,-1,-7,-5,-2,0,2,9.77
1955,2,3,0,-7,-2,1,0,-3,9.775
1956,2,-1,-2,-6,-3,1,-2,-5,9.78
1957,0,0,2,-1,-2,-2,-1,1,9.785
1958,-3,-4,2,0,-1,0,0,-1,9.790000000000001
1959,-4,0,4,1,3,3,-1,1,9.795
1960,-4,-3,-1,4,5,3,0,-1,9.8
1961,0,-5,-3,2,-1,-3,0,-5,9.805
1962,-1,2,-4,3,-5,-5,-2,-3,9.81
1963,-2,-2,-2,1,-4,-4,0,-3,9.815
1964,-6,0,-2,2,-3,2,3,-3,9.82
1965,-4,-2,-4,-1,1,0,1,-3,9.825000000000001
1966,-2,0,-5,0,2,2,4,0,9.83
1967,1,-2,-4,-2,-3,0,-1,1,9.835
1968,0,0,-1,-2,-2,-7,-3,4,9.84
1969,0,2,-1,0,1,4,-8,1,9.845
1970,4,-1,-2,-1,-2,2,-2,0,9.85
1971,4,-1,2,-1,2,1,4,3,9.855
1972,1,-1,2,-2,1,-1,2,2,9.86
1973,3,4,4,2,-4,-3,-1,0,9.865
1974,1,-1,2,-1,-5,-2,-3,-5,9.870000000000001
1975,-1,-3,-5,-3,-2,-4,0,-8,9.875
1976,-3,-4,-5,-1,-2,0,0,-6,9.88
1977,-5,-1,-1,-1,-1,0,0,0,9.885
1978,-1,-1,0,1,0,-5,-1,6,9.89
1979,-3,-5,-3,-1,2,-2,-1,3,9.895
1980,0,-1,3,0,3,1,-2,3,9.9
1981,-2,-3,-2,-6,0,-4,-2,-4,9.905
1982,2,1,-1,-7,-3,-4,-1,-5,9.91
1983,2,4,-1,-3,-5,-3,1,-4,9.915000000000001
1984,1,2,-1,-3,-2,-2,-2,1,9.92
1985,-8,3,1,-2,1,1,0,-1,9.925
1986,-4,2,4,-3,-1,2,1,-1,9.93
1987,0,0,-3,3,-4,-1,-5,-3,9.935
1988,-3,-6,-4,2,-1,1,-4,-2,9.94
1989,-3,-2,0,2,-4,1,0,1,9.945
1990,-1,-4,-4,2,-1,0,0,1,9.950000000000001
1991,2,-2,-1,0,-1,-3,-1,-4,9.955
1992,4,-1,-5,1,0,-2,4,1,9.96
1993,-2,-2,-5,2,-2,-2,-1,-2,9.965
1994,-5,-4,1,-2,-1,0,-4,-7,9.97
1995,-3,-3,7,-1,0,2,-1,1,9.975
1996,-1,-1,3,0,0,-4,5,-2,9.98
1997,0,-2,-6,0,0,0,4,-3,9.985
1998,1,3,-4,1,6,1,1,4,9.99
1999,1,2,-2,-5,1,0,1,3,9.995000000000001
2000,-2,1,-1,-3,-2,0,-2,-2,10.0
2001,2,-1,1,-1,-2,-1,-1,1,10.005
2002,2,0,-1,6,-1,2,-3,2,10.01
2003,-4,-1,2,1,0,0,-3,6,10.015
2004,-5,0,0,-2,0,-1,-5,-1,10.02
2005,-5,-4,-2,-4,1,-4,-3,-8,10.025
2006,-6,-3,-5,-3,2,1,1,-8,10.03
2007,-5,-1,-4,0,-2,-2,-3,-5,10.035
2008,2,3,-1,-1,-4,-3,1,-2,10.040000000000001
2009,6,0,2,4,0,-2,4,6,10.045
2010,5,0,6,-3,-3,-4,2,12,10.05
2011,6,0,2,3,-1,0,2,3,10.055
2012,-2,-1,-3,0,0,2,1,-3,10.06
2013,1,1,0,-2,1,1,-2,-9,10.065
2014,-2,0,-2,0,2,-3,-3,-8,10.07
2015,-5,-1,-3,3,2,-1,-3,-2,10.075000000000001
2016,-1,-1,-2,2,-2,-1,-3,0,10.08
2017,0,1,2,0,-1,0,-1,-2,10.085
2018,-2,3,-2,-1,-3,-2,1,-4,10.09
2019,2,3,0,-5,2,0,0,-2,10.095
2020,0,-3,-1,-2,2,-4,-6,3,10.1
2021,3,-4,-3,-5,-3,-2,-3,5,10.105
2022,3,-8,-5,-7,-4,-2,-2,1,10.11
2023,0,-7,-3,-5,-6,-1,0,-3,10.115
2024,-3,-2,-1,-2,-1,-3,3,-2,10.120000000000001
2025,-4,-2,0,4,-1,0,1,5,10.125
2026,-5,-1,1,5,0,-2,0,6,10.13
2027,-7,-1,3,1,3,-2,-1,-2,10.135
2028,-4,1,3,-2,-1,1,-3,-2,10.14
2029,2,2,-2,-3,-1,1,0,-5,10.145
2030,2,1,-6,-2,1,3,-2,-1,10.15
2031,2,0,-4,-2,-4,0,-4,-3,10.155
2032,0,1,-3,1,-1,1,-2,-5,10.16
2033,1,2,-1,-1,0,1,4,2,10.165000000000001
2034,-2,-4,0,-2,-3,-2,2,0,10.17
2035,0,-3,0,-1,0,1,-1,0,10.175
2036,1,-2,1,1,0,-3,0,-4,10.18
2037,-4,0,-3,1,-3,-4,-4,-1,10.185
2038,-4,-1,5,-1,0,0,-2,-3,10.19
2039,0,0,0,1,-2,-1,2,-3,10.195
2040,3,1,-3,-4,-2,-2,-2,0,10.200000000000001
2041,3,2,1,-2,3,-3,1,3,10.205
2042,1,2,0,1,0,3,-1,4,10.21
2043,-3,-1,0,3,0,4,1,5,10.215
2044,1,0,-2,1,-1,6,1,1,10.22
2045,-4,-1,-1,4,-2,0,0,0,10.225
2046,-2,0,0,1,-4,2,0,0,10.23
2047,1,-1,-1,-1,-4,-4,-1,-2,10.235
2048,-2,-2,-1,-2,-3,-6,-1,1,10.24
2049,-2,-4,-3,-3,1,-4,1,-2,10.245000000000001
2050,0,0,-5,-4,0,-4,-2,-3,10.25
2051,1,3,-5,-2,0,0,-2,-4,10.255
2052,1,3,-1,1,-2,-5,2,2,10.26
2053,0,-1,7,3,-4,-5,-3,-1,10.265
2054,0,-1,1,6,0,0,-3,-6,10.27
2055,-1,2,-1,-2,3,0,-1,-1,10.275
2056,0,-1,-3,-4,1,3,-1,-2,10.28
2057,-1,-5,-4,-3,-2,2,-2,-2,10.285
2058,-1,-4,1,-2,-1,-6,0,-1,10.290000000000001
2059,-2,-3,-1,-1,-4,-3,-2,-1,10.295
2060,-2,-2,6,2,2,0,3,2,10.3
2061,-1,-1,-2,-6,-1,1,0,-2,10.305
2062,6,0,-1,-3,-2,3,-4,3,10.31
2063,0,0,-6,-2,2,3,0,-1,10.315
2064,-3,0,-4,-3,0,1,3,0,10.32
2065,-3,-3,-1,-4,-1,-3,2,-1,10.325000000000001
2066,-2,-2,0,-1,-1,0,0,-2,10.33
2067,-2,0,1,4,-2,-1,-2,1,10.335
2068,0,2,-2,6,-2,-3,1,-2,10.34
2069,-4,0,-5,2,-3,-2,-2,-3,10.345
2070,-3,-3,-3,-2,-1,-4,1,-5,10.35
2071,1,1,4,-1,-3,3,3,0,10.355
2072,0,-3,1,-4,-5,0,-10,-2,10.36
2073,4,0,4,1,0,0,-5,1,10.365
2074,-3,0,3,-3,1,-5,-3,4,10.370000000000001
2075,-2,0,0,-7,1,-5,1,3,10.375
2076,-2,-2,-3,1,1,-3,-5,2,10.38
2077,0,1,-4,-1,-1,4,-3,-1,10.385
2078,2,1,-3,1,1,2,4,0,10.39
2079,3,-1,-1,3,1,-3,8,-4,10.395
2080,-8,-3,3,1,0,1,7,-7,10.4
2081,-7,-1,-4,-1,-4,-2,1,-3,10.405
2082,-1,-2,-2,2,-4,4,0,-2,10.41
2083,-1,-2,1,-1,-2,1,-1,2,10.415000000000001
2084,5,-1,3,-4,-3,-4,-2,-1,10.42
2085,5,0,3,-3,1,-3,1,0,10.425
2086,-1,-1,-1,-1,2,-6,-1,-1,10.43
2087,1,0,-4,4,3,2,-2,2,10.435
2088,-1,-1,-4,1,0,0,0,1,10.44
2089,-4,-1,-2,-4,0,2,1,-3,10.445
2090,-2,3,-2,-4,-3,2,-4,-2,10.450000000000001
2091,-7,1,0,3,-3,-1,-8,-4,10.455
2092,-5,2,3,-2,-2,0,-7,-4,10.46
2093,-2,3,4,-1,0,-1,-5,4,10.465
2094,0,-2,0,-4,-2,-2,0,3,10.47
2095,0,-5,-3,-4,-1,-3,0,-1,10.475
2096,3,-5,-5,-1,0,-3,-1,0,10.48
2097,3,-4,-6,-3,0,1,3,-4,10.485
2098,6,0,-4,1,0,0,2,-7,10.49
2099,5,1,0,7,0,5,3,0,10.495000000000001
2100,1,2,-2,-3,-3,5,-4,1,10.5
2101,-2,-2,1,-2,0,-2,-3,8,10.505
2102,-2,0,-1,1,2,-1,1,6,10.51
2103,-4,-2,-1,-5,0,-7,0,1,10.515
2104,-3,3,1,0,3,0,4,-1,10.52
2105,-8,1,2,1,-1,-3,-1,-2,10.525
2106,-7,1,0,4,-6,-3,-1,-4,10.53
2107,-2,-3,1,1,-5,-3,-1,0,10.535
2108,3,-1,-4,-1,-2,-2,-3,-1,10.540000000000001
2109,4,2,-1,0,-1,1,-1,-8,10.545
2110,-1,-2,-3,-3,-4,-4,-4,-8,10.55
2111,1,0,-1,-3,0,4,-1,-5,10.555
2112,0,-3,-4,-4,0,3,-4,0,10.56
2113,1,-2,-2,0,2,-1,-2,1,10.565
2114,0,-1,1,-2,1,-5,-4,4,10.57
2115,-1,3,2,-2,-3,-3,2,6,10.575000000000001
2116,-2,-3,6,2,-1,-4,7,2,10.58
2117,1,0,-3,2,0,-1,5,0,10.585
2118,-2,-1,-6,-1,1,6,0,-1,10.59
2119,0,0,-6,-2,-1,2,-3,0,10.595
2120,2,-4,4,0,0,1,-3,-1,10.6
2121,4,-7,2,-1,-3,-1,-2,-1,10.605
2122,3,-2,1,2,-2,-1,-2,2,10.61
2123,-3,-2,-3,3,-3,-2,-2,0,10.615
2124,-5,1,-8,3,-3,-2,-3,1,10.620000000000001
2125,-5,0,-1,4,-2,-5,0,-4,10.625
2126,-3,1,3,-1,0,-1,3,-6,10.63
2127,-3,-2,2,-5,0,0,3,-4,10.635
2128,0,-2,2,-6,-1,1,5,-3,10.64
2129,-1,0,1,-6,-2,-2,-1,7,10.645
2130,3,0,-3,-3,0,3,-2,6,10.65
2131,2,0,0,2,1,1,-9,3,10.655
2132,2,-1,1,1,2,0,-1,-1,10.66
2133,0,-2,0,-3,2,0,3,-1,10.665000000000001
2134,-5,-1,2,4,2,-3,2,-4,10.67
2135,-7,-2,1,0,0,-1,0,-6,10.675
2136,-7,-1,-2,1,0,3,-3,-2,10.68
2137,0,-2,-1,1,-1,-1,-4,-3,10.685
2138,4,-1,1,0,-2,-1,2,3,10.69
2139,1,0,-1,-6,-7,-8,-3,-2,10.695
2140,-1,1,-5,-5,-5,-4,-2,-2,10.700000000000001
2141,-2,-2,-7,-6,-2,3,-1,-5,10.705
2142,0,-6,-6,-3,-6,0,-4,-2,10.71
2143,1,0,-4,1,2,1,1,1,10.715
2144,0,2,0,-1,-1,-1,1,1,10.72
2145,1,2,2,-2,-1,-5,0,-2,10.725
2146,-2,1,0,-4,1,-5,0,1,10.73
2147,1,-2,1,-4,1,-5,-4,0,10.735
2148,2,-1,3,1,4,3,1,1,10.74
2149,0,1,3,2,0,3,-2,0,10.745000000000001
2150,-1,1,-2,6,0,3,1,2,10.75
2151,-2,-2,-5,1,-2,2,0,-2,10.755
2152,1,0,-6,-2,0,-2,-1,-2,10.76
2153,-5,-3,-4,-3,-2,-2,-3,-4,10.765
2154,-3,1,3,-5,0,1,4,1,10.77
2155,-5,-5,-1,2,1,2,0,0,10.775
2156,1,-7,1,-1,-2,-1,0,1,10.78
2157,-1,-5,0,1,0,-2,-5,-2,10.785
2158,0,1,-1,-3,1,-4,-9,-2,10.790000000000001
2159,3,2,0,-2,-2,-1,-5,0,10.795
2160,1,0,0,4,-3,1,-6,0,10.8
2161,3,-2,1,3,-4,1,-3,2,10.805
2162,2,-5,5,1,1,5,3,-2,10.81
2163,-2,-4,0,-1,0,-4,0,-7,10.815
2164,-2,2,-4,0,0,-4,3,-2,10.82
2165,-1,3,-2,-1,-1,2,2,2,10.825000000000001
2166,-5,-1,-4,-4,-4,-1,-2,-3,10.83
2167,-1,-4,1,-5,-3,-2,5,-4,10.835
2168,-3,0,0,-3,0,-2,2,0,10.84
2169,-2,0,-1,-3,0,0,1,1,10.845
2170,0,0,-4,-3,-1,-1,-3,1,10.85
2171,-3,4,0,-2,1,0,2,0,10.855
2172,-3,0,-2,-1,-4,-5,-1,-5,10.86
2173,-2,1,1,2,-2,-2,1,2,10.865
2174,1,-2,0,4,-1,-2,-1,0,10.870000000000001
2175,5,-3,-4,0,0,3,-2,3,10.875
2176,1,-2,1,-1,1,2,-2,0,10.88
2177,-3,-2,-2,2,-1,2,-1,-3,10.885
2178,-4,1,-3,2,-1,-2,-5,-4,10.89
2179,0,0,0,2,-1,3,-5,-2,10.895
2180,0,-1,-1,2,1,3,-2,3,10.9
2181,1,-1,-2,-2,4,0,0,-2,10.905
2182,-3,0,3,0,1,2,7,-3,10.91
2183,-3,2,-1,0,-4,-8,-2,0,10.915000000000001
2184,1,0,-1,-3,0,1,0,4,10.92
2185,-2,-1,-1,-3,0,-1,-3,-1,10.925
2186,1,1,-2,-1,1,-3,3,0,10.93
2187,2,-5,-2,0,-4,-1,5,-2,10.935
2188,-2,-2,1,4,1,0,1,0,10.94
2189,2,-5,1,2,1,-2,-8,0,10.945
2190,3,-3,3,-4,-1,2,-4,-2,10.950000000000001
2191,6,1,3,-6,0,0,-1,-1,10.955
2192,5,2,1,-5,-2,-2,1,1,10.96
2193,0,0,-1,-3,-2,0,2,2,10.965
2194,-4,2,-2,-4,-2,1,0,3,10.97
2195,-8,3,-1,5,-2,2,-1,3,10.975
2196,-2,0,-7,0,-3,-4,0,-3,10.98
2197,0,2,-2,-4,4,-2,4,-1,10.985
2198,7,-1,0,-1,3,-3,-3,-1,10.99
2199,5,2,3,4,6,2,2,0,10.995000000000001
2200,-1,1,2,4,1,5,-10,-8,11.0
2201,-3,1,-3,3,-6,-2,-10,-5,11.005
2202,-7,0,0,1,-3,-3,-5,-1,11.01
2203,-4,-2,-4,-3,-4,-4,-2,1,11.015
2204,0,-3,-4,0,-1,0,7,2,11.02
2205,-1,-4,-4,-4,2,-2,5,1,11.025
2206,-1,-2,-5,-3,-2,-4,3,-4,11.03
2207,-3,-3,5,-2,-2,-1,4,-1,11.035
2208,0,-3,5,2,0,0,3,1,11.040000000000001
2209,3,-2,4,2,-1,-2,0,1,11.045
2210,1,0,3,-2,-2,-4,0,-1,11.05
2211,0,2,-3,-2,-2,1,-4,1,11.055
2212,-2,2,-2,-1,0,6,1,1,11.06
2213,0,2,0,-2,-1,0,3,3,11.065
2214,-1,1,-2,-1,0,-2,-1,-1,11.07
2215,-2,2,-1,-1,4,-3,1,-5,11.075000000000001
2216,-5,-2,-5,-5,-1,-4,-5,-2,11.08
2217,-4,-3,-4,0,0,1,-2,0,11.085
2218,-4,-8,-1,3,-2,3,2,-5,11.09
2219,1,-3,2,-2,-3,1,-2,-7,11.095
2220,2,1,2,-1,-2,-1,0,-6,11.1
2221,-1,-1,3,-4,-2,2,-1,0,11.105
2222,-1,-2,-2,0,-2,1,-2,5,11.11
2223,2,-1,-5,1,2,0,-1,11,11.115
2224,-1,1,0,-2,2,1,-6,5,11.120000000000001
2225,1,3,1,2,3,-3,-3,2,11.125
2226,-4,0,-1,0,1,-7,-3,-2,11.13
2227,-4,0,-5,0,0,-4,-1,-6,11.135
2228,-9,-3,-4,-3,0,-4,0,-5,11.14
2229,-4,-2,-6,-4,-2,-2,2,-8,11.145
2230,1,-2,1,0,-3,-3,-1,-4,11.15
2231,3,-2,6,-1,-2,-2,2,1,11.155
2232,3,-4,1,-2,-3,-1,2,5,11.16
2233,3,-1,0,6,-3,2,2,5,11.165000000000001
2234,3,-2,0,1,-1,1,0,1,11.17
2235,1,-3,-1,2,0,4,1,0,11.175
2236,0,2,-1,0,-1,-1,-2,-6,11.18
2237,-1,1,-2,-1,-4,-1,0,-2,11.185
2238,3,4,3,2,-1,2,1,-1,11.19
2239,-4,-2,3,-1,0,-2,-2,-2,11.195
2240,-4,-2,-1,0,-2,0,-2,-3,11.200000000000001
2241,-5,0,-2,0,2,0,-2,-6,11.205
2242,-1,0,-4,-4,4,1,-5,0,11.21
2243,-1,0,-1,0,2,-5,-7,2,11.215
2244,1,2,2,-1,-2,-2,-1,1,11.22
2245,-2,1,0,-2,-5,-4,-1,0,11.225
2246,0,-1,-4,0,-3,0,3,2,11.23
2247,1,-3,-4,-2,1,2,-1,1,11.235
2248,2,-2,-4,2,-1,-4,-2,3,11.24
2249,-1,1,5,0,3,2,-3,1,11.245000000000001
2250,-2,0,-1,-5,4,-1,-1,2,11.25
2251,-1,-1,-3,-7,-1,-4,0,-2,11.255
2252,2,-1,-2,-6,1,0,2,-6,11.26
2253,-3,-2,-4,-7,-2,-2,-2,-4,11.265
2254,-3,-1,-2,-2,1,1,-3,-1,11.27
2255,1,0,-3,0,0,3,-3,-2,11.275
2256,0,-4,1,4,-1,-5,-4,-6,11.28
2257,3,-2,2,9,2,-1,1,0,11.285
2258,2,-2,0,2,0,3,-3,3,11.290000000000001
2259,1,0,3,-1,-5,-1,-2,0,11.295
2260,-1,0,2,-3,-2,1,-1,-1,11.3
2261,1,-1,-2,-1,2,-3,-3,0,11.305
2262,-3,-1,-1,-3,-1,-3,-2,-1,11.31
2263,-3,1,-5,1,-1,2,4,-2,11.315
2264,-1,3,-1,1,-2,1,3,-3,11.32
2265,-3,-1,0,-1,-6,-2,1,-3,11.325000000000001
2266,-2,1,-1,-2,-5,2,1,0,11.33
2267,-5,-1,-3,-1,-2,-4,-4,1,11.335
2268,-4,-1,0,-2,-2,-1,-2,0,11.34
2269,2,-1,-2,-1,2,3,2,-2,11.345
2270,3,-6,-1,-3,-2,-4,-1,-1,11.35
2271,4,-2,6,2,4,0,3,2,11.355
2272,-2,-2,0,-2,0,-3,-2,5,11.36
2273,-7,-6,3,4,3,2,2,2,11.365
2274,-4,-2,-5,2,1,4,0,-3,11.370000000000001
2275,-1,-3,-5,-1,-3,1,-4,-6,11.375
2276,2,-1,0,-1,-1,-6,-2,-5,11.38
2277,4,2,-1,-2,-6,-5,-4,-2,11.385
2278,4,2,1,-1,-2,-5,-3,0,11.39
2279,-2,0,-2,0,-1,-1,-2,-1,11.395
2280,2,1,0,-5,1,-4,1,0,11.4
2281,-3,1,-1,-3,1,2,2,-2,11.405
2282,-7,-4,-2,-2,-2,-1,-1,-3,11.41
2283,-4,-3,-4,-1,-2,0,2,2,11.415000000000001
2284,-4,0,-6,-1,1,6,-1,0,11.42
2285,-1,-1,2,1,0,0,-6,-3,11.425
2286,-2,1,4,0,0,-2,-3,-3,11.43
2287,3,1,4,0,-3,-1,1,-1,11.435
2288,3,0,0,2,-3,-1,3,2,11.44
2289,1,-5,-5,-3,-4,-2,1,3,11.445
2290,4,-2,-3,7,-2,2,0,1,11.450000000000001
2291,1,-4,-2,0,3,3,-3,-1,11.455
2292,-5,-3,-4,-1,1,3,-5,-3,11.46
2293,2,3,0,-2,1,0,-3,3,11.465
2294,1,0,4,-4,1,-2,2,-4,11.47
2295,0,2,5,-3,-5,-4,0,-2,11.475
2296,3,-2,-1,-1,-3,-1,3,0,11.48
2297,-1,-2,3,1,1,2,2,6,11.485
2298,-5,4,-2,-3,-2,-2,0,4,11.49
2299,0,3,-2,0,0,-5,2,-3,11.495000000000001
2300,-6,-2,-5,-1,-3,-5,-4,0,11.5
2301,-5,0,-1,-1,-2,-1,1,-2,11.505
2302,2,-3,-4,0,-1,4,2,-2,11.51
2303,-1,0,-4,-2,-2,3,0,1,11.515
2304,5,1,2,1,2,0,2,0,11.52
2305,5,0,-5,-5,-3,-6,-2,-3,11.525
2306,-2,-3,-1,-1,1,-6,-2,-2,11.53
2307,-4,-2,2,1,0,-2,-1,-3,11.535
2308,-4,1,3,0,1,2,-3,1,11.540000000000001
2309,-4,1,2,3,-3,1,-9,-4,11.545
2310,-1,4,1,2,2,2,1,-5,11.55
2311,2,-2,1,0,1,-4,-3,-1,11.555
2312,2,-3,-2,-1,-1,-6,-2,4,11.56
2313,0,-2,-7,-4,1,1,1,3,11.565
2314,0,-1,2,-3,-1,3,-2,3,11.57
2315,1,4,1,-3,-2,0,-5,-2,11.575000000000001
2316,6,3,0,-1,-3,-2,-2,-3,11.58
2317,-2,-2,-2,1,-2,-2,2,-1,11.585
2318,-4,-2,-3,3,0,2,7,-1,11.59
2319,-6,-3,-4,3,0,3,6,0,11.595
2320,-7,-3,-4,-2,0,-4,-2,-6,11.6
2321,-4,-1,-2,1,-1,-3,-6,-4,11.605
2322,4,-4,1,-3,-3,0,-4,-1,11.61
2323,4,-3,4,-1,-2,3,2,1,11.615
2324,4,-6,-1,0,-3,3,0,2,11.620000000000001
2325,3,-2,-3,-2,1,6,1,3,11.625
2326,-4,1,-7,-2,-1,-4,-1,4,11.63
2327,-7,0,-1,-7,-2,-7,-6,-4,11.635
2328,-4,1,0,-2,-3,-1,-1,-7,11.64
2329,2,-2,4,4,-1,-1,-2,-7,11.645
2330,3,3,1,1,-1,-1,-1,0,11.65
2331,4,1,-2,4,2,-5,4,5,11.655
2332,-4,1,1,1,1,-8,1,5,11.66
2333,-4,-1,-4,-2,1,-3,0,0,11.665000000000001
2334,-3,0,-4,1,-3,1,-3,-6,11.67
2335,-3,-1,-3,-2,-4,1,-2,0,11.675
2336,-3,0,-2,-4,-1,5,4,1,11.68
2337,1,1,7,-10,-2,-2,3,0,11.685
2338,6,-2,5,-8,-1,-4,-1,-3,11.69
2339,1,-3,0,0,-2,-2,-7,-6,11.695
2340,-1,-6,-2,2,0,-1,-7,0,11.700000000000001
2341,-3,-1,-3,5,-1,-2,-3,0,11.705
2342,-4,3,-5,4,3,2,2,3,11.71
2343,-4,-2,-5,1,-3,2,-1,1,11.715
2344,2,3,0,2,-1,3,2,1,11.72
2345,0,-1,1,-2,-2,-1,0,0,11.725
2346,-2,-1,1,-2,-4,-4,1,-3,11.73
2347,-1,0,-2,-3,-1,-3,-3,-3,11.735
2348,-4,-2,0,0,1,-3,1,-1,11.74
2349,0,-1,-3,-1,2,-4,3,0,11.745000000000001
2350,-2,-2,-1,1,1,-4,1,-5,11.75
2351,-1,-2,-2,0,-3,-2,0,-7,11.755
2352,1,4,2,-3,-3,1,-2,-7,11.76
2353,-1,4,-2,-5,-2,2,0,-2,11.765
2354,-2,0,-1,-3,-1,-2,2,2,11.77
2355,1,-1,-2,0,0,2,2,2,11.775
2356,4,-3,0,3,2,7,0,2,11.78
2357,4,-2,-2,1,-1,1,-5,-1,11.785
2358,-3,-4,3,0,1,2,-2,5,11.790000000000001
2359,2,3,6,-3,3,1,1,9,11.795
2360,-4,1,2,-2,0,0,-5,3,11.8
2361,5,3,-3,-4,-2,0,-2,-1,11.805
2362,2,0,-7,0,-5,-3,-2,-4,11.81
2363,1,2,-6,2,-6,-1,-1,-3,11.815
2364,-5,0,-6,0,0,0,2,0,11.82
2365,-4,-3,0,1,-2,-3,3,-2,11.825000000000001
2366,3,-4,0,-3,1,-4,0,3,11.83
2367,0,-5,0,-3,0,-4,1,1,11.835
2368,-2,-5,-4,-2,0,0,-1,-2,11.84
2369,-2,-3,0,-1,-3,5,2,-3,11.845
2370,-2,-1,-1,-2,0,-1,-3,-6,11.85
2371,-1,3,-1,0,5,1,-3,-4,11.855
2372,1,-1,-2,-1,-3,-8,-3,-8,11.86
2373,-3,1,2,3,1,-4,2,-9,11.865
2374,0,-1,2,3,-1,1,1,-5,11.870000000000001
2375,1,4,1,0,-1,-1,0,2,11.875
2376,2,1,1,1,-4,-3,-2,8,11.88
2377,0,1,-1,1,-4,0,-2,11,11.885
2378,-3,-3,-4,-3,-6,2,0,7,11.89
2379,-2,-3,-2,-2,1,4,1,-1,11.895
2380,-5,-3,1,0,1,-3,-4,-4,11.9
2381,-4,-3,2,1,4,-1,-1,-2,11.905
2382,-4,0,0,-2,-5,-6,-4,-1,11.91
2383,0,0,1,1,-1,-1,-2,-4,11.915000000000001
2384,2,2,-3,7,-1,0,4,-4,11.92
2385,2,0,-2,0,-1,-1,3,-2,11.925
2386,-1,-5,1,-3,0,0,-2,1,11.93
2387,-6,-5,-2,-5,-3,-1,-5,-4,11.935
2388,-4,3,0,-6,-3,1,0,0,11.94
2389,-1,2,-1,-3,2,-3,-2,2,11.945
2390,-1,3,-2,-2,1,-1,0,1,11.950000000000001
2391,-2,-4,-4,-7,0,-3,-4,-2,11.955
2392,2,-2,-3,-2,-2,3,-6,-2,11.96
2393,-2,-1,-2,-2,0,5,0,-1,11.965
2394,-1,-4,-2,3,0,-5,3,-4,11.97
2395,-4,3,0,3,2,-1,-1,-1,11.975
2396,-5,2,3,-2,-1,-1,-2,0,11.98
2397,-5,0,0,0,-4,0,-2,-3,11.985
2398,-3,2,-7,1,0,4,1,1,11.99
2399,-1,-3,-7,3,-2,-5,4,5,11.995000000000001
2400,0,-2,-6,2,-2,-4,4,3,12.0
2401,6,-2,0,-2,0,-2,1,5,12.005
2402,1,-1,3,-4,-2,1,0,-1,12.01
2403,2,-3,4,-1,1,4,-4,-7,12.015
2404,4,-1,6,-2,0,3,-4,-4,12.02
2405,-3,1,3,-1,-3,-3,-5,-4,12.025
2406,4,1,4,2,0,3,2,0,12.030000000000001
2407,3,1,0,-1,0,4,5,5,12.035
2408,3,-4,-1,-5,0,-4,1,-5,12.040000000000001
2409,-1,-3,-3,-2,-1,-6,-1,-6,12.045
2410,-1,-1,-4,-2,-2,-6,-6,-3,12.05
2411,-3,-3,2,2,0,-5,2,3,12.055
2412,-1,-3,0,3,-1,-5,3,3,12.06
2413,4,-3,-4,1,0,-2,-1,1,12.065
2414,0,1,-2,-3,2,1,-3,-2,12.07
2415,-2,1,-4,-4,0,6,-3,-7,12.075000000000001
2416,1,4,-4,-3,-1,3,1,-3,12.08
2417,6,2,-5,-5,-1,-1,2,0,12.085
2418,-1,1,0,3,4,-1,-4,2,12.09
2419,-3,1,-1,0,0,-5,-3,-2,12.095
2420,-3,-2,1,-3,0,-2,-3,0,12.1
2421,-4,-2,2,4,-3,0,0,-1,12.105
2422,-1,-2,-1,3,-4,2,0,1,12.11
2423,-1,0,-2,4,-3,1,0,1,12.115
2424,-2,2,-1,4,-2,3,-2,2,12.120000000000001
2425,-4,-1,-3,1,-2,0,-3,0,12.125
2426,0,-1,1,-7,1,-5,0,-4,12.13
2427,2,0,3,-5,3,-2,1,1,12.135
2428,-1,-2,0,-7,1,0,0,-1,12.14
2429,-2,-2,4,-5,-2,-1,0,1,12.145
2430,0,-5,0,1,-6,0,1,3,12.15
2431,2,0,-2,-3,0,5,1,2,12.155000000000001
2432,-3,-2,-1,0,-2,-5,5,-2,12.16
2433,-3,-1,-5,2,0,1,4,-3,12.165000000000001
2434,1,3,-7,4,0,0,-2,-2,12.17
2435,0,1,-5,4,-2,-5,-4,-5,12.175
2436,-1,0,-2,2,0,-3,-1,0,12.18
2437,-2,3,6,-1,0,-3,0,2,12.185
2438,-2,-2,4,-6,-1,1,-1,-3,12.19
2439,-1,-5,1,-6,-3,-1,-10,-3,12.195
2440,4,-1,1,1,3,8,-3,2,12.200000000000001
2441,3,0,-2,-1,-1,-3,-3,1,12.205
2442,-1,-1,-4,-2,-2,-3,0,-2,12.21
2443,1,0,-2,-4,0,-2,1,-2,12.215
2444,-3,-2,-1,0,-1,-3,-4,-6,12.22
2445,-5,3,0,3,2,4,-2,3,12.225
2446,-2,3,0,0,0,2,1,8,12.23
2447,-3,1,-4,2,-2,-4,5,5,12.235
2448,0,-1,-2,-1,-4,0,2,-2,12.24
2449,-1,-2,-6,1,-2,-4,-4,-8,12.245000000000001
2450,-2,-6,-3,0,-2,-6,-6,-4,12.25
2451,4,-5,2,2,-1,-1,1,1,12.255
2452,3,1,1,-4,0,-2,-2,5,12.26
2453,7,-1,5,-6,0,0,-2,5,12.265
2454,-2,0,5,-3,0,-1,-3,-2,12.27
2455,-4,0,1,-4,-2,-3,4,1,12.275
2456,0,2,-1,-3,2,1,4,-2,12.280000000000001
2457,1,1,1,1,1,8,4,-4,12.285
2458,-2,0,-2,0,1,1,1,-1,12.290000000000001
2459,-2,3,1,2,-5,0,0,-3,12.295
2460,-4,3,-4,0,-4,0,1,-5,12.3
2461,-3,-4,-7,0,-1,-4,-4,-1,12.305
2462,-1,-1,-4,0,-1,-3,-4,1,12.31
2463,-1,-1,-1,3,4,1,0,2,12.315
2464,-3,-2,2,0,1,2,-3,1,12.32
2465,-2,-4,-3,-1,-4,0,-2,0,12.325000000000001
2466,-3,-1,-3,-2,-2,3,-2,2,12.33
2467,3,-2,-5,-3,-3,-2,1,0,12.335
2468,4,-3,0,-1,-3,-8,1,-3,12.34
2469,2,-2,4,-5,-1,-5,2,-1,12.345
2470,1,-2,3,-5,-1,0,1,-2,12.35
2471,-2,-1,4,-3,-5,-1,-4,1,12.355
2472,-3,-1,-3,2,-1,-1,-1,1,12.36
2473,-3,1,-2,4,2,2,3,0,12.365
2474,-2,2,-2,-1,0,-1,4,-5,12.370000000000001
2475,-2,-2,-2,-3,-1,0,-5,-4,12.375
2476,0,-1,-1,-1,-3,-1,-7,2,12.38
2477,2,-2,-1,-2,-1,-3,-4,-1,12.385
2478,1,-4,-1,6,1,0,0,2,12.39
2479,0,-1,-3,1,-2,0,-1,-5,12.395
2480,-2,-2,0,-3,-3,-2,-2,0,12.4
2481,-5,-2,0,-2,-2,2,-2,-3,12.405000000000001
2482,0,-1,2,-1,0,-2,-2,-1,12.41
2483,0,-4,-1,2,1,-2,-2,-1,12.415000000000001
2484,3,-1,0,2,0,2,-1,5,12.42
2485,-1,0,-2,0,-4,-4,-6,4,12.425
2486,-4,1,0,2,2,3,0,-1,12.43
2487,-4,5,1,1,-1,-4,2,-4,12.435
2488,-6,2,-5,-4,-2,-2,4,-5,12.44
2489,-2,-2,-5,-3,1,0,-1,-6,12.445
2490,3,-4,-5,-3,-1,-5,-1,-2,12.450000000000001
2491,2,-2,-3,-2,0,-5,-2,-2,12.455
2492,0,-3,-1,-1,2,1,1,-2,12.46
2493,-1,-3,-1,-6,-4,-2,-4,-1,12.465
2494,-1,-3,-1,-2,-1,2,-2,-2,12.47
2495,3,0,0,-4,1,5,-1,2,12.475
2496,0,-4,3,1,-1,0,-1,0,12.48
2497,-2,-3,1,3,-1,0,-2,0,12.485
2498,-5,1,0,-2,-3,-1,1,5,12.49
2499,-2,1,3,1,-2,-5,2,8,12.495000000000001
2500,-2,3,0,-2,1,-2,3,2,12.5
2501,-1,0,-3,6,0,1,0,-5,12.505
2502,-1,-1,-1,4,-1,1,-2,-3,12.51
2503,-2,-2,-4,0,-1,-2,-5,-4,12.515
2504,-4,2,-1,-4,1,2,2,-3,12.52
2505,0,0,0,-7,-1,-2,2,1,12.525
2506,1,-2,1,-3,-4,-6,1,-3,12.530000000000001
2507,-1,-6,-2,1,0,2,3,0,12.535
2508,-2,-3,-1,1,-3,-1,-6,-1,12.540000000000001
2509,-1,-2,2,-3,-1,-4,-1,-3,12.545
2510,1,1,2,-4,-2,-1,2,-4,12.55
2511,-2,4,2,-1,-1,-2,2,-1,12.555
2512,0,-1,-2,3,0,6,1,3,12.56
2513,-4,2,-4,2,0,3,0,6,12.565
2514,2,1,-2,-1,2,-3,-2,3,12.57
2515,6,1,1,0,3,0,-2,-2,12.575000000000001
2516,9,-1,-2,-1,-3,-6,-4,-5,12.58
2517,5,2,0,-1,-3,-3,-3,-3,12.585
2518,-2,-4,-6,1,-2,1,-2,0,12.59
2519,-9,0,-2,0,2,1,2,3,12.595
2520,-4,-2,3,1,4,2,2,4,12.6
2521,-2,-2,1,1,2,0,3,3,12.605
2522,-2,-4,-2,-1,-1,-2,2,-1,12.61
2523,0,-4,-5,-1,-4,-1,-2,-3,12.615
2524,-3,-4,-2,0,-3,4,-3,-1,12.620000000000001
2525,0,2,-1,2,-3,3,0,-3,12.625
2526,2,3,-2,1,-1,0,-1,-1,12.63
2527,1,-1,2,-3,-1,-4,-3,0,12.635
2528,1,-4,-2,-6,0,-3,-3,1,12.64
2529,-1,-3,-3,-6,-2,1,-1,0,12.645
2530,2,-3,-2,-2,-2,-1,-2,0,12.65
2531,-1,-2,-1,1,-3,-1,2,-1,12.655000000000001
2532,-2,0,1,-1,1,-6,2,-1,12.66
2533,-1,1,5,-2,0,-3,3,-3,12.665000000000001
2534,1,6,4,0,0,-5,3,-5,12.67
2535,-1,4,-2,0,-3,0,0,-5,12.675
2536,1,2,1,2,-2,-1,-2,2,12.68
2537,-2,0,-1,0,0,-4,-4,4,12.685
2538,-5,2,-3,-1,4,4,-4,2,12.69
2539,0,-2,-4,-1,0,4,-5,0,12.695
2540,-2,-2,-5,-1,-3,-1,-4,-4,12.700000000000001
2541,0,-1,-6,1,-1,-5,1,-1,12.705
2542,-5,-7,1,2,-2,-2,-1,0,12.71
2543,-3,0,0,4,0,-5,-3,-5,12.715
2544,3,2,3,3,-1,0,-1,-4,12.72
2545,7,4,6,4,-1,0,-1,1,12.725
2546,0,-1,5,0,-3,1,-1,2,12.73
2547,-1,-3,-1,-6,-1,0,-1,4,12.735
2548,0,-6,-5,-4,-1,-3,2,5,12.74
2549,-2,-4,-6,-2,3,6,4,3,12.745000000000001
2550,1,-1,-7,-1,-1,2,0,-1,12.75
2551,2,-2,-2,2,-1,0,-3,-1,12.755
2552,-7,-1,-1,-1,2,-8,1,-1,12.76
2553,-4,-1,0,-4,-1,-3,1,-3,12.765
2554,-3,0,1,-7,2,-5,-1,-1,12.77
2555,2,-1,-2,-6,1,1,2,2,12.775
2556,4,1,-5,-1,-1,-1,-6,0,12.780000000000001
2557,0,0,-2,-1,-1,0,-4,-2,12.785
2558,0,-2,3,3,0,3,-3,-2,12.790000000000001
2559,-5,1,6,0,-1,-2,3,0,12.795
2560,1,0,6,-1,1,3,3,-3,12.8
2561,-3,2,2,4,-2,2,-3,0,12.805
2562,1,3,-2,2,-4,0,-4,2,12.81
2563,-2,2,-6,-1,0,1,3,-1,12.815
2564,-7,0,-3,-1,0,0,-3,-3,12.82
2565,0,-4,-1,-5,-1,-3,0,-6,12.825000000000001
2566,4,-5,1,-1,-1,-3,0,-7,12.83
2567,-1,-1,0,1,-2,0,-1,-1,12.835
2568,-1,0,-1,0,-2,0,0,-3,12.84
2569,2,-1,-7,-1,-3,-6,-5,2,12.845
2570,2,0,0,-5,1,1,-1,7,12.85
2571,3,-2,-4,-3,-4,-6,4,6,12.855
2572,3,0,-2,-5,-4,-5,0,2,12.86
2573,1,-1,-2,-1,1,0,0,-3,12.865
2574,-2,-2,-1,2,1,6,3,-3,12.870000000000001
2575,-4,-3,-3,3,0,7,-2,-2,12.875
2576,-7,-1,-6,-3,-1,0,-3,2,12.88
2577,-8,-1,-2,-2,-1,-1,-2,-1,12.885
2578,-6,-2,0,1,-2,0,-4,-1,12.89
2579,0,0,3,1,5,3,3,5,12.895
2580,4,-1,0,5,0,-6,2,1,12.9
2581,0,0,-1,-1,-2,-4,1,-1,12.905000000000001
2582,-5,-2,-2,-5,-7,-4,-2,-2,12.91
2583,-1,-1,-1,-3,-5,3,-6,-2,12.915000000000001
2584,2,1,-1,-3,-4,-2,-5,-2,12.92
2585,2,4,-1,0,-2,-2,-4,1,12.925
2586,0,3,1,1,2,-1,0,-3,12.93
2587,-4,0,-5,-2,1,-7,-2,-4,12.935
2588,1,1,2,1,7,7,8,0,12.94
2589,-3,-3,-3,-2,-2,0,3,-3,12.945
2590,-2,-3,-2,4,-2,0,0,0,12.950000000000001
2591,7,-1,-1,-2,0,0,-5,1,12.955
2592,0,-3,0,-5,-2,-1,-2,-2,12.96
2593,-2,2,0,-1,1,-2,2,3,12.965
2594,-2,2,0,2,0,1,3,2,12.97
2595,0,-4,1,7,-3,0,-1,-3,12.975
2596,1,-5,-2,4,-5,-1,-3,-8,12.98
2597,2,-4,0,-5,0,1,2,-5,12.985
2598,-1,-3,-1,-6,1,-7,-1,-3,12.99
2599,-1,-1,1,1,0,-5,-2,0,12.995000000000001
2600,-2,0,-1,1,-1,-2,-2,-2,13.0
2601,-3,2,-2,1,-4,4,-3,0,13.005
2602,2,1,-3,0,-3,6,-1,1,13.01
2603,0,-5,-2,-8,-6,0,-3,2,13.015
2604,0,-1,-1,-3,-1,2,3,4,13.02
2605,-3,-1,1,0,-2,0,-1,2,13.025
2606,-3,3,2,-2,0,-3,-2,-4,13.030000000000001
2607,-4,0,4,-1,-1,-3,-2,-8,13.035
2608,-5,-2,2,-1,-1,-4,0,-3,13.040000000000001
2609,4,0,2,1,4,1,-1,1,13.045
2610,1,2,-7,-1,0,-2,-3,1,13.05
2611,1,4,-5,1,4,0,-4,2,13.055
2612,1,1,-1,-2,0,-4,0,5,13.06
2613,-4,-3,0,-1,-1,-7,1,-1,13.065
2614,-3,-5,3,-5,0,-4,3,-3,13.07
2615,-4,0,0,1,-2,4,0,-3,13.075000000000001
2616,-4,-1,-3,2,-1,2,-1,-3,13.08
2617,0,-3,0,3,-5,-3,0,3,13.085
2618,3,-1,-2,-2,-2,-2,1,2,13.09
2619,4,2,-3,-1,-2,0,5,2,13.095
2620,4,-2,0,-2,0,6,2,4,13.1
2621,-1,-6,0,-3,-1,2,-2,-1,13.105
2622,-2,-2,-1,0,-1,0,0,-2,13.11
2623,-3,0,-3,-1,-1,-2,-3,-5,13.115
2624,-2,0,-4,1,2,-1,-3,-2,13.120000000000001
2625,4,3,-2,-1,1,-2,0,-2,13.125
2626,-2,1,-6,-3,-3,-2,1,2,13.13
2627,-2,0,-2,-4,-1,1,-1,2,13.135
2628,-2,-1,1,-5,-4,0,0,-4,13.14
2629,-2,-1,1,-2,1,-2,-5,-5,13.145
2630,0,0,2,4,5,1,-2,-3,13.15
2631,-1,-1,3,4,0,-6,-1,0,13.155000000000001
2632,0,1,2,0,-2,-6,-2,-1,13.16
2633,-4,0,-3,-6,-2,1,-1,-2,13.165000000000001
2634,-3,-2,-3,-2,-2,-2,1,0,13.17
2635,-4,-1,2,1,3,7,4,0,13.175
2636,-3,-2,-1,5,-1,5,-6,-2,13.18
2637,-2,-1,-2,2,0,0,-1,2,13.185
2638,3,-1,-2,4,-3,-2,-3,1,13.19
2639,3,-1,0,3,-1,-4,0,-1,13.195
2640,1,-1,1,-5,-2,-4,3,0,13.200000000000001
2641,-4,0,-3,-3,-3,-2,4,-4,13.205
2642,-5,2,-3,-3,0,2,2,-1,13.21
2643,-2,-1,-3,-1,-3,1,1,3,13.215
2644,-3,-4,-1,-4,-4,4,-2,3,13.22
2645,-1,-3,1,-4,-2,-1,-3,0,13.225
2646,0,-3,0,-5,0,-2,-3,-1,13.23
2647,3,2,-2,-2,-1,-6,-4,-5,13.235
2648,0,6,-4,2,1,-5,-3,-3,13.24
2649,3,2,0,2,0,-4,-4,2,13.245000000000001
2650,0,0,2,5,3,-1,-3,0,13.25
2651,-2,-2,-3,0,0,0,-5,-4,13.255
2652,-3,-2,-1,3,-1,-1,-1,1,13.26
2653,-2,-1,-1,-3,-1,2,4,1,13.265
2654,-4,0,0,-1,-4,1,6,1,13.27
2655,1,-2,-1,-1,-4,4,7,-1,13.275
2656,4,-2,2,0,1,1,4,0,13.280000000000001
2657,-1,-1,-2,3,2,4,-3,-4,13.285
2658,1,-2,2,-4,-2,-3,-7,1,13.290000000000001
2659,-1,-6,0,0,0,-5,-5,3,13.295
2660,-5,-3,0,-3,-2,-3,-1,-6,13.3
2661,-4,-4,-2,-5,-5,-5,-3,-4,13.305
2662,-6,-3,-1,-3,-1,-2,-1,-2,13.31
2663,-4,0,-3,-1,-1,-1,0,-3,13.315
2664,1,2,-3,-1,-3,-3,0,0,13.32
2665,-2,1,-1,-2,-2,4,0,1,13.325000000000001
2666,0,2,3,-1,-1,5,2,-1,13.33
2667,-2,-1,2,-4,-2,-2,-2,3,13.335
2668,-2,-3,-2,-3,0,0,2,2,13.34
2669,4,-1,0,-3,2,0,-1,-1,13.345
2670,4,-2,2,-2,-3,1,-4,-5,13.35
2671,0,-1,3,4,-1,-1,-1,0,13.355
2672,-3,0,-1,2,2,-3,-6,-2,13.36
2673,-2,0,-4,6,3,-7,-1,-1,13.365
2674,-1,1,-2,0,1,-3,-2,-4,13.370000000000001
2675,0,0,-3,0,-2,-1,-5,-1,13.375
2676,-2,2,-1,0,-5,-5,-2,1,13.38
2677,2,-1,-2,-1,-4,-4,1,1,13.385
2678,2,4,-3,-5,-2,-1,2,5,13.39
2679,-4,-3,0,-6,1,-1,2,-6,13.395
2680,0,-4,-2,-2,0,2,0,-3,13.4
2681,-5,-1,1,4,3,6,0,0,13.405000000000001
2682,-2,0,-3,1,0,1,4,0,13.41
2683,-3,-3,2,-4,1,3,3,0,13.415000000000001
2684,5,0,5,-2,2,6,1,4,13.42
2685,3,-2,3,-4,0,2,-1,0,13.425
2686,1,-2,-4,1,0,1,-1,0,13.43
2687,-2,2,-6,-1,-2,-4,3,-2,13.435
2688,1,0,-4,-1,-1,-8,0,0,13.44
2689,3,3,1,3,2,-2,2,3,13.445
2690,-2,0,0,7,3,-1,2,1,13.450000000000001
2691,-3,-1,-2,3,0,0,-3,-2,13.455
2692,-5,-2,0,1,2,3,-11,-1,13.46
2693,-2,-1,-1,0,-4,2,-10,1,13.465
2694,-3,-7,-3,-3,-5,1,-5,0,13.47
2695,-1,-2,-1,-6,-7,-2,0,-2,13.475
2696,1,-6,-5,-3,-7,-2,6,-4,13.48
2697,-2,-3,-2,-1,-3,-5,6,-3,13.485
2698,1,1,4,-1,3,-3,1,-3,13.49
2699,-1,4,6,1,5,-2,-2,0,13.495000000000001
2700,-4,0,1,-2,2,-1,1,2,13.5
2701,-2,-1,1,-4,4,-3,-1,2,13.505
2702,1,-4,-2,-2,-1,-1,-2,2,13.51
2703,1,4,-3,0,-3,-1,-3,3,13.515
2704,0,2,-3,7,-3,2,1,1,13.52
2705,1,-2,-4,2,-2,0,2,-6,13.525
2706,-2,-2,2,-5,-1,-1,-4,-6,13.530000000000001
2707,3,-1,1,-5,1,2,0,-4,13.535
2708,2,2,-2,-2,-1,0,-4,-2,13.540000000000001
2709,0,0,-4,1,-5,-4,-7,-2,13.545
2710,0,-3,-2,5,-2,1,0,0,13.55
2711,-2,-4,-2,1,-2,0,2,1,13.555
2712,-5,-3,3,-4,-2,-2,0,-3,13.56
2713,1,-1,3,-5,-1,1,3,-1,13.565
2714,-1,2,-1,1,1,-3,0,1,13.57
2715,3,2,-2,4,3,4,2,9,13.575000000000001
2716,1,1,-4,-3,3,-1,0,4,13.58
2717,1,-3,0,-1,2,-2,-5,2,13.585
2718,0,-2,0,-1,0,-1,-6,0,13.59
2719,0,-6,1,-3,-1,-3,0,0,13.595
2720,-2,-1,0,-2,-1,-1,3,-3,13.6
2721,-6,2,0,-1,-1,4,2,-7,13.605
2722,-6,4,0,0,-2,1,-1,-7,13.61
2723,-3,1,2,-1,-2,0,-6,-5,13.615
2724,0,-3,0,0,0,4,-2,0,13.620000000000001
2725,-1,-1,-2,-2,0,0,1,2,13.625
2726,1,-4,-2,-1,3,-3,6,5,13.63
2727,2,-2,0,-2,-1,-2,4,3,13.635
2728,6,-1,2,1,-3,-2,3,1,13.64
2729,2,0,-2,1,-2,1,-4,4,13.645
2730,-2,-1,-6,1,-5,-1,-2,-1,13.65
2731,-6,-2,-3,0,-3,-4,0,-3,13.655000000000001
2732,-7,2,1,-4,1,-5,0,0,13.66
2733,-7,-3,-1,2,2,-4,-4,-2,13.665000000000001
2734,1,0,-3,-4,0,-5,-4,-3,13.67
2735,3,-4,-2,-1,2,1,-6,-7,13.675
2736,1,-3,-3,1,0,3,-5,-1,13.68
2737,0,0,3,-5,-3,1,3,3,13.685
2738,-2,0,0,-1,-4,2,6,2,13.69
2739,-2,1,-2,3,-3,0,3,-1,13.695
2740,-3,2,0,2,0,-5,1,-4,13.700000000000001
2741,1,-3,-2,2,1,-4,1,-4,13.705
2742,5,-1,-1,3,0,-3,-2,-1,13.71
2743,3,-1,-3,-3,-3,1,-3,-4,13.715
2744,4,-3,-2,-5,0,0,-5,-4,13.72
2745,-4,-3,-1,0,-1,1,-1,-2,13.725
2746,-6,-4,0,0,0,0,0,-3,13.73
2747,-2,3,1,4,2,1,-4,6,13.735
2748,-1,1,3,2,0,0,-5,3,13.74
2749,1,1,2,0,-2,3,0,3,13.745000000000001
2750,2,-1,-3,-5,0,0,0,3,13.75
2751,-3,-2,-5,-8,-1,-3,-2,-4,13.755
2752,-7,-3,-6,-4,-1,-1,0,-4,13.76
2753,-2,-2,1,-6,-1,-2,1,-6,13.765
2754,-1,-1,4,-2,-4,-2,0,1,13.77
2755,3,-5,2,0,-1,-6,-1,4,13.775
2756,5,-4,0,1,-2,-6,0,1,13.780000000000001
2757,2,-3,-5,4,0,-2,0,-2,13.785
2758,-4,0,0,3,1,2,1,-9,13.790000000000001
2759,-4,1,-3,6,0,2,4,-3,13.795
2760,-4,-1,-2,2,-1,2,-1,-4,13.8
2761,-1,2,-2,-4,0,-1,-2,0,13.805
2762,1,2,-1,-5,-2,-2,-2,-1,13.81
2763,2,0,-3,-5,-1,-6,1,-3,13.815
2764,4,0,1,0,1,-1,-1,1,13.82
2765,-2,-2,0,1,2,2,-1,-3,13.825000000000001
2766,-5,-1,-1,4,0,2,2,4,13.83
2767,-9,-2,0,1,-3,0,-2,1,13.835
2768,-1,2,-3,-2,2,0,-2,3,13.84
2769,1,0,-2,-6,1,-3,-4,-1,13.845
2770,1,1,-1,-6,-3,-5,-6,-5,13.85
2771,-4,0,0,1,2,6,3,-3,13.855
2772,0,-2,-2,1,-7,0,3,-4,13.86
2773,1,2,0,0,-4,-3,5,1,13.865
2774,5,3,3,-2,-1,-4,1,0,13.870000000000001
2775,2,-1,3,-1,-3,-3,-3,-1,13.875
2776,-2,-3,1,-1,2,3,-1,1,13.88
2777,0,-4,-1,3,1,1,-3,-2,13.885
2778,0,1,3,0,4,4,1,-1,13.89
2779,-2,0,-5,2,2,2,-1,3,13.895
2780,-2,0,-5,0,0,0,-2,4,13.9
2781,0,-3,-1,-4,-2,-1,-4,3,13.905000000000001
2782,-2,-7,1,-4,-2,1,-3,2,13.91
2783,2,-3,2,-1,-2,-1,0,-1,13.915000000000001
2784,-2,-1,0,2,0,-1,4,-4,13.92
2785,1,2,0,1,1,-5,4,-3,13.925
2786,-2,1,-3,1,1,-3,0,-7,13.93
2787,-1,-1,-2,-4,0,-3,-1,-7,13.935
2788,-2,0,-1,-5,-1,-2,-2,-1,13.94
2789,-4,-2,3,-1,-2,-2,-3,5,13.945
2790,1,-1,1,0,-3,1,-3,2,13.950000000000001
2791,2,-1,2,-2,-5,-1,-3,3,13.955
2792,2,3,0,-1,0,1,1,1,13.96
2793,0,0,-5,0,1,4,-2,0,13.965
2794,1,-4,-6,4,2,6,0,-1,13.97
2795,4,-1,-5,2,-3,-1,-2,-1,13.975
2796,-1,-2,-3,-1,-1,0,1,-4,13.98
2797,1,-1,-1,-6,0,-1,4,0,13.985
2798,-1,0,2,-2,0,0,1,1,13.99
2799,-4,2,3,-1,2,3,1,-1,13.995000000000001
2800,-8,-3,0,1,-5,-4,-4,-5,14.0
2801,-1,-1,-4,5,-3,-4,-5,-5,14.005
2802,3,-2,-2,2,-1,0,0,-1,14.01
2803,-2,-3,1,0,2,3,-1,-4,14.015
2804,-5,1,3,1,0,3,0,1,14.02
2805,-4,1,-1,-4,1,0,3,0,14.025
2806,-2,0,-4,-6,-2,-7,-3,1,14.030000000000001
2807,3,-1,-2,-6,-1,-7,-1,0,14.035
2808,3,1,0,-3,-1,-2,2,0,14.040000000000001
2809,-2,0,3,4,2,-1,2,-1,14.045
2810,-5,3,1,5,1,-3,0,0,14.05
2811,0,-1,1,0,-3,-4,1,-2,14.055
2812,6,-4,1,-3,1,-1,-2,-2,14.06
2813,2,-4,-1,-3,-2,1,-4,2,14.065
2814,-3,-5,-2,-2,-4,1,1,-2,14.07
2815,-4,-2,-5,1,-1,3,3,4,14.075000000000001
2816,-1,3,-3,0,-3,-4,-2,1,14.08
2817,0,1,0,4,-3,2,-1,-3,14.085
2818,2,1,0,-6,-1,-4,-6,-2,14.09
2819,0,1,3,0,2,-4,-5,-1,14.095
2820,-1,-2,-1,-5,2,-3,-4,0,14.1
2821,-5,-1,-1,-2,-1,1,0,0,14.105
2822,-6,-4,-3,2,0,3,5,1,14.11
2823,-5,-3,-2,-2,0,-1,5,1,14.115
2824,0,2,-1,-2,-3,-1,4,-3,14.120000000000001
2825,4,2,0,-3,-1,2,-1,-5,14.125
2826,4,0,-1,-3,-2,3,-1,-5,14.13
2827,4,3,-3,4,0,0,-1,-1,14.135
2828,4,1,-4,6,1,0,0,-3,14.14
2829,-4,-1,-4,-3,-2,0,2,-3,14.145
2830,-3,-5,-3,1,1,-3,-1,-1,14.15
2831,-1,-1,-3,-3,2,-1,0,0,14.155000000000001
2832,-3,-5,0,-3,3,0,0,1,14.16
2833,-4,-2,2,-1,0,-5,-5,4,14.165000000000001
2834,-4,-2,0,2,-2,-4,-3,5,14.17
2835,-5,-2,4,3,-6,-5,0,0,14.175
2836,-2,0,3,2,-2,-2,3,-1,14.18
2837,-3,-2,-4,0,0,3,2,0,14.185
2838,0,-1,-1,-1,-2,1,0,1,14.19
2839,3,-4,-5,-4,2,0,-3,-2,14.195
2840,3,2,-1,-3,1,0,-2,-1,14.200000000000001
2841,1,2,2,-3,-1,-1,1,-1,14.205
2842,1,1,0,-2,-4,0,1,-2,14.21
2843,1,1,-2,0,-4,-2,-3,-1,14.215
2844,-2,-3,-1,-1,0,-3,-2,0,14.22
2845,4,-3,-4,0,0,-3,-4,-2,14.225
2846,0,0,-3,0,3,-3,0,-3,14.23
2847,0,1,-2,0,0,-1,1,-3,14.235
2848,3,-2,-5,-1,-5,0,-4,1,14.24
2849,-2,-2,1,-2,-4,2,-6,-1,14.245000000000001
2850,-3,0,0,-2,-3,2,-3,-2,14.25
2851,-4,1,4,-1,-1,2,-2,-2,14.255
2852,-3,-1,2,0,0,4,3,-1,14.26
2853,1,-2,0,4,-1,-3,4,-1,14.265
2854,0,-1,2,2,3,1,-1,-1,14.27
2855,-1,1,1,0,1,1,2,-2,14.275
2856,1,1,1,3,-2,-2,0,-2,14.280000000000001
2857,-2,1,2,0,0,-5,0,-2,14.285
2858,0,0,-4,-5,-2,-7,1,1,14.290000000000001
2859,-2,-2,-1,-4,-3,-2,-1,6,14.295
2860,-1,0,-1,-2,-1,-1,0,6,14.3
2861,0,-3,-5,-2,-2,2,-2,4,14.305
2862,0,-2,3,0,0,-2,-3,-2,14.31
2863,3,-2,-2,0,0,2,0,-4,14.315
2864,0,-3,-2,1,1,-1,-2,-3,14.32
2865,-3,-4,-4,3,-2,0,-2,-8,14.325000000000001
2866,-3,-1,-1,-1,0,-3,-2,-2,14.33
2867,-4,-2,-4,-3,0,-2,0,-2,14.335
2868,-2,0,-4,-4,-3,-2,-1,-3,14.34
2869,4,1,-2,-4,0,-2,-1,4,14.345
2870,2,0,6,1,3,1,1,3,14.35
2871,1,2,8,4,4,4,0,1,14.355
2872,1,2,-1,1,0,3,-2,0,14.36
2873,2,4,-2,-3,-3,6,1,1,14.365
2874,-3,2,-7,-4,-4,0,-1,-3,14.370000000000001
2875,0,-3,-5,-3,-4,-8,1,-1,14.375
2876,-4,-3,-2,2,1,-3,-3,-2,14.38
2877,-2,-4,0,2,0,-4,2,-1,14.385
2878,0,-3,3,-1,-1,1,-1,2,14.39
2879,0,-3,1,-2,-1,-2,-2,-2,14.395
2880,-4,-1,-1,-4,-4,-4,-2,-6,14.4
2881,-5,1,-2,-4,-4,-5,-5,-1,14.405000000000001
2882,0,3,-2,-3,0,6,1,1,14.41
2883,1,4,-1,-1,2,5,-2,0,14.415000000000001
2884,-1,-2,-3,-1,2,-3,1,2,14.42
2885,1,-2,-3,3,5,-2,1,2,14.425
2886,-2,2,-3,5,-3,-2,4,-1,14.43
2887,0,-4,-3,1,-2,2,3,-2,14.435
2888,-1,-3,4,0,-1,6,1,-4,14.44
2889,4,-4,2,-4,1,4,-1,-4,14.445
2890,0,-3,0,-4,-4,-5,-4,-2,14.450000000000001
2891,-3,-3,1,0,0,-2,-4,-3,14.455
2892,2,0,-1,2,5,-2,0,-3,14.46
2893,1,-1,1,2,3,-2,-3,-5,14.465
2894,-3,0,-2,2,-2,-5,-2,0,14.47
2895,-2,2,-1,-4,-4,-2,2,5,14.475
2896,-3,1,0,-5,-4,-1,3,1,14.48
2897,-2,2,2,-6,-2,-2,3,0,14.485
2898,1,1,-2,-3,2,1,-3,-2,14.49
2899,0,-1,-4,1,2,-1,-5,-1,14.495000000000001
2900,-4,-3,3,1,4,-2,-4,2,14.5
2901,0,-2,2,3,1,-3,1,3,14.505
2902,2,-4,-2,-1,-1,-5,0,2,14.51
2903,-2,-2,1,-1,-2,-3,-3,-3,14.515
2904,0,-2,-4,-1,-1,4,2,-4,14.52
2905,-1,-2,-4,-1,-7,0,-4,-6,14.525
2906,-1,0,-4,-1,-2,4,2,-2,14.530000000000001
2907,-3,-2,-2,0,-1,1,0,4,14.535
2908,-1,1,-1,-3,-2,-1,0,5,14.540000000000001
2909,-4,-1,-3,0,-1,-2,1,0,14.545
2910,3,4,-2,-1,-2,-1,-1,-4,14.55
2911,3,3,-2,0,-1,-1,-2,-3,14.555
2912,-3,-1,1,-3,-4,0,-4,1,14.56
2913,-1,-6,-1,0,-3,-1,-1,2,14.565
2914,3,-6,-2,2,5,-1,4,2,14.57
2915,1,-1,0,2,-2,-3,1,-5,14.575000000000001
2916,-2,2,0,2,2,-3,1,-4,14.58
2917,1,3,3,-1,2,-3,-3,-4,14.585
2918,-3,-1,0,0,-1,-2,-1,-2,14.59
2919,-1,1,-5,-3,-4,0,0,5,14.595
2920,-2,-1,0,0,-2,-3,-3,-1,14.6
2921,-1,1,1,0,-1,0,-2,2,14.605
2922,0,0,2,-2,-3,-3,-2,0,14.61
2923,-2,-3,3,-2,0,1,-4,-1,14.615
2924,-4,-1,0,-9,-2,-1,-6,-4,14.620000000000001
2925,-4,0,0,-5,-3,2,-1,-5,14.625
2926,-5,-2,-2,-2,0,3,0,-2,14.63
2927,1,-2,-4,0,-1,3,2,-4,14.635
2928,3,0,-2,1,-2,-2,3,0,14.64
2929,3,2,-4,0,-4,-5,3,1,14.645
2930,-1,-3,-1,2,-2,-1,-2,0,14.65
2931,5,0,3,-1,3,-3,0,0,14.655000000000001
2932,4,0,-1,0,0,-6,-4,0,14.66
2933,-1,3,3,2,3,-2,-6,-3,14.665000000000001
2934,-4,0,1,1,2,0,-5,-5,14.67
2935,-6,-8,-4,-4,1,3,1,-2,14.675
2936,-4,-6,-1,-2,-1,2,2,1,14.68
2937,-1,-4,-1,-3,-1,1,0,3,14.685
2938,2,4,-2,-2,2,1,0,6,14.69
2939,-1,4,-4,2,0,-4,-3,1,14.695
2940,3,6,0,2,0,3,2,0,14.700000000000001
2941,-1,1,-1,0,-2,-1,1,-3,14.705
2942,-2,-3,3,0,0,2,2,2,14.71
2943,-1,-1,1,1,-2,2,4,0,14.715
2944,0,-3,1,1,-2,2,4,-1,14.72
2945,-3,-2,-2,1,0,-2,1,0,14.725
2946,1,-4,-2,-3,-1,-4,-1,-3,14.73
2947,-1,0,0,1,-1,-4,-4,-1,14.735
2948,-1,-2,-1,0,-3,-4,-4,1,14.74
2949,2,2,0,0,-2,-4,0,-2,14.745000000000001
2950,1,1,0,-1,-3,-5,1,-3,14.75
2951,1,1,1,-2,1,-4,0,-7,14.755
2952,1,2,-7,-1,4,2,1,-1,14.76
2953,-3,-3,-4,-1,2,5,1,1,14.765
2954,-6,-4,1,-1,1,4,-1,-1,14.77
2955,-1,-3,2,-3,1,3,-1,1,14.775
2956,-2,0,0,-7,-4,-3,-3,-4,14.780000000000001
2957,2,2,2,-2,-4,-5,-1,2,14.785
2958,-1,2,1,3,-2,-2,-3,2,14.790000000000001
2959,-3,1,1,0,0,2,-1,0,14.795
2960,-1,-1,-4,1,-2,1,-1,0,14.8
2961,-1,2,-2,-2,1,4,-4,-1,14.805
2962,-2,-1,-1,-3,-3,1,-6,-3,14.81
2963,1,-1,-2,-5,-2,-2,-2,-2,14.815
2964,2,0,1,-4,2,1,1,-1,14.82
2965,0,-6,-3,-3,-1,-1,-1,-3,14.825000000000001
2966,2,-3,-3,3,0,-2,0,-1,14.83
2967,0,0,-1,3,-2,-5,1,0,14.835
2968,0,-3,-3,6,0,-2,2,-2,14.84
2969,-3,-5,0,4,-3,0,0,-6,14.845
2970,1,1,-2,-2,-2,-1,3,-5,14.85
2971,-4,-3,-2,0,-5,1,6,1,14.855
2972,-4,-1,1,-1,-4,-4,-3,1,14.86
2973,-1,3,0,-2,-2,-4,-4,4,14.865
2974,2,3,-3,-2,3,1,-3,0,14.870000000000001
2975,2,1,3,0,2,-2,-2,-1,14.875
2976,3,-2,2,-3,-1,-3,-3,0,14.88
2977,-2,-1,-3,-3,2,3,2,3,14.885
2978,-3,-3,-3,-5,-4,0,-5,-2,14.89
2979,-1,-1,-5,-3,0,-1,-5,-1,14.895
2980,-1,-1,0,-1,1,4,-4,-3,14.9
2981,4,0,2,-2,0,4,-4,1,14.905000000000001
2982,0,0,2,-3,-1,1,4,3,14.91
2983,-1,-1,-4,3,-3,-2,5,-1,14.915000000000001
2984,-1,-1,-3,4,1,0,7,-1,14.92
2985,-1,1,2,3,2,0,7,-2,14.925
2986,-3,-1,4,-1,0,-1,-1,-3,14.93
2987,1,1,-1,-3,-2,-3,-3,-5,14.935
2988,-1,1,-5,1,1,-1,1,0,14.94
2989,0,-2,-4,-1,0,0,5,1,14.945
2990,1,-3,-1,-1,1,-2,-1,3,14.950000000000001
2991,0,-4,4,-2,2,1,-4,3,14.955
2992,-2,-1,4,-3,0,1,-2,3,14.96
2993,1,2,1,-2,-1,2,-4,-3,14.965
2994,3,-1,-1,0,-4,-1,-6,-6,14.97
2995,1,-1,0,2,-3,0,-3,2,14.975
2996,2,1,0,-3,1,0,1,2,14.98
2997,-5,-3,-4,-4,0,0,1,0,14.985
2998,-5,0,-4,-3,0,-2,6,-4,14.99
2999,-3,1,-1,2,2,1,0,-3,14.995000000000001
3000,-1,-1,-1,3,-1,-1,-1,1,15.0
3001,-2,-4,-1,2,-3,-6,-7,-1,15.005
3002,2,-3,-1,3,-4,-5,-4,-4,15.01
3003,-2,-2,2,1,-2,-4,-2,-2,15.015
3004,0,-1,2,-2,0,-4,-5,-6,15.02
3005,3,1,-7,0,0,-3,-1,-2,15.025
3006,-1,0,-3,-5,1,3,1,5,15.030000000000001
3007,0,1,0,-2,-2,2,-2,0,15.035
3008,1,-4,1,-3,-3,-3,1,0,15.040000000000001
3009,-3,-3,2,0,0,-1,-4,-4,15.045
3010,0,0,3,5,3,-1,3,-1,15.05
3011,1,2,-1,1,1,3,0,2,15.055
3012,-1,1,-2,-2,-6,2,-5,1,15.06
3013,-4,-3,0,-7,-2,0,-2,-1,15.065
3014,-2,-1,0,-2,-1,-1,1,3,15.07
3015,-3,-4,-2,2,1,-1,3,-1,15.075000000000001
3016,3,1,-7,-1,1,0,-3,-1,15.08
3017,4,5,-4,0,-1,0,2,0,15.085
3018,-2,2,-1,2,-1,2,-2,-3,15.09
3019,-5,1,2,-5,-3,-5,-1,-2,15.095
3020,-8,3,0,-2,1,-4,2,-2,15.1
3021,-3,1,1,0,-3,1,-1,-3,15.105
3022,2,-4,1,1,-1,0,-1,2,15.11
3023,-1,0,1,3,3,1,-2,1,15.115
3024,0,-5,2,2,0,-1,-1,0,15.120000000000001
3025,1,0,1,1,0,6,0,4,15.125
3026,-1,-1,0,2,1,6,-2,1,15.13
3027,-2,-2,-7,-5,-3,-1,-1,2,15.135
3028,-6,-4,-2,-5,-2,-2,-2,-2,15.14
3029,-1,1,2,-5,2,-3,1,0,15.145
3030,-2,0,-1,-5,0,-5,-1,-5,15.15
3031,1,2,-1,-2,3,4,3,-2,15.155000000000001
3032,-3,1,-2,0,2,5,5,-2,15.16
3033,0,1,-1,0,-4,-4,0,-2,15.165000000000001
3034,3,-1,1,3,-2,-5,-4,1,15.17
3035,3,-2,0,3,-4,-3,-8,-3,15.175
3036,3,-3,2,4,-1,-4,-6,-5,15.18
3037,3,-1,-1,2,0,0,2,0,15.185
3038,-1,0,-3,-6,3,-1,2,2,15.19
3039,-1,-1,-4,-5,2,0,-1,-1,15.195
3040,-1,3,-1,-5,1,-1,-2,3,15.200000000000001
3041,-3,2,1,-2,1,1,-2,1,15.205
3042,-3,3,1,0,0,0,-1,-3,15.21
3043,1,-2,-1,0,-3,2,1,-3,15.215
3044,3,-3,1,2,-3,-1,-2,-3,15.22
3045,5,-4,0,3,-1,-3,1,-1,15.225
3046,1,-2,-4,4,-2,0,5,1,15.23
3047,-4,-1,2,0,0,1,4,-2,15.235
3048,-1,0,3,-2,-2,1,-3,-4,15.24
3049,-2,-1,2,-1,-1,-1,-3,1,15.245000000000001
3050,-3,0,-2,-1,0,5,-6,-2,15.25
3051,-1,1,-6,-3,-1,-1,1,1,15.255
3052,-1,-1,-9,0,-1,-5,2,-1,15.26
3053,-3,-2,-1,2,1,-2,1,-1,15.265
3054,-2,-1,4,-1,-4,-4,-4,-3,15.27
3055,-1,-2,3,2,0,-1,0,0,15.275
3056,7,1,-2,-2,-4,-3,-2,4,15.280000000000001
3057,-2,-1,-1,-1,-3,-2,1,3,15.285
3058,-4,1,-2,-2,-3,-2,4,3,15.290000000000001
3059,-1,0,-1,-3,-2,-1,-2,0,15.295
3060,-1,-2,1,-5,0,0,0,-2,15.3
3061,-1,-2,-2,-5,2,2,2,-6,15.305
3062,2,-3,-4,-4,1,-4,0,-7,15.31
3063,1,-2,-4,1,0,-2,0,-4,15.315
3064,-2,0,-2,4,-1,6,1,4,15.32
3065,-2,-2,0,3,0,3,-3,-2,15.325000000000001
3066,-3,1,2,1,-1,1,-5,-2,15.33
3067,0,1,2,-1,-1,-2,-3,-2,15.335
3068,3,1,1,3,-1,-6,0,1,15.34
3069,4,-1,-2,0,-4,-4,-4,4,15.345
3070,0,-1,-2,0,-4,-2,-1,3,15.35
3071,-5,0,-3,-3,-2,-1,1,0,15.355
3072,-6,1,-1,-4,0,3,1,-4,15.36
3073,-3,-2,-6,-5,-1,-1,-4,-8,15.365
3074,6,1,-4,-2,1,-6,-1,-1,15.370000000000001
3075,0,-5,-2,-1,-1,-3,-6,-3,15.375
3076,3,-2,2,0,0,-2,-4,1,15.38
3077,-3,-1,3,-2,2,-2,-1,-2,15.385
3078,-1,-1,3,-5,-3,-3,0,-2,15.39
3079,-4,1,-1,-1,-2,1,0,1,15.395
3080,-7,2,-1,2,-3,2,2,-2,15.4
3081,-2,0,1,4,-1,0,0,0,15.405000000000001
3082,-5,0,-3,3,1,3,1,2,15.41
3083,3,-1,-4,0,-1,1,3,2,15.415000000000001
3084,3,-3,-7,1,-3,-1,1,0,15.42
3085,3,2,-6,0,-4,-4,-1,-4,15.425
3086,-2,1,1,0,1,1,2,-5,15.43
3087,-2,0,2,-3,-2,-3,-3,-2,15.435
3088,-2,-1,2,-7,1,-1,-5,0,15.44
3089,-2,-3,1,-4,-1,-1,-1,3,15.445
3090,-1,-2,1,-3,2,-3,-1,2,15.450000000000001
3091,3,0,3,1,0,-2,2,0,15.455
3092,4,-5,2,6,-1,-2,-1,1,15.46
3093,8,5,0,6,0,1,-4,0,15.465
3094,1,-4,-3,5,-1,3,-6,-4,15.47
3095,-6,-3,-4,-6,-2,2,-5,-1,15.475
3096,-5,0,-5,-6,-2,3,3,2,15.48
3097,-6,0,-1,-3,-2,1,2,1,15.485000000000001
3098,-7,-1,0,-2,0,0,0,1,15.49
3099,-5,-3,-1,-5,2,-6,-1,-5,15.495000000000001
3100,3,2,-1,-2,3,-2,3,-1,15.5
3101,-2,-3,-3,-1,3,1,2,2,15.505
3102,3,1,-4,-5,-1,-2,3,-1,15.51
3103,6,5,2,-2,2,-4,3,-2,15.515
3104,-1,0,-1,-3,-4,-5,-4,-9,15.52
3105,0,0,0,4,-2,1,0,-4,15.525
3106,0,-5,-1,5,-4,0,-4,0,15.530000000000001
3107,0,-1,3,3,-2,2,-6,5,15.535
3108,-6,-2,-1,0,2,4,-4,-1,15.540000000000001
3109,-5,-1,-2,0,2,0,-1,-1,15.545
3110,-1,3,0,2,2,3,3,0,15.55
3111,2,3,-4,4,0,1,3,0,15.555
3112,0,1,0,-3,-1,-4,-1,-1,15.56
3113,-3,-7,-2,0,0,-2,-5,-2,15.565
3114,-3,-8,-2,-4,-5,-6,-5,-3,15.57
3115,-2,-3,1,-1,-2,3,0,-5,15.575000000000001
3116,2,0,-1,-2,-4,-3,-4,-1,15.58
3117,0,0,0,-5,-1,-2,3,-2,15.585
3118,2,0,-5,1,1,-1,-2,1,15.59
3119,-3,-4,-1,2,-1,1,0,2,15.595
3120,-5,-3,1,1,0,4,6,-1,15.6
3121,0,0,-1,-5,-4,0,2,1,15.605
3122,0,2,1,-2,-2,-5,-2,-3,15.610000000000001
3123,2,-1,0,-4,0,-5,-5,-3,15.615
3124,3,0,0,-1,4,-4,-4,-1,15.620000000000001
3125,-4,0,2,1,1,0,-3,-4,15.625
3126,-4,-1,-1,1,0,7,0,0,15.63
3127,-4,-1,-1,-1,0,8,-1,-5,15.635
3128,1,-2,2,-1,0,0,-1,0,15.64
3129,0,-1,-2,0,-3,-3,-2,0,15.645
3130,1,-1,-4,-1,-2,-3,0,-2,15.65
3131,5,-1,0,3,-4,-5,-1,2,15.655000000000001
3132,2,-1,-5,3,4,1,0,1,15.66
3133,2,2,-3,-5,-1,-3,0,0,15.665000000000001
3134,-1,2,2,-3,-5,0,1,4,15.67
3135,0,-1,3,-3,-2,2,-1,4,15.675
3136,-4,-1,1,-1,-1,3,0,1,15.68
3137,-1,-1,0,1,-2,0,-2,-2,15.685
3138,-1,3,6,-2,1,0,1,-1,15.69
3139,1,1,1,-3,-2,-4,1,-2,15.695
3140,-2,0,1,1,-1,-4,0,-7,15.700000000000001
3141,-2,-1,-1,2,-1,1,-2,-1,15.705
3142,-2,-3,-6,-3,3,0,-3,-3,15.71
3143,-3,-3,-2,-4,2,-2,3,2,15.715
3144,-6,-4,-1,-3,-2,-4,3,5,15.72
3145,-4,-1,-4,-5,-2,-5,0,0,15.725
3146,3,2,-1,2,-3,-1,1,1,15.73
3147,2,2,-1,1,-4,0,-4,-1,15.735000000000001
3148,2,-3,-2,-3,-2,3,0,-2,15.74
3149,0,-1,-3,-4,2,-1,-3,0,15.745000000000001
3150,1,3,-2,-4,0,-4,-9,-6,15.75
3151,4,2,0,2,3,1,-8,-3,15.755
3152,3,1,-1,3,-2,-1,-5,-1,15.76
3153,0,-3,3,6,0,2,1,0,15.765
3154,-2,0,1,-1,0,-1,7,0,15.77
3155,-2,0,-1,-2,-3,-1,8,0,15.775
3156,-5,-2,0,-2,-4,-2,0,0,15.780000000000001
3157,-3,0,-3,-3,-3,-2,-2,0,15.785
3158,-1,-3,0,1,-1,2,0,-3,15.790000000000001
3159,1,0,-5,0,0,6,0,-2,15.795
3160,2,1,-2,-3,-3,0,-3,-2,15.8
3161,4,1,3,-2,-1,-3,3,-1,15.805
3162,0,0,2,1,-1,-3,-1,1,15.81
3163,-5,-2,-1,0,0,-7,0,-1,15.815
3164,-1,0,0,0,3,0,3,3,15.82
3165,-1,-1,-1,-1,1,-2,-1,3,15.825000000000001
3166,-2,-2,-2,0,-1,-1,-3,2,15.83
3167,0,1,0,2,2,2,4,0,15.835
3168,0,-2,0,-1,-1,2,-5,-3,15.84
3169,1,-2,0,-4,-3,3,-3,-5,15.845
3170,2,-3,-3,-7,-3,4,-5,-1,15.85
3171,1,1,0,-5,-4,-2,-8,0,15.855
3172,1,-1,0,-2,1,-6,-2,2,15.860000000000001
3173,-3,1,2,0,1,-3,-1,0,15.865
3174,-2,-2,0,0,-1,-5,1,-1,15.870000000000001
3175,-4,-5,-3,2,-2,-5,-1,-5,15.875
3176,-2,-1,-1,2,-1,2,-1,-3,15.88
3177,1,1,0,0,-3,-1,3,-2,15.885
3178,0,-1,-3,-1,-1,2,3,-2,15.89
3179,-2,1,-1,-1,-1,0,1,-1,15.895
3180,0,-2,-3,-2,-1,1,0,-2,15.9
3181,-3,-3,0,-2,1,-2,-2,1,15.905000000000001
3182,-4,-1,3,0,2,-1,-2,-3,15.91
3183,-1,-1,-2,-2,-1,0,-4,0,15.915000000000001
3184,1,2,-4,-1,0,-1,0,-3,15.92
3185,4,2,-2,-1,-1,-1,-4,-5,15.925
3186,-1,-1,-2,1,-2,-3,-3,3,15.93
3187,-2,-1,3,0,-2,-3,2,4,15.935
3188,-1,-3,4,-3,-6,-4,1,2,15.94
3189,-2,-3,3,-4,-3,-2,-1,-2,15.945
3190,-1,-1,2,-1,-3,-1,-1,-3,15.950000000000001
3191,1,2,-7,0,0,0,0,-2,15.955
3192,-8,2,-8,0,0,-1,-1,-3,15.96
3193,-4,-1,-1,0,0,-1,1,-4,15.965
3194,-2,-3,-3,-1,-1,-1,0,0,15.97
3195,4,-4,0,2,0,-2,2,4,15.975
3196,3,-3,-4,0,-1,-4,-2,2,15.98
3197,4,0,-2,-2,0,1,-2,2,15.985000000000001
3198,1,0,1,-4,0,4,0,-5,15.99
3199,0,-2,2,-4,0,3,-3,-6,15.995000000000001
3200,-2,2,3,0,1,4,-1,-3,16.0
3201,-6,1,2,4,1,0,-1,0,16.005
3202,-2,3,-4,4,0,-2,2,3,16.01
3203,-3,0,-2,3,1,-2,-4,-1,16.015
3204,-1,-1,1,2,-2,-1,-5,1,16.02
3205,-2,-5,-3,0,-1,-3,-3,0,16.025
3206,4,-3,4,-2,1,0,3,0,16.03
3207,3,-2,-1,-2,0,0,5,-1,16.035
3208,0,-3,0,-1,-1,2,-1,1,16.04
3209,-4,-2,-3,-1,-1,4,0,0,16.045
3210,-1,2,-7,-4,-7,-4,-6,-3,16.05
3211,-2,0,-2,-5,-2,-4,-1,-3,16.055
3212,-1,-3,-1,-3,2,-3,0,3,16.06
3213,1,-2,-3,-1,0,-5,-3,2,16.065
3214,0,-1,-4,-2,1,0,-6,0,16.07
3215,-1,1,-3,1,3,-3,1,-2,16.075
3216,-5,0,-2,1,-1,-5,2,-10,16.080000000000002
3217,-3,-2,4,4,3,5,6,-4,16.085
3218,-6,0,5,2,-2,-1,-1,-7,16.09
3219,-1,2,-2,1,-5,-3,-4,0,16.095
3220,4,1,-1,-2,-4,0,-3,3,16.1
3221,2,-2,-2,-1,-4,0,-2,7,16.105
3222,-3,-2,0,-3,-4,0,-2,4,16.11
3223,-6,-3,2,-2,-2,0,-1,-2,16.115000000000002
3224,-5,0,4,-1,-2,-4,1,0,16.12
3225,-1,1,-1,1,-3,-3,-2,-1,16.125
3226,4,-3,0,4,-1,-1,-1,6,16.13
3227,2,3,0,2,0,0,-3,4,16.135
3228,2,2,-2,1,2,2,-3,0,16.14
3229,1,0,-1,0,0,2,2,-1,16.145
3230,2,-2,0,0,2,5,2,-8,16.15
3231,-4,-6,-2,-4,-3,2,-4,-9,16.155
3232,0,0,-2,-6,1,-1,1,-5,16.16
3233,0,2,-3,-5,0,-4,1,3,16.165
3234,-5,0,-3,-3,0,-5,4,5,16.17
3235,-2,2,-3,1,-2,-3,2,-1,16.175
3236,-2,-2,-2,0,2,1,2,-3,16.18
3237,-1,-4,-1,-1,1,1,-3,1,16.185
3238,-2,-2,1,-1,1,2,-2,1,16.19
3239,1,-1,1,-1,0,-1,-2,5,16.195
3240,2,-1,-2,1,-3,-1,-1,0,16.2
3241,3,1,-2,-1,-2,-6,2,-4,16.205000000000002
3242,4,1,1,2,-1,-1,2,-1,16.21
3243,-2,-1,-1,-2,-4,0,-1,-1,16.215
3244,-2,0,-4,-5,-3,-2,0,2,16.22
3245,-4,0,-3,-1,-2,-1,-2,-2,16.225
3246,-6,0,0,1,0,-4,-1,-1,16.23
3247,-4,0,2,2,3,-1,-1,-3,16.235
3248,3,-2,3,2,1,4,-2,3,16.240000000000002
3249,2,-4,-1,-1,-1,4,-1,3,16.245
3250,-3,-7,-2,3,0,0,-2,-2,16.25
3251,1,-1,3,2,1,3,-2,-4,16.255
3252,-2,1,-1,-2,-2,-3,-3,-10,16.26
3253,-1,3,0,-4,-1,-4,-6,-6,16.265
3254,1,4,2,-3,-1,-4,-2,0,16.27
3255,0,-1,-6,-2,-3,-4,1,4,16.275
3256,1,-1,-4,2,0,1,6,4,16.28
3257,-6,-1,-1,-2,-4,0,5,3,16.285
3258,-3,-1,0,-4,-2,2,2,3,16.29
3259,0,-2,3,-7,-1,1,-3,1,16.295
3260,2,-3,2,-5,1,-2,-2,-1,16.3
3261,2,1,-2,3,3,1,1,-4,16.305
3262,2,-3,-4,3,-1,-4,1,-4,16.31
3263,-1,0,-1,0,0,-1,0,-1,16.315
3264,-1,2,1,3,0,0,-2,-1,16.32
3265,1,-5,3,3,-4,4,-1,-2,16.325
3266,-3,-1,-3,3,-2,0,0,-1,16.330000000000002
3267,-3,-1,-7,-5,-2,-1,-1,-1,16.335
3268,-2,-1,-2,3,0,-1,-3,-3,16.34
3269,0,1,-1,-9,-2,-1,-3,-5,16.345
3270,-2,-1,2,1,3,0,-4,-6,16.35
3271,-4,1,3,3,3,-1,1,-3,16.355
3272,-4,0,0,-4,-4,-5,1,2,16.36
3273,-6,2,-6,-6,-3,-8,-1,1,16.365000000000002
3274,2,2,-4,-11,0,-1,-4,-1,16.37
3275,1,-1,-4,2,-1,-1,-2,3,16.375
3276,-1,-3,-4,-10,-6,1,-3,1,16.38
3277,2,-1,-1,0,-2,0,0,4,16.385
3278,2,3,6,25,6,1,2,1,16.39
3279,-1,-3,-1,-14,-2,3,0,-2,16.395
3280,-1,0,5,22,1,1,0,1,16.4
3281,0,0,1,1,4,-1,1,-4,16.405
3282,-3,-2,-1,-7,1,-1,2,-3,16.41
3283,2,-5,1,4,2,-1,0,-7,16.415
3284,4,-2,-2,-4,0,-4,-5,-5,16.42
3285,3,-1,-4,-3,-4,-4,-8,-3,16.425
3286,0,0,-3,-7,-5,-1,-2,0,16.43
3287,0,0,-4,-6,-2,1,-3,2,16.435
3288,-2,-1,-3,-11,-2,3,-2,1,16.44
3289,-4,-2,1,-4,0,2,5,2,16.445
3290,-1,-1,0,7,2,1,3,-2,16.45
3291,1,2,1,3,2,-3,6,1,16.455000000000002
3292,-1,1,0,3,-2,-5,-3,-3,16.46
3293,-3,-7,1,2,1,0,-1,-4,16.465
3294,-3,-1,0,3,-3,-3,-2,-3,16.47
3295,-3,-1,-5,-16,-9,-3,-3,-4,16.475
3296,1,1,-7,-1,-1,0,3,1,16.48
3297,4,3,3,25,8,3,3,-1,16.485
3298,0,-4,-2,-11,-5,1,1,0,16.490000000000002
3299,-1,-1,3,-5,-1,0,3,-1,16.495
3300,-7,-2,1,-2,1,0,1,0,16.5
3301,-3,-1,-3,-14,-3,-4,-2,3,16.505
3302,1,2,-1,11,8,-2,-2,0,16.51
3303,2,-3,-7,-15,-8,-6,-6,1,16.515
3304,2,0,0,14,6,-1,-2,1,16.52
3305,-3,1,2,9,2,1,-7,-3,16.525
3306,-1,1,0,-4,-3,1,-3,2,16.53
3307,-3,1,3,5,1,1,-1,1,16.535
3308,-6,-2,-3,-14,-1,1,2,-5,16.54
3309,-2,2,-2,0,-2,-1,-2,-4,16.545
3310,0,-2,-3,-6,-5,-3,-2,-5,16.55
3311,4,1,-2,2,-1,-2,0,-3,16.555
3312,2,-1,-1,-7,-9,0,-1,0,16.56
3313,3,2,4,4,-1,-1,1,-1,16.565
3314,-4,-2,2,9,3,4,0,0,16.57
3315,-2,0,-4,-5,-5,-1,4,5,16.575
3316,1,2,-3,1,5,-2,1,4,16.580000000000002
3317,0,-3,-1,-8,1,-3,0,2,16.585
3318,-4,-1,-1,-9,-7,-3,3,-3,16.59
3319,-1,-2,3,14,5,-1,2,0,16.595
3320,-2,-1,0,-1,0,0,-6,-3,16.6
3321,1,-3,-5,-9,-2,1,0,1,16.605
3322,-1,0,-1,-3,2,-1,-6,-3,16.61
3323,0,-3,0,2,2,2,-4,-7,16.615000000000002
3324,1,0,2,-6,-5,-3,0,-5,16.62
3325,-4,-2,0,2,-1,-1,-5,-2,16.625
3326,0,-2,-3,-3,-3,0,-4,2,16.63
3327,1,-1,2,0,-1,0,-4,4,16.635
3328,4,1,0,5,1,-3,0,4,16.64
3329,1,2,-1,5,-1,-5,0,3,16.645
3330,3,-2,-5,-7,-5,-1,1,-2,16.65
3331,0,2,0,0,0,3,1,-4,16.655
3332,-6,-5,-2,-3,3,1,1,-2,16.66
3333,-5,-3,-7,-4,-1,2,3,2,16.665
3334,-2,-1,-4,-7,-3,-2,3,5,16.67
3335,0,-1,-3,4,-4,-1,1,1,16.675
3336,-2,1,0,3,-3,-1,-2,-2,16.68
3337,0,1,-4,-6,-7,0,-4,-8,16.685
3338,5,-2,-3,-2,1,0,-1,0,16.69
3339,-2,0,0,-2,2,-3,-3,-1,16.695
3340,-6,0,2,-3,1,-1,2,-1,16.7
3341,3,2,3,1,2,5,1,1,16.705000000000002
3342,1,2,0,1,0,0,-5,0,16.71
3343,1,-3,-1,5,-1,-1,0,-3,16.715
3344,1,-3,1,0,1,0,2,0,16.72
3345,-2,-1,-1,4,-1,-3,3,2,16.725
3346,-3,-2,-1,2,0,-6,1,2,16.73
3347,-5,1,1,1,3,2,4,2,16.735
3348,-5,-2,-3,-3,-3,-5,-8,-7,16.740000000000002
3349,0,-1,-1,-1,0,1,-1,-2,16.745
3350,0,-2,-1,-4,2,0,-1,-5,16.75
3351,-1,-1,1,-1,2,-1,0,-4,16.755
3352,-1,0,1,-5,-1,1,0,-2,16.76
3353,-5,-1,-1,-3,-4,-1,-2,-1,16.765
3354,-4,-2,-3,-1,-5,-1,0,3,16.77
3355,0,-3,-4,2,-4,-1,-2,0,16.775
3356,3,-1,0,2,-2,-3,-4,0,16.78
3357,4,-3,-2,-3,2,-2,-4,-4,16.785
3358,2,0,1,0,0,2,0,1,16.79
3359,1,3,-1,4,2,-3,1,1,16.795
3360,3,2,-3,-2,-4,0,0,0,16.8
3361,0,-1,1,-4,-2,-4,4,-2,16.805
3362,-1,1,0,-5,-1,-2,3,-2,16.81
3363,-5,-3,2,1,-3,4,-1,2,16.815
3364,-9,-3,-3,1,-1,-1,-2,2,16.82
3365,-8,3,-5,-1,3,1,-2,-2,16.825
3366,1,2,-4,1,4,3,1,-2,16.830000000000002
3367,1,4,-3,-1,3,-2,0,1,16.835
3368,5,1,2,1,1,1,-2,2,16.84
3369,3,-3,5,-1,-1,1,1,1,16.845
3370,-3,-3,6,-3,-2,-2,-1,-1,16.85
3371,-1,-5,2,-1,-3,0,-4,-2,16.855
3372,-1,-4,-5,0,-4,2,0,-1,16.86
3373,-1,-4,-6,-3,-4,-3,-3,-4,16.865000000000002
3374,4,0,-2,0,-4,-1,-4,-3,16.87
3375,6,0,0,2,-1,2,-1,-4,16.875
3376,-1,2,-1,2,-3,3,2,-5,16.88
3377,-4,-3,-3,0,-3,-1,2,-3,16.885
3378,-4,-1,-1,1,1,2,4,2,16.89
3379,0,0,1,-1,-1,-3,-3,3,16.895
3380,1,-2,-1,-3,3,0,-3,4,16.9
3381,8,-2,-2,-4,4,-2,-1,0,16.905
3382,-4,-5,-2,-3,3,-4,-4,-4,16.91
3383,-6,2,-2,-5,-1,-4,-1,-5,16.915
3384,-5,1,2,-4,0,-6,0,0,16.92
3385,-8,1,3,-1,-3,-5,-3,0,16.925
3386,-1,3,1,1,-2,-1,1,-1,16.93
3387,1,-1,0,-3,-3,-1,3,-1,16.935
3388,2,1,2,-1,1,5,2,-4,16.94
3389,1,-1,-2,2,2,3,-2,0,16.945
3390,-3,-1,-5,0,-3,3,-2,4,16.95
3391,-3,-2,-3,0,-2,3,0,3,16.955000000000002
3392,2,-3,0,0,-4,-5,-5,1,16.96
3393,1,-3,-1,0,-6,-5,-7,4,16.965
3394,1,-3,-3,-2,0,-7,-5,0,16.97
3395,1,-2,-2,-2,1,-1,1,-2,16.975
3396,-1,-1,0,0,4,3,5,-1,16.98
3397,-5,0,0,-1,-2,3,5,-5,16.985
3398,1,0,-2,0,0,3,4,-3,16.990000000000002
3399,-1,0,-4,-2,1,3,3,-2,16.995
3400,-3,2,0,-2,0,-3,1,-3,17.0
3401,-3,3,4,-4,-3,-3,-5,0,17.005
3402,-5,3,3,0,-1,-3,-5,1,17.01
3403,-3,-2,-3,-2,-2,-4,-4,-1,17.015
3404,2,1,-1,4,0,-1,-2,1,17.02
3405,2,2,-2,1,-1,-3,2,-2,17.025
3406,6,0,1,-4,-3,-4,0,-5,17.03
3407,1,-2,0,0,2,2,3,1,17.035
3408,-2,-2,-6,-1,-2,-1,2,-1,17.04
3409,-3,-7,0,2,-1,-1,-1,-1,17.045
3410,1,-2,-1,3,-3,1,-1,-2,17.05
3411,-2,-3,0,3,-5,-1,-4,-2,17.055
3412,0,0,1,-3,-1,3,-2,3,17.06
3413,1,1,2,-5,-3,1,-2,0,17.065
3414,0,0,-1,-1,-2,2,-1,0,17.07
3415,-1,1,0,0,-1,-1,-1,2,17.075
3416,2,-4,-2,-2,-2,0,2,1,17.080000000000002
3417,0,-5,-5,0,-1,-4,2,2,17.085
3418,-5,-3,-3,-2,-1,-4,-2,-4,17.09
3419,-2,0,-2,2,4,1,-2,0,17.095
3420,-1,-1,-4,1,4,3,1,4,17.1
3421,-1,2,3,-1,2,2,2,1,17.105
3422,1,0,2,1,2,-2,-1,-1,17.11
3423,2,0,-1,-1,-4,-6,-6,-9,17.115000000000002
3424,-2,4,0,-1,-2,-2,-1,-7,17.12
3425,0,2,0,-1,-1,1,0,1,17.125
3426,-3,-3,-2,1,-1,0,1,5,17.13
3427,2,-2,-1,0,-2,0,2,0,17.135
3428,4,-1,-3,1,-5,0,0,-5,17.14
3429,2,2,-9,1,0,-1,0,-5,17.145
3430,3,2,-5,-1,0,-1,0,-2,17.150000000000002
3431,-2,1,0,-6,0,1,-1,-2,17.155
3432,-4,-1,-1,-2,-2,-1,-4,2,17.16
3433,-3,1,3,0,1,3,-6,0,17.165
3434,-1,-3,2,0,2,-2,-4,3,17.17
3435,-2,-4,2,-3,-1,-4,-3,-2,17.175
3436,1,-4,3,-4,0,-4,0,3,17.18
3437,2,0,0,0,-1,-2,2,3,17.185
3438,-2,0,2,4,0,3,2,3,17.19
3439,-6,0,0,0,-3,0,3,0,17.195
3440,-3,-1,-2,1,-2,-1,0,-3,17.2
3441,-1,-3,-3,-2,-2,-4,1,-4,17.205000000000002
3442,-6,-2,-3,-4,-1,0,1,-2,17.21
3443,-5,-2,-1,0,-1,-1,-2,-2,17.215
3444,-4,1,0,0,1,-1,-4,-7,17.22
3445,0,2,1,1,2,0,-5,-5,17.225
3446,3,4,0,-1,1,-2,-3,1,17.23
3447,5,-1,-2,-4,1,-4,2,7,17.235
3448,1,-4,-3,-4,0,-3,1,4,17.240000000000002
3449,2,-3,-5,-5,-5,-3,4,-1,17.245
3450,2,-2,-4,-4,-5,-2,-1,-7,17.25
3451,-1,-1,-2,1,2,1,-5,-1,17.255
3452,2,0,2,3,-2,0,-2,1,17.26
3453,-2,-1,0,3,-1,2,2,3,17.265
3454,-4,-1,1,1,-2,-2,5,-2,17.27
3455,-1,1,0,-2,-1,-3,-2,-2,17.275000000000002
3456,-1,0,1,-2,0,-2,-3,-6,17.28
3457,-3,-1,-1,-2,2,1,-6,-4,17.285
3458,-3,0,2,-4,-1,-1,-1,-4,17.29
3459,-1,1,3,-2,-1,4,6,-3,17.295
3460,-4,1,2,-1,0,3,-2,3,17.3
3461,-2,0,0,2,0,1,-3,5,17.305
3462,0,0,-3,2,-2,-2,-6,3,17.31
3463,-1,-5,-3,2,-2,-6,-4,0,17.315
3464,1,-3,-9,3,-2,-1,0,-3,17.32
3465,0,0,-5,-1,-1,4,0,-3,17.325
3466,-2,-1,1,-3,-3,2,-2,-4,17.330000000000002
3467,-3,1,2,-1,-2,1,-3,0,17.335
3468,1,1,-1,0,-3,-1,-2,4,17.34
3469,2,-4,0,-2,-2,-3,1,3,17.345
3470,3,-1,1,-4,-1,-2,1,1,17.35
3471,1,-2,-2,-3,-1,-6,3,-6,17.355
3472,1,-1,-5,-3,0,-3,6,1,17.36
3473,-1,2,-1,0,-1,-5,1,-4,17.365000000000002
3474,0,3,1,1,4,3,0,-1,17.37
3475,0,3,-1,-2,0,3,-3,1,17.375
3476,1,-1,-2,-1,1,1,-7,-1,17.38
3477,-1,-2,0,1,-1,-2,-6,-3,17.385
3478,0,-3,-2,0,-2,2,-5,-2,17.39
3479,-2,-3,0,1,-1,2,-2,0,17.395
3480,-1,-1,2,-1,-1,-1,2,-2,17.400000000000002
3481,-4,0,4,-2,-1,-1,3,-1,17.405
3482,-3,0,-1,-3,-2,-6,0,0,17.41
3483,0,3,-1,1,-1,-3,-3,3,17.415
3484,-5,-1,-5,-4,-3,-6,-3,-3,17.42
3485,0,0,-5,-3,1,1,-2,4,17.425
3486,-2,-1,-1,-3,-2,-3,-3,4,17.43
3487,0,-4,1,-4,-3,3,1,2,17.435
3488,-1,-5,1,0,-2,-2,-2,1,17.44
3489,0,-5,1,0,-3,-2,1,-4,17.445
3490,1,-2,-2,0,2,-1,5,-1,17.45
3491,4,3,0,3,-2,-3,-1,2,17.455000000000002
3492,2,2,-2,1,-3,0,1,-1,17.46
3493,-1,0,-2,1,-1,3,6,-1,17.465
3494,-4,-1,-2,0,2,0,3,0,17.47
3495,-9,0,0,1,3,-2,-2,-6,17.475
3496,-8,0,1,-1,0,-4,-5,-4,17.48
3497,-3,-3,-1,1,-2,-3,0,0,17.485
3498,1,-6,-2,1,-3,0,-3,-1,17.490000000000002
3499,0,-5,-3,-2,-1,2,-1,-3,17.495
3500,-2,-2,0,-2,2,4,-3,-4,17.5
3501,0,0,0,-3,-1,0,0,1,17.505
3502,2,1,2,-1,0,0,0,1,17.51
3503,-1,1,-2,-3,0,-1,0,5,17.515
3504,-3,-1,-1,-4,0,0,1,-3,17.52
3505,-2,2,3,-4,-4,-1,-1,-2,17.525000000000002
3506,1,0,3,3,-4,0,-2,-1,17.53
3507,-1,-2,2,1,-5,-2,-2,-3,17.535
3508,-1,1,-2,3,-4,0,-5,-2,17.54
3509,1,1,-4,0,3,1,1,-3,17.545
3510,0,-2,-6,-3,2,-2,0,-3,17.55
3511,-3,-5,-5,-1,2,-1,-2,2,17.555
3512,-1,-2,-1,3,0,-2,2,5,17.56
3513,-2,-2,-3,1,0,1,-4,2,17.565
3514,-1,-1,-4,-3,-4,-2,-3,-1,17.57
3515,2,2,-2,-2,0,-4,3,0,17.575
3516,1,2,3,-3,-2,-3,3,-1,17.580000000000002
3517,2,2,-1,-4,-1,-4,-2,-1,17.585
3518,-1,0,1,-3,2,-1,-3,-1,17.59
3519,-1,0,-1,-1,-3,1,-1,-1,17.595
3520,0,-1,0,-1,0,6,3,3,17.6
3521,-5,-3,2,-2,-2,-2,1,-4,17.605
3522,-7,-4,1,3,-2,1,0,-3,17.61
3523,0,0,2,2,1,-3,-1,-5,17.615000000000002
3524,5,0,1,-1,-1,-2,-1,-2,17.62
3525,1,-1,-1,-3,-1,1,-4,-1,17.625
3526,2,-2,-5,0,1,2,-2,-1,17.63
3527,-4,-3,-5,2,0,0,-2,1,17.635
3528,3,-2,-5,4,-3,-2,2,4,17.64
3529,2,1,-1,3,-1,-2,2,3,17.645
3530,0,1,1,1,-1,-2,-2,2,17.650000000000002
3531,-2,0,-1,-3,1,-3,0,2,17.655
3532,-1,0,-1,0,2,-2,-3,1,17.66
3533,-2,0,0,-4,-2,-2,-3,2,17.665
3534,-6,-1,-4,-3,-5,0,-5,-5,17.67
3535,-1,0,-2,0,-4,3,-4,-4,17.675
3536,1,-3,-1,-3,-1,0,4,-2,17.68
3537,-3,-4,1,2,-2,-3,-1,-5,17.685
3538,-1,1,3,0,0,-5,-1,-3,17.69
3539,2,-3,0,1,0,-3,4,-1,17.695
3540,-5,-4,-4,-2,-1,1,-2,-5,17.7
3541,0,-3,-1,-1,-3,2,-4,-2,17.705000000000002
3542,4,3,2,-4,-1,0,0,5,17.71
3543,2,1,2,-1,1,0,0,0,17.715
3544,-1,3,-2,-3,1,-6,-4,0,17.72
3545,0,1,-5,-1,0,0,2,4,17.725
3546,-1,-3,-2,2,-1,1,4,2,17.73
3547,-3,-2,-2,0,-2,-1,5,-1,17.735
3548,-2,-1,-2,3,-1,2,2,-4,17.740000000000002
3549,-1,2,0,2,3,2,-4,-2,17.745
3550,1,1,-1,2,-3,-2,-1,-3,17.75
3551,0,-2,-1,-4,-3,0,-2,0,17.755
3552,-1,-3,1,-2,-5,-4,-2,-4,17.76
3553,0,-3,-1,0,1,-4,0,0,17.765
3554,-4,-3,0,1,-2,-3,-4,-1,17.77
3555,1,-2,-1,1,-3,-1,-3,-4,17.775000000000002
3556,3,2,-4,-2,-1,0,-2,1,17.78
3557,2,2,-3,-4,2,0,1,-1,17.785
3558,4,-1,-4,-4,0,-3,2,2,17.79
3559,-1,0,-3,-1,-1,0,-1,2,17.795
3560,-1,3,5,1,0,3,0,0,17.8
3561,-3,-2,0,1,-3,-2,2,-3,17.805
3562,-5,-2,-2,1,-1,0,-3,-6,17.81
3563,-3,-3,-5,0,-4,1,-6,-4,17.815
3564,-2,-3,0,-1,-2,0,-2,-1,17.82
