slno,emg1,emg2,emg3,emg4,emg5,emg6,emg7,emg8,Time
0,-1,3,3,3,1,-3,0,-4,0.0
1,-18,-11,-7,-8,-5,-2,-3,1,0.005
2,3,2,1,11,0,0,-1,-1,0.01
3,1,1,1,-14,-2,-1,-1,-1,0.015
4,-17,-7,0,5,-1,-1,-6,-4,0.02
5,14,3,1,-1,2,2,5,1,0.025
6,2,1,-2,-15,-4,-3,6,5,0.03
7,2,-4,-3,3,-3,-2,-1,-2,0.035
8,2,-1,-4,2,1,2,0,5,0.04
9,-1,-1,1,6,-1,-1,-4,-4,0.045
10,-5,-4,1,-9,-4,-5,-6,-8,0.05
11,-4,0,-8,-7,-2,-2,2,2,0.055
12,1,0,-2,-9,-2,0,-1,-3,0.06
13,-5,-1,-4,6,-1,-1,0,0,0.065
14,2,0,1,-1,0,2,0,2,0.07
15,9,0,-4,-2,-4,-3,-3,-3,0.075
16,-12,-4,3,-2,1,1,1,0,0.08
17,1,-2,-4,-11,-4,0,0,1,0.085
18,-1,1,0,-4,-2,0,-2,-5,0.09
19,3,2,2,-1,2,-1,0,7,0.095
20,6,0,-1,11,-1,-1,-1,1,0.1
21,-6,0,9,6,3,-1,3,-2,0.105
22,3,2,-1,-7,2,2,15,10,0.11
23,-2,-5,-7,0,-3,-2,-5,-4,0.115
24,-9,-3,-1,-5,-4,-2,1,0,0.12
25,11,3,0,1,1,1,2,-2,0.125
26,-3,-3,-3,6,-3,-2,-4,-4,0.13
27,-10,-3,-4,-3,-2,-1,2,2,0.135
28,19,6,4,-1,0,-2,-4,-2,0.14
29,-18,-8,-7,12,-7,-5,-2,-6,0.145
30,0,-1,0,-9,-4,-4,-5,-4,0.15
31,5,3,3,3,1,-1,0,2,0.155
32,-4,-2,2,11,3,-1,-2,0,0.16
33,1,-2,-5,-39,-6,-2,-1,2,0.165
34,-6,0,0,8,3,2,-1,-3,0.17
35,6,3,2,-18,-1,-1,-1,0,0.17500000000000002
36,-20,-6,-4,18,1,-1,-1,-6,0.18
37,2,1,-1,3,2,1,2,7,0.185
38,10,0,-5,-10,-5,-4,-7,-3,0.19
39,12,1,3,15,3,2,5,0,0.195
40,2,0,-1,-9,-5,-1,-1,1,0.2
41,-3,-2,-1,-3,-1,-1,-3,-6,0.20500000000000002
42,-9,-5,1,1,2,2,2,1,0.21
43,-6,-3,-2,-6,-4,-4,-10,-2,0.215
44,22,5,-3,8,0,-1,9,5,0.22
45,-23,-7,-3,0,-2,-3,-5,-6,0.225
46,2,0,0,8,2,-1,4,2,0.23
47,4,0,-2,-1,0,-1,-3,-2,0.23500000000000001
48,-12,-7,-4,-4,0,-1,-1,4,0.24
49,9,3,8,-4,0,-1,-1,-3,0.245
50,0,1,-4,-5,2,0,-2,-5,0.25
51,-4,-3,-2,-5,-4,-3,1,-2,0.255
52,-10,-1,4,-6,2,1,-4,-5,0.26
53,10,3,4,21,2,0,1,3,0.265
54,8,0,-2,-16,-6,0,-1,10,0.27
55,-1,1,-3,-9,0,-1,2,-2,0.275
56,-2,-3,-5,-8,-3,-3,-3,-1,0.28
57,4,3,4,12,1,-1,-2,-1,0.28500000000000003
58,5,6,10,19,0,0,-2,-1,0.29
59,-5,-4,-6,3,2,3,2,-2,0.295
60,4,2,5,-2,-1,0,-1,-1,0.3
61,-19,-6,-7,-16,-1,-1,2,9,0.305
62,3,-2,-7,-4,-2,-2,-2,-3,0.31
63,-6,0,6,13,-1,-2,-2,0,0.315
64,-1,-2,-6,-6,1,0,-1,-3,0.32
65,6,1,4,1,0,0,-1,-1,0.325
66,-6,-3,-1,-3,-1,0,2,0,0.33
67,-1,-2,-1,4,-2,0,0,0,0.335
68,-4,-3,3,1,2,0,-1,0,0.34
69,3,-1,-4,-2,-3,-2,-2,-2,0.34500000000000003
70,-7,-2,-1,1,-1,0,-2,-6,0.35000000000000003
71,0,-1,7,4,1,0,1,6,0.355
72,4,2,-6,-6,-3,1,-2,-3,0.36
73,-1,0,-2,-2,1,1,1,1,0.365
74,-4,-9,-10,-9,-2,-2,-1,-3,0.37
75,-18,-4,-3,-14,-4,-1,-2,-2,0.375
76,1,5,3,1,-1,0,3,-4,0.38
77,-2,-2,-5,-5,-1,-1,1,-2,0.385
78,2,3,7,2,1,-1,-2,3,0.39
79,4,-1,-4,-1,-2,-3,-2,-4,0.395
80,-9,-3,7,10,3,1,1,0,0.4
81,7,0,-2,0,0,-1,-1,-1,0.405
82,-2,-3,-8,1,1,2,1,-3,0.41000000000000003
83,7,2,-2,-2,-2,-3,-3,0,0.41500000000000004
84,-15,-7,-5,-8,0,0,0,-4,0.42
85,8,4,2,6,-1,0,-3,1,0.425
86,-4,-1,-1,-3,-4,-3,-8,-4,0.43
87,1,1,3,3,0,2,3,1,0.435
88,11,2,-5,0,1,2,2,5,0.44
89,-11,-3,-5,-7,-2,0,0,-5,0.445
90,2,1,11,0,-2,-2,-1,1,0.45
91,-6,-4,-5,11,3,1,0,-2,0.455
92,6,-2,-5,-2,-6,-5,-4,-1,0.46
93,1,2,3,-1,-1,0,1,-1,0.465
94,-4,-2,-2,-4,-4,-3,-4,-1,0.47000000000000003
95,0,2,4,2,0,0,4,-1,0.47500000000000003
96,7,3,2,0,-1,-1,0,4,0.48
97,-19,-10,-14,-10,-6,-5,-3,-10,0.485
98,-3,0,-1,10,3,1,3,2,0.49
99,9,5,2,-15,-3,-1,-3,12,0.495
100,-2,0,2,0,-1,-1,-14,-5,0.5
101,4,-1,0,10,4,4,15,4,0.505
102,7,4,1,7,0,-1,18,18,0.51
103,-4,-3,-2,-20,-4,-5,-17,-11,0.515
104,1,1,-1,8,0,-2,21,8,0.52
105,4,0,-3,-9,-1,1,-9,1,0.525
106,6,-1,-1,2,2,-2,-7,-10,0.53
107,-16,-6,1,5,-2,1,7,-2,0.535
108,0,-1,-1,-7,-7,-8,-14,-6,0.54
109,6,1,-2,2,-1,-3,-5,-5,0.545
110,-13,-5,-6,2,-3,-1,0,-8,0.55
111,20,3,-2,-5,-1,-1,-6,2,0.555
112,2,1,7,4,-1,1,1,-3,0.56
113,-5,-4,-7,-6,-4,-4,-1,1,0.5650000000000001
114,0,3,5,-5,-1,0,-2,0,0.5700000000000001
115,-3,-1,-4,13,-2,-2,-1,1,0.5750000000000001
116,-11,-5,-1,-4,1,-2,0,-3,0.58
117,6,3,5,9,1,2,1,-1,0.585
118,-11,-8,-5,-10,0,2,7,5,0.59
119,1,3,0,4,-1,2,3,-1,0.595
120,4,2,3,-1,0,0,-2,2,0.6
121,-7,-6,1,5,-2,-4,-11,-7,0.605
122,3,2,6,5,0,-4,1,2,0.61
123,-1,1,0,-14,-2,4,2,-2,0.615
124,-2,0,-10,-20,1,7,17,8,0.62
125,1,2,10,3,0,0,-8,-4,0.625
126,-5,-3,2,13,-1,-1,5,-1,0.63
127,-2,-3,-7,8,-3,-2,6,3,0.635
128,0,-3,-5,2,-3,-4,-5,-2,0.64
129,-3,-3,4,-1,1,1,-6,-7,0.645
130,6,-2,-8,-1,-5,-6,-5,-3,0.65
131,-2,-1,0,2,2,0,-1,3,0.655
132,-7,-4,-6,2,3,2,-5,-4,0.66
133,-3,1,11,18,2,-1,2,4,0.665
134,-3,-1,-5,-26,-4,-2,-15,-6,0.67
135,1,1,6,8,3,1,4,0,0.675
136,3,1,4,-5,-4,-2,-2,0,0.68
137,-1,-3,-12,-1,-1,-3,1,2,0.685
138,3,3,6,-2,3,2,-2,-3,0.6900000000000001
139,-5,-3,-6,-2,-3,-2,-2,-4,0.6950000000000001
140,0,0,-1,-4,-2,-1,-7,-4,0.7000000000000001
141,1,1,4,3,-3,-3,1,5,0.705
142,2,-2,-10,-14,-7,-4,5,-5,0.71
143,-2,-2,0,-2,3,0,-5,2,0.715
144,-2,1,0,11,-1,2,-2,2,0.72
145,-3,-1,-8,-12,-1,-3,8,9,0.725
146,2,0,-3,3,0,0,9,3,0.73
147,-4,2,11,4,0,-2,-4,-10,0.735
148,2,-5,-7,-2,-1,-3,-2,5,0.74
149,-3,-2,-5,-11,-5,0,1,-3,0.745
150,3,0,1,13,0,-1,-10,-3,0.75
151,-4,0,-4,-6,-1,1,9,4,0.755
152,-1,-3,3,6,3,-2,-4,-4,0.76
153,0,1,-2,-10,-1,2,5,1,0.765
154,-1,1,1,2,-2,1,-5,-1,0.77
155,4,-3,-7,3,0,-1,-2,-2,0.775
156,-3,-2,-4,-3,-3,-4,-5,-5,0.78
157,5,1,2,-1,3,2,0,2,0.785
158,0,3,7,2,1,0,-1,0,0.79
159,-1,-5,-9,-4,-1,0,4,-1,0.795
160,-1,0,-4,-5,-2,-1,3,-1,0.8
161,0,-1,-4,-12,-2,-4,-6,-3,0.805
162,-12,-5,3,4,-4,-3,-14,-4,0.81
163,-2,0,-1,3,1,2,6,-1,0.8150000000000001
164,2,2,0,-6,-4,0,11,5,0.8200000000000001
165,5,-2,-7,2,0,0,0,-4,0.8250000000000001
166,-3,-3,2,-13,-1,-1,-1,6,0.8300000000000001
167,4,1,-2,0,0,-2,-7,-1,0.835
168,-5,-3,3,19,2,1,-3,-1,0.84
169,1,2,4,-7,-3,-1,-2,0,0.845
170,2,-1,0,3,-1,2,2,-2,0.85
171,0,0,3,-9,-2,-2,-8,2,0.855
172,7,2,-1,10,2,1,-4,-1,0.86
173,-8,-1,1,-5,1,0,8,-1,0.865
174,0,1,0,7,2,3,-4,-1,0.87
175,0,2,0,0,-1,-1,3,0,0.875
176,-2,2,7,1,4,4,5,2,0.88
177,0,0,-1,4,0,-6,-15,-5,0.885
178,-1,-1,-1,0,3,1,9,-1,0.89
179,-2,-4,-5,-5,-4,0,14,1,0.895
180,0,0,-2,-9,-3,-4,-7,-6,0.9
181,0,1,5,10,-2,2,0,1,0.905
182,2,-1,-2,-2,0,1,2,-1,0.91
183,-9,-4,-1,0,-1,-2,-4,-1,0.915
184,-2,-3,-3,-13,-3,-1,2,-3,0.92
185,2,0,2,1,1,2,-3,2,0.925
186,-4,1,2,-1,-1,-1,-2,-3,0.93
187,4,-1,-3,-2,0,-2,-6,1,0.935
188,-3,-3,-3,-4,-2,-2,-3,0,0.9400000000000001
189,-3,-1,-2,1,-1,-1,-1,2,0.9450000000000001
190,-4,-1,3,2,1,-2,-11,-6,0.9500000000000001
191,-1,-1,2,1,-1,1,9,5,0.9550000000000001
192,-3,-4,-10,-10,-3,-2,-5,-4,0.96
193,3,-3,0,10,2,-1,-2,-1,0.965
194,-1,-1,-2,-8,-3,0,6,0,0.97
195,-1,-1,-3,-5,-2,-4,-10,-6,0.975
196,0,-2,3,0,-2,-2,0,0,0.98
197,2,0,0,4,1,2,5,-1,0.985
198,-1,-3,-10,-2,-3,-2,-3,2,0.99
199,-1,0,3,2,-1,-2,-5,-3,0.995
200,1,-2,-4,-2,1,1,2,0,1.0
201,-4,-5,-10,-4,-8,-4,-5,-4,1.0050000000000001
202,0,2,-3,-1,0,1,1,1,1.01
203,0,-2,-5,1,-2,-1,0,-4,1.0150000000000001
204,-4,0,2,-4,-2,-2,-4,-3,1.02
205,-10,-1,6,-1,-2,-3,-10,-1,1.025
206,-1,-1,-2,1,0,1,19,3,1.03
207,-1,0,3,3,0,2,1,2,1.035
208,1,0,1,1,2,1,-2,1,1.04
209,0,0,0,-3,-1,1,-4,-7,1.045
210,4,1,1,1,1,-1,2,5,1.05
211,-1,-2,4,0,0,-2,-7,1,1.055
212,1,2,1,8,-2,0,4,-1,1.06
213,-1,-3,-11,-12,0,1,-3,-2,1.065
214,-4,-3,-1,4,-3,-4,-7,-6,1.07
215,1,-1,-2,-3,1,-2,-1,-2,1.075
216,-6,-3,-5,3,0,1,3,2,1.08
217,1,2,2,-4,-3,-2,2,0,1.085
218,-3,-4,-8,-5,0,-2,-4,-1,1.09
219,2,2,3,4,-1,-1,-2,-2,1.095
220,-5,0,6,0,2,1,-3,-4,1.1
221,0,-2,-8,-3,-3,-3,-3,-4,1.105
222,-9,-3,-5,-1,-3,-3,-4,-1,1.11
223,1,0,-1,-1,-2,2,12,3,1.115
224,0,-1,-5,-6,-1,-1,-1,1,1.12
225,5,-1,0,3,5,2,6,2,1.125
226,0,0,3,1,-1,-1,-9,-5,1.1300000000000001
227,-1,0,-5,-3,-1,-1,-5,-5,1.135
228,-2,1,1,0,-4,-4,-2,0,1.1400000000000001
229,-9,-6,1,4,1,0,1,1,1.145
230,5,0,1,-1,-4,0,-6,-3,1.1500000000000001
231,-1,-4,-8,-6,-2,-3,-9,-7,1.155
232,6,-1,-3,0,0,0,4,3,1.16
233,2,2,3,2,0,0,-2,0,1.165
234,0,0,1,3,2,2,4,2,1.17
235,-1,1,4,-4,-2,-3,-5,-2,1.175
236,-2,-1,-2,1,2,-1,-6,-3,1.18
237,-2,-2,-8,-8,-1,0,12,1,1.185
238,-4,-2,3,-2,2,3,10,4,1.19
239,-5,0,3,1,-1,-2,-9,-6,1.195
240,2,1,-1,-1,-3,-3,-7,-4,1.2
241,0,0,4,-1,1,-1,-2,0,1.205
242,0,-1,-1,0,-1,-2,4,-4,1.21
243,4,0,-3,-2,-2,0,-1,3,1.215
244,-5,-3,4,-2,-1,-1,-1,2,1.22
245,3,3,7,1,1,0,-1,-1,1.225
246,-4,-3,-7,-3,-4,-4,-8,-5,1.23
247,1,-1,0,2,-1,2,-1,1,1.235
248,1,-1,-1,2,-1,0,2,0,1.24
249,-1,0,-2,1,2,1,1,1,1.245
250,4,2,0,-4,0,-1,-4,0,1.25
251,-2,-4,-3,3,2,0,0,-2,1.2550000000000001
252,-1,0,2,-1,0,1,1,-1,1.26
253,0,-1,-1,0,-2,-3,0,1,1.2650000000000001
254,-3,1,2,-1,2,2,-3,-4,1.27
255,-9,-9,-16,-5,1,-2,0,0,1.2750000000000001
256,3,3,3,1,0,2,1,-2,1.28
257,1,-3,-1,1,-2,-3,0,1,1.285
258,0,0,-8,-8,-1,0,4,0,1.29
259,9,3,12,5,0,-1,0,-3,1.295
260,-3,-6,-8,0,-3,-5,-4,-1,1.3
261,-8,0,1,-3,-3,-1,-3,-6,1.305
262,4,2,0,4,1,2,2,5,1.31
263,-1,0,2,-5,0,-1,0,-1,1.315
264,1,1,4,0,-1,0,6,-1,1.32
265,2,0,-5,-4,-1,1,-2,-1,1.325
266,-1,-2,-2,-2,-3,-2,-8,-2,1.33
267,1,2,-1,-2,-3,1,10,5,1.335
268,-3,-2,0,-2,-1,-2,4,0,1.34
269,7,0,1,3,0,0,-1,0,1.345
270,-13,-4,0,-1,-2,-1,-3,-3,1.35
271,-1,1,4,1,0,0,-2,-2,1.355
272,1,-2,-4,-1,0,1,-6,-1,1.36
273,-5,-3,2,6,2,2,2,-1,1.365
274,8,1,-4,-2,-3,-2,0,0,1.37
275,0,3,11,-1,-2,-3,-1,-1,1.375
276,-6,-4,-8,1,3,2,1,1,1.3800000000000001
277,5,3,-2,-1,0,-1,-3,0,1.385
278,1,1,4,1,0,0,0,1,1.3900000000000001
279,-4,-1,-2,1,0,-3,-6,-5,1.395
280,3,0,-2,-1,-3,-3,-3,2,1.4000000000000001
281,-1,-1,-4,-6,-3,0,10,3,1.405
282,-9,-6,-2,-4,0,0,0,-5,1.41
283,7,0,-2,2,2,1,1,5,1.415
284,-9,-6,-4,-4,-4,-6,-7,-6,1.42
285,-9,-6,-5,-2,-3,-3,-3,2,1.425
286,5,1,-1,-1,-1,-1,-8,-4,1.43
287,0,-3,-6,0,-1,-2,1,-3,1.435
288,3,5,4,-1,-2,-2,-3,-2,1.44
289,1,-1,3,-1,-1,-3,-3,-1,1.445
290,-3,-2,-1,-2,-1,2,1,-1,1.45
291,-2,-2,-5,-4,-2,-1,-4,0,1.455
292,4,2,2,1,1,-1,3,1,1.46
293,-2,0,-1,2,0,1,-1,1,1.465
294,0,-3,-3,-2,0,-1,-3,-3,1.47
295,4,1,-3,-1,-2,0,0,0,1.475
296,-9,-2,0,-4,2,0,2,-4,1.48
297,2,-4,-9,-1,-2,-1,-2,3,1.485
298,1,1,-1,0,-1,-2,-1,-2,1.49
299,-2,0,1,0,-1,0,2,2,1.495
300,-9,1,3,-1,-1,1,-1,-1,1.5
301,-4,-2,3,1,1,0,-2,-5,1.5050000000000001
302,6,3,-6,-5,-2,0,3,2,1.51
303,-14,-6,-4,-3,0,-1,-2,-4,1.5150000000000001
304,9,1,5,1,-2,-2,-6,0,1.52
305,-1,-1,0,-3,-1,1,2,-4,1.5250000000000001
306,6,1,2,2,-1,-1,1,3,1.53
307,-2,0,2,-2,0,0,1,-2,1.5350000000000001
308,2,-2,-5,1,-2,-1,-2,-1,1.54
309,1,1,2,0,0,0,2,-1,1.545
310,-11,-2,0,0,-1,-1,0,-4,1.55
311,11,-1,-2,1,-1,-2,-3,4,1.555
312,1,-1,-5,-6,-4,-1,0,0,1.56
313,-4,2,4,3,-2,-3,-3,1,1.565
314,0,0,-2,-4,-2,-2,-2,0,1.57
315,-4,-1,-2,-1,-1,-1,-4,-6,1.575
316,-9,-2,1,0,1,4,10,4,1.58
317,2,-1,-4,-3,0,-1,6,2,1.585
318,-1,-1,0,-1,1,-1,-3,0,1.59
319,-3,0,0,-1,-1,1,3,1,1.595
320,6,-2,-7,-5,-3,-5,-6,-3,1.6
321,-8,-3,2,2,0,2,-2,-2,1.605
322,-6,-4,-1,-1,-3,-3,-2,1,1.61
323,-4,-2,0,-1,-1,-3,-3,-4,1.615
324,11,0,-2,0,1,0,-2,2,1.62
325,-6,-2,-4,-4,-3,-3,-2,-5,1.625
326,1,-1,-1,2,-1,-1,-1,0,1.6300000000000001
327,0,-1,0,-1,-1,1,-1,0,1.635
328,-4,-3,-5,0,0,-1,-1,-1,1.6400000000000001
329,4,1,-2,-1,1,1,-2,2,1.645
330,4,-1,0,3,3,0,-12,-5,1.6500000000000001
331,5,2,-2,-1,0,2,15,4,1.655
332,-4,-5,2,0,1,3,8,6,1.6600000000000001
333,-3,-1,4,3,-3,0,-1,-3,1.665
334,1,1,-4,-4,-2,-3,2,1,1.67
335,0,-1,-2,1,0,-1,-7,-3,1.675
336,0,0,2,2,1,0,-3,-4,1.68
337,3,-1,-4,-6,0,-2,-1,1,1.685
338,1,-1,-1,-1,0,0,2,-2,1.69
339,-8,-3,-1,2,-2,-1,-1,-3,1.695
340,5,2,-4,-4,0,-2,-4,1,1.7
341,-3,-1,2,-2,-1,-3,-5,-5,1.705
342,1,-3,-2,2,0,0,8,2,1.71
343,6,3,0,-4,0,-1,-4,-1,1.715
344,-16,-2,1,2,-3,-2,0,-2,1.72
345,7,2,-2,-5,-2,0,-1,1,1.725
346,4,0,3,5,0,-1,-2,1,1.73
347,-13,-6,-1,-2,-1,1,0,-1,1.735
348,1,-3,-3,0,-3,0,0,-6,1.74
349,4,3,0,4,4,1,3,4,1.745
350,0,1,0,-3,0,0,0,-1,1.75
351,3,1,2,3,0,-1,-3,-1,1.7550000000000001
352,2,2,1,-2,0,-2,-3,1,1.76
353,-9,-5,-3,3,-1,-1,-2,-3,1.7650000000000001
354,1,-1,-3,-5,-3,0,1,3,1.77
355,4,1,-1,0,-1,-2,5,0,1.7750000000000001
356,-1,-2,-2,-5,-1,-1,-3,0,1.78
357,-1,-2,-2,3,-1,-1,0,-4,1.7850000000000001
358,-6,0,5,5,3,-1,-2,0,1.79
359,-5,-4,-1,-3,-3,-2,-3,1,1.795
360,1,0,1,-4,-1,0,3,0,1.8
361,-7,-1,0,-1,-2,-2,-4,-3,1.805
362,-2,2,-1,-2,-2,-1,-1,-3,1.81
363,-2,-2,-2,-1,-1,-2,1,-1,1.815
364,-1,1,2,1,0,-3,-8,-3,1.82
365,6,1,2,0,-1,0,7,3,1.825
366,-11,-6,-7,-8,-3,1,1,-2,1.83
367,0,2,-1,3,-2,-1,-2,0,1.835
368,-1,3,7,4,0,-1,-8,-3,1.84
369,13,0,-2,-5,-4,-2,6,5,1.845
370,7,3,3,0,0,0,4,6,1.85
371,-9,-6,-2,-2,1,0,-2,-2,1.855
372,-1,0,-1,3,0,0,0,-2,1.86
373,-5,-3,-8,-5,-1,-2,-10,-8,1.865
374,-1,-1,2,1,-2,-4,0,-1,1.87
375,6,5,0,-6,-2,-1,-3,0,1.875
376,-8,-4,-1,0,-1,0,3,2,1.8800000000000001
377,-15,-4,-2,-4,-1,0,-1,-2,1.885
378,-1,-1,1,2,1,1,-2,-6,1.8900000000000001
379,0,0,-5,0,-2,-1,-3,4,1.895
380,4,-1,-5,-9,-4,-2,2,-2,1.9000000000000001
381,9,3,7,3,0,-2,-3,0,1.905
382,-13,-3,-1,2,0,-3,0,-1,1.9100000000000001
383,-6,-3,1,-1,0,-2,-3,-4,1.915
384,5,2,-3,-7,-1,1,4,3,1.92
385,0,-1,-2,-2,0,0,0,0,1.925
386,5,0,-4,-1,-2,-1,-2,-2,1.93
387,0,-2,-3,2,0,2,1,1,1.935
388,0,-1,-5,0,0,-2,1,-3,1.94
389,-8,-1,4,2,1,1,-6,2,1.945
390,-1,-1,1,-6,-3,-1,-1,-1,1.95
391,3,2,2,0,-2,-1,0,-2,1.955
392,-6,-4,-5,0,-3,-1,-5,-2,1.96
393,6,2,-2,0,-1,0,7,1,1.965
394,1,-1,-5,-1,-2,0,-1,-1,1.97
395,-1,-1,-1,-3,0,-2,-1,-1,1.975
396,-2,0,-2,0,-1,-3,-3,-4,1.98
397,-2,-1,4,1,-1,-2,-1,2,1.985
398,-4,-3,-9,-4,-3,1,-2,-1,1.99
399,12,1,1,1,0,0,-1,0,1.995
400,-25,-11,-7,0,0,-1,0,-2,2.0
401,2,-2,-4,-6,-3,-2,-3,-4,2.005
402,4,0,2,-1,0,-1,0,1,2.0100000000000002
403,-2,-1,-1,1,-1,-2,-3,-3,2.015
404,14,3,3,7,3,2,3,2,2.02
405,-3,1,-1,-2,-1,2,-3,-2,2.025
406,-6,-2,4,4,-1,-2,-1,-2,2.0300000000000002
407,3,5,-6,1,-2,-4,-6,3,2.035
408,-4,1,2,0,-2,-1,2,-1,2.04
409,3,-1,1,0,-1,0,0,3,2.045
410,0,2,5,0,1,0,-2,-5,2.05
411,-2,-4,-8,-2,1,1,-1,0,2.055
412,5,0,1,2,0,-3,-3,-3,2.06
413,0,1,2,3,0,1,0,2,2.065
414,4,0,5,2,0,0,0,-2,2.07
415,-5,-3,-7,-4,-2,0,-2,-3,2.075
416,4,4,5,-9,1,-1,-3,-1,2.08
417,-1,-2,-2,3,4,1,2,-2,2.085
418,0,-1,-3,-5,-4,-1,-1,2,2.09
419,7,0,-2,-5,-2,0,2,-2,2.095
420,-6,-1,0,4,1,2,2,1,2.1
421,9,-2,-4,-4,-3,-4,-5,-5,2.105
422,-9,-3,1,1,-1,-1,-2,2,2.11
423,-2,0,8,2,1,1,1,1,2.115
424,9,0,0,4,-1,2,5,4,2.12
425,-5,-2,-2,-3,-2,-3,-7,-5,2.125
426,9,2,1,10,1,-1,-2,-1,2.13
427,-6,-4,-5,-7,-3,-1,-5,0,2.1350000000000002
428,-2,-1,-1,-7,0,-2,-9,-7,2.14
429,-1,-1,1,1,-4,1,10,6,2.145
430,3,0,-5,2,0,-2,-1,0,2.15
431,-4,-3,6,5,0,-1,4,-1,2.1550000000000002
432,2,1,-5,0,-2,-3,-6,-4,2.16
433,-8,0,-1,2,-1,-2,-4,-7,2.165
434,11,1,-1,-5,0,0,2,4,2.17
435,0,0,2,4,-1,0,-1,-2,2.1750000000000003
436,-17,-7,-5,-4,-2,-4,-1,-2,2.18
437,-4,-1,-4,-3,-2,-2,0,-2,2.185
438,-6,-1,-5,-4,-4,0,0,-3,2.19
439,-1,-1,4,2,2,-1,0,-2,2.195
440,8,0,1,-2,-3,-1,0,2,2.2
441,11,0,-7,-4,-1,0,2,1,2.205
442,-14,-6,-2,-4,0,-1,-4,-5,2.21
443,-1,1,-3,-2,-3,-3,-1,-3,2.215
444,3,0,0,-2,-1,1,9,5,2.22
445,0,0,3,0,-2,-1,-1,3,2.225
446,7,1,-7,-2,2,1,-3,-6,2.23
447,-3,0,6,16,-2,1,1,3,2.235
448,15,2,-1,-8,1,0,3,1,2.24
449,3,-4,-12,-18,-9,-6,-10,-5,2.245
450,-10,-1,3,-2,1,1,5,-2,2.25
451,-2,-3,-4,-4,-2,-2,-3,-4,2.255
452,-4,0,1,8,-2,-2,-3,-2,2.2600000000000002
453,11,4,2,5,2,2,-3,0,2.265
454,-8,-3,1,-2,-4,-3,-3,0,2.27
455,-2,-1,1,0,1,-3,0,-2,2.275
456,2,1,0,0,1,1,0,3,2.2800000000000002
457,-9,-3,1,-2,-2,-1,-2,-2,2.285
458,-13,-1,1,4,1,1,-2,3,2.29
459,-4,-7,-11,-6,-2,0,3,3,2.295
460,0,-2,-4,-4,-2,-1,-4,-3,2.3000000000000003
461,-6,0,7,8,3,0,2,1,2.305
462,5,1,-2,-4,-2,0,0,0,2.31
463,4,3,-1,-7,-3,-1,-1,0,2.315
464,1,-1,-2,1,1,0,-2,0,2.32
465,-7,-5,0,2,0,-1,1,-2,2.325
466,-10,-7,-5,-2,-1,0,3,-2,2.33
467,9,5,7,5,0,3,4,1,2.335
468,-3,-4,-2,5,3,2,2,-1,2.34
469,-9,-5,-11,-5,0,-2,-1,-1,2.345
470,7,2,-3,-13,-4,-2,-1,-2,2.35
471,-1,1,-4,-9,-3,0,-6,-4,2.355
472,-3,0,-1,1,0,-1,4,3,2.36
473,1,2,5,12,4,1,-4,-4,2.365
474,8,5,1,-2,-1,-3,1,-2,2.37
475,-6,-2,-2,-1,4,3,-1,4,2.375
476,-3,0,0,0,-2,-2,-3,-4,2.38
477,-1,2,4,-1,0,0,-1,-1,2.3850000000000002
478,10,5,-1,4,0,-1,-3,-1,2.39
479,-7,-2,-3,-1,-5,-1,0,-4,2.395
480,-1,-1,4,2,-1,1,1,0,2.4
481,-6,-2,-2,-4,-2,-2,-2,-2,2.4050000000000002
482,4,0,0,2,-1,-1,-1,1,2.41
483,2,2,7,0,4,0,4,4,2.415
484,-4,-5,-5,-2,-1,-2,-9,-8,2.42
485,7,1,-1,-3,-4,-1,3,0,2.4250000000000003
486,-10,-5,1,4,3,4,8,2,2.43
487,-3,-4,-3,3,-1,-3,-4,-6,2.435
488,-2,0,-4,-3,-6,-3,-1,1,2.44
489,1,2,2,7,1,0,-1,0,2.445
490,7,1,0,-7,0,-1,-2,2,2.45
491,0,-5,-5,-2,-4,-3,-1,-8,2.455
492,-16,-2,0,-1,2,1,1,8,2.46
493,3,-1,-5,2,-2,-1,2,2,2.465
494,-4,-1,-3,-1,-3,-3,-3,-2,2.47
495,5,3,4,3,1,0,0,-1,2.475
496,1,-1,-8,-9,-4,-4,-2,-4,2.48
497,-12,-2,-3,-2,2,0,0,-4,2.485
498,12,0,-1,-6,-2,0,2,2,2.49
499,-2,0,-2,-6,0,-1,-1,5,2.495
500,-8,-2,3,4,-2,-1,2,-2,2.5
501,-3,-1,-3,-3,-1,-3,-1,0,2.505
502,-3,-1,-1,3,-1,-1,-5,-6,2.5100000000000002
503,1,-2,-6,-8,-1,0,2,-1,2.515
504,10,4,5,2,1,0,-2,0,2.52
505,-10,-5,1,-5,-1,1,-1,-2,2.525
506,-4,-3,3,8,-2,-2,-3,-2,2.5300000000000002
507,0,1,1,0,-4,-1,-4,-2,2.535
508,10,2,-1,-1,3,1,-2,-2,2.54
509,-1,-1,-7,-8,-5,-3,-2,-1,2.545
510,2,-2,-1,3,3,-1,-1,0,2.5500000000000003
511,-15,-6,-3,-2,-1,0,2,-2,2.555
512,-7,-3,-3,-2,0,-2,-1,-9,2.56
513,4,1,0,-2,-1,2,1,7,2.565
514,-11,-3,-2,-2,-1,-1,1,-1,2.57
515,6,-2,-4,5,0,-2,-1,-3,2.575
516,-3,0,0,-3,-4,-3,-4,-1,2.58
517,-3,-5,-6,4,1,-2,3,1,2.585
518,6,0,-6,-4,-2,-1,-2,0,2.59
519,-12,-3,3,2,1,1,1,-2,2.595
520,0,1,-1,-2,-3,-1,-2,-4,2.6
521,-14,-5,-6,-7,-2,-3,-6,1,2.605
522,4,1,3,3,1,0,-2,-3,2.61
523,15,7,-5,-9,-4,-2,-1,3,2.615
524,-12,-4,3,2,0,0,-2,-3,2.62
525,21,4,0,0,-3,-1,-1,2,2.625
526,-9,-3,-4,0,0,0,3,-1,2.63
527,0,0,1,1,0,0,-4,0,2.6350000000000002
528,-1,0,-3,-7,-2,-1,1,0,2.64
529,6,4,5,-1,-1,-1,-1,-4,2.645
530,-14,-6,-3,-1,-3,-3,-4,-1,2.65
531,1,-1,0,3,0,-2,-1,-1,2.6550000000000002
532,11,3,0,1,-1,1,1,4,2.66
533,-20,-4,-4,-4,-5,-3,-2,-8,2.665
534,12,2,0,3,1,2,3,7,2.67
535,-1,1,1,-1,0,-2,-2,-3,2.6750000000000003
536,-3,0,5,-3,-2,-2,2,1,2.68
537,0,0,-2,7,-2,-1,0,-3,2.685
538,-15,-2,-2,-4,-1,-1,-3,-3,2.69
539,-5,-1,-2,-1,0,0,0,-2,2.695
540,7,-1,-4,1,0,-3,-2,0,2.7
541,-1,-1,3,1,1,0,0,1,2.705
542,3,1,2,0,0,-2,0,-1,2.71
543,0,-2,1,-2,0,1,-1,2,2.715
544,13,5,1,0,-2,0,-2,-3,2.72
545,-15,-4,0,-3,2,1,3,4,2.725
546,-1,-3,-6,-1,-2,-1,1,0,2.73
547,4,3,6,1,-1,-1,-3,-1,2.735
548,-6,-3,-3,-5,-3,-1,-2,-4,2.74
549,17,3,-6,-4,1,-2,3,6,2.745
550,5,3,2,-2,-3,-1,1,0,2.75
551,-1,1,8,6,3,0,3,0,2.755
552,-5,-4,-5,0,0,0,-1,1,2.7600000000000002
553,-12,-5,3,0,-3,-2,-3,-3,2.765
554,-5,-1,0,-1,0,-1,-4,-3,2.77
555,6,0,-8,-2,-2,-2,0,-1,2.775
556,1,0,0,-1,0,1,1,0,2.7800000000000002
557,7,3,0,1,1,0,-2,-3,2.785
558,4,1,-1,-2,-3,0,-2,-1,2.79
559,-9,-3,-4,0,1,1,0,1,2.795
560,3,1,2,6,1,-1,1,-1,2.8000000000000003
561,-1,-3,-2,-3,-2,0,0,-1,2.805
562,3,1,2,-1,-1,0,1,0,2.81
563,0,-5,-9,-2,-2,-2,-3,0,2.815
564,-5,-5,-1,-2,1,-1,-1,0,2.82
565,4,0,1,0,-1,-1,-2,-5,2.825
566,3,-1,-6,-3,-1,-2,-3,3,2.83
567,-4,-2,-4,-5,-3,-4,-2,-4,2.835
568,-15,-4,1,3,1,2,0,-1,2.84
569,0,-2,-4,-3,0,-3,0,-3,2.845
570,-1,1,6,6,-1,-2,1,-3,2.85
571,2,0,2,-3,-1,1,-1,1,2.855
572,6,4,-1,-4,0,-2,1,2,2.86
573,-17,-2,-2,0,1,0,0,-5,2.865
574,4,-2,-2,-2,-2,-1,0,3,2.87
575,-2,0,-2,0,-3,-3,0,0,2.875
576,-2,-1,-1,-3,-1,-1,-2,-1,2.88
577,4,-1,-2,-3,-3,-1,-2,-2,2.8850000000000002
578,-9,-4,0,3,2,2,2,-1,2.89
579,-3,-3,-5,-5,0,1,-3,-4,2.895
580,-3,-1,-5,-7,-2,-2,-1,0,2.9
581,3,0,2,-3,-1,-1,-2,1,2.9050000000000002
582,-2,-1,2,4,2,0,-1,-4,2.91
583,4,-1,4,2,1,0,2,4,2.915
584,-2,-2,-1,3,1,-1,0,-1,2.92
585,3,1,-2,-2,-2,1,0,2,2.9250000000000003
586,-8,-2,1,-4,-1,-1,-1,0,2.93
587,-2,-1,-5,-1,-1,-1,-2,-6,2.935
588,-11,-4,0,1,0,0,0,1,2.94
589,11,6,4,1,0,1,3,3,2.945
590,2,3,1,-3,-2,-2,-3,-2,2.95
591,-7,-2,1,-3,-2,0,1,-3,2.955
592,2,-2,-7,1,0,1,-1,0,2.96
593,4,2,2,2,-2,-1,0,-1,2.965
594,-3,-2,-3,-2,1,-1,-5,-2,2.97
595,1,2,5,1,-1,-4,-2,0,2.975
596,4,0,-2,-2,0,1,2,1,2.98
597,-3,-3,-2,-1,-1,-1,0,1,2.985
598,1,0,-2,-3,-2,-3,-2,0,2.99
599,4,0,-5,-5,-5,-3,-3,-2,2.995
600,8,1,3,4,1,-1,-1,-2,3.0
601,2,-2,-4,0,0,0,0,6,3.005
602,6,1,4,1,-3,-3,-4,-2,3.0100000000000002
603,-4,-3,-9,-1,-1,1,5,4,3.015
604,1,-1,-2,0,-5,-2,-1,-2,3.02
605,-1,-1,1,2,1,-1,0,-3,3.025
606,0,-1,-10,-9,0,0,-1,-3,3.0300000000000002
607,3,0,4,1,1,2,0,1,3.035
608,6,2,1,-2,0,0,-1,-2,3.04
609,-6,-2,6,4,-2,-1,-3,-2,3.045
610,0,-2,-2,2,2,3,3,-1,3.0500000000000003
611,-3,2,-1,-1,0,-1,0,-3,3.055
612,5,-1,-1,-2,0,1,-1,2,3.06
613,1,2,6,3,-1,0,-3,-3,3.065
614,15,4,-2,0,0,-2,2,-1,3.0700000000000003
615,-2,1,-3,1,0,-1,0,1,3.075
616,-2,-2,-2,1,-1,-2,-2,1,3.08
617,2,3,3,-2,0,1,1,1,3.085
618,0,1,0,3,1,2,2,1,3.09
619,-3,-4,-5,-5,-3,-1,-1,0,3.095
620,-5,1,4,0,-1,-2,-2,-2,3.1
621,-1,0,-4,-1,1,0,0,1,3.105
622,-10,-4,0,2,2,1,1,-1,3.11
623,1,0,1,-4,-1,-2,-3,-3,3.115
624,-5,1,1,-4,-2,0,1,2,3.12
625,-7,-6,-6,3,0,-3,-2,-4,3.125
626,-5,-4,-2,-5,-2,-2,-4,-2,3.13
627,13,0,0,0,-1,-3,0,0,3.1350000000000002
628,-20,-7,-1,0,-1,-2,0,-2,3.14
629,-2,-1,-3,-5,-1,-2,-1,-2,3.145
630,-4,-2,-4,-2,-2,-2,1,-2,3.15
631,-1,-2,-3,-1,1,0,0,0,3.1550000000000002
632,2,4,0,-3,-2,-2,-1,-1,3.16
633,-3,0,-1,-2,3,2,-1,-1,3.165
634,-6,1,5,4,0,1,0,1,3.17
635,-2,1,-5,-2,-1,-1,-4,-4,3.1750000000000003
636,3,-2,-1,1,-1,-2,1,0,3.18
637,-2,-1,-6,-2,-2,-1,0,1,3.185
638,5,1,-3,-3,-1,-1,-2,-1,3.19
639,-5,-4,-2,-2,-4,-2,1,1,3.1950000000000003
640,-3,-1,-2,-1,-1,-1,-2,-4,3.2
641,2,0,1,3,-1,-1,-2,-2,3.205
642,-20,-11,-1,1,-1,-1,-1,-5,3.21
643,-11,-2,-1,-1,-1,2,-1,-3,3.215
644,0,1,1,-1,-1,1,-3,-1,3.22
645,11,1,2,0,0,0,0,1,3.225
646,-9,-5,-7,-6,-6,-5,-3,-2,3.23
647,0,0,-1,2,2,1,2,3,3.235
648,3,-2,1,4,2,-1,-2,0,3.24
649,6,2,1,-2,-2,-2,-1,0,3.245
650,-5,-3,-1,-3,-3,-3,-3,-4,3.25
651,-1,1,9,6,3,-1,-1,0,3.255
652,-1,-3,-14,-9,-3,-1,1,-1,3.2600000000000002
653,-2,-2,-1,0,0,0,-1,-1,3.265
654,7,1,1,2,0,2,0,0,3.27
655,-12,-3,3,1,1,0,1,-1,3.275
656,5,3,2,2,-2,-1,-3,-2,3.2800000000000002
657,-14,0,3,-1,1,0,-1,-2,3.285
658,8,3,0,0,0,0,0,3,3.29
659,5,2,-3,-3,0,1,4,2,3.295
660,5,1,2,0,0,-1,-5,-1,3.3000000000000003
661,-7,-4,-2,-2,-3,-1,-1,-2,3.305
662,2,2,4,-1,-1,-2,0,2,3.31
663,9,-1,-8,-1,-2,-2,0,2,3.315
664,-13,-7,3,0,-4,-2,0,-4,3.3200000000000003
665,0,3,1,-5,1,1,0,2,3.325
666,0,-3,0,1,-1,0,-2,0,3.33
667,-1,-1,3,3,-2,-2,-3,-2,3.335
668,-9,-2,-2,-1,1,-1,-1,-1,3.34
669,15,5,4,2,0,0,-2,-1,3.345
670,-25,-7,-1,-3,-1,0,2,-1,3.35
671,3,-1,-3,-5,-3,-1,-2,-1,3.355
672,5,0,0,1,1,-1,0,-2,3.36
673,4,1,-2,0,-1,-1,2,4,3.365
674,2,2,1,1,1,-1,-1,-3,3.37
675,0,0,3,-2,-2,-2,-3,-2,3.375
676,-6,0,-1,0,-3,0,1,-3,3.38
677,5,0,-4,-4,0,-2,0,-2,3.3850000000000002
678,4,-1,-3,-4,-1,1,0,-1,3.39
679,-2,0,1,2,1,0,-3,-2,3.395
680,10,1,-5,0,-1,-1,-1,-1,3.4
681,0,-2,-4,-2,-3,-2,-2,-2,3.4050000000000002
682,14,4,4,2,-1,-2,1,3,3.41
683,-7,-1,0,2,-1,2,1,-4,3.415
684,4,-3,-4,-2,-1,0,1,0,3.42
685,-5,-1,2,4,1,-1,-3,-3,3.4250000000000003
686,7,1,-9,-6,-4,-1,-1,1,3.43
687,-6,-6,-1,1,-1,-4,-1,-4,3.435
688,-2,2,7,1,-1,0,-1,1,3.44
689,-5,-4,-7,-1,-3,-1,-1,-2,3.4450000000000003
690,-3,-1,-4,2,2,0,-3,-4,3.45
691,-7,-2,-3,-3,-2,0,-2,-1,3.455
692,0,2,2,2,0,1,-1,2,3.46
693,-4,-3,1,-1,-3,-2,-2,-3,3.465
694,-11,-3,1,4,-1,-2,-2,-2,3.47
695,-2,-1,-10,-12,-1,0,1,-1,3.475
696,1,-1,-3,1,0,-2,0,-1,3.48
697,11,2,-3,-7,-1,1,0,0,3.485
698,-11,-2,2,1,-1,-1,-2,-2,3.49
699,-5,-3,-1,1,0,-1,-2,-1,3.495
700,-2,-2,-1,-1,-2,-2,1,-1,3.5
701,-2,-2,-3,-2,-1,-3,-4,-3,3.505
702,5,1,7,5,0,0,-2,1,3.5100000000000002
703,-9,-6,-7,-1,0,-2,-3,-6,3.515
704,3,3,2,-1,-1,1,0,3,3.52
705,-7,-2,-3,2,-2,0,1,-2,3.525
706,3,-1,-4,-5,-3,-2,-2,4,3.5300000000000002
707,1,-1,3,3,0,-2,-3,-1,3.535
708,0,2,5,-1,0,-1,0,1,3.54
709,-6,-6,-6,0,-1,-1,0,-2,3.545
710,5,0,-6,-6,-1,-1,-1,-5,3.5500000000000003
711,-7,0,5,1,-1,-2,1,0,3.555
712,4,-1,-2,-4,-1,0,1,5,3.56
713,-2,-3,-2,-3,-2,0,-1,-1,3.565
714,-5,-3,-1,-1,0,-1,-1,-2,3.5700000000000003
715,9,2,1,0,-2,-2,-2,-3,3.575
716,-4,-3,-2,-2,-2,-2,-1,-4,3.58
717,17,-1,-4,-3,-2,-1,-2,5,3.585
718,-15,-7,-2,2,1,1,1,0,3.59
719,4,0,-3,0,-2,1,0,1,3.595
720,-4,-2,-1,3,1,-1,-2,-3,3.6
721,-1,1,-1,-6,0,-1,1,-2,3.605
722,10,5,5,5,1,1,2,0,3.61
723,1,0,2,-1,1,0,0,0,3.615
724,-2,-6,-10,-6,-4,-3,-2,-3,3.62
725,4,2,9,6,0,-3,-1,-4,3.625
726,-6,0,0,2,1,0,0,1,3.63
727,0,-1,-1,-2,-2,-2,0,-1,3.6350000000000002
728,8,1,-4,-1,-1,-1,-3,-1,3.64
729,-11,-3,-2,-2,-2,-4,-1,0,3.645
730,4,0,-4,-2,-1,-1,-2,0,3.65
731,3,3,4,-1,0,1,1,3,3.6550000000000002
732,3,2,-2,0,-2,-2,-1,1,3.66
733,-2,-3,-2,2,-1,1,-2,-1,3.665
734,4,2,2,1,-1,-1,2,-2,3.67
735,0,-4,-7,-6,-2,-2,-3,-2,3.6750000000000003
736,12,3,3,3,1,-3,1,2,3.68
737,-10,-1,-6,-3,1,1,2,-4,3.685
738,3,1,-2,-5,-3,-1,1,1,3.69
739,6,1,1,-1,-2,1,-1,0,3.6950000000000003
740,3,0,-1,-3,-1,0,-1,-1,3.7
741,-8,-5,-2,-1,1,0,-2,0,3.705
742,2,-1,-1,-2,0,-1,-3,-2,3.71
743,-6,-1,3,1,1,0,1,0,3.715
744,11,2,2,2,2,1,-1,5,3.72
745,-20,-8,-3,-3,-2,-2,-1,-4,3.725
746,0,0,-1,-2,-3,-2,-2,-7,3.73
747,2,0,-5,-3,0,-1,0,3,3.735
748,-9,-4,2,0,3,1,0,-2,3.74
749,3,3,1,-1,-4,0,0,4,3.745
750,1,1,1,0,-1,-2,-1,0,3.75
751,1,-1,1,2,0,0,0,1,3.755
752,-2,-4,-4,-3,0,-1,-2,-5,3.7600000000000002
753,4,1,4,3,0,-1,-1,-1,3.765
754,-15,-5,-1,0,-1,-2,-2,-3,3.77
755,5,5,1,0,-1,0,0,-3,3.775
756,16,2,-3,0,-3,0,0,6,3.7800000000000002
757,-2,1,6,1,1,0,-1,-5,3.785
758,2,-1,-3,1,-1,0,3,3,3.79
759,-1,-3,0,-1,-1,-2,-4,-2,3.795
760,-11,-3,-4,-1,0,-1,0,-5,3.8000000000000003
761,1,-1,-4,-4,-2,-2,-2,1,3.805
762,8,4,5,0,2,1,-2,2,3.81
763,4,0,-2,-1,-2,-1,-2,-1,3.815
764,-12,-1,-1,0,1,2,0,-4,3.8200000000000003
765,4,1,-1,0,-1,-1,0,5,3.825
766,-11,-2,2,-3,-1,-1,-3,-1,3.83
767,1,-1,0,2,-2,-1,1,0,3.835
768,-4,-1,-1,-4,-2,-3,-3,-3,3.84
769,-9,-2,2,3,2,2,1,-5,3.845
770,19,3,-3,-5,-2,-1,-3,5,3.85
771,-4,-1,-1,1,0,-1,0,-1,3.855
772,-2,-1,-2,-3,-3,0,1,3,3.86
773,-6,-4,-4,-2,1,0,-2,-3,3.865
774,0,0,1,2,0,0,0,-2,3.87
775,-3,-1,-1,4,2,0,2,-2,3.875
776,8,1,-2,-1,1,0,-1,1,3.88
777,11,5,1,0,-1,1,1,2,3.8850000000000002
778,-3,-3,-3,0,-1,-2,-1,-3,3.89
779,-7,-5,-4,-5,-4,-1,0,0,3.895
780,-2,0,2,3,0,0,0,-6,3.9
781,4,2,-2,-6,-2,0,0,1,3.9050000000000002
782,-4,-2,-6,-1,-4,-4,-2,-4,3.91
783,16,4,-1,-1,4,1,-2,1,3.915
784,-11,-4,-2,-2,-1,-1,0,-1,3.92
785,-1,-1,-1,0,0,0,-1,-2,3.9250000000000003
786,1,-3,-3,-3,-2,1,2,1,3.93
787,-3,1,4,1,-2,-1,-3,-3,3.935
788,-6,-3,-2,1,-1,0,-1,0,3.94
789,0,-2,-7,-1,-2,0,-1,-1,3.9450000000000003
790,-1,0,2,-1,1,-2,-2,-2,3.95
791,4,0,-2,0,0,-1,0,0,3.955
792,-10,-7,1,-4,-2,-1,0,2,3.96
793,-11,-3,5,2,0,-1,0,-4,3.9650000000000003
794,1,-1,-2,5,-2,-1,-2,0,3.97
795,7,1,-7,-4,-1,-1,-1,-1,3.975
796,-5,-3,0,-2,-3,-2,0,0,3.98
797,0,0,0,0,-1,-1,-1,-3,3.985
798,14,1,-2,-3,0,0,0,6,3.99
799,-16,-5,-1,0,0,0,-1,-2,3.995
800,0,2,1,0,-3,-1,-1,-2,4.0
801,-1,-4,-8,-2,-2,-3,-1,-1,4.005
802,-6,-1,0,0,0,-2,0,-1,4.01
803,1,-1,-1,1,-1,0,-2,1,4.015
804,1,0,-1,-5,0,-1,-1,-1,4.0200000000000005
805,-3,-2,-3,0,-3,-3,-1,0,4.025
806,5,4,0,-2,-2,0,-1,-3,4.03
807,-6,-2,1,0,0,-1,0,0,4.035
808,-5,-1,-2,-2,0,-1,0,0,4.04
809,4,-1,0,1,2,0,-2,0,4.045
810,-4,-1,-2,0,0,0,0,-2,4.05
811,-4,0,2,1,-2,-2,-1,-2,4.055
812,4,1,-1,1,0,0,0,1,4.0600000000000005
813,-9,-5,0,-3,-1,-1,0,-3,4.065
814,-1,-2,1,0,0,0,0,0,4.07
815,-3,-4,-2,-3,-3,-1,-2,0,4.075
816,3,-1,-4,0,-3,-2,-1,-1,4.08
817,2,4,2,0,-1,-1,-1,0,4.085
818,4,-3,-1,-3,0,-1,-1,0,4.09
819,-5,-2,-3,-2,-1,-2,-1,-2,4.095
820,12,5,2,-3,0,-2,-1,-3,4.1
821,-16,-3,1,5,-2,-1,-1,1,4.105
822,-5,-1,-1,4,1,1,-1,-2,4.11
823,5,1,1,-2,-1,-2,-1,1,4.115
824,-1,-2,0,-2,-1,0,-1,-3,4.12
825,-1,-5,1,1,3,2,0,2,4.125
826,-2,0,0,-1,-2,-3,-2,-2,4.13
827,-2,-1,-4,-2,2,1,1,-2,4.135
828,-3,2,-1,0,0,-1,-2,0,4.14
829,6,1,2,0,0,0,2,-2,4.1450000000000005
830,-5,-2,-1,-8,-6,-2,-2,3,4.15
831,0,1,0,1,-1,-1,-1,0,4.155
832,-3,-6,-6,-2,1,-1,-1,-4,4.16
833,6,-1,-5,-3,-3,-1,-3,-2,4.165
834,-7,0,-1,-4,-1,-2,0,-3,4.17
835,12,2,6,4,1,2,1,4,4.175
836,-11,-3,-1,0,-2,0,-1,-2,4.18
837,13,3,-2,3,0,-2,-1,1,4.1850000000000005
838,-12,-1,4,1,2,-1,0,-2,4.19
839,-7,-3,-3,-10,-8,-2,0,-5,4.195
840,2,1,-1,1,2,0,1,4,4.2
841,9,3,0,-3,-3,-1,-1,1,4.205
842,1,0,1,3,1,0,0,-2,4.21
843,0,0,2,1,-1,1,0,-2,4.215
844,-2,-4,-3,-4,-1,-1,0,-2,4.22
845,0,2,2,1,-1,-2,-1,-2,4.225
846,4,-1,-2,1,0,0,0,1,4.23
847,-4,-2,-3,1,2,1,0,1,4.235
848,3,1,2,2,-2,0,-1,1,4.24
849,-7,-4,1,2,1,1,2,1,4.245
850,0,2,2,3,0,0,0,-2,4.25
851,5,2,-8,-6,1,2,0,-1,4.255
852,-12,-3,4,3,1,0,-1,-5,4.26
853,2,-3,-9,-7,-2,-3,-2,-2,4.265
854,3,-1,3,1,1,-1,-2,-3,4.2700000000000005
855,-7,-2,3,9,-2,-3,-2,1,4.275
856,-4,0,-5,-10,-2,-2,-2,-6,4.28
857,-1,-2,-3,-4,-2,0,-2,-2,4.285
858,-4,-3,-2,-3,0,0,-1,-1,4.29
859,-1,0,-1,0,1,-2,-3,0,4.295
860,8,3,2,3,0,-2,-2,0,4.3
861,-5,0,1,4,0,1,0,-1,4.305
862,4,0,1,9,0,0,0,0,4.3100000000000005
863,-2,0,2,-5,-1,0,1,-2,4.315
864,-1,-1,-1,0,-3,-1,1,2,4.32
865,5,1,4,-4,-2,-1,0,-1,4.325
866,-2,0,-4,-2,-2,1,1,-2,4.33
867,0,-3,-1,5,2,-1,0,-3,4.335
868,2,-3,0,10,3,2,0,3,4.34
869,-6,-2,-3,-15,-9,-3,-1,4,4.345
870,8,0,0,0,0,-1,-1,-3,4.3500000000000005
871,-11,-6,3,0,-2,-1,-1,-3,4.355
872,17,3,-6,2,5,2,2,10,4.36
873,4,4,10,16,1,-2,-1,-3,4.365
874,-5,-6,-9,-14,-2,-1,-1,0,4.37
875,0,-2,-7,-7,-6,-2,-1,-1,4.375
876,-6,3,10,19,10,0,-1,-2,4.38
877,1,-1,-5,-22,-3,0,-1,1,4.385
878,12,3,5,-6,-4,-1,1,3,4.39
879,-9,-2,-5,-11,-4,0,0,-2,4.3950000000000005
880,-7,-5,-2,4,-6,-2,-2,-2,4.4
881,-1,1,1,10,10,0,0,-2,4.405
882,1,-2,-3,6,1,0,1,-4,4.41
883,1,0,0,-5,-3,-4,-3,2,4.415
884,3,0,-6,-8,-1,-2,0,-3,4.42
885,-1,-3,-5,-11,-4,-2,-2,1,4.425
886,-6,-2,-4,0,-1,0,-2,-4,4.43
887,10,4,6,19,3,0,0,4,4.4350000000000005
888,-5,-4,0,-1,-4,0,-1,-4,4.44
889,-8,-2,-3,-16,-3,-1,-2,-5,4.445
890,6,1,-5,-15,-4,-2,-2,6,4.45
891,4,1,-3,7,3,1,0,0,4.455
892,-5,-2,-2,-21,-8,-2,-3,-2,4.46
893,-6,-3,6,21,3,-1,0,-4,4.465
894,-5,-2,-3,-6,-2,2,0,0,4.47
895,-2,-3,-8,6,2,1,0,-2,4.4750000000000005
896,-1,0,3,-7,-8,-3,-1,0,4.48
897,3,1,-3,-1,-2,1,0,1,4.485
898,-9,-3,1,3,-5,-3,-2,-2,4.49
899,2,5,7,-8,2,2,1,-1,4.495
900,-5,-4,-9,-5,-2,-1,-1,-1,4.5
901,3,1,-1,4,2,1,0,-1,4.505
902,-5,-2,-4,-2,-2,-1,-2,-2,4.51
903,-3,0,6,-3,-3,-2,0,-4,4.515
904,1,-1,3,-2,0,-1,-2,-1,4.5200000000000005
905,1,-2,-13,-11,-3,1,1,0,4.525
906,-15,-7,-3,21,5,-1,-2,-1,4.53
907,9,3,2,-15,-4,-2,-2,1,4.535
908,-6,-1,2,-4,-1,1,1,-1,4.54
909,19,2,5,8,0,0,-1,5,4.545
910,1,1,-1,6,1,1,-1,-1,4.55
911,0,-4,-10,-3,-1,-1,-1,-2,4.555
912,-3,-2,-2,-6,-6,-3,-3,-2,4.5600000000000005
913,-3,-1,-1,1,-5,-3,-5,-5,4.565
914,-2,2,4,-5,2,-1,0,4,4.57
915,-2,-2,0,7,-1,-1,-1,-3,4.575
916,4,2,-1,-4,2,2,0,0,4.58
917,-3,-1,1,-1,-2,0,0,0,4.585
918,1,-3,-4,2,0,-2,-1,-1,4.59
919,-3,-4,-3,-4,3,0,-1,-3,4.595
920,-2,-1,2,2,-1,1,2,-2,4.6000000000000005
921,-3,0,2,6,2,-1,-1,2,4.605
922,0,-1,2,0,1,1,-2,-3,4.61
923,-5,-2,-2,-3,-2,-1,-2,-1,4.615
924,4,-1,-2,3,3,-2,-1,-1,4.62
925,-15,-4,0,-11,-6,-1,-1,-7,4.625
926,2,3,-7,-9,-2,-1,0,2,4.63
927,-3,0,1,4,-2,-3,-1,1,4.635
928,-1,-1,-1,11,1,-1,-1,-1,4.64
929,-3,-3,-4,-4,-1,-1,-2,-1,4.6450000000000005
930,1,0,3,-3,-3,0,1,-1,4.65
931,-2,0,0,2,0,0,0,1,4.655
932,1,0,3,0,-1,0,-1,-3,4.66
933,1,2,-1,-15,-5,-1,2,1,4.665
934,-7,-5,-2,5,-1,-3,-1,-4,4.67
935,0,2,1,9,1,1,-2,3,4.675
936,-2,1,1,-2,2,1,1,-3,4.68
937,-1,-1,-4,4,3,0,0,-1,4.6850000000000005
938,14,5,4,-9,-4,-1,0,-1,4.69
939,-4,-3,-2,-7,-5,-4,-1,-2,4.695
940,0,-3,-6,8,-1,1,-1,2,4.7
941,-1,-1,5,23,7,0,-1,0,4.705
942,-2,-3,-8,-13,-6,1,-1,-2,4.71
943,-3,-3,-2,-8,-1,-2,0,2,4.715
944,2,2,-2,-14,-6,-2,-2,0,4.72
945,-8,-3,-5,-1,-2,-3,-1,-5,4.7250000000000005
946,11,4,6,7,3,-1,-3,1,4.73
947,-1,0,4,4,1,2,4,2,4.735
948,-5,-1,-2,4,1,-1,0,1,4.74
949,-2,-1,-1,-9,-1,-1,2,-4,4.745
950,2,1,-1,-1,0,1,1,7,4.75
951,3,3,6,14,0,-3,-3,-2,4.755
952,11,1,-2,-9,0,-2,-1,2,4.76
953,-11,-3,1,9,5,0,0,-2,4.765
954,-5,-3,-9,-16,-5,-2,-1,-3,4.7700000000000005
955,-8,-3,-1,-1,-3,-2,-2,-3,4.775
956,-3,0,3,8,1,1,2,-1,4.78
957,4,0,1,0,-2,-1,-2,1,4.785
958,-2,-1,0,8,5,0,1,-3,4.79
959,2,-2,-6,-19,-4,-1,-3,-4,4.795
960,-10,-4,-5,5,-1,-2,-2,-5,4.8
961,12,1,7,14,3,-1,0,6,4.805
962,-6,-1,2,12,0,0,0,-2,4.8100000000000005
963,4,0,-4,-16,-2,0,-1,-1,4.815
964,-3,-3,-4,7,5,1,-1,1,4.82
965,-1,-3,-10,-22,-12,-3,-2,-2,4.825
966,-4,-1,-2,7,-5,-3,-2,0,4.83
967,0,-1,-8,-14,-1,-1,-2,-1,4.835
968,6,3,3,1,-8,0,-1,-3,4.84
969,-7,-2,2,15,7,1,0,-1,4.845
970,-4,-2,-2,-17,-2,-2,-3,-4,4.8500000000000005
971,1,1,1,12,-1,1,1,0,4.855
972,1,-2,-2,-4,0,-4,-4,-3,4.86
973,1,0,2,-2,-2,-1,0,0,4.865
974,-1,-1,0,-2,-2,0,0,1,4.87
975,-1,-1,6,7,0,0,0,-2,4.875
976,-5,2,1,-3,3,2,0,2,4.88
977,3,2,0,-8,-3,0,-1,0,4.885
978,-2,-3,0,5,2,-2,-3,-1,4.89
979,-3,-3,-8,-8,1,-1,-1,-3,4.8950000000000005
980,-1,0,3,-1,-2,0,2,-1,4.9
981,-2,-3,-5,-9,-4,-4,-2,1,4.905
982,0,2,1,0,3,2,0,-2,4.91
983,-7,-6,1,10,-2,0,-2,-1,4.915
984,4,0,-6,6,2,1,0,-4,4.92
985,-2,0,3,-14,-4,0,0,4,4.925
986,-1,-1,-2,-4,-4,-2,-2,-4,4.93
987,-4,-4,-2,0,-1,-1,-1,1,4.9350000000000005
988,2,0,4,0,2,1,0,1,4.94
989,2,1,-1,5,0,-1,-3,-4,4.945
990,3,3,2,0,2,0,1,-2,4.95
991,-5,2,4,0,-1,0,-1,4,4.955
992,-13,-8,-9,-13,-3,-2,-2,-4,4.96
993,5,0,3,4,2,0,1,0,4.965
994,-2,-2,1,0,-1,0,2,-1,4.97
995,12,3,-3,-1,1,-1,-1,-3,4.9750000000000005
996,-4,-2,1,-2,-4,-2,-1,3,4.98
997,-4,-5,-9,-1,-2,0,-1,-2,4.985
998,4,-3,-1,-5,-1,1,-2,1,4.99
999,-10,-3,-4,4,0,0,-2,-2,4.995
1000,2,-1,-3,-10,-3,-1,-1,1,5.0
1001,-1,-1,1,3,-4,-2,-2,-4,5.005
1002,0,-2,4,2,-4,-2,-1,0,5.01
1003,2,0,-6,-7,0,0,1,0,5.015
1004,-2,-2,0,1,0,-1,-1,0,5.0200000000000005
1005,-4,-3,-4,6,2,0,0,-7,5.025
1006,-3,-5,-9,-22,-11,-2,0,1,5.03
1007,0,0,6,4,0,0,1,1,5.035
1008,6,4,1,-1,-2,-1,-2,-1,5.04
1009,2,1,1,2,2,-2,0,-1,5.045
1010,-10,-5,-4,9,4,-2,-2,-4,5.05
1011,4,1,1,1,-1,-2,-1,0,5.055
1012,-1,-2,-4,3,-1,-1,-1,-2,5.0600000000000005
1013,9,5,5,-5,-2,0,-1,0,5.065
1014,-10,-6,-2,1,0,-2,-1,-1,5.07
1015,10,0,-4,-8,-4,-2,-1,-1,5.075
1016,-12,-2,5,5,2,0,-1,-2,5.08
1017,-1,-1,-4,-3,-2,1,1,0,5.085
1018,2,1,2,3,-1,-3,-1,-1,5.09
1019,0,-4,-6,-3,-1,-1,-1,-2,5.095
1020,9,3,8,7,-2,-3,-2,-1,5.1000000000000005
1021,-4,0,-3,-4,4,0,0,3,5.105
1022,5,5,2,2,3,2,1,0,5.11
1023,-6,-4,-3,-5,-2,-1,-3,-3,5.115
1024,0,2,3,-1,-4,-2,0,-2,5.12
1025,-4,-3,-6,5,-1,-2,-2,-2,5.125
1026,-2,-1,5,19,3,1,-1,-5,5.13
1027,4,3,2,-6,-2,0,1,3,5.135
1028,2,-6,-11,-7,1,1,-2,-2,5.14
1029,-10,-2,0,-1,-2,-2,-1,-2,5.1450000000000005
1030,0,-2,-8,-4,1,1,-1,0,5.15
1031,0,1,2,-2,-2,-2,1,-3,5.155
1032,-1,-1,2,3,0,0,2,1,5.16
1033,-1,-1,1,-7,-1,0,1,1,5.165
1034,0,2,3,2,1,0,1,1,5.17
1035,-3,-2,-1,2,2,-1,-2,-2,5.175
1036,3,2,0,-2,0,1,-1,4,5.18
1037,9,1,-1,0,-1,-2,-3,-2,5.1850000000000005
1038,-7,-8,-11,-8,-5,-3,-4,-1,5.19
1039,-1,1,1,1,-1,0,1,0,5.195
1040,2,-1,1,-4,0,0,0,-2,5.2
1041,-1,-3,-4,-1,-2,0,-1,-1,5.205
1042,4,1,-1,-5,-3,0,0,-1,5.21
1043,-2,-2,5,3,0,0,0,1,5.215
1044,-15,-4,-9,-4,-3,-2,-2,-2,5.22
1045,0,0,3,8,1,-1,0,1,5.2250000000000005
1046,2,2,1,-7,0,2,0,-2,5.23
1047,-2,-1,0,1,-3,-1,0,0,5.235
1048,-3,-3,-7,-11,-2,0,-1,-4,5.24
1049,-2,-2,-2,-1,-1,1,-1,-1,5.245
1050,2,2,2,-6,-1,-1,0,2,5.25
1051,-3,-2,-4,2,1,0,-2,-4,5.255
1052,0,-1,3,-2,-2,-2,-4,-1,5.26
1053,-2,-4,-10,-5,-3,1,-1,0,5.265
1054,2,2,0,2,1,-2,0,0,5.2700000000000005
1055,18,4,-2,1,0,-2,-1,0,5.275
1056,-15,-4,2,0,-1,-3,-1,2,5.28
1057,2,-2,-1,-3,-2,-1,-1,1,5.285
1058,0,0,3,4,0,-1,-1,-2,5.29
1059,1,-2,-9,-6,-2,-1,-2,-2,5.295
1060,-5,-1,-2,2,-2,-1,-2,0,5.3
1061,-10,-1,3,1,1,2,1,-4,5.305
1062,14,3,3,2,1,3,-2,7,5.3100000000000005
1063,-7,-2,-4,-4,0,-2,0,-3,5.315
1064,10,0,-2,-5,-2,0,1,3,5.32
1065,-5,-1,2,-4,-1,-1,-1,-2,5.325
1066,-6,-2,-3,10,-2,-2,-1,1,5.33
1067,-6,-1,3,-13,2,0,-2,-1,5.335
1068,6,2,3,3,-3,-1,-3,-1,5.34
1069,-8,-6,1,-1,0,0,0,-2,5.345
1070,-4,-1,-2,1,-2,-2,-1,-3,5.3500000000000005
1071,0,1,3,5,-1,-1,-1,-1,5.355
1072,-1,1,0,10,6,0,0,-3,5.36
1073,2,3,1,-7,-7,0,0,5,5.365
1074,9,0,-1,-6,-2,-1,0,-4,5.37
1075,-15,-5,1,0,-3,-1,-1,1,5.375
1076,4,-1,-2,0,5,3,2,3,5.38
1077,0,1,5,9,0,-2,-2,-3,5.385
1078,7,2,1,1,2,1,-1,5,5.39
1079,0,2,-3,-2,-5,-1,-1,-1,5.3950000000000005
1080,4,0,1,-4,-4,-3,-2,0,5.4
1081,0,0,7,5,2,-1,-1,-2,5.405
1082,-8,-4,-7,-6,-1,2,0,-3,5.41
1083,-5,-4,0,5,0,0,-2,0,5.415
1084,-2,0,2,2,0,0,0,0,5.42
1085,-1,-2,-10,-7,0,1,0,-1,5.425
1086,-1,1,12,4,1,-1,0,-1,5.43
1087,2,-1,-10,-3,-1,0,-1,0,5.4350000000000005
1088,-4,-5,1,9,-2,-4,-2,-3,5.44
1089,9,2,0,-11,-2,-4,-3,-2,5.445
1090,-9,-3,-2,-9,0,1,1,-2,5.45
1091,2,1,5,11,2,2,3,7,5.455
1092,-11,-3,-3,-5,-3,-1,1,-2,5.46
1093,4,-1,-3,3,-1,-4,-3,-4,5.465
1094,-8,-4,-4,-8,-3,-2,-1,-2,5.47
1095,17,3,1,-6,-3,0,-1,3,5.4750000000000005
1096,4,1,-2,-2,1,0,0,0,5.48
1097,1,0,-1,2,-2,-1,0,1,5.485
1098,-4,-2,-1,-1,-2,-1,-2,-5,5.49
1099,-3,-2,-2,-3,-3,-4,-1,-2,5.495
1100,6,0,0,-1,-2,0,-2,4,5.5
1101,-14,-5,-1,0,0,1,2,-1,5.505
1102,-2,3,2,1,0,-1,-1,-4,5.51
1103,-4,0,3,5,-1,-1,0,0,5.515
1104,5,-1,-2,-2,3,0,-1,0,5.5200000000000005
1105,-4,-1,4,5,-1,-1,-1,-2,5.525
1106,5,1,-8,-5,-1,-1,1,4,5.53
1107,-5,-2,1,3,0,0,-2,-4,5.535
1108,3,3,2,-11,-1,0,-1,-1,5.54
1109,5,0,4,6,-3,0,0,0,5.545
1110,-1,-4,0,5,0,0,-1,-3,5.55
1111,-1,1,-3,-5,1,-1,-2,1,5.555
1112,-4,-1,-1,2,-2,-1,1,-1,5.5600000000000005
1113,1,-2,-9,-6,1,-1,-2,0,5.565
1114,-6,1,3,-1,-4,-2,-1,-2,5.57
1115,-3,-3,-4,-3,0,-1,0,-1,5.575
1116,-2,0,2,2,-3,-2,-3,-3,5.58
1117,1,0,-1,-6,-1,-1,0,2,5.585
1118,-6,-4,-2,6,2,0,0,-3,5.59
1119,5,0,-3,-1,2,-1,-2,-4,5.595
1120,-2,1,-1,-13,-7,-2,3,5,5.6000000000000005
1121,-1,-4,-5,3,2,0,0,0,5.605
1122,5,1,-5,-6,-2,-1,-2,1,5.61
1123,2,-1,6,5,0,0,-1,-2,5.615
1124,-1,-2,-2,1,2,2,1,-1,5.62
1125,0,2,7,0,-2,0,0,-1,5.625
1126,3,1,2,6,1,0,0,3,5.63
1127,-5,-2,-4,4,2,1,-1,-3,5.635
1128,-6,-5,-11,-5,-6,-1,0,-4,5.64
1129,-2,-1,-1,-1,0,1,-1,2,5.6450000000000005
1130,3,-1,-2,2,-1,0,-1,-1,5.65
1131,-2,2,5,-4,-1,0,1,-2,5.655
1132,-4,-2,2,4,1,-2,-1,-2,5.66
1133,-3,-1,-13,-1,-4,-3,-2,-2,5.665
1134,-9,-3,1,-10,-2,0,-1,-3,5.67
1135,-3,-3,-4,-1,-3,-2,-2,-1,5.675
1136,-1,-1,1,-3,-3,-4,-3,-3,5.68
1137,3,0,-4,-5,-2,-2,-1,2,5.6850000000000005
1138,-13,-4,-2,4,-1,-2,-2,-2,5.69
1139,-2,-1,-3,-6,-5,-2,-3,-1,5.695
1140,2,-2,-9,-4,0,1,-1,-2,5.7
1141,-6,-2,3,0,-2,0,-2,0,5.705
1142,0,0,3,3,1,0,-1,-1,5.71
1143,0,0,4,0,-4,-4,-2,-1,5.715
1144,2,-1,2,3,1,-1,0,-3,5.72
1145,2,2,-4,-8,2,1,1,1,5.7250000000000005
1146,0,-4,1,-1,-3,-4,-2,-4,5.73
1147,-3,-3,-4,2,-1,0,0,0,5.735
1148,-4,-2,-4,4,0,-2,0,0,5.74
1149,-2,-3,-1,-4,0,-2,0,-4,5.745
1150,1,1,2,0,1,0,0,2,5.75
1151,-3,1,0,1,3,3,0,-5,5.755
1152,2,3,1,-4,-3,-1,0,7,5.76
1153,1,1,3,-4,-1,1,-1,-1,5.765
1154,0,-1,-11,-4,-1,-1,-1,-3,5.7700000000000005
1155,-9,-2,-2,-6,-4,-3,0,0,5.775
1156,1,0,-2,2,3,2,3,-1,5.78
1157,8,2,3,5,2,1,0,1,5.785
1158,-4,0,-2,-2,-4,-2,-1,1,5.79
1159,2,0,2,1,2,0,-1,0,5.795
1160,-3,-3,-1,4,-1,-1,-2,-2,5.8
1161,1,-2,-2,-9,-1,0,-2,-1,5.805
1162,4,-1,1,0,2,-1,-2,0,5.8100000000000005
1163,1,1,-5,-4,-1,-1,1,-1,5.815
1164,-4,0,1,3,-1,-1,-1,0,5.82
1165,-1,1,2,2,0,0,0,1,5.825
1166,6,1,-1,-1,-1,-2,-2,-1,5.83
1167,-1,-1,1,-2,0,0,1,1,5.835
1168,-8,-6,-4,1,-1,-1,-1,0,5.84
1169,-4,-2,-1,3,-2,-2,-1,-3,5.845
1170,2,-2,-3,-8,-2,1,0,1,5.8500000000000005
1171,5,1,0,-1,0,0,0,0,5.855
1172,-1,3,2,1,1,0,-1,-2,5.86
1173,-5,-4,-8,-6,-6,-4,-2,-3,5.865
1174,-1,-1,-2,-5,-6,-2,-1,0,5.87
1175,-3,-2,1,9,0,-1,-1,-1,5.875
1176,2,3,-1,-8,0,0,1,0,5.88
1177,-1,1,3,-3,0,0,0,0,5.885
1178,-1,0,0,-2,-1,-1,0,-1,5.89
1179,1,-3,-1,-3,-4,-2,-1,-1,5.8950000000000005
1180,-4,-2,-3,2,0,-2,-4,-3,5.9
1181,-21,-6,-3,0,-1,-1,-2,-7,5.905
1182,25,5,2,2,0,1,1,6,5.91
1183,-7,-2,3,-3,1,0,0,2,5.915
1184,5,0,2,1,1,-2,-1,0,5.92
1185,4,1,1,-3,1,1,-1,-1,5.925
1186,-5,-3,-5,0,0,-2,0,-3,5.93
1187,3,1,3,15,0,-1,1,0,5.9350000000000005
1188,12,2,1,-1,-1,-2,-1,0,5.94
1189,-1,-2,-4,4,-1,1,0,0,5.945
1190,-6,-1,-1,-3,0,0,-1,-1,5.95
1191,2,-1,-7,-9,-2,-1,-2,-1,5.955
1192,-3,0,0,0,-1,-3,-1,-1,5.96
1193,1,1,1,5,-1,-2,-3,0,5.965
1194,-6,-4,-7,-15,-2,-1,-3,0,5.97
1195,0,2,3,6,1,2,2,0,5.9750000000000005
1196,-1,0,0,-4,0,1,-1,-1,5.98
1197,4,-1,-13,-7,-4,-3,-1,0,5.985
1198,-10,-3,1,7,1,1,0,-1,5.99
1199,-2,-2,-3,-3,-1,-2,-1,-1,5.995
1200,-3,0,6,2,-1,1,2,0,6.0
1201,4,3,4,1,1,1,2,2,6.005
1202,-2,-1,-1,2,-1,0,2,-4,6.01
1203,-2,-2,-1,-6,-4,-3,-3,-3,6.015000000000001
1204,5,-2,-4,1,0,1,-2,-4,6.0200000000000005
1205,-12,-6,1,-2,-4,-4,-3,2,6.025
1206,-8,-6,-2,3,1,-2,0,-3,6.03
1207,3,0,1,1,1,3,2,1,6.035
1208,5,-1,-2,-3,-2,0,1,4,6.04
1209,1,-2,0,-2,-4,-6,-4,-2,6.045
1210,-1,2,1,1,-3,-2,-4,-4,6.05
1211,-3,-3,5,3,0,0,0,3,6.055
1212,-6,-3,-8,-6,-2,0,-2,-1,6.0600000000000005
1213,3,0,1,2,0,-1,4,2,6.065
1214,-4,-4,-8,-4,-1,-1,-2,-2,6.07
1215,0,-2,-2,-9,-3,-2,-1,-3,6.075
1216,-3,2,2,1,-1,-2,0,-4,6.08
1217,0,1,5,10,1,-2,-4,-2,6.085
1218,0,1,1,1,-3,-4,-2,-5,6.09
1219,1,1,1,-2,0,-1,-1,1,6.095
1220,-3,-3,-2,-4,0,1,-2,1,6.1000000000000005
1221,0,-3,0,3,3,4,2,0,6.105
1222,0,-1,4,0,3,5,2,5,6.11
1223,5,-1,-19,-6,-8,-11,-11,-5,6.115
1224,-5,-4,-3,-3,-3,-2,3,-3,6.12
1225,4,-2,0,-13,1,5,6,1,6.125
1226,1,4,0,4,-4,-3,-2,0,6.13
1227,-6,-8,5,0,4,0,-4,-6,6.135
1228,-4,-3,2,24,-1,-2,0,-1,6.140000000000001
1229,0,1,-5,9,-1,0,-10,-2,6.1450000000000005
1230,-3,-1,-10,-27,-6,-4,-4,-4,6.15
1231,3,3,0,-38,-3,7,20,12,6.155
1232,-2,0,-4,-8,3,4,8,1,6.16
1233,-2,-3,9,12,-3,-6,-4,-1,6.165
1234,1,4,12,42,6,0,-2,-1,6.17
1235,-6,-4,-10,1,-2,-4,-8,-7,6.175
1236,1,-3,1,-5,2,2,-4,2,6.18
1237,2,3,-4,-9,-1,-2,4,4,6.1850000000000005
1238,-4,-15,-1,-11,-3,0,2,1,6.19
1239,-2,3,4,18,2,-5,-12,-7,6.195
1240,3,12,3,-7,0,0,2,6,6.2
1241,3,-10,16,32,-2,-6,-20,-7,6.205
1242,-2,-7,-5,11,3,1,7,3,6.21
1243,2,-4,-20,-47,-9,4,23,16,6.215
1244,-7,-4,-5,1,-7,-12,-17,-5,6.22
1245,0,8,-4,-21,3,8,8,-1,6.2250000000000005
1246,-10,-2,1,-18,-7,-11,-15,-7,6.23
1247,4,-2,7,11,5,6,-8,-3,6.235
1248,-2,-5,-7,-4,-1,-6,-1,-3,6.24
1249,-4,-5,-5,-7,-1,-1,-3,-4,6.245
1250,4,-9,-5,16,5,7,8,4,6.25
1251,-4,14,23,22,6,2,-3,-6,6.255
1252,8,-7,-26,-34,-9,-7,1,7,6.26
1253,0,10,-9,-19,1,6,3,-6,6.265000000000001
1254,7,12,-6,-5,-6,-8,-4,-2,6.2700000000000005
1255,-11,-29,1,4,0,-3,0,2,6.275
1256,-14,-17,17,26,7,2,-4,-11,6.28
1257,0,0,-22,-30,3,2,5,3,6.285
1258,6,25,11,-25,-3,2,7,5,6.29
1259,12,25,-12,17,-6,-7,-7,-3,6.295
1260,6,0,-1,-19,13,20,13,6,6.3
1261,-10,-18,-5,30,-19,-23,-12,-11,6.305
1262,-1,37,15,4,6,-4,-7,-11,6.3100000000000005
1263,3,-5,3,14,-3,-2,-1,-2,6.315
1264,-4,13,-33,-47,-6,1,-3,-12,6.32
1265,6,5,17,38,-3,6,5,8,6.325
1266,0,-12,7,-16,-2,-10,-11,-8,6.33
1267,-5,2,-4,7,-2,-1,1,-1,6.335
1268,9,-1,9,-19,8,8,1,1,6.34
1269,-17,-9,18,11,6,1,2,-7,6.345
1270,-6,-14,-2,2,-4,2,-2,-17,6.3500000000000005
1271,2,6,-6,-1,-2,-5,-2,3,6.355
1272,17,12,9,8,-13,-7,-2,11,6.36
1273,-2,25,-3,-6,0,-7,-7,-9,6.365
1274,9,-12,10,19,3,4,13,18,6.37
1275,-6,-7,9,-2,6,10,5,-4,6.375
1276,-7,2,5,3,-2,0,-3,-2,6.38
1277,6,-12,-27,-20,-15,-9,-5,3,6.385
1278,-12,-9,8,20,-2,-1,-1,0,6.390000000000001
1279,6,-9,6,-8,-1,3,-3,-3,6.3950000000000005
1280,-11,-6,-23,-22,-15,-19,-7,-7,6.4
1281,-3,1,-1,6,21,23,11,-1,6.405
1282,11,11,-10,-11,6,15,8,-2,6.41
1283,-13,-8,8,-7,13,-1,-1,4,6.415
1284,1,-20,24,42,7,12,7,4,6.42
1285,1,-6,-5,-29,-14,-23,-17,-10,6.425
1286,3,34,-13,10,-3,1,0,9,6.43
1287,-1,-24,18,31,3,13,10,-2,6.4350000000000005
1288,-19,-18,-2,22,-6,-30,-25,-20,6.44
1289,16,21,10,13,10,13,26,26,6.445
1290,-5,-37,-13,8,-1,-5,-3,8,6.45
1291,2,17,-17,-20,-11,-16,-21,-15,6.455
1292,15,23,-10,-91,-6,10,10,18,6.46
1293,-4,-13,-1,-27,-18,-17,-14,-7,6.465
1294,-6,0,-10,28,-1,-7,-12,-16,6.47
1295,-29,-24,-35,-91,-64,-26,-11,-24,6.4750000000000005
1296,10,6,55,77,41,16,9,8,6.48
1297,-9,-9,25,-3,13,17,7,2,6.485
1298,-23,10,-12,6,22,12,-3,-15,6.49
1299,-26,-80,-57,-33,-19,-17,-13,-26,6.495
1300,33,80,38,4,-21,-16,3,18,6.5
1301,-19,-25,8,3,-20,-23,-17,-11,6.505
1302,4,-7,56,15,11,21,15,9,6.51
1303,11,20,37,47,23,16,11,22,6.515000000000001
1304,-14,-37,-14,-23,-29,-29,-17,-1,6.5200000000000005
1305,18,20,31,29,5,-2,8,27,6.525
1306,-15,-25,-21,-43,-8,-13,-14,-28,6.53
1307,4,29,-54,-34,1,4,5,23,6.535
1308,-16,6,-32,12,-45,-1,8,-7,6.54
1309,25,-14,-60,-23,-76,-28,-10,-13,6.545
1310,11,43,-16,-14,31,-16,-2,30,6.55
1311,22,22,25,34,56,64,33,13,6.555
1312,-6,3,-41,37,-2,-2,0,1,6.5600000000000005
1313,-31,-36,-28,-9,8,-9,-20,-34,6.565
1314,18,33,-10,-3,-3,8,11,3,6.57
1315,12,14,18,28,25,7,5,10,6.575
1316,-13,-28,-47,-14,10,21,1,-16,6.58
1317,-15,-14,-48,-29,-25,-25,-10,-16,6.585
1318,16,7,0,-36,-19,-18,-6,-8,6.59
1319,24,-10,-26,-5,9,4,4,-8,6.595
1320,-22,-23,29,36,-18,-14,-4,13,6.6000000000000005
1321,43,-16,-7,40,30,20,13,30,6.605
1322,-5,-9,16,2,-39,-5,-2,-5,6.61
1323,-39,-30,-8,-39,-29,-34,-24,-35,6.615
1324,21,19,36,39,-69,-21,2,6,6.62
1325,20,60,63,18,1,30,11,10,6.625
1326,22,46,-22,-18,81,13,-7,6,6.63
1327,6,-3,49,48,35,30,11,19,6.635
1328,7,39,-5,-4,44,12,3,-10,6.640000000000001
1329,-38,-24,20,30,66,39,17,14,6.6450000000000005
1330,-10,-33,-30,27,-51,-3,-4,-13,6.65
1331,-46,-36,13,15,-12,-37,-30,-36,6.655
1332,38,15,20,1,4,10,7,20,6.66
1333,4,13,19,-6,-39,-36,-16,-22,6.665
1334,-17,-30,5,-4,11,22,0,-60,6.67
1335,-11,11,-20,-26,-29,-25,-14,36,6.675
1336,-6,-25,14,20,11,6,19,6,6.68
1337,-25,-14,-10,-32,7,5,2,-12,6.6850000000000005
1338,8,-34,15,7,-2,1,19,46,6.69
1339,64,100,40,24,-3,3,9,28,6.695
1340,-31,-39,-65,-52,9,16,1,-10,6.7
1341,-21,-43,-26,-37,-27,-21,-18,-16,6.705
1342,-45,-48,-21,-5,-19,2,-9,-36,6.71
1343,11,15,13,-20,-34,-21,-1,-3,6.715
1344,17,-3,28,4,52,21,7,6,6.72
1345,-7,28,21,31,31,31,8,-15,6.7250000000000005
1346,16,6,10,2,17,16,7,23,6.73
1347,-8,2,-16,21,14,-4,-6,-8,6.735
1348,3,-14,-4,-19,-15,-12,-9,-3,6.74
1349,28,37,9,-23,-25,-8,1,4,6.745
1350,-13,-21,-5,-6,-34,-21,-13,-5,6.75
1351,-9,-6,0,-1,-7,3,-12,-20,6.755
1352,-58,-43,-26,-4,-6,-29,-25,-88,6.76
1353,38,12,-4,-11,16,31,41,103,6.765000000000001
1354,39,31,31,7,-6,-15,5,20,6.7700000000000005
1355,3,-3,-1,20,13,3,3,5,6.775
1356,-1,-2,-14,-17,-7,0,-12,-22,6.78
1357,-22,-8,-12,-4,-3,-6,-10,-29,6.785
1358,-9,-3,3,-22,-28,-17,-5,7,6.79
1359,3,5,0,40,40,36,10,-10,6.795
1360,-21,0,16,4,30,3,-5,-4,6.8
1361,36,17,0,6,-1,0,12,24,6.805
1362,-4,11,16,22,40,9,-3,-1,6.8100000000000005
1363,-13,-30,-12,-3,-36,-15,-2,-9,6.815
1364,23,38,14,5,3,16,12,18,6.82
1365,-4,-15,-5,1,-13,-19,-21,-16,6.825
1366,7,-9,-3,-7,-18,1,-5,-28,6.83
1367,11,1,5,-8,-1,-2,6,50,6.835
1368,8,5,0,2,5,1,-5,4,6.84
1369,-11,-6,5,4,2,0,14,72,6.845
1370,-4,6,-8,-22,-10,-8,-9,-6,6.8500000000000005
1371,-5,2,24,14,9,0,-5,-26,6.855
1372,-2,-4,-37,-25,-6,-3,-11,-8,6.86
1373,-21,-7,-20,-16,-4,-7,-16,-58,6.865
1374,-1,5,4,12,6,2,1,6,6.87
1375,-23,-22,-59,-32,-58,-25,-4,5,6.875
1376,32,21,39,14,51,16,15,39,6.88
1377,16,14,5,21,11,13,11,11,6.885
1378,-18,-10,-13,-1,-11,-7,-1,0,6.890000000000001
1379,1,3,15,-12,-5,0,-4,-28,6.8950000000000005
1380,-1,0,-19,-9,-31,-12,2,5,6.9
1381,-1,9,-2,-17,3,4,-8,-17,6.905
1382,14,6,10,8,12,6,12,29,6.91
1383,16,15,22,12,-2,-1,6,10,6.915
1384,-15,-13,-12,-25,-2,-4,-8,-9,6.92
1385,-6,7,-4,14,13,10,1,-24,6.925
1386,-24,-27,-15,17,-31,-18,-7,-6,6.93
1387,12,7,-10,-16,-10,-3,1,-6,6.9350000000000005
1388,0,-5,-12,4,86,38,14,24,6.94
1389,-5,-5,1,-5,-13,-10,-9,-22,6.945
1390,3,5,9,9,-7,0,5,4,6.95
1391,-3,-1,2,7,14,8,3,-2,6.955
1392,-7,-6,22,17,-39,-18,-11,-11,6.96
1393,-2,1,0,0,7,-2,-1,-5,6.965
1394,-17,-8,-6,1,2,6,-1,-9,6.97
1395,-3,-18,-12,-11,4,-2,-3,-1,6.9750000000000005
1396,3,9,14,0,-21,-16,-4,5,6.98
1397,-2,2,4,5,12,3,1,-5,6.985
1398,-9,-26,-6,-9,-7,0,-4,-7,6.99
1399,14,4,10,-8,10,6,13,46,6.995
1400,-6,-12,3,-2,-9,-4,-4,-2,7.0
1401,-5,-7,-4,-11,-9,-6,-6,-4,7.005
1402,10,9,-11,-19,2,1,9,5,7.01
1403,-6,1,9,13,11,5,-1,-18,7.015000000000001
1404,-2,-9,-3,30,-10,-2,2,2,7.0200000000000005
1405,-4,-2,1,-30,-6,-8,-7,-9,7.025
1406,3,5,0,-17,3,3,-5,-9,7.03
1407,-3,-3,-19,5,1,-1,1,-6,7.035
1408,4,8,3,19,-9,-3,-1,0,7.04
1409,-3,-3,-9,15,6,0,-2,-9,7.045
1410,-10,2,-32,-10,2,-4,-7,1,7.05
1411,-1,-2,-26,-8,-5,-4,-16,-30,7.055
1412,21,11,-18,-5,-14,-4,53,40,7.0600000000000005
1413,-29,-10,-13,3,7,8,26,11,7.065
1414,12,10,15,14,7,17,40,22,7.07
1415,-6,-3,6,-3,-12,-16,-30,0,7.075
1416,-10,-7,14,0,-6,-2,-6,-20,7.08
1417,10,0,10,6,0,-4,-14,1,7.085
1418,12,8,13,-2,5,5,5,-1,7.09
1419,-13,-9,1,-10,1,-3,-7,-9,7.095
1420,-17,-5,-2,-25,-4,-3,-23,-29,7.1000000000000005
1421,15,6,7,-1,-1,-1,4,32,7.105
1422,0,-2,3,15,-2,-5,-20,-13,7.11
1423,-2,2,8,8,3,3,5,-7,7.115
1424,9,-2,4,10,-1,-1,-16,2,7.12
1425,-6,-3,0,-7,-2,-6,-4,-21,7.125
1426,-4,4,3,7,2,-3,-3,7,7.13
1427,-1,1,-12,-15,1,4,19,11,7.135
1428,-8,2,7,-12,-1,0,-4,-6,7.140000000000001
1429,-17,-6,-2,-4,-4,-5,-22,-18,7.1450000000000005
1430,-1,-2,3,0,2,-7,-24,-11,7.15
1431,4,-4,-24,-29,-7,5,33,13,7.155
1432,-21,-5,-2,-5,-2,-2,-18,-7,7.16
1433,22,2,1,0,-3,-3,0,-5,7.165
1434,-8,0,2,-7,-2,-3,-8,0,7.17
1435,-8,2,8,11,10,3,-3,-12,7.175
1436,11,-2,7,14,4,-3,-18,-19,7.18
1437,2,3,-14,0,-3,-6,0,18,7.1850000000000005
1438,1,-2,-4,-7,3,8,15,20,7.19
1439,2,-1,4,-4,-2,-1,-8,-4,7.195
1440,5,-3,-16,-9,-5,1,4,-5,7.2
1441,-14,4,21,20,-2,-6,-14,-40,7.205
1442,25,7,-3,0,2,1,10,46,7.21
1443,7,-4,-19,-14,-3,1,0,-8,7.215
1444,-18,-8,13,5,-1,-2,2,-3,7.22
1445,-9,-3,-9,-3,1,4,2,3,7.2250000000000005
1446,-16,0,15,6,-3,-2,2,-21,7.23
1447,23,7,20,13,4,2,-5,17,7.235
1448,6,1,-7,-6,-5,0,5,5,7.24
1449,-1,-4,-1,0,-2,2,-3,2,7.245
1450,-10,-3,4,1,-3,-4,-4,-14,7.25
1451,-7,3,4,0,-1,-3,-4,-1,7.255
1452,-1,3,1,5,1,0,0,0,7.26
1453,5,1,0,1,3,3,8,6,7.265000000000001
1454,9,-2,-12,-6,-1,0,-3,-5,7.2700000000000005
1455,-1,-1,8,7,2,0,0,-2,7.275
1456,7,1,2,1,0,0,1,4,7.28
1457,1,-2,0,-6,-1,0,3,-7,7.285
1458,7,0,-11,-15,-4,-1,2,11,7.29
1459,-5,0,3,7,3,1,2,2,7.295
1460,-4,1,3,0,0,1,3,-1,7.3
1461,2,3,4,5,0,-4,-1,-6,7.305
1462,-6,-2,-7,-3,-3,-3,-1,1,7.3100000000000005
1463,5,-1,3,-1,-3,-2,-1,5,7.315
1464,7,4,-4,-4,0,3,-1,3,7.32
1465,0,-7,-12,-4,-1,0,2,5,7.325
1466,7,3,2,-5,-2,-1,-1,-6,7.33
1467,-8,-2,0,2,-2,-3,-4,-5,7.335
1468,-2,0,5,4,1,0,6,2,7.34
1469,4,-5,-7,-3,-1,0,-5,1,7.345
1470,-7,-7,1,4,-1,-4,-11,-8,7.3500000000000005
1471,-3,-3,-7,-3,0,4,8,-1,7.355
1472,-6,-3,4,-4,-1,-4,0,2,7.36
1473,4,4,6,2,0,1,0,8,7.365
1474,1,-5,-6,2,2,1,2,-5,7.37
1475,5,7,12,-4,-3,-5,-5,0,7.375
1476,-17,-9,-8,1,2,2,4,0,7.38
1477,4,1,0,-4,0,1,2,0,7.385
1478,4,1,3,-4,-2,-2,-3,-2,7.390000000000001
1479,-3,0,-2,4,1,0,-2,0,7.3950000000000005
1480,3,3,-3,6,4,1,0,-2,7.4
1481,-1,-2,-3,-3,-2,1,1,3,7.405
1482,-3,-2,-3,-1,-3,-3,2,-8,7.41
1483,-6,-1,3,12,1,-5,-4,-5,7.415
1484,-7,-10,-17,-25,-8,-5,-3,-5,7.42
1485,8,6,17,15,1,1,2,8,7.425
1486,-14,-6,-6,1,3,4,0,-8,7.43
1487,2,1,2,2,3,2,2,13,7.4350000000000005
1488,4,2,2,8,-3,-3,-6,-6,7.44
1489,0,0,-5,-17,-3,0,7,1,7.445
1490,4,1,2,5,-1,-1,-1,-2,7.45
1491,-3,-2,4,17,-1,-5,-3,-3,7.455
1492,2,-2,2,-14,0,0,-3,-5,7.46
1493,-3,1,-3,1,4,3,2,-1,7.465
1494,-9,-2,3,-5,-5,-2,-1,-1,7.47
1495,-5,-2,-9,-4,0,1,0,-9,7.4750000000000005
1496,6,4,5,12,2,0,0,7,7.48
1497,-4,-4,1,1,-2,-4,0,-6,7.485
1498,5,-4,-7,-2,-2,1,-1,2,7.49
1499,0,-4,-4,-3,1,3,1,-9,7.495
1500,-2,1,-6,-7,-4,0,1,11,7.5
1501,3,-1,-5,-9,1,4,8,6,7.505
1502,1,1,0,8,-2,-3,-7,-3,7.51
1503,0,0,-1,-7,-2,-2,-1,0,7.515000000000001
1504,1,1,3,-4,-3,-1,-9,-5,7.5200000000000005
1505,-6,-4,-9,-10,-5,-6,-7,-4,7.525
1506,-8,-3,0,1,-1,-4,-5,3,7.53
1507,-5,-4,-1,-4,-4,4,14,1,7.535
1508,0,-4,-7,2,0,-2,-5,-4,7.54
1509,2,1,2,2,1,-4,-5,-2,7.545
1510,0,-1,-2,-9,0,0,-4,-7,7.55
1511,2,1,-2,-3,0,0,-5,3,7.555
1512,1,0,0,4,-1,-3,1,-2,7.5600000000000005
1513,1,1,4,6,0,1,1,0,7.565
1514,5,4,3,9,4,3,4,2,7.57
1515,0,3,5,6,2,-1,-3,-4,7.575
1516,0,2,3,-5,-5,0,3,-8,7.58
1517,-8,-5,-11,4,0,-2,0,6,7.585
1518,1,0,-1,-6,0,2,-1,0,7.59
1519,2,2,-1,-9,-4,-3,-3,-2,7.595
1520,-4,-4,-6,5,2,-2,-6,-7,7.6000000000000005
1521,-5,-2,1,-2,-1,0,7,-3,7.605
1522,-2,-1,-3,4,1,3,5,7,7.61
1523,-5,-4,-5,-7,-2,-1,1,-2,7.615
1524,1,-1,0,-7,-4,-3,-4,-1,7.62
1525,-4,-3,4,0,-2,2,4,-5,7.625
1526,6,5,6,9,-1,-3,-4,4,7.63
1527,-2,-5,-3,-10,0,-3,-1,-7,7.635
1528,0,-1,3,3,-2,-1,-5,7,7.640000000000001
1529,8,4,3,1,-1,0,-1,2,7.6450000000000005
1530,-2,-5,-7,-4,-4,-2,1,-4,7.65
1531,1,0,-3,-6,1,2,-5,1,7.655
1532,0,-1,-2,0,0,-2,4,-4,7.66
1533,-12,-3,2,-7,0,0,-4,-5,7.665
1534,-2,2,1,10,2,1,4,2,7.67
1535,-6,-1,2,-6,-6,-5,-7,-4,7.675
1536,13,2,0,-5,0,1,7,11,7.68
1537,4,4,4,4,-1,-1,0,-4,7.6850000000000005
1538,-9,-7,-3,-19,-5,-4,-6,-6,7.69
1539,40,8,0,7,0,-1,0,16,7.695
1540,-8,-4,-1,9,1,1,3,0,7.7
1541,6,0,-5,-8,-5,-4,-6,-1,7.705
1542,-7,-5,-6,-13,-3,-4,0,-7,7.71
1543,-5,-1,-4,-4,-4,-4,-2,-5,7.715
1544,2,1,-3,-12,-2,0,2,3,7.72
1545,-1,-3,-6,4,0,-3,-7,-2,7.7250000000000005
1546,6,0,-5,-11,-7,-2,-2,0,7.73
1547,-9,-2,1,0,-3,-2,1,-1,7.735
1548,-3,2,5,14,-3,-3,-1,-4,7.74
1549,-7,-5,-3,-11,0,0,0,-3,7.745
1550,8,5,4,-5,-2,-1,1,0,7.75
1551,0,-2,-3,-4,5,2,-1,1,7.755
1552,-5,-3,2,15,4,2,1,2,7.76
1553,5,3,-2,11,7,5,3,-1,7.765000000000001
1554,-8,1,1,-1,-2,-1,1,-5,7.7700000000000005
1555,13,-2,2,16,3,1,1,11,7.775
1556,-11,-5,-6,-20,-4,-2,-1,-5,7.78
1557,1,0,4,6,0,0,0,2,7.785
1558,5,3,2,4,1,0,-1,4,7.79
1559,-4,-1,-2,-4,-5,-2,-4,-7,7.795
1560,-4,-2,-5,-13,1,0,-3,-4,7.8
1561,9,1,-2,8,-2,-1,3,4,7.805000000000001
1562,-21,-2,12,12,3,-2,1,1,7.8100000000000005
1563,2,1,-1,-1,0,-1,3,-1,7.815
1564,5,2,-8,-17,-1,0,-1,-4,7.82
1565,-3,-1,1,1,-6,-2,-3,-4,7.825
1566,6,0,-2,0,3,0,-3,-3,7.83
1567,-1,0,5,14,1,0,-1,-1,7.835
1568,-11,-5,-12,-23,-4,1,1,3,7.84
1569,2,0,2,-1,-1,-2,0,-1,7.845
1570,7,1,-4,-5,-2,-1,-1,-5,7.8500000000000005
1571,-8,-3,-2,-1,-1,-2,-3,-5,7.855
1572,-4,-2,0,-8,0,0,0,2,7.86
1573,8,-1,3,3,-1,-1,-3,7,7.865
1574,10,3,4,7,2,4,3,5,7.87
1575,-42,-18,-19,-16,-4,-5,-7,-11,7.875
1576,-1,1,1,7,-4,-4,-1,1,7.88
1577,3,-2,-9,-11,-1,0,1,-9,7.885
1578,-14,-6,-5,-2,-1,-2,1,9,7.890000000000001
1579,4,2,5,7,1,2,0,-3,7.8950000000000005
1580,5,-2,-3,2,-1,-2,-1,1,7.9
1581,-6,-2,1,0,-2,-4,-4,-5,7.905
1582,12,0,1,6,-1,0,0,-3,7.91
1583,-4,-1,-7,-11,-3,-1,-1,-4,7.915
1584,-1,-1,3,4,-1,0,1,0,7.92
1585,-4,1,3,2,-1,-1,-2,-4,7.925
1586,9,0,4,9,-3,-4,-4,6,7.930000000000001
1587,-10,-2,-15,-28,-4,-2,2,1,7.9350000000000005
1588,1,-3,3,17,-4,-2,-3,-3,7.94
1589,-6,-5,-9,-8,-1,-2,-1,0,7.945
1590,-4,-1,-5,-4,-4,-1,-2,-7,7.95
1591,2,2,6,9,1,0,2,6,7.955
1592,-3,-4,-9,-3,1,0,-3,-2,7.96
1593,-6,0,5,-4,-3,-1,0,2,7.965
1594,0,0,1,-3,-1,0,0,1,7.97
1595,8,0,-2,-2,-3,-3,-1,2,7.9750000000000005
1596,0,2,4,-4,1,0,0,-8,7.98
1597,32,4,-3,-3,-1,-2,0,10,7.985
1598,-52,-11,-2,6,0,0,1,-4,7.99
1599,6,2,5,-5,-1,0,-3,-3,7.995
1600,4,6,6,5,2,2,1,5,8.0
1601,6,1,-4,-2,1,2,-4,-4,8.005
1602,13,-1,-2,11,1,-3,-1,2,8.01
1603,-1,0,0,-24,-8,1,-1,-3,8.015
1604,-7,-3,-7,0,-1,-1,-1,-1,8.02
1605,-13,-2,3,-11,-4,-3,-6,-6,8.025
1606,7,1,-3,-4,2,2,-3,-3,8.03
1607,-11,-2,-3,5,-1,0,0,0,8.035
1608,6,0,6,0,-2,-1,-2,1,8.040000000000001
1609,-16,-10,-15,-3,-4,-5,-2,-4,8.045
1610,1,4,5,-1,2,2,0,-5,8.05
1611,5,1,0,6,1,1,1,3,8.055
1612,1,2,5,-1,-1,-1,-1,-3,8.06
1613,-10,-1,1,8,3,3,4,-5,8.065
1614,8,3,1,-9,-3,-2,-2,7,8.07
1615,2,-3,-9,-4,-2,-2,-4,-5,8.075
1616,6,2,6,1,-4,-4,-1,6,8.08
1617,-20,-7,-8,0,1,2,2,4,8.085
1618,9,0,-4,-2,-2,-1,0,-3,8.09
1619,0,0,-3,-11,-4,-2,-1,3,8.095
1620,3,-3,-3,1,0,-3,-3,-4,8.1
1621,9,2,4,4,0,-3,-1,-3,8.105
1622,-2,-4,-11,-3,-2,-1,-1,-1,8.11
1623,14,4,7,9,2,-2,-2,-1,8.115
1624,-15,-1,0,-1,2,2,3,-4,8.120000000000001
1625,5,5,3,-1,3,2,0,1,8.125
1626,-12,-3,-3,8,2,0,0,-1,8.13
1627,6,1,6,-1,-5,0,1,0,8.135
1628,-1,-2,-3,-3,1,-1,-1,-4,8.14
1629,2,0,-1,-8,0,1,-2,8,8.145
1630,6,1,2,-5,-3,-1,-2,-4,8.15
1631,-11,-3,-2,6,5,-2,0,5,8.155
1632,5,1,0,5,1,0,1,1,8.16
1633,-16,-3,4,1,-6,-2,-1,-3,8.165000000000001
1634,5,-1,-1,-1,4,1,0,-2,8.17
1635,-5,-1,-2,4,0,0,0,-1,8.175
1636,-4,-3,-6,-1,-1,-2,-1,-8,8.18
1637,11,4,3,2,2,0,1,6,8.185
1638,-1,-3,-6,-10,-3,-2,-2,-3,8.19
1639,-8,-1,-2,-6,-6,-4,-1,-6,8.195
1640,9,0,-8,-7,1,2,2,5,8.2
1641,-8,-1,-1,2,1,0,1,-5,8.205
1642,-2,0,0,-2,-1,0,0,1,8.21
1643,-3,-3,1,4,-1,-2,-2,0,8.215
1644,17,4,2,-1,-1,-2,-3,2,8.22
1645,-18,-4,-3,1,-2,0,-1,-1,8.225
1646,3,0,-6,-9,-1,0,-1,-2,8.23
1647,12,0,0,5,4,2,0,-2,8.235
1648,-25,-3,2,0,0,0,0,3,8.24
1649,26,3,1,5,0,-1,-1,1,8.245000000000001
1650,-22,-4,3,4,-2,-2,0,-3,8.25
1651,1,0,2,1,1,1,1,1,8.255
1652,2,0,-1,0,-2,-2,-2,0,8.26
1653,-7,-4,-3,-4,1,1,-1,-3,8.265
1654,1,-1,1,9,1,2,1,-2,8.27
1655,-1,-3,-1,-7,3,1,-2,-1,8.275
1656,8,5,2,7,-4,1,2,2,8.28
1657,-1,-2,-10,-17,-3,0,0,-5,8.285
1658,12,4,1,-5,0,-2,0,1,8.290000000000001
1659,-10,-1,4,10,2,1,-1,-2,8.295
1660,2,0,5,2,0,-1,-2,-4,8.3
1661,0,-2,0,6,0,-1,0,-4,8.305
1662,-3,0,-3,-2,0,-1,-1,5,8.31
1663,2,4,5,0,-4,0,0,0,8.315
1664,-15,-11,-6,-3,-3,-4,-3,-5,8.32
1665,1,-1,-3,-16,-5,-3,0,-1,8.325
1666,-3,-2,0,12,2,1,-1,-7,8.33
1667,30,7,-2,-5,-2,2,-1,4,8.335
1668,-30,-9,0,4,-1,-1,0,0,8.34
1669,-6,-1,2,4,3,1,-2,-2,8.345
1670,27,2,-3,-8,-4,-4,-1,-2,8.35
1671,-14,2,0,-1,0,0,2,0,8.355
1672,9,0,0,-3,-2,-1,-2,-2,8.36
1673,-1,-3,-10,-8,-8,-5,-5,-4,8.365
1674,11,7,9,-1,-1,-3,-3,-1,8.370000000000001
1675,-5,-5,-2,1,1,1,-1,-1,8.375
1676,0,-5,-11,-5,1,-1,-3,-2,8.38
1677,-1,1,4,7,2,-1,1,0,8.385
1678,-2,-2,-1,-6,-3,-1,-1,1,8.39
1679,-11,-5,-2,2,-2,-3,-3,-6,8.395
1680,-1,2,1,-2,-1,0,2,2,8.4
1681,4,1,1,1,-1,-1,-2,-1,8.405
1682,2,-2,-5,-7,-3,-2,-2,-5,8.41
1683,-5,-1,0,0,1,0,0,4,8.415000000000001
1684,8,2,4,-1,-1,0,-1,-2,8.42
1685,1,-1,0,4,-1,3,1,-4,8.425
1686,-18,-4,-3,-3,0,1,2,4,8.43
1687,-1,-5,-6,-7,-4,-3,-2,-3,8.435
1688,-1,0,6,26,5,3,1,1,8.44
1689,0,0,-4,-19,-2,0,1,1,8.445
1690,-5,-6,-6,-5,-3,-3,-1,-2,8.45
1691,37,6,-3,-1,0,0,-1,-1,8.455
1692,-25,-4,-1,-1,-1,2,0,0,8.46
1693,0,0,1,6,0,-2,-1,4,8.465
1694,0,-4,-1,-6,-4,1,-1,-1,8.47
1695,-3,-5,-6,-1,0,0,-2,3,8.475
1696,14,5,3,-7,-4,-3,-1,-8,8.48
1697,8,4,2,1,-2,-1,1,8,8.485
1698,-1,-3,-2,0,1,0,-1,1,8.49
1699,-11,-2,2,6,1,0,0,-5,8.495000000000001
1700,3,-2,-5,-4,-1,-1,-1,-4,8.5
1701,-2,-1,4,0,1,-2,-2,-2,8.505
1702,-1,0,3,-1,0,-2,-3,-2,8.51
1703,-1,1,2,6,-1,-2,0,2,8.515
1704,-4,-1,-8,-7,-1,-3,-2,0,8.52
1705,0,-1,0,2,-1,-1,-2,-2,8.525
1706,1,1,3,4,1,1,0,0,8.53
1707,-10,-3,-9,-13,-3,0,0,-6,8.535
1708,22,7,4,2,0,-1,-1,3,8.540000000000001
1709,-9,-3,-5,1,-1,0,-1,-2,8.545
1710,-17,-2,4,8,-1,-1,-1,0,8.55
1711,-7,-1,1,-10,-2,0,0,-5,8.555
1712,15,1,-5,-2,1,-1,0,0,8.56
1713,-8,-3,-3,-4,-1,0,1,4,8.565
1714,10,1,2,0,1,1,-1,-5,8.57
1715,-5,0,4,4,-1,-2,0,3,8.575000000000001
1716,2,0,2,-4,-1,0,0,1,8.58
1717,-16,-4,4,7,0,-2,-1,-10,8.585
1718,-1,-1,-6,-7,0,-1,0,-1,8.59
1719,-3,-2,0,1,1,0,-1,-9,8.595
1720,-16,-4,-6,-4,1,0,-1,12,8.6
1721,-6,-1,-2,8,1,0,0,-6,8.605
1722,4,0,0,-6,-2,-1,-1,-4,8.61
1723,-7,-2,0,1,-1,-1,0,3,8.615
1724,3,0,5,0,-2,-1,-3,-4,8.620000000000001
1725,7,2,4,0,-1,-2,-3,-1,8.625
1726,-33,-7,-5,-5,-2,-1,0,0,8.63
1727,2,-2,-3,10,1,-2,-4,-4,8.635
1728,2,-2,-5,-19,-2,1,1,-4,8.64
1729,3,0,-1,3,2,2,-1,4,8.645
1730,-1,-2,-1,2,-2,0,-2,-1,8.65
1731,11,2,-1,3,0,-1,-1,-2,8.655
1732,-41,-10,0,1,-2,-3,-2,2,8.66
1733,6,2,4,-3,-2,-1,1,-2,8.665000000000001
1734,12,0,-5,0,1,0,0,4,8.67
1735,-2,0,1,0,0,-1,0,-3,8.675
1736,9,1,0,-1,-2,1,-1,-2,8.68
1737,-5,-4,-1,2,-1,-2,-3,-4,8.685
1738,-6,0,4,3,-1,-2,1,1,8.69
1739,9,-2,-6,-13,-1,-1,-1,3,8.695
1740,3,-6,-15,-6,-5,-3,-1,-4,8.700000000000001
1741,-23,-7,-4,-3,-4,-6,-4,-10,8.705
1742,28,3,4,5,1,-1,-2,4,8.71
1743,-21,-3,0,1,1,3,1,3,8.715
1744,14,4,3,1,1,2,2,7,8.72
1745,16,1,-5,-4,-10,0,0,6,8.725
1746,-7,-2,-1,3,0,-4,-3,-5,8.73
1747,3,3,8,0,5,1,-2,0,8.735
1748,-6,-3,-5,-4,-17,-6,-2,-4,8.74
1749,3,-3,-3,1,-3,-4,1,2,8.745000000000001
1750,5,3,0,-2,26,11,6,4,8.75
1751,-7,-6,-8,6,-2,-3,0,-3,8.755
1752,5,3,3,3,2,1,-1,0,8.76
1753,13,4,6,1,-3,-1,-2,1,8.765
1754,-14,-5,-9,-13,-17,-6,-2,-2,8.77
1755,-15,-4,0,-1,0,-2,-1,1,8.775
1756,-1,-1,-1,-4,0,-2,-4,-7,8.78
1757,6,-1,-5,-9,-6,-2,0,15,8.785
1758,4,1,3,12,3,1,-1,-2,8.790000000000001
1759,-2,-1,-2,-11,-4,-2,0,0,8.795
1760,11,2,3,7,-1,-1,-2,-9,8.8
1761,-10,-2,-3,-3,7,2,2,-1,8.805
1762,-1,3,6,2,-2,-1,-1,-1,8.81
1763,-4,-2,-8,-2,-4,-1,-1,-1,8.815
1764,2,-1,2,-1,2,-1,-1,-3,8.82
1765,-9,-3,4,9,7,4,1,-4,8.825000000000001
1766,-4,-6,-12,-14,-7,-2,-1,-1,8.83
1767,5,3,7,13,-1,0,1,-1,8.835
1768,-5,0,0,-3,2,-1,-1,1,8.84
1769,2,-2,-4,-1,4,5,2,0,8.845
1770,-1,0,-1,-5,-3,-3,-2,-1,8.85
1771,18,1,-3,-2,-5,-4,-3,4,8.855
1772,0,1,2,8,3,1,2,2,8.86
1773,-19,-5,-4,-11,-7,-2,-3,-6,8.865
1774,1,-3,-2,-1,1,-2,0,-2,8.870000000000001
1775,4,2,5,1,2,2,0,-1,8.875
1776,0,0,1,1,0,-1,-1,3,8.88
1777,11,3,1,1,0,-2,-1,-1,8.885
1778,-8,-3,-1,3,-2,1,-4,-3,8.89
1779,4,0,2,-5,-1,0,-1,0,8.895
1780,-2,-4,-5,6,2,0,-1,2,8.9
1781,5,0,-2,-7,-1,-1,1,-1,8.905
1782,-14,0,0,9,-3,0,3,2,8.91
1783,-1,-3,-9,-1,-1,0,0,-2,8.915000000000001
1784,-5,3,0,-11,-3,2,0,-6,8.92
1785,5,-4,-5,3,3,0,-2,4,8.925
1786,22,3,1,0,-3,-1,-3,1,8.93
1787,-12,-3,0,4,1,-1,0,-2,8.935
1788,-6,0,1,5,3,1,3,-1,8.94
1789,-3,1,-1,-7,-1,0,0,-2,8.945
1790,9,5,4,0,-2,0,1,1,8.950000000000001
1791,-3,-2,3,4,-5,-4,-2,-2,8.955
1792,-1,-3,-7,-7,2,-1,-2,0,8.96
1793,6,1,4,8,3,-1,0,0,8.965
1794,-4,-2,1,0,-1,-2,0,0,8.97
1795,3,3,6,0,-1,0,-1,0,8.975
1796,-6,-6,-2,3,1,-1,-1,0,8.98
1797,1,0,-1,0,0,1,-1,-1,8.985
1798,-9,-2,6,12,-1,-1,-1,-5,8.99
1799,8,0,-10,-9,-3,-1,0,-2,8.995000000000001
1800,0,-1,0,-1,-5,-5,-1,-1,9.0
1801,-9,-1,-4,-22,1,0,-2,-7,9.005
1802,5,-5,-3,18,2,-2,0,3,9.01
1803,-4,0,1,-2,2,0,0,0,9.015
1804,-9,0,5,7,0,0,0,2,9.02
1805,-1,-3,-4,3,-2,-2,-2,-6,9.025
1806,-27,0,4,-12,-3,-3,-3,-8,9.03
1807,21,-6,-9,2,1,2,2,6,9.035
1808,7,-1,-6,-8,-3,-1,0,5,9.040000000000001
1809,2,2,4,5,2,-1,-1,1,9.045
1810,10,2,-4,-5,0,1,0,-2,9.05
1811,-14,-1,2,1,-2,-3,-3,-5,9.055
1812,1,4,2,-5,-2,-2,0,3,9.06
1813,18,-3,-5,4,-1,0,1,9,9.065
1814,6,0,-4,-1,0,-2,-1,0,9.07
1815,-26,-3,3,-1,-3,-2,-1,-5,9.075000000000001
1816,18,1,-1,-8,3,2,1,0,9.08
1817,2,0,4,10,-1,-1,0,-5,9.085
1818,-4,-2,-4,3,0,0,0,3,9.09
1819,4,1,-1,-4,-1,2,1,2,9.095
1820,12,3,3,7,-2,-3,-1,-2,9.1
1821,-10,-3,-5,-4,3,1,-1,0,9.105
1822,10,1,-10,-12,-3,-3,-2,-3,9.11
1823,-21,-5,3,1,-2,-2,-2,-5,9.115
1824,11,4,-6,-8,-2,1,5,11,9.120000000000001
1825,-4,1,3,3,-4,-4,-1,-3,9.125
1826,8,3,3,-3,0,1,1,-1,9.13
1827,-2,-2,-5,1,1,0,-1,-1,9.135
1828,-10,-4,0,-1,-4,-2,-3,-5,9.14
1829,-8,-1,2,2,-1,0,-3,-2,9.145
1830,3,1,1,-4,-1,1,1,2,9.15
1831,-38,-12,-5,-4,-2,-1,-5,-11,9.155
1832,-7,-4,1,5,2,0,-1,3,9.16
1833,11,3,-3,-1,-1,-2,1,2,9.165000000000001
1834,-6,-2,1,-5,-3,-2,-1,1,9.17
1835,-3,-1,1,4,2,0,0,2,9.175
1836,-2,-3,-7,1,-1,-1,-3,-4,9.18
1837,-14,-4,-5,-12,-4,-2,-2,-5,9.185
1838,-6,-3,3,6,0,0,-1,-1,9.19
1839,20,2,-1,-10,-6,-5,-3,3,9.195
1840,6,1,-3,-2,0,-2,-2,-2,9.200000000000001
1841,-2,2,4,5,1,2,2,3,9.205
1842,-3,-6,-8,-4,1,2,2,0,9.21
1843,16,4,2,5,0,-1,2,0,9.215
1844,-4,-1,-1,-2,-2,-1,-3,-7,9.22
1845,5,1,-5,-5,-1,-2,-3,0,9.225
1846,10,1,0,1,-1,-3,-1,-1,9.23
1847,5,0,1,7,-2,-1,0,-1,9.235
1848,2,0,5,-8,-1,1,0,1,9.24
1849,-4,-9,-5,-1,-2,-1,-2,-6,9.245000000000001
1850,-10,-3,-5,-2,-2,0,0,4,9.25
1851,4,3,-2,-2,0,-1,0,1,9.255
1852,-4,-4,-1,2,-1,-2,-3,-5,9.26
1853,-3,1,2,6,-1,0,-1,-5,9.265
1854,2,-3,-4,-4,-3,-2,-3,-2,9.27
1855,6,2,-2,-12,0,0,0,-1,9.275
1856,-6,-1,1,7,-2,-2,-2,-3,9.28
1857,-18,-3,4,5,3,3,3,-3,9.285
1858,-8,-3,-11,-7,-4,-1,-1,1,9.290000000000001
1859,-2,3,7,8,1,-1,-1,-3,9.295
1860,6,-2,-9,-8,-2,0,1,-1,9.3
1861,-2,-4,-2,-4,-3,-1,-1,2,9.305
1862,1,1,5,1,-1,0,0,-1,9.31
1863,15,2,2,5,4,1,1,4,9.315
1864,-14,-4,0,-4,-5,-1,0,-1,9.32
1865,8,2,2,4,-1,-1,0,1,9.325000000000001
1866,-5,-1,-1,-2,1,0,-1,-1,9.33
1867,-3,-3,-4,-5,-3,0,-1,0,9.335
1868,-6,0,8,7,0,0,1,-1,9.34
1869,-5,-2,-11,-6,-4,-2,-2,-2,9.345
1870,-4,-1,0,-5,0,0,-1,-4,9.35
1871,-5,-4,-2,-10,-5,-5,-5,1,9.355
1872,-16,-5,-5,5,-1,1,-1,-2,9.36
1873,5,4,8,14,0,-1,2,4,9.365
1874,7,0,-7,-5,-1,0,-1,-3,9.370000000000001
1875,-10,-2,-1,1,-1,-1,-1,-3,9.375
1876,6,2,-1,-4,-1,-2,0,1,9.38
1877,-19,-6,-1,3,-2,-2,-5,-5,9.385
1878,12,2,-2,0,-1,0,0,1,9.39
1879,-7,-1,0,-1,-3,-1,-1,0,9.395
1880,0,-1,-3,-3,2,-1,-1,-2,9.4
1881,18,4,2,-8,-4,-3,0,-2,9.405
1882,-6,-3,2,10,0,-2,-2,-2,9.41
1883,-4,-4,-9,-10,-2,-1,-1,-3,9.415000000000001
1884,5,0,-6,-17,-1,-1,-1,1,9.42
1885,-9,-2,1,1,-1,0,1,1,9.425
1886,-6,0,-1,-11,-2,-1,0,0,9.43
1887,4,0,1,24,-1,-1,2,-3,9.435
1888,3,2,5,9,1,1,1,-1,9.44
1889,-7,-2,-6,-3,-2,-1,-2,-1,9.445
1890,-4,-1,0,0,-1,-1,-1,-2,9.450000000000001
1891,-3,1,0,-6,2,-2,-2,-5,9.455
1892,-1,1,-4,-5,1,0,1,8,9.46
1893,6,0,8,-3,-2,0,-1,0,9.465
1894,-3,-2,1,1,-2,0,-1,-1,9.47
1895,0,-3,-8,-6,0,0,-1,-2,9.475
1896,-11,-4,0,5,0,-1,-2,-6,9.48
1897,1,-3,1,-6,2,-1,-3,-2,9.485
1898,10,4,4,9,5,3,2,3,9.49
1899,-23,-7,-2,0,0,0,-1,0,9.495000000000001
1900,15,0,2,1,-3,-1,-3,6,9.5
1901,6,2,0,-1,2,1,1,3,9.505
1902,12,-2,-2,-2,-2,-3,-4,-3,9.51
1903,-20,-5,-4,-8,1,1,0,-2,9.515
1904,9,4,4,7,-4,-1,1,1,9.52
1905,-1,0,-1,-1,0,2,1,-1,9.525
1906,5,0,3,-1,-3,-1,0,3,9.53
1907,8,3,0,-9,1,2,0,3,9.535
1908,-11,-4,-2,6,-3,-6,-3,-9,9.540000000000001
1909,14,2,1,-5,0,0,-1,-3,9.545
1910,-11,-1,-14,-14,-1,-1,1,4,9.55
1911,11,3,10,1,0,1,1,0,9.555
1912,-27,-10,-5,-8,-1,-2,-2,-6,9.56
1913,23,4,5,8,1,0,1,10,9.565
1914,3,2,3,2,1,0,1,-1,9.57
1915,10,0,-4,2,1,-1,-2,1,9.575000000000001
1916,8,1,-3,0,-1,1,-1,2,9.58
1917,-10,-1,-5,-3,-2,-2,-1,-5,9.585
1918,-9,-2,3,-2,-2,-2,-1,0,9.59
1919,6,0,-4,2,-2,-1,0,2,9.595
1920,-8,-1,1,-6,-2,-3,-3,-7,9.6
1921,6,-1,-5,8,0,-2,-2,1,9.605
1922,-9,-1,3,1,-1,-2,-1,-1,9.61
1923,9,2,2,2,1,-1,0,-1,9.615
1924,3,2,1,1,-1,-1,0,-2,9.620000000000001
1925,-2,1,4,-3,0,0,0,-2,9.625
1926,-7,-4,-2,0,-1,-2,-3,-1,9.63
1927,10,1,2,9,0,-1,-2,0,9.635
1928,-10,0,-3,-12,2,4,1,-1,9.64
1929,4,0,-3,-1,-1,0,-1,5,9.645
1930,6,0,-1,-13,-4,-1,-1,-1,9.65
1931,-4,-2,-4,9,-1,0,0,-1,9.655
1932,0,-6,-4,5,3,0,-1,-3,9.66
1933,12,1,-5,-4,-3,-1,-2,-1,9.665000000000001
1934,-13,-2,0,-1,2,1,1,-1,9.67
1935,0,-1,-1,-5,-3,-1,-1,0,9.675
1936,0,0,3,0,0,-1,0,0,9.68
1937,13,1,-6,-7,-2,-2,3,-1,9.685
1938,-21,-8,2,6,-1,-1,1,-3,9.69
1939,-9,-1,-1,-6,-1,0,2,3,9.695
1940,-6,2,7,7,0,-1,-2,-3,9.700000000000001
1941,7,-2,-5,-4,-1,-1,-1,5,9.705
1942,5,0,-4,3,-1,0,-2,-5,9.71
1943,-2,-1,3,3,1,-1,0,-4,9.715
1944,0,0,-7,-8,-1,0,0,1,9.72
1945,-18,-3,5,6,3,1,0,-5,9.725
1946,5,-2,-4,-5,-2,-1,0,0,9.73
1947,0,-2,0,-6,-1,-2,-1,-2,9.735
1948,1,-3,0,-1,0,2,0,1,9.74
1949,-9,-1,-7,-6,-5,-1,-2,-3,9.745000000000001
1950,4,0,-2,-2,1,0,0,-1,9.75
1951,8,2,2,16,-3,-1,-2,-1,9.755
1952,-1,-2,-3,-17,-3,-3,-2,0,9.76
1953,-11,-4,0,4,-1,-2,0,-2,9.765
1954,21,2,3,4,1,0,-1,1,9.77
1955,-3,1,1,0,0,0,-1,0,9.775
1956,-10,-4,1,6,-2,-2,-1,-2,9.78
1957,-9,-5,-3,-1,0,-1,-3,-1,9.785
1958,1,1,5,7,0,0,-3,2,9.790000000000001
1959,2,-2,-10,-16,-3,-4,-3,-3,9.795
1960,25,3,-1,5,2,2,1,12,9.8
1961,-32,0,7,-4,0,0,0,-6,9.805
1962,-7,-5,-3,1,-2,-1,1,1,9.81
1963,-4,1,1,-1,-1,-1,-1,-3,9.815
1964,-18,-6,-2,-3,2,1,0,-5,9.82
1965,7,-2,-2,-9,-3,-3,-2,-1,9.825000000000001
1966,1,1,2,1,1,0,-1,-3,9.83
1967,0,-2,3,5,-1,-1,-2,2,9.835
1968,-3,0,0,1,-3,0,-2,0,9.84
1969,1,3,3,3,3,1,0,1,9.845
1970,-14,-8,-13,-8,-5,-4,-2,-5,9.85
1971,21,-1,-6,-12,-2,0,0,2,9.855
1972,1,2,2,11,-2,-2,-1,-2,9.86
1973,-1,-2,-4,2,0,1,1,-1,9.865
1974,2,4,6,8,1,-1,-1,0,9.870000000000001
1975,-13,-5,-2,-9,-1,-2,0,-5,9.875
1976,23,4,-1,-6,-1,-2,-2,6,9.88
1977,-8,-2,-2,1,-2,-2,0,-2,9.885
1978,4,2,1,-1,-2,-1,-1,0,9.89
1979,-7,-3,-1,0,1,3,-1,-2,9.895
1980,3,0,1,4,-1,-3,-1,-4,9.9
1981,-23,-11,-2,4,-1,-2,-2,-8,9.905
1982,23,6,3,4,3,1,2,6,9.91
1983,2,-1,-4,1,0,1,2,5,9.915000000000001
1984,-25,-8,-3,-10,-1,2,-1,-4,9.92
1985,9,3,0,2,-5,-4,-2,0,9.925
1986,-9,0,3,-5,-2,-2,-2,-3,9.93
1987,7,-1,0,6,-3,-3,-4,-2,9.935
1988,6,-1,-5,-5,2,0,-1,3,9.94
1989,-15,0,-1,2,0,1,3,3,9.945
1990,-7,-2,1,0,-1,1,-2,-7,9.950000000000001
1991,11,3,1,-4,-1,-1,0,6,9.955
1992,17,3,-2,3,-1,0,-2,-3,9.96
1993,-3,-2,0,-3,0,-1,-1,-1,9.965
1994,1,0,-3,-2,0,1,1,-1,9.97
1995,-1,1,3,2,0,3,0,-1,9.975
1996,-2,1,1,1,-2,-1,0,-3,9.98
1997,9,0,-4,-5,-2,-4,-1,1,9.985
1998,-6,-3,-3,-4,-4,-3,-2,0,9.99
1999,-5,-2,3,-1,-2,-1,-2,-2,9.995000000000001
2000,-11,-6,-8,-3,-2,-3,-2,-5,10.0
2001,5,0,-3,-5,0,1,-1,-1,10.005
2002,-4,-3,-4,-3,2,0,0,-1,10.01
2003,11,2,1,-1,-1,-1,2,4,10.015
2004,-3,-2,2,5,0,-1,1,0,10.02
2005,5,-2,-3,-12,-2,0,0,-1,10.025
2006,-3,0,-3,2,-4,-1,-1,-4,10.03
2007,-4,0,3,6,0,0,1,-4,10.035
2008,3,2,-2,-4,0,0,2,1,10.040000000000001
2009,-11,-4,-3,4,-1,-1,-2,-2,10.045
2010,1,2,3,1,-2,-2,0,0,10.05
2011,-21,-4,-3,-4,-1,-1,-3,-7,10.055
2012,34,4,5,6,0,1,1,6,10.06
2013,-21,-4,0,-3,-2,-1,1,-3,10.065
2014,0,-3,-3,-7,1,1,-1,0,10.07
2015,-4,-1,3,0,-3,1,0,0,10.075000000000001
2016,-3,-3,-5,-2,0,-2,-4,-6,10.08
2017,15,4,3,-2,1,1,0,4,10.085
2018,-4,-4,-3,2,-2,-3,-1,-1,10.09
2019,-6,-2,-6,-3,0,-3,-1,-2,10.095
2020,-11,-1,3,-2,-1,-2,-2,-3,10.1
2021,9,-2,-1,-4,-3,-2,-1,1,10.105
2022,-3,4,5,5,1,2,2,2,10.11
2023,11,1,-2,-1,-1,-1,-1,6,10.115
2024,-3,0,2,1,-3,-3,-2,-4,10.120000000000001
2025,2,-1,-5,-3,-1,-1,-3,-3,10.125
2026,-2,-4,-2,-8,-2,-2,-2,-4,10.13
2027,-12,-4,-2,1,0,0,-1,-5,10.135
2028,-6,0,0,-1,0,1,0,0,10.14
2029,3,-1,0,-4,-1,-1,-3,0,10.145
2030,2,-2,2,8,3,0,2,1,10.15
2031,7,0,-3,-6,-1,-1,0,1,10.155
2032,-13,-6,-2,-3,-2,-2,-3,-4,10.16
2033,-5,-2,2,19,1,0,-1,-1,10.165000000000001
2034,0,-3,-7,-22,-5,-3,-6,-4,10.17
2035,2,4,3,3,2,-2,1,-1,10.175
2036,3,2,-5,-10,1,2,1,3,10.18
2037,20,3,0,-5,-1,-1,0,0,10.185
2038,-15,-15,-5,5,-1,-3,-1,-6,10.19
2039,-1,0,2,8,-1,3,1,2,10.195
2040,5,3,-4,2,-4,-3,-4,0,10.200000000000001
2041,10,11,1,-10,-2,0,-4,1,10.205
2042,-1,-1,0,5,1,2,6,2,10.21
2043,-7,-10,-2,-19,-4,-5,-4,-7,10.215
2044,-1,1,-1,1,1,2,2,0,10.22
2045,-11,-10,-2,18,1,-2,-2,-6,10.225
2046,1,2,-7,-7,-1,-1,-9,-9,10.23
2047,6,1,5,-6,1,1,7,16,10.235
2048,-3,-9,-4,-19,-3,2,-1,3,10.24
2049,-4,-3,-4,10,1,0,1,-2,10.245000000000001
2050,3,5,4,-2,-2,1,-3,-3,10.25
2051,-3,2,-2,6,3,0,-4,-6,10.255
2052,-1,-7,1,7,-3,-6,-2,-2,10.26
2053,3,7,0,-1,-2,-3,-1,2,10.265
2054,-4,-17,-3,-4,-2,0,3,4,10.27
2055,11,5,2,11,1,0,-6,1,10.275
2056,-2,5,-6,-14,-3,3,22,6,10.28
2057,-3,-6,2,1,-2,-4,-7,-3,10.285
2058,-1,10,4,8,1,1,1,-1,10.290000000000001
2059,10,0,-10,-25,-4,-2,2,10,10.295
2060,6,17,12,23,5,3,-5,-3,10.3
2061,-14,-16,-6,11,2,-4,0,-7,10.305
2062,1,12,-1,-11,-11,-9,-10,-3,10.31
2063,-15,-24,-11,17,4,1,-3,-10,10.315
2064,2,3,-2,-14,3,2,-2,1,10.32
2065,7,5,-4,-30,-4,5,1,1,10.325000000000001
2066,-9,-13,7,16,0,-6,-4,-2,10.33
2067,0,20,5,9,-11,-7,-4,-9,10.335
2068,0,-14,7,16,0,6,2,5,10.34
2069,13,13,2,4,7,6,9,14,10.345
2070,5,14,-4,-12,-6,-7,-5,-1,10.35
2071,-7,-2,12,14,2,0,5,3,10.355
2072,1,22,10,9,-9,-5,-7,-6,10.36
2073,-2,-27,-1,-10,-5,-1,2,3,10.365
2074,4,5,5,45,9,7,5,5,10.370000000000001
2075,-2,0,3,-45,4,6,0,-5,10.375
2076,-16,-5,-3,-5,-23,-29,-20,-15,10.38
2077,-1,1,-26,-22,-4,-2,-1,-3,10.385
2078,-4,-7,-23,-11,-13,-2,4,-2,10.39
2079,2,-9,-4,-38,-18,-1,-1,-3,10.395
2080,0,-8,10,8,-10,4,-3,-4,10.4
2081,12,27,6,1,48,14,8,6,10.405
2082,-9,-5,-20,13,42,8,-2,-2,10.41
2083,-33,-26,-20,13,-22,-5,-3,-14,10.415000000000001
2084,3,-24,8,-11,28,22,10,1,10.42
2085,-2,4,7,-6,-38,-31,-17,-1,10.425
2086,18,18,22,-7,7,24,15,18,10.43
2087,-19,4,-14,15,-17,-39,-21,-23,10.435
2088,-1,2,8,18,-2,8,0,-5,10.44
2089,6,8,16,36,0,7,7,-3,10.445
2090,-26,-20,-9,-47,-11,-16,-15,-20,10.450000000000001
2091,42,16,3,-10,10,21,32,38,10.455
2092,-36,-3,8,27,4,-9,-11,-21,10.46
2093,9,-12,45,-29,10,14,7,7,10.465
2094,6,24,-32,-37,-46,-25,-11,-13,10.47
2095,-19,-69,-31,19,-11,19,-3,-14,10.475
2096,-17,-16,-21,-12,-37,-66,-30,-18,10.48
2097,21,19,48,55,99,41,14,26,10.485
2098,-19,-42,43,49,99,75,23,1,10.49
2099,-7,19,55,11,13,-2,-4,0,10.495000000000001
2100,23,11,51,26,-9,19,8,9,10.5
2101,-9,14,2,-35,-67,-29,-10,-3,10.505
2102,-3,-26,9,4,-40,-58,-27,-10,10.51
2103,16,44,9,1,17,18,14,18,10.515
2104,-18,-28,-70,-36,-3,3,-7,-5,10.52
2105,-9,18,-61,-11,-41,-36,-14,-21,10.525
2106,3,9,-38,0,6,31,23,16,10.53
2107,-2,34,-17,22,0,-7,-6,2,10.535
2108,-3,8,-28,-2,-15,-18,-4,3,10.540000000000001
2109,-12,-35,-73,-62,-57,-17,-10,-14,10.545
2110,43,65,-7,-13,-62,-7,6,15,10.55
2111,2,-56,-13,14,93,33,-3,-9,10.555
2112,5,16,-13,-11,18,21,9,2,10.56
2113,-43,-35,18,73,11,9,-1,-17,10.565
2114,29,16,20,-20,-34,-24,-2,9,10.57
2115,3,-13,13,-38,-7,12,14,14,10.575000000000001
2116,-22,-17,0,-7,-8,-16,-11,-14,10.58
2117,3,-24,-14,-7,-3,12,0,-3,10.585
2118,-2,-5,7,0,-42,-40,-17,-2,10.59
2119,11,26,11,0,-4,-3,-2,0,10.595
2120,3,-20,-7,-10,13,19,14,7,10.6
2121,7,-21,9,12,5,20,17,30,10.605
2122,-5,8,11,12,14,-23,-23,-20,10.61
2123,16,18,-1,-10,-31,-10,3,15,10.615
2124,19,19,9,3,-11,-1,4,10,10.620000000000001
2125,-7,-1,-3,-32,-32,-21,-9,-17,10.625
2126,-4,-15,-4,43,82,36,11,2,10.63
2127,-13,-7,12,37,49,21,5,-8,10.635
2128,-12,-4,14,-1,43,22,6,-2,10.64
2129,2,10,-9,-13,-20,-10,-6,-3,10.645
2130,13,8,-8,-25,-34,-15,0,10,10.65
2131,-5,-4,1,24,-28,-24,-13,-9,10.655
2132,-9,-21,-16,-15,-14,-13,-4,5,10.66
2133,26,33,22,17,27,17,6,11,10.665000000000001
2134,-68,-41,-32,-21,-28,-31,-25,-35,10.67
2135,-8,-15,-5,9,2,-3,0,0,10.675
2136,18,15,21,9,-16,-12,-4,10,10.68
2137,-25,-35,-22,-20,-40,-25,-20,-26,10.685
2138,-9,-13,19,3,8,21,17,4,10.69
2139,14,25,-25,-67,9,10,3,3,10.695
2140,6,-9,7,10,-86,-43,-7,2,10.700000000000001
2141,1,32,8,21,36,11,5,4,10.705
2142,18,31,28,36,66,44,20,22,10.71
2143,-9,12,10,3,-30,-4,-7,-9,10.715
2144,26,35,2,2,88,40,13,11,10.72
2145,-12,-14,-31,-27,-69,-34,-13,-10,10.725
2146,-6,-11,1,-9,-33,-13,-7,-24,10.73
2147,32,50,-7,-19,-30,-17,-6,12,10.735
2148,-21,-38,-4,-3,-28,-26,-27,-14,10.74
2149,45,49,35,18,25,27,31,26,10.745000000000001
2150,-28,-36,-12,-7,12,11,3,-12,10.75
2151,18,24,6,20,-3,-5,-5,3,10.755
2152,20,16,21,25,-2,19,18,19,10.76
2153,1,-2,-6,-13,-10,-15,-10,9,10.765
2154,5,-9,-33,-37,35,15,4,10,10.77
2155,-31,-29,-6,-19,-52,-25,-16,-31,10.775
2156,-19,-9,-19,-15,-70,-30,-11,-16,10.78
2157,-18,-32,22,42,122,64,13,-1,10.785
2158,0,11,15,30,-60,-7,-6,-10,10.790000000000001
2159,-12,-26,-7,-4,13,4,-1,-4,10.795
2160,11,10,-9,-4,2,24,16,22,10.8
2161,8,26,11,-8,-73,-44,-17,-15,10.805
2162,0,6,7,-1,11,24,3,-7,10.81
2163,-2,-27,-26,-21,-33,-47,-34,-16,10.815
2164,2,30,20,6,8,9,32,-18,10.82
2165,15,2,6,5,7,-7,1,36,10.825000000000001
2166,5,-17,-12,-2,-5,-6,1,-15,10.83
2167,0,3,17,31,10,27,26,63,10.835
2168,-6,-9,-21,-37,8,-8,-17,-9,10.84
2169,-15,-19,-26,-23,-12,1,-4,-18,10.845
2170,10,12,-16,-30,-20,-7,-5,-2,10.85
2171,-20,-34,-11,-2,-41,-14,-9,-22,10.855
2172,2,7,24,54,55,13,-2,-8,10.86
2173,-14,-6,-9,-11,20,14,0,-11,10.865
2174,-5,-18,-27,-21,-51,-29,-11,3,10.870000000000001
2175,10,13,6,-9,21,16,13,0,10.875
2176,-10,-7,-3,13,29,13,3,7,10.88
2177,-7,6,12,13,-20,-10,-18,-24,10.885
2178,16,11,25,3,6,0,9,21,10.89
2179,9,3,13,-4,-23,-12,-16,-3,10.895
2180,-1,1,0,-8,6,22,17,-21,10.9
2181,3,-9,2,1,1,-7,17,46,10.905
2182,1,3,13,9,-1,-9,-9,7,10.91
2183,-10,-8,-11,3,18,8,18,-7,10.915000000000001
2184,1,-7,-3,-17,-4,-2,-19,-2,10.92
2185,-4,3,8,-9,5,4,-4,-24,10.925
2186,-6,-6,-9,-16,-33,-15,-1,0,10.93
2187,-1,-1,-4,27,29,6,-9,-6,10.935
2188,4,3,-8,-16,-25,-9,-7,2,10.94
2189,1,1,-21,4,44,16,5,-3,10.945
2190,3,6,1,20,19,11,6,9,10.950000000000001
2191,-1,0,-11,-9,-11,-4,2,-2,10.955
2192,7,-5,-24,-9,-23,-15,-4,3,10.96
2193,-8,-10,-20,6,-7,6,5,-7,10.965
2194,4,2,-12,-2,-6,-16,-19,0,10.97
2195,-11,-2,-16,-1,-1,-4,-6,-8,10.975
2196,5,3,7,-4,1,-1,3,14,10.98
2197,-5,-10,11,3,-9,-3,-14,-12,10.985
2198,2,3,9,-3,14,8,26,10,10.99
2199,9,6,22,14,0,8,23,12,10.995000000000001
2200,0,-2,-5,-6,8,-2,-10,3,11.0
2201,-5,0,3,-22,-9,-2,-3,-7,11.005
2202,-1,1,15,9,6,4,-6,-7,11.01
2203,-1,-4,7,6,1,-6,-13,-6,11.015
2204,0,1,7,17,3,3,2,2,11.02
2205,1,0,-7,-14,-8,-4,0,-1,11.025
2206,0,-1,2,3,1,1,3,4,11.03
2207,0,-2,3,-2,0,0,0,-3,11.035
2208,-1,3,2,-4,5,1,-4,-3,11.040000000000001
2209,1,1,6,15,-5,-1,2,0,11.045
2210,2,0,3,9,10,5,4,4,11.05
2211,-7,-5,-1,-2,3,3,-9,-12,11.055
2212,4,7,-1,-6,2,7,20,12,11.06
2213,-2,-4,-6,-2,1,-6,-2,3,11.065
2214,-5,-5,-3,-6,0,-3,-1,0,11.07
2215,0,0,-1,-9,-1,-2,-10,-5,11.075000000000001
2216,-2,-4,-6,-8,-4,-1,-2,-3,11.08
2217,1,1,2,7,-3,1,-4,-1,11.085
2218,-2,0,0,0,4,2,-6,-3,11.09
2219,-2,-1,-5,-11,-3,-2,-6,-4,11.095
2220,3,-1,0,-2,-1,-1,-7,1,11.1
2221,-6,-3,-1,6,-3,-1,0,-1,11.105
2222,-2,0,-3,1,-2,0,-3,-2,11.11
2223,-1,1,-4,-4,0,-1,3,1,11.115
2224,2,-2,-6,-8,3,1,3,-1,11.120000000000001
2225,-3,-2,-1,1,-1,0,5,5,11.125
2226,-1,-1,2,-4,-3,-1,3,-4,11.13
2227,-2,0,3,-1,-2,-3,2,-2,11.135
2228,-4,2,-3,1,0,0,1,3,11.14
2229,2,0,-1,1,-1,-1,-2,1,11.145
2230,-3,-1,0,-5,-3,-3,-4,0,11.15
2231,0,0,-5,-1,2,0,-2,-1,11.155
2232,-4,-5,-3,-3,-4,-6,-9,-8,11.16
2233,2,1,1,1,-2,3,9,1,11.165000000000001
2234,2,4,4,8,2,0,1,4,11.17
2235,-1,0,-1,-1,-3,-3,3,1,11.175
2236,-4,-3,-1,2,-3,-1,0,-2,11.18
2237,1,-2,2,3,-3,-2,-7,-2,11.185
2238,-2,-5,-4,-2,0,-2,-1,-3,11.19
2239,2,1,-1,-4,0,5,8,5,11.195
2240,-2,-2,-6,3,-1,-1,-5,1,11.200000000000001
2241,1,1,3,14,2,-1,0,0,11.205
2242,2,0,-1,-8,3,2,-1,-1,11.21
2243,-4,-2,-1,-1,-5,-4,-2,0,11.215
2244,-2,-4,-1,-2,-4,-5,-17,-9,11.22
2245,3,5,4,3,2,9,43,12,11.225
2246,-3,-4,-3,1,-4,-4,-12,-4,11.23
2247,-3,-6,-9,-10,-3,-4,-10,-9,11.235
2248,-1,1,5,3,1,0,2,1,11.24
2249,-1,-2,-2,-5,-3,-2,3,-8,11.245000000000001
2250,5,6,8,10,4,2,7,15,11.25
2251,0,1,2,9,-1,-1,-5,-2,11.255
2252,1,-2,-7,-14,-3,-2,-3,0,11.26
2253,-2,-2,-1,13,-2,-5,-15,-7,11.265
2254,-6,-2,-3,-17,-3,2,5,0,11.27
2255,-1,-1,2,22,2,-4,-7,-3,11.275
2256,2,2,-2,-11,-2,-1,6,3,11.28
2257,-10,-4,0,4,0,0,-3,1,11.285
2258,0,-3,-5,-2,-3,0,-6,-4,11.290000000000001
2259,3,4,6,8,4,0,6,6,11.295
2260,-1,-2,3,8,4,2,3,-1,11.3
2261,2,2,-2,-16,-2,1,0,4,11.305
2262,-5,-3,-9,0,-4,-3,-7,-6,11.31
2263,-1,2,9,6,-1,-4,-10,-7,11.315
2264,3,3,5,12,7,8,29,11,11.32
2265,-1,-1,-12,-40,-11,-4,1,0,11.325000000000001
2266,0,1,0,3,3,3,6,-2,11.33
2267,0,-2,-4,-20,-4,0,10,7,11.335
2268,-2,-2,5,7,2,-2,-18,-8,11.34
2269,1,1,5,40,5,2,9,6,11.345
2270,2,-1,-8,-20,-3,-3,-3,0,11.35
2271,-2,-3,-6,-5,-1,0,1,-4,11.355
2272,1,-1,3,1,-2,-3,-13,-3,11.36
2273,-1,0,8,7,3,-6,-11,-6,11.365
2274,1,-3,-14,-6,0,2,7,-2,11.370000000000001
2275,-5,-2,-5,-1,1,4,17,5,11.375
2276,-1,-2,-5,-14,-7,-3,-1,1,11.38
2277,2,0,2,-3,-1,-8,-13,-5,11.385
2278,2,3,10,6,1,-3,-7,-6,11.39
2279,0,-7,-12,-12,-1,-1,5,3,11.395
2280,-3,0,3,23,0,3,8,0,11.4
2281,0,-2,-7,-7,-1,-1,-6,-2,11.405
2282,-2,-1,8,9,0,-4,-5,-2,11.41
2283,0,-1,-3,-9,-2,-1,-6,-2,11.415000000000001
2284,-3,-4,-2,-26,-3,-1,-1,-1,11.42
2285,-1,-2,-4,35,-1,-3,-9,-5,11.425
2286,-1,1,-2,-10,-2,0,2,4,11.43
2287,3,0,0,-3,2,2,-1,2,11.435
2288,0,-1,3,14,2,-1,-1,1,11.44
2289,-1,-2,-5,-19,-2,0,-1,2,11.445
2290,-2,-1,2,13,2,-2,-9,-5,11.450000000000001
2291,-1,-1,5,9,-3,-3,9,0,11.455
2292,2,0,-10,-14,-1,3,8,1,11.46
2293,0,-1,1,-9,-2,-1,-5,0,11.465
2294,-1,2,1,3,2,5,11,6,11.47
2295,0,-1,0,0,1,4,0,2,11.475
2296,6,0,-6,-6,-6,-9,-8,-4,11.48
2297,0,-1,1,-7,1,3,8,0,11.485
2298,-1,-3,-2,-16,-2,-4,-16,-6,11.49
2299,-1,-2,-7,0,-3,-1,-2,-3,11.495000000000001
2300,-1,2,15,34,1,-1,-1,1,11.5
2301,0,1,-3,-3,-2,-4,-10,-5,11.505
2302,-2,-6,-19,-1,-3,-2,5,1,11.51
2303,-1,0,1,-7,-3,-6,-10,-6,11.515
2304,-5,-2,-12,-13,-2,-2,0,-1,11.52
2305,0,-2,5,-3,-1,1,-2,-2,11.525
2306,-4,0,5,7,1,2,3,0,11.53
2307,2,3,6,7,4,1,-4,1,11.535
2308,-7,-5,-12,-14,-3,-5,-8,-5,11.540000000000001
2309,-1,0,0,-6,-1,-3,0,2,11.545
2310,2,0,2,7,1,1,4,1,11.55
2311,-1,-1,-1,-16,-4,-2,-5,-1,11.555
2312,0,1,4,5,-1,-4,-4,-6,11.56
2313,-8,-3,-11,-1,-3,-2,-2,1,11.565
2314,0,-3,3,-1,2,-1,-9,-1,11.57
2315,2,2,3,0,3,1,6,1,11.575000000000001
2316,-11,-2,-2,-3,1,3,0,3,11.58
2317,-1,-5,-11,-10,-4,0,7,2,11.585
2318,-3,0,5,3,-3,-2,-5,-3,11.59
2319,-1,0,-6,0,-1,1,5,1,11.595
2320,3,-1,-5,-6,1,-3,-5,-5,11.6
2321,0,-2,0,-1,1,-1,-3,-4,11.605
2322,-2,-1,0,-5,-5,-1,0,-1,11.61
2323,-1,-2,0,6,0,-3,-7,-4,11.615
2324,-1,0,-3,-7,-3,0,4,2,11.620000000000001
2325,0,2,2,-1,3,0,-4,-2,11.625
2326,1,1,0,-3,-1,2,3,-4,11.63
2327,-2,-3,-9,-3,-4,-6,-8,2,11.635
2328,-3,-3,-1,2,0,-2,-4,-1,11.64
2329,0,-3,-3,-4,-1,3,3,1,11.645
2330,-1,1,2,4,-4,-3,-2,-1,11.65
2331,-1,1,-3,-14,0,2,-3,-3,11.655
2332,-1,2,8,-5,-3,0,-1,0,11.66
2333,1,-5,-1,20,-2,-4,-5,-6,11.665000000000001
2334,-8,-4,-13,-27,-4,-1,0,1,11.67
2335,-1,1,5,7,1,-1,3,2,11.675
2336,2,-3,-4,4,-1,-1,1,-1,11.68
2337,-1,0,2,-5,-1,-1,-1,-4,11.685
2338,1,0,3,3,1,0,0,2,11.69
2339,-3,-2,0,-5,-4,-3,-4,-2,11.695
2340,-2,1,-3,5,-2,0,-2,-2,11.700000000000001
2341,-2,1,4,3,-1,-2,-3,-4,11.705
2342,3,3,1,9,1,1,1,6,11.71
2343,0,-1,-2,-4,0,-2,-1,0,11.715
2344,0,0,-2,-5,-2,1,-3,-1,11.72
2345,-2,-3,-1,1,1,0,0,1,11.725
2346,-1,1,3,6,0,-1,1,-2,11.73
2347,-1,-1,4,0,0,-1,-10,-8,11.735
2348,1,1,3,11,5,5,20,16,11.74
2349,1,-1,3,25,-1,-1,-1,0,11.745000000000001
2350,-10,-6,-10,-35,-2,1,6,-1,11.75
2351,5,6,13,10,2,1,6,3,11.755
2352,-1,-3,-8,-6,0,-3,-11,-6,11.76
2353,-3,1,-6,-8,0,-2,-8,-7,11.765
2354,4,1,2,3,-2,-2,-1,4,11.77
2355,-1,0,11,21,-1,-1,-3,-4,11.775
2356,0,1,-5,-5,1,1,3,-1,11.78
2357,2,-1,0,-8,-3,-1,0,0,11.785
2358,0,0,3,9,1,0,-4,-5,11.790000000000001
2359,-1,0,-8,-11,-2,-1,-2,0,11.795
2360,2,-1,1,3,-2,-1,-2,-1,11.8
2361,0,1,-3,-10,-1,0,1,4,11.805
2362,0,-2,2,6,1,-1,-1,-1,11.81
2363,-1,-4,-5,-9,-1,1,0,1,11.815
2364,0,1,7,15,2,1,2,-1,11.82
2365,-1,1,-4,-13,-3,-1,2,2,11.825000000000001
2366,0,-1,-2,3,-2,-2,-2,-3,11.83
2367,-1,-2,-3,-1,1,-2,-2,0,11.835
2368,-5,-3,1,7,1,2,2,-1,11.84
2369,2,1,0,-26,-1,0,-1,1,11.845
2370,1,0,3,22,2,-2,0,-2,11.85
2371,-3,-2,-8,-6,-3,-1,-2,-3,11.855
2372,-3,-1,-5,-12,-1,-2,-4,-5,11.86
2373,0,0,1,2,-1,-1,2,7,11.865
2374,0,-2,-3,-1,0,-2,-3,-2,11.870000000000001
2375,2,-1,-1,7,-2,-1,-4,-4,11.875
2376,0,1,7,0,-1,0,5,3,11.88
2377,-2,0,-6,-2,1,0,-2,-2,11.885
2378,-1,0,-1,4,0,-2,-1,-1,11.89
2379,0,0,-1,0,0,-3,-4,1,11.895
2380,-1,-5,-6,-11,-4,-4,-7,-9,11.9
2381,-2,-1,5,2,-1,-1,-5,-3,11.905
2382,1,0,-5,0,1,1,-4,4,11.91
2383,-1,-3,-5,3,1,5,15,3,11.915000000000001
2384,-1,-1,-5,-8,-4,-2,0,0,11.92
2385,1,1,2,2,0,-2,0,-2,11.925
2386,-10,-2,5,7,0,1,-2,-5,11.93
2387,0,0,1,-1,-1,-1,-4,-2,11.935
2388,2,0,-1,-7,-1,-3,-2,3,11.94
2389,-3,-2,-5,-7,-3,-2,0,-2,11.945
2390,2,1,-1,-3,-1,1,4,-1,11.950000000000001
2391,-3,-4,-8,6,-1,0,-1,-1,11.955
2392,0,0,-1,-6,-2,-1,-1,-1,11.96
2393,0,-2,1,6,2,0,2,-1,11.965
2394,0,-1,-3,-7,-2,-3,-1,-1,11.97
2395,-2,-2,-1,-6,0,-2,0,-2,11.975
2396,1,-2,4,11,-3,-1,-5,-2,11.98
2397,-3,-1,-2,-9,-2,-2,-7,-4,11.985
2398,1,1,-1,0,0,0,15,6,11.99
2399,-1,0,0,0,0,0,-4,1,11.995000000000001
2400,-2,-2,-3,-7,1,-2,-4,-2,12.0
2401,4,-1,0,4,1,-1,5,3,12.005
2402,-2,-1,1,1,0,2,1,2,12.01
2403,-1,-1,-1,-2,-2,-3,-3,-1,12.015
2404,0,2,0,1,-1,-2,4,0,12.02
2405,-3,-2,-3,-3,-3,-3,-11,-8,12.025
2406,5,-1,-3,4,-1,-2,-7,4,12.030000000000001
2407,-2,-4,-1,-1,-1,2,2,-2,12.035
2408,1,0,1,-8,1,0,-4,-1,12.040000000000001
2409,-1,1,-1,-3,0,-1,2,-1,12.045
2410,-1,-2,4,-4,0,-1,0,-3,12.05
2411,-3,2,-5,-5,1,-1,-3,-1,12.055
2412,-2,-1,-1,5,-1,0,-2,-1,12.06
2413,0,-1,-2,2,0,0,1,2,12.065
2414,0,-1,-4,-5,0,-1,-2,-4,12.07
2415,-1,-2,0,-4,-3,-3,-3,0,12.075000000000001
2416,1,-1,-4,-8,-1,-1,-2,0,12.08
2417,0,0,2,9,0,1,1,0,12.085
2418,2,-1,-7,-3,-1,-1,-6,-1,12.09
2419,1,2,6,1,1,0,2,-3,12.095
2420,-3,-2,-5,-1,-4,-5,-2,-1,12.1
2421,-2,-2,-2,2,2,0,7,3,12.105
2422,1,0,1,4,1,-1,-5,-2,12.11
2423,1,-1,1,-3,-2,-2,-3,-3,12.115
2424,-2,-2,-3,-5,-1,-1,4,1,12.120000000000001
2425,-1,0,1,0,-1,-1,-1,-1,12.125
2426,-2,0,-1,0,-3,-3,-3,-4,12.13
2427,-1,-1,-1,0,-2,0,2,1,12.135
2428,-2,0,3,0,0,0,-1,-2,12.14
2429,-3,-1,0,-1,-1,-3,-2,0,12.145
2430,-2,1,4,1,-1,0,0,-1,12.15
2431,-4,1,-3,-1,0,-1,-1,-4,12.155000000000001
2432,0,-1,-6,-6,-1,1,0,5,12.16
2433,3,1,4,9,2,2,4,1,12.165000000000001
2434,-10,-4,-4,-11,-3,1,-1,-3,12.17
2435,4,0,0,8,0,-1,-2,-2,12.175
2436,-4,-1,-5,-1,-2,-2,-4,-2,12.18
2437,1,-1,-3,-4,0,-2,6,1,12.185
2438,1,0,0,2,-1,0,2,1,12.19
2439,-2,-5,-4,-3,0,1,1,0,12.195
2440,0,0,2,4,2,-1,0,-4,12.200000000000001
2441,-3,-1,1,-3,-4,-3,-6,-2,12.205
2442,-2,-5,-7,2,-2,-3,-2,-5,12.21
2443,-2,-3,-3,-5,-2,-4,-8,-2,12.215
2444,-1,0,4,5,1,1,8,4,12.22
2445,0,-1,-9,-5,-4,-1,-5,0,12.225
2446,-1,0,-2,-4,-3,-3,-2,0,12.23
2447,-2,-1,1,-3,0,1,-1,-2,12.235
2448,3,2,5,7,0,-2,-3,-2,12.24
2449,0,-2,-2,0,1,-2,-1,-2,12.245000000000001
2450,-1,-1,1,-1,-1,-2,1,-2,12.25
2451,4,0,-2,0,1,4,12,7,12.255
2452,-5,-2,6,10,1,-2,-3,-5,12.26
2453,-5,0,-8,-13,-2,-1,-2,1,12.265
2454,1,-2,-3,-4,-2,0,-4,-2,12.27
2455,1,1,4,4,-1,-2,-2,-2,12.275
2456,3,-2,1,-2,0,-1,2,-1,12.280000000000001
2457,-12,-3,-2,2,-3,-2,-2,-4,12.285
2458,-2,1,2,-2,0,-1,0,0,12.290000000000001
2459,-2,-1,-1,1,1,-2,-5,-2,12.295
2460,-3,-2,-4,-5,-2,1,12,0,12.3
2461,3,0,1,0,0,-1,-6,-4,12.305
2462,5,3,1,-4,1,2,4,5,12.31
2463,-4,1,1,0,-2,-2,-3,-1,12.315
2464,1,2,0,-1,-1,-3,-9,-4,12.32
2465,-1,-4,-2,4,4,4,5,0,12.325000000000001
2466,5,2,-1,0,0,2,1,2,12.33
2467,1,1,3,1,-3,-2,-1,1,12.335
2468,-1,-3,-6,-5,-2,0,-5,-2,12.34
2469,0,-1,1,-3,-3,-1,0,-2,12.345
2470,1,1,2,3,0,-1,0,-1,12.35
2471,-2,-2,-4,-3,-1,-3,-4,0,12.355
2472,1,-1,1,5,-2,0,1,2,12.36
2473,3,0,1,-4,-1,-2,-3,-1,12.365
2474,-2,-3,-3,-2,-1,-3,-2,1,12.370000000000001
2475,-2,-2,2,-2,-2,-4,0,-3,12.375
2476,-5,-2,-7,-8,-1,1,-1,1,12.38
2477,2,1,-1,0,-1,-2,0,-3,12.385
2478,7,-2,-5,1,-1,-2,-5,-2,12.39
2479,-10,-3,-3,-4,1,1,8,4,12.395
2480,3,3,8,7,2,1,-1,0,12.4
2481,5,1,-1,0,0,0,-1,0,12.405000000000001
2482,-4,-1,2,-4,-2,-1,-4,-4,12.41
2483,-2,-4,-4,0,0,0,-4,-4,12.415000000000001
2484,1,-1,-1,-3,-1,-1,-1,-1,12.42
2485,-2,-1,0,3,-1,1,1,0,12.425
2486,1,2,4,2,0,-1,-5,-1,12.43
2487,0,-1,-3,-4,-2,0,2,-1,12.435
2488,-4,-2,-1,-2,-2,-1,0,-1,12.44
2489,-2,0,-4,-7,-3,-5,-5,1,12.445
2490,-4,1,-1,0,1,0,-1,-3,12.450000000000001
2491,2,0,-1,3,3,0,-2,-2,12.455
2492,3,0,6,2,5,1,-7,-3,12.46
2493,-3,-8,-12,-4,-3,-1,3,-1,12.465
2494,-1,-2,-3,-3,0,3,10,5,12.47
2495,13,3,-1,-1,-2,-2,1,1,12.475
2496,-15,-3,0,1,-1,2,8,1,12.48
2497,-2,-1,6,5,1,1,-4,-6,12.485
2498,-3,-3,-2,2,-1,-2,-1,-2,12.49
2499,0,0,1,2,-1,-1,-4,0,12.495000000000001
2500,4,2,1,-1,-1,-3,-5,-7,12.5
2501,0,-1,-8,-11,-4,-1,4,9,12.505
2502,-7,-2,3,5,0,-1,-7,-6,12.51
2503,-1,0,-2,-7,-2,0,6,4,12.515
2504,5,-1,-2,2,-1,-1,-3,3,12.52
2505,-3,0,-1,2,0,-1,-2,-2,12.525
2506,2,1,1,1,-1,-1,2,2,12.530000000000001
2507,1,2,5,4,-2,-1,-6,-4,12.535
2508,2,-4,-3,0,1,0,-5,-7,12.540000000000001
2509,5,0,1,2,0,-3,2,6,12.545
2510,-12,-5,-6,-4,0,0,-4,-2,12.55
2511,2,0,3,4,-1,0,3,1,12.555
2512,0,-1,-9,-6,-5,-2,-1,4,12.56
2513,2,4,5,2,0,-1,-5,-5,12.565
2514,4,0,-3,-1,-1,-1,-3,-1,12.57
2515,-5,-1,-2,-2,-1,-2,-3,-1,12.575000000000001
2516,0,1,1,-3,-1,-2,-3,1,12.58
2517,0,0,0,9,0,0,0,-4,12.585
2518,-10,0,0,-7,0,0,2,-3,12.59
2519,16,4,-1,-3,0,2,5,5,12.595
2520,-1,0,-1,-6,-3,-1,0,-2,12.6
2521,-1,-1,2,1,1,2,1,-3,12.605
2522,1,-2,1,-2,-4,-4,-1,-2,12.61
2523,-2,0,-3,0,3,1,3,-1,12.615
2524,-1,-3,-8,-4,-2,-3,-2,-2,12.620000000000001
2525,1,1,1,-4,-1,-1,1,-2,12.625
2526,2,0,1,0,-2,-1,1,1,12.63
2527,-1,-2,-1,-2,-2,-1,-6,-2,12.635
2528,-11,-2,0,1,-1,-2,-3,0,12.64
2529,-2,1,4,3,1,1,6,1,12.645
2530,3,-3,-2,-1,-2,-1,-3,-5,12.65
2531,-12,-4,-2,0,-3,-4,-8,-1,12.655000000000001
2532,6,2,0,-1,0,2,19,3,12.66
2533,-4,-1,0,-1,-1,-1,-6,-1,12.665000000000001
2534,-1,-3,-3,-1,-1,-1,0,-2,12.67
2535,0,-1,-3,-3,1,0,4,-2,12.675
2536,-7,-2,-2,-7,0,-2,-6,-6,12.68
2537,8,2,2,0,0,-1,-1,6,12.685
2538,2,1,-2,1,-2,1,3,0,12.69
2539,0,-1,0,3,-2,-2,-4,-2,12.695
2540,-5,0,-1,-6,1,0,-2,-1,12.700000000000001
2541,-3,-1,0,-5,-1,-2,-3,-4,12.705
2542,-1,-3,-6,0,1,0,-2,-1,12.71
2543,-2,-3,-5,-7,-4,-3,-5,-4,12.715
2544,2,3,2,2,-2,1,6,2,12.72
2545,12,1,-3,-2,1,-1,-3,0,12.725
2546,-7,-2,9,3,-2,-1,1,1,12.73
2547,1,-1,-6,3,3,1,3,1,12.735
2548,3,-4,-1,1,-3,-1,-1,1,12.74
2549,-5,-1,-1,-1,-1,-1,-6,-6,12.745000000000001
2550,5,1,-3,-3,1,-1,-2,1,12.75
2551,-4,0,4,1,0,2,9,4,12.755
2552,2,0,1,2,0,-1,-5,-1,12.76
2553,-5,0,-4,-2,-3,0,0,-3,12.765
2554,-2,1,-1,0,0,-1,-1,-2,12.77
2555,-9,-1,-2,5,-1,-1,-4,-7,12.775
2556,7,-1,-3,-18,0,-1,-7,2,12.780000000000001
2557,-7,-4,-5,4,0,1,6,0,12.785
2558,-1,3,1,-4,-2,-2,0,-2,12.790000000000001
2559,0,2,5,2,-3,-1,-5,0,12.795
2560,-3,0,-2,3,-1,0,1,-4,12.8
2561,-3,-4,-5,-6,-3,-2,-1,-2,12.805
2562,3,-1,-2,-2,0,2,-1,1,12.81
2563,10,3,6,2,0,0,-3,-1,12.815
2564,-6,-3,-1,1,1,0,0,0,12.82
2565,-1,0,2,-4,0,-1,-3,0,12.825000000000001
2566,-1,1,4,6,0,0,1,1,12.83
2567,-2,-2,0,-3,0,-1,-4,-3,12.835
2568,4,-1,1,4,0,0,0,0,12.84
2569,-9,-4,1,1,0,-2,2,0,12.845
2570,0,0,-1,-1,1,-1,-2,-1,12.85
2571,0,-1,0,-7,-3,-2,-2,-3,12.855
2572,-1,0,-3,3,-2,-3,-2,-3,12.86
2573,1,1,-3,-2,-2,0,2,2,12.865
2574,-1,-3,-5,-6,-1,-1,-2,-3,12.870000000000001
2575,-6,-2,-3,5,0,-2,-2,-2,12.875
2576,0,-2,-5,-7,-4,-3,-1,-3,12.88
2577,3,2,5,0,-1,-1,0,2,12.885
2578,1,-5,-11,-2,-1,-3,-4,-2,12.89
2579,-6,0,-3,-4,-2,-1,1,4,12.895
2580,-5,1,4,3,-1,0,-4,-4,12.9
2581,-2,-2,1,2,-2,-2,-3,-3,12.905000000000001
2582,-2,0,1,-1,-1,-1,-4,-1,12.91
2583,-4,-3,-4,-1,-1,0,3,1,12.915000000000001
2584,1,2,0,-1,0,0,1,-1,12.92
2585,3,1,-1,1,0,-3,-3,-2,12.925
2586,-3,2,1,1,-2,-1,-1,0,12.93
2587,0,-4,0,12,2,0,-2,-3,12.935
2588,0,0,-1,-13,-3,-4,-5,2,12.94
2589,0,-2,-1,-1,-1,1,-1,-2,12.945
2590,0,-1,1,-3,0,0,1,1,12.950000000000001
2591,2,2,2,0,2,1,0,-1,12.955
2592,1,-2,-7,3,-1,-1,-2,1,12.96
2593,-5,-2,-2,-2,1,0,0,-1,12.965
2594,-1,-3,-5,-3,-1,-2,1,-1,12.97
2595,1,3,5,-1,-1,-1,0,2,12.975
2596,-8,-6,-3,3,1,1,-2,-6,12.98
2597,9,-1,-4,-7,-4,-2,0,5,12.985
2598,4,0,2,1,0,0,1,1,12.99
2599,-9,-3,-4,-6,-1,-1,0,-3,12.995000000000001
2600,1,1,4,8,3,1,-3,0,13.0
2601,-8,-2,-4,-2,0,-2,-4,-3,13.005
2602,-1,1,2,-1,0,0,1,0,13.01
2603,4,-2,-2,-3,-2,-1,-7,-4,13.015
2604,-1,0,0,-3,-1,-3,2,2,13.02
2605,-7,-5,-5,-4,-2,-2,1,-3,13.025
2606,2,2,0,1,1,-3,-1,0,13.030000000000001
2607,-4,-1,-4,-6,0,0,-2,-2,13.035
2608,1,0,0,4,0,-1,0,2,13.040000000000001
2609,2,1,5,5,2,0,-2,-2,13.045
2610,-4,-4,-1,-3,-1,-1,-1,-1,13.05
2611,0,-1,-2,-1,-1,-1,2,0,13.055
2612,1,0,2,0,-1,1,1,-1,13.06
2613,0,0,1,1,1,0,2,1,13.065
2614,-5,-5,-8,-3,-1,-1,-2,-2,13.07
2615,5,-1,-1,-3,2,0,1,-1,13.075000000000001
2616,-18,-6,-1,-1,-1,-2,-1,1,13.08
2617,-1,-1,4,4,-1,0,0,-4,13.085
2618,0,2,-3,-3,-1,-3,-1,0,13.09
2619,0,-2,1,-1,-1,-1,-1,0,13.095
2620,5,-1,-1,0,-1,0,1,-2,13.1
2621,0,2,3,0,0,1,2,2,13.105
2622,-4,-2,2,2,-1,0,1,-1,13.11
2623,-1,3,2,-3,-3,-3,-5,-5,13.115
2624,-1,-1,-6,-2,-2,-1,2,-2,13.120000000000001
2625,-3,-5,-11,0,-3,-4,-3,0,13.125
2626,0,1,1,-7,-3,-1,-3,-3,13.13
2627,4,0,-2,-5,-2,1,2,6,13.135
2628,1,2,4,4,1,0,-1,-1,13.14
2629,1,2,0,-3,-1,0,-2,1,13.145
2630,-3,-3,-1,2,0,-1,1,-2,13.15
2631,-1,-2,1,1,0,-2,-2,-4,13.155000000000001
2632,-3,-1,1,0,-2,-1,-1,-1,13.16
2633,-1,0,0,1,0,1,0,-1,13.165000000000001
2634,2,2,4,3,2,1,-1,2,13.17
2635,-5,-2,-7,-4,-1,-1,0,-7,13.175
2636,13,3,2,7,-1,-2,-2,10,13.18
2637,-2,1,-5,-18,-3,-1,2,0,13.185
2638,-4,0,0,0,0,-1,-1,-4,13.19
2639,4,0,-1,-1,-1,-1,1,0,13.195
2640,-1,-2,1,1,1,-2,-2,-4,13.200000000000001
2641,-1,1,6,4,0,-2,-2,-4,13.205
2642,6,1,-1,2,0,2,-1,2,13.21
2643,-3,-3,-5,-1,1,1,3,0,13.215
2644,2,1,3,-3,-1,-1,-4,-1,13.22
2645,1,-1,0,-2,0,0,5,4,13.225
2646,-9,1,2,1,-2,-2,-2,0,13.23
2647,-2,-4,-10,-4,-4,-2,-4,-2,13.235
2648,-9,-1,0,0,-1,0,6,-1,13.24
2649,4,1,2,3,-1,2,-4,0,13.245000000000001
2650,1,-3,0,-1,-2,-1,-2,-4,13.25
2651,-4,-1,2,2,-1,-1,-2,-1,13.255
2652,4,-1,-4,-2,1,0,-5,-2,13.26
2653,-3,-2,-2,-3,-2,-1,-3,-2,13.265
2654,-3,0,0,0,-3,-2,6,3,13.27
2655,-1,0,0,-1,-1,-1,-1,2,13.275
2656,1,0,0,1,1,0,1,-1,13.280000000000001
2657,-6,-1,1,3,0,-2,0,-4,13.285
2658,7,0,0,-2,-1,0,-1,5,13.290000000000001
2659,-3,-1,-2,-2,-2,-3,-2,-1,13.295
2660,-11,-5,-1,-8,-2,1,0,-3,13.3
2661,-5,-6,-7,4,-1,-2,-8,-6,13.305
2662,3,0,0,-1,0,2,8,3,13.31
2663,1,0,2,0,-1,-3,4,3,13.315
2664,1,0,0,-1,-2,-2,-4,2,13.32
2665,-7,-1,-1,0,-1,0,7,-1,13.325000000000001
2666,-6,-3,-1,1,0,0,-3,-6,13.33
2667,-1,0,1,2,1,0,0,-1,13.335
2668,-3,-3,1,8,-1,0,0,1,13.34
2669,4,-2,-4,-10,-2,-1,-3,-1,13.345
2670,1,-1,-5,-1,-3,-1,-2,-1,13.35
2671,-1,-1,0,-2,-1,1,1,1,13.355
2672,-1,-1,-2,-2,0,-1,-3,-5,13.36
2673,13,4,3,1,0,1,-1,8,13.365
2674,-6,-2,5,2,1,0,0,0,13.370000000000001
2675,-1,-2,0,-1,-4,-4,-6,-2,13.375
2676,-1,-3,-9,-6,-1,1,3,-1,13.38
2677,0,1,2,3,-1,-1,-1,-1,13.385
2678,1,2,-3,-3,1,-2,-2,1,13.39
2679,0,0,0,2,1,2,2,3,13.395
2680,1,0,1,-1,-2,-2,0,1,13.4
2681,-3,-1,2,4,2,-1,0,0,13.405000000000001
2682,-4,-2,-5,-4,-3,-3,-6,-3,13.41
2683,-4,-2,2,-1,-1,0,1,-3,13.415000000000001
2684,1,0,-1,-2,0,1,2,5,13.42
2685,-5,-2,-2,1,1,1,-2,-4,13.425
2686,2,-1,0,1,-1,-1,0,-2,13.43
2687,1,0,-3,-2,0,-1,-2,0,13.435
2688,-12,-3,0,-2,-1,-2,-1,-3,13.44
2689,-4,-1,3,3,0,0,-1,-5,13.445
2690,10,0,-7,1,0,0,1,6,13.450000000000001
2691,1,1,-6,-7,-3,0,1,6,13.455
2692,6,2,-1,0,0,-4,-3,-1,13.46
2693,-3,-1,-1,1,1,0,0,0,13.465
2694,-4,-1,2,0,0,0,0,-4,13.47
2695,0,0,2,0,-2,-4,-6,-4,13.475
2696,3,0,-3,-5,-2,0,2,1,13.48
2697,0,-3,-5,-3,-3,-3,-3,-2,13.485
2698,0,-2,3,-1,1,1,2,-1,13.49
2699,9,2,-1,3,2,0,-1,-1,13.495000000000001
2700,-12,-7,-4,-1,-1,0,-1,-3,13.5
2701,0,0,-1,-3,-3,1,0,1,13.505
2702,-2,-3,-4,-4,-3,-2,-4,-3,13.51
2703,-4,-1,0,-2,-2,0,1,-4,13.515
2704,4,2,1,-2,0,-2,-5,-2,13.52
2705,3,2,1,2,0,0,2,3,13.525
2706,-2,-1,-1,-4,-2,-1,2,1,13.530000000000001
2707,-3,-4,0,2,0,1,-6,-4,13.535
2708,3,1,-1,-1,0,1,1,-2,13.540000000000001
2709,-8,-4,-3,-1,-1,-1,0,-7,13.545
2710,12,3,1,2,2,0,1,9,13.55
2711,-4,-1,-1,-2,0,2,3,0,13.555
2712,2,2,2,0,-2,-2,-1,0,13.56
2713,-2,-2,-3,1,1,-2,-3,0,13.565
2714,-1,-2,0,0,-1,-2,0,-2,13.57
2715,0,-2,-3,-1,2,3,0,-1,13.575000000000001
2716,-3,-2,-1,0,-1,-3,-4,2,13.58
2717,6,1,1,-4,-1,2,9,5,13.585
2718,-6,0,-3,-1,0,0,-2,-3,13.59
2719,2,0,2,0,0,-1,2,3,13.595
2720,1,-1,-2,5,-3,-1,-4,-7,13.6
2721,2,-3,-7,-3,-1,3,2,3,13.605
2722,-4,1,0,-3,-1,0,-4,-1,13.61
2723,-5,-2,0,-1,-1,0,4,-1,13.615
2724,5,2,3,-1,-1,0,0,0,13.620000000000001
2725,-2,0,2,0,-2,-1,-5,-2,13.625
2726,-2,-2,-3,1,-1,0,-1,-4,13.63
2727,0,0,-2,-1,-1,-2,-5,-2,13.635
2728,0,0,-2,-2,-1,-1,1,2,13.64
2729,0,-1,-1,-3,2,0,-2,-2,13.645
2730,-1,0,-1,2,-1,-1,0,-2,13.65
2731,1,-1,2,3,-1,-1,-2,-2,13.655000000000001
2732,-2,-1,-4,-2,0,2,2,0,13.66
2733,-2,0,-4,-1,-1,-2,-2,-1,13.665000000000001
2734,-8,-2,1,-3,-1,-1,-2,-4,13.67
2735,-4,-1,-1,-2,-2,-2,0,2,13.675
2736,1,1,-1,0,-1,2,0,-1,13.68
2737,0,1,1,0,-1,-1,-6,0,13.685
2738,8,-1,1,-1,-2,1,-1,-2,13.69
2739,-11,-5,-3,-2,0,-2,1,-2,13.695
2740,-2,-2,2,1,2,0,-2,-3,13.700000000000001
2741,2,1,2,0,-1,-1,-4,-3,13.705
2742,-5,-2,-1,1,1,-3,-3,-3,13.71
2743,2,-2,-1,1,-1,0,6,2,13.715
2744,1,0,-6,-4,-3,0,4,3,13.72
2745,-1,1,1,7,1,1,1,3,13.725
2746,-2,-3,0,-7,-2,-3,-7,-6,13.73
2747,0,-1,-8,-9,-2,-1,4,2,13.735
2748,-6,-1,2,1,0,0,-3,-1,13.74
2749,1,-1,-2,-4,-2,-1,-6,-3,13.745000000000001
2750,-8,-2,-1,-1,-1,3,11,2,13.75
2751,1,1,4,6,-1,-2,-5,-4,13.755
2752,2,0,0,-1,0,-2,1,0,13.76
2753,2,-1,1,6,1,1,2,-1,13.765
2754,1,-1,-3,-10,-3,0,-2,0,13.77
2755,4,2,-1,-1,0,1,-2,0,13.775
2756,-1,-3,-2,5,-1,-1,-1,-3,13.780000000000001
2757,-3,-2,-2,-11,-1,-2,-1,-2,13.785
2758,0,3,0,3,0,0,-2,1,13.790000000000001
2759,2,-1,1,0,0,-2,-4,-3,13.795
2760,-4,-3,-2,-5,-3,-3,-4,-1,13.8
2761,-5,-4,-4,1,0,-1,4,-1,13.805
2762,2,-3,-1,1,1,-1,0,0,13.81
2763,-1,3,-3,-3,-2,0,-3,-1,13.815
2764,8,6,1,-1,-2,-1,0,1,13.82
2765,0,-3,-1,-5,-3,-2,-7,-2,13.825000000000001
2766,-2,-3,-5,1,1,2,6,2,13.83
2767,-5,-3,1,2,-1,-1,-7,-2,13.835
2768,-1,-2,0,2,0,-1,-1,-2,13.84
2769,4,5,-3,-8,-2,-1,1,3,13.845
2770,-1,-2,6,3,-2,-4,-5,-3,13.85
2771,0,0,-3,2,0,0,1,-4,13.855
2772,-8,-4,-5,-3,-2,2,2,-3,13.86
2773,-1,-1,0,2,-1,-2,-1,-3,13.865
2774,-1,-1,-3,3,-1,-1,-3,-2,13.870000000000001
2775,4,0,4,1,0,-1,0,4,13.875
2776,2,0,1,-5,-1,-2,0,0,13.88
2777,-3,-3,-1,3,-1,-3,-4,-1,13.885
2778,0,-1,-1,1,-1,-1,0,-1,13.89
2779,-3,1,2,-6,-1,0,-1,-3,13.895
2780,1,2,1,0,0,3,7,3,13.9
2781,1,-4,-3,-1,-1,-4,-4,-3,13.905000000000001
2782,-2,1,1,-1,-2,1,5,5,13.91
2783,-1,1,1,-6,3,2,-3,-1,13.915000000000001
2784,9,1,1,2,1,1,-2,-2,13.92
2785,-5,1,-2,-6,-2,2,9,4,13.925
2786,4,1,2,13,-2,-2,-4,0,13.93
2787,-5,-2,-1,-8,-3,-3,-2,-3,13.935
2788,-6,-5,1,-3,-1,-1,-2,0,13.94
2789,5,-1,-2,-2,1,3,2,2,13.945
2790,-1,0,-1,-10,-2,-4,-8,-5,13.950000000000001
2791,-4,-2,-3,15,3,2,6,0,13.955
2792,2,3,2,2,3,0,2,0,13.96
2793,-1,1,-2,-7,-3,-3,-4,-5,13.965
2794,-6,-11,-11,-12,-3,-1,-2,-3,13.97
2795,-3,-5,-3,2,-7,-7,-7,-5,13.975
2796,-4,-3,-4,-10,-4,-2,2,-1,13.98
2797,0,3,-1,0,-2,0,-2,0,13.985
2798,3,11,2,0,-2,-1,1,-2,13.99
2799,8,-7,4,-2,0,3,5,16,13.995000000000001
2800,-4,4,0,8,-3,-4,-9,-11,14.0
2801,-6,-5,4,0,4,11,20,8,14.005
2802,2,-7,-7,-2,-6,-7,-13,-3,14.01
2803,-5,0,4,25,0,-6,0,-4,14.015
2804,7,1,9,-15,4,2,-1,5,14.02
2805,1,3,2,12,3,3,9,2,14.025
2806,1,5,-2,-22,2,3,4,2,14.030000000000001
2807,-2,-2,-5,1,-2,0,0,-2,14.035
2808,-3,-5,-1,10,-1,-1,0,-4,14.040000000000001
2809,-2,1,15,16,4,-5,-10,-3,14.045
2810,0,1,-5,-24,1,4,7,3,14.05
2811,-10,-8,-14,-7,-6,-5,-10,-7,14.055
2812,0,8,5,4,2,4,0,3,14.06
2813,16,5,4,13,-1,1,2,7,14.065
2814,-2,8,4,12,-5,-10,-5,-5,14.07
2815,-6,-2,-1,-9,-1,-3,-3,-7,14.075000000000001
2816,-4,-1,-4,2,-2,-5,-2,3,14.08
2817,-6,-21,-10,-7,0,-4,-15,-13,14.085
2818,3,13,9,11,3,6,14,5,14.09
2819,3,0,-4,-9,0,2,-2,-1,14.095
2820,3,8,-2,3,3,1,1,-1,14.1
2821,-4,-5,9,10,-5,-8,-3,1,14.105
2822,-6,-5,-12,-8,-6,-4,-9,-6,14.11
2823,-4,-10,-6,3,-1,-1,1,-3,14.115
2824,0,-1,6,11,1,0,-1,-3,14.120000000000001
2825,3,-1,-19,-31,-6,-2,-2,-2,14.125
2826,-8,-7,-11,-9,-1,-4,-8,-8,14.13
2827,6,14,12,-2,7,10,9,8,14.135
2828,-8,-11,-1,17,-6,-9,-10,-8,14.14
2829,9,14,9,4,-2,-1,3,7,14.145
2830,-8,-15,-3,-6,20,14,2,0,14.15
2831,7,4,-9,-14,4,0,-1,5,14.155000000000001
2832,2,-1,-15,-14,1,3,6,4,14.16
2833,-3,20,10,15,10,4,-2,-10,14.165000000000001
2834,-11,-17,-13,-4,-24,-24,-19,-8,14.17
2835,20,-1,16,19,2,4,13,18,14.175
2836,-22,-29,-24,-25,-14,-18,-16,-17,14.18
2837,6,-2,13,18,9,13,12,11,14.185
2838,9,25,39,11,8,8,4,0,14.19
2839,-7,-14,-25,-30,-10,-4,-4,-6,14.195
2840,7,12,-12,-39,9,0,-3,4,14.200000000000001
2841,-8,-13,-4,-5,-24,-3,-3,-3,14.205
2842,16,25,14,45,-32,-12,2,4,14.21
2843,-7,-5,20,2,90,34,2,-6,14.215
2844,-1,-21,13,16,-49,-2,3,4,14.22
2845,-5,6,-28,-42,39,24,4,-9,14.225
2846,-10,-25,-5,24,15,-22,-23,-12,14.23
2847,-1,23,20,4,-36,-20,-6,-5,14.235
2848,7,24,12,4,2,-8,-9,-11,14.24
2849,-4,11,11,-13,-23,1,-5,0,14.245000000000001
2850,-1,-10,2,-4,-30,-16,-12,-8,14.25
2851,-12,5,22,24,2,1,1,-11,14.255
2852,32,53,49,19,15,8,12,24,14.26
2853,-28,-91,39,27,-21,-25,-14,-1,14.265
2854,-5,16,21,-18,21,24,12,1,14.27
2855,17,21,-5,26,-29,-23,-9,8,14.275
2856,-14,-16,15,10,-4,15,10,0,14.280000000000001
2857,-2,11,-33,-24,8,5,1,-1,14.285
2858,-11,-16,-19,-25,-35,-31,-26,-22,14.290000000000001
2859,-12,-4,-80,-52,30,15,3,-7,14.295
2860,14,19,-73,-5,-17,0,3,6,14.3
2861,5,7,-30,34,59,7,-2,-1,14.305
2862,0,-7,-14,37,4,15,16,14,14.31
2863,-12,-13,10,10,-10,7,2,-11,14.315
2864,-7,22,-22,-24,-28,-46,-32,-22,14.32
2865,5,15,9,-10,-21,-8,0,13,14.325000000000001
2866,-6,-13,4,-7,5,19,31,15,14.33
2867,8,26,5,-6,-24,-17,-11,6,14.335
2868,14,-13,-1,-1,26,16,6,6,14.34
2869,29,43,14,-43,-22,-8,11,19,14.345
2870,11,44,-28,-5,13,8,7,-4,14.35
2871,-24,-50,-15,5,-7,13,11,5,14.355
2872,-15,26,34,53,20,-10,-17,-14,14.36
2873,9,33,13,-4,-39,-14,-1,-5,14.365
2874,-2,-10,-11,-65,90,51,21,12,14.370000000000001
2875,3,0,-15,-18,-32,-15,-7,-19,14.375
2876,13,11,4,-14,24,23,11,11,14.38
2877,-6,-29,-10,55,58,17,14,18,14.385
2878,-28,8,20,53,14,4,-13,-21,14.39
2879,27,13,10,-22,-17,-15,-8,5,14.395
2880,-15,-63,-21,-23,11,3,3,-8,14.4
2881,-6,40,5,-20,-40,-20,-15,-16,14.405000000000001
2882,-9,-7,-9,3,-20,-7,-11,-9,14.41
2883,19,47,30,29,4,-7,-1,3,14.415000000000001
2884,-18,-65,14,-32,-3,14,33,39,14.42
2885,-27,-13,-18,-12,-10,-7,-8,-7,14.425
2886,35,3,14,41,-20,0,3,10,14.43
2887,-52,-31,-19,-38,-81,-59,-29,-27,14.435
2888,15,24,22,19,43,13,3,0,14.44
2889,16,23,12,0,6,15,-2,-8,14.445
2890,-11,-57,-11,-66,-26,-15,1,21,14.450000000000001
2891,2,-4,-7,35,96,39,10,2,14.455
2892,24,25,15,-5,-2,10,9,0,14.46
2893,-31,-20,-16,2,-16,-30,-24,-24,14.465
2894,20,53,10,2,-43,-14,6,5,14.47
2895,-14,-12,11,-1,-25,-7,2,4,14.475
2896,-5,-45,-26,4,1,2,2,5,14.48
2897,17,19,13,-24,-4,13,24,28,14.485
2898,6,-7,-47,-26,-23,-24,-17,-14,14.49
2899,-10,-17,3,1,5,1,3,2,14.495000000000001
2900,7,44,5,15,-6,-7,-11,-3,14.5
2901,-16,-84,0,9,-40,1,2,-10,14.505
2902,-10,-8,9,-9,-11,-32,-12,-14,14.51
2903,-5,-1,1,3,99,48,10,17,14.515
2904,12,26,31,34,-29,14,7,3,14.52
2905,13,17,-41,-52,11,-19,-15,-4,14.525
2906,-14,-14,-13,-3,-40,-35,-20,-13,14.530000000000001
2907,11,0,9,13,6,15,-2,-10,14.535
2908,-31,-48,-9,8,-2,-4,1,-22,14.540000000000001
2909,-3,6,3,29,4,10,-5,-12,14.545
2910,16,22,30,21,2,2,9,16,14.55
2911,16,40,-11,-24,-49,-23,-32,-19,14.555
2912,-10,-29,-11,-14,-1,3,25,19,14.56
2913,-8,-31,-2,18,-6,-16,-12,-15,14.565
2914,11,12,-6,-17,39,34,18,8,14.57
2915,14,4,13,33,3,10,20,45,14.575000000000001
2916,-12,10,-37,-71,-25,-13,-28,-32,14.58
2917,-2,14,5,16,-1,7,1,-3,14.585
2918,3,26,1,-4,-49,-10,-6,-3,14.59
2919,-13,-25,18,38,84,18,-4,-13,14.595
2920,3,16,7,-11,-14,-9,-8,-3,14.6
2921,-6,-2,-16,3,41,13,10,-3,14.605
2922,5,-1,11,12,-5,7,0,0,14.61
2923,-4,-16,-4,-13,-31,-2,9,-4,14.615
2924,-15,-10,-6,1,-13,-22,-18,-12,14.620000000000001
2925,9,8,2,2,-9,-3,-13,1,14.625
2926,-12,-8,-3,5,25,14,25,5,14.63
2927,-9,-38,-7,-12,-27,-12,-21,-41,14.635
2928,29,4,20,21,18,17,45,66,14.64
2929,10,23,5,-7,-8,-4,12,22,14.645
2930,3,-22,-14,-15,21,6,-12,8,14.65
2931,-6,7,3,-13,-20,-10,-3,-6,14.655000000000001
2932,-5,2,-11,-4,-2,-2,-9,-23,14.66
2933,2,-4,-8,-1,8,8,-3,-4,14.665000000000001
2934,2,6,-7,12,10,2,1,2,14.67
2935,8,-2,0,-23,-24,-1,8,1,14.675
2936,-16,-6,-17,16,17,1,-17,-16,14.68
2937,8,8,5,3,-6,-9,1,3,14.685
2938,-14,-21,0,3,14,5,-4,-5,14.69
2939,5,13,1,-1,-27,-14,-4,5,14.695
2940,-5,4,17,-4,-7,-9,-8,-7,14.700000000000001
2941,-3,-2,21,5,9,7,14,5,14.705
2942,-3,-3,12,15,5,10,7,-3,14.71
2943,7,7,-13,-16,-9,-9,-7,12,14.715
2944,-6,-5,-8,0,4,3,9,4,14.72
2945,-1,-12,-26,-7,-5,-5,-13,-13,14.725
2946,-8,-8,3,3,4,-6,-14,-9,14.73
2947,0,0,-17,-2,-6,-1,3,6,14.735
2948,-7,4,-11,3,-16,-12,-12,-16,14.74
2949,-5,-13,-5,-25,-21,-8,-3,0,14.745000000000001
2950,0,-4,-1,3,27,9,6,3,14.75
2951,-2,0,-2,11,-3,3,6,0,14.755
2952,-3,1,-6,0,-7,-12,-11,-7,14.76
2953,-8,2,18,30,-4,0,1,-3,14.765
2954,6,5,10,-7,-2,-2,-4,3,14.77
2955,2,2,-1,3,5,2,7,2,14.775
2956,-4,2,7,1,-6,-3,-3,-2,14.780000000000001
2957,-6,-2,5,-3,5,2,-3,-2,14.785
2958,-1,-4,2,-4,3,-2,-7,-4,14.790000000000001
2959,3,4,7,-1,-2,-2,-13,0,14.795
2960,4,2,5,11,5,4,31,6,14.8
2961,4,0,-2,-2,11,5,6,8,14.805
2962,-2,-5,-4,-2,1,3,1,-1,14.81
2963,-1,3,0,-8,-4,-3,-7,-1,14.815
2964,5,-1,0,-2,2,-2,-6,5,14.82
2965,4,2,1,1,9,4,-7,-3,14.825000000000001
2966,-8,-12,1,1,-4,-1,-1,-2,14.83
2967,-1,-2,0,-5,-3,-2,4,0,14.835
2968,-4,-3,-2,-3,4,1,-8,-5,14.84
2969,-2,-1,-5,10,0,-2,-1,-4,14.845
2970,2,7,-4,-8,-6,-2,1,1,14.85
2971,-2,2,0,9,1,-1,8,0,14.855
2972,0,1,-1,-6,0,1,-4,-1,14.86
2973,-4,-4,1,-5,-6,-4,-4,-4,14.865
2974,0,3,-3,-2,0,2,4,1,14.870000000000001
2975,1,-1,-3,-13,0,2,2,3,14.875
2976,-1,3,-5,-3,-2,-1,0,0,14.88
2977,0,1,1,4,2,0,7,6,14.885
2978,-5,-4,-1,8,-1,-3,-9,-6,14.89
2979,2,4,3,-2,-2,-3,5,2,14.895
2980,-2,-5,1,-9,0,0,-14,-6,14.9
2981,-4,-2,-3,-7,-1,-4,-5,-3,14.905000000000001
2982,2,4,1,3,0,2,2,-1,14.91
2983,0,-2,-1,-3,-1,0,-2,3,14.915000000000001
2984,-1,-3,-3,-7,-2,-4,-8,-7,14.92
2985,1,-2,-4,-6,-1,0,6,2,14.925
2986,-1,-1,-6,1,-3,-1,2,0,14.93
2987,2,1,-3,7,2,1,4,3,14.935
2988,0,-1,-1,3,0,0,-2,-2,14.94
2989,0,-2,0,-3,0,1,1,-3,14.945
2990,1,0,0,-1,1,-1,-5,-2,14.950000000000001
2991,-3,-2,-1,-5,-2,-2,-1,-1,14.955
2992,-1,-1,-2,0,0,-3,9,1,14.96
2993,-3,-1,-2,0,0,0,-7,-4,14.965
2994,1,-1,2,4,2,2,4,4,14.97
2995,0,0,0,1,0,-1,-1,-4,14.975
2996,-2,0,-5,-2,-2,-1,-1,5,14.98
2997,-1,0,-1,3,-1,-2,-2,-2,14.985
2998,-1,1,0,-3,-3,-4,4,1,14.99
2999,-1,0,1,5,-1,-3,-11,-5,14.995000000000001
3000,0,-2,2,7,-1,-2,-11,-3,15.0
3001,-2,-2,-2,-1,-2,2,10,2,15.005
3002,0,0,4,3,-1,-1,-1,2,15.01
3003,0,0,-4,4,1,1,7,1,15.015
3004,-2,-1,-5,-4,-3,0,-10,-5,15.02
3005,-1,-1,-3,-2,0,1,0,-1,15.025
3006,-3,0,-1,-1,-1,-1,-5,-3,15.030000000000001
3007,-1,-3,-1,-1,-2,-3,-1,-2,15.035
3008,0,-1,0,1,-1,-2,2,-1,15.040000000000001
3009,0,-1,2,1,-2,-1,-2,-2,15.045
3010,0,0,0,1,0,1,6,0,15.05
3011,1,0,1,4,1,3,2,2,15.055
3012,-7,-4,-2,-6,1,1,5,4,15.06
3013,-2,0,1,-1,-3,-3,-7,-3,15.065
3014,0,-2,-5,-3,-3,-2,-10,-5,15.07
3015,0,0,-1,-1,-2,-2,0,-1,15.075000000000001
3016,3,1,2,3,1,3,15,8,15.08
3017,2,2,1,1,4,2,7,3,15.085
3018,-3,-3,-2,-2,0,-3,-4,-1,15.09
3019,-2,0,2,-1,-3,-3,-2,-5,15.095
3020,3,-2,-8,-11,-3,3,8,1,15.1
3021,-2,2,4,18,2,0,4,1,15.105
3022,0,-1,-3,-9,-1,0,2,1,15.11
3023,-1,-1,0,-2,-1,-1,-1,0,15.115
3024,1,0,-2,-2,-1,-3,-10,-7,15.120000000000001
3025,-2,-3,-1,5,-2,-2,-4,-2,15.125
3026,-2,-1,-2,-4,-1,0,1,1,15.13
3027,-1,0,0,-5,-2,-2,0,1,15.135
3028,0,0,-1,-1,-2,-1,-4,0,15.14
3029,1,-1,-2,-6,-2,-2,0,-1,15.145
3030,-4,-4,-3,4,-3,-4,-12,-9,15.15
3031,2,1,0,-4,-1,1,8,10,15.155000000000001
3032,0,-1,1,6,1,2,8,0,15.16
3033,0,0,-1,-4,-2,-1,-1,1,15.165000000000001
3034,0,-1,-1,-1,-1,0,-4,-3,15.17
3035,-1,-4,0,2,1,1,2,-3,15.175
3036,2,1,4,5,2,-3,-12,-6,15.18
3037,-7,-5,-6,-1,-2,-1,0,1,15.185
3038,-1,-1,-1,6,0,1,6,1,15.19
3039,1,0,-3,-10,-3,5,27,5,15.195
3040,-2,1,1,-3,-1,-3,-3,0,15.200000000000001
3041,2,-1,2,-5,2,-2,-5,-5,15.205
3042,2,-1,-2,-2,1,-1,-2,1,15.21
3043,-2,-2,0,6,-2,-2,-9,-5,15.215
3044,-5,-4,0,-3,-1,0,-1,-1,15.22
3045,0,-1,-4,-7,-4,-2,0,-2,15.225
3046,-1,-1,3,11,0,4,13,6,15.23
3047,-1,-2,-3,-12,-1,-3,-16,-6,15.235
3048,1,3,4,1,0,-1,5,2,15.24
3049,-1,-1,-4,-2,0,-1,-11,-2,15.245000000000001
3050,0,-1,-1,-3,-1,-4,-5,-3,15.25
3051,-2,0,1,3,0,0,1,-2,15.255
3052,1,0,-4,-11,-5,-5,-7,-3,15.26
3053,0,-1,3,7,0,0,1,-1,15.265
3054,-1,-1,0,-5,-3,-1,3,-1,15.27
3055,0,2,2,8,1,-1,-8,-3,15.275
3056,-1,-4,-6,-6,-1,-2,-2,-1,15.280000000000001
3057,-1,-1,-3,-7,-3,0,1,3,15.285
3058,-1,-2,-1,1,1,0,-1,-1,15.290000000000001
3059,-1,-1,2,-2,-1,-3,-4,-1,15.295
3060,2,-2,1,9,-1,-2,-6,-3,15.3
3061,6,2,0,-5,1,2,-1,-3,15.305
3062,1,2,0,5,-1,-1,-1,2,15.31
3063,-1,-1,-2,0,-3,-2,5,2,15.315
3064,-2,0,0,3,-2,0,-2,0,15.32
3065,0,1,4,0,1,1,1,1,15.325000000000001
3066,-1,-1,-5,-9,-1,-3,-14,-6,15.33
3067,-1,-2,-5,-8,-2,4,9,3,15.335
3068,-1,2,4,7,0,0,-3,0,15.34
3069,-6,-2,-3,1,-2,-1,-4,-3,15.345
3070,1,0,6,16,5,2,8,-1,15.35
3071,-2,-1,-4,-10,-6,-5,-10,-5,15.355
3072,-1,-1,-7,-8,0,-1,2,-2,15.36
3073,0,-2,0,-4,-1,1,-1,-1,15.365
3074,-2,-1,0,2,-2,-2,1,1,15.370000000000001
3075,1,-2,1,14,4,1,6,-1,15.375
3076,0,1,4,1,0,0,2,3,15.38
3077,3,1,-2,-5,-2,2,1,-1,15.385
3078,0,-2,-9,-19,-5,-3,-18,-1,15.39
3079,-2,-2,0,14,2,5,32,8,15.395
3080,0,0,1,-3,-3,-5,-8,-7,15.4
3081,6,1,-3,-4,1,2,23,13,15.405000000000001
3082,2,1,1,-5,-3,-1,3,2,15.41
3083,-3,-2,-5,-7,0,-3,-18,-5,15.415000000000001
3084,2,0,1,12,1,-2,-2,-5,15.42
3085,-3,-2,2,3,0,-4,-2,-2,15.425
3086,-1,-3,1,-1,-1,1,-1,-4,15.43
3087,1,1,2,-3,-1,-3,-10,-2,15.435
3088,-3,-2,-3,13,2,1,3,0,15.44
3089,-4,-5,0,-8,-4,-3,-10,-6,15.445
3090,-2,-2,-2,-10,-2,-1,6,1,15.450000000000001
3091,-2,-3,-3,-18,-4,-4,-8,-4,15.455
3092,-2,-3,-4,3,-1,0,2,0,15.46
3093,-3,0,1,15,6,1,1,1,15.465
3094,0,1,1,2,4,2,2,1,15.47
3095,1,1,-2,-7,-7,0,-2,0,15.475
3096,-5,-4,-3,1,-1,2,0,-1,15.48
3097,1,1,-2,-27,-9,-8,-9,-7,15.485000000000001
3098,-2,-2,-6,-3,-3,-1,3,-1,15.49
3099,-9,-2,4,22,5,3,-10,-2,15.495000000000001
3100,1,3,3,-2,3,3,32,24,15.5
3101,-2,-2,-9,-12,-4,-2,-8,-7,15.505
3102,1,0,1,10,-3,0,1,-3,15.51
3103,1,3,2,-11,-1,-1,3,0,15.515
3104,0,-2,-3,-5,-3,1,-7,-4,15.52
3105,-3,0,0,5,-3,-1,-3,0,15.525
3106,-2,0,4,2,2,-3,1,-1,15.530000000000001
3107,1,0,0,15,2,0,-5,-1,15.535
3108,-3,-3,2,2,0,-2,-7,-6,15.540000000000001
3109,0,1,-2,-24,-2,0,-1,-1,15.545
3110,-3,-2,-4,0,-5,-4,-4,-3,15.55
3111,1,-3,-2,3,1,-1,0,-1,15.555
3112,-1,0,4,4,-1,0,-2,-1,15.56
3113,0,-1,-6,-6,-1,-1,-1,0,15.565
3114,-6,-3,0,-4,-4,-3,-3,-1,15.57
3115,2,1,-1,-13,-2,0,6,1,15.575000000000001
3116,1,0,1,-2,0,-2,-5,-5,15.58
3117,-4,-4,1,14,1,0,0,2,15.585
3118,4,2,1,-4,-1,0,-4,-3,15.59
3119,-5,-3,5,22,-1,-4,-13,-4,15.595
3120,2,1,-7,-17,-2,-2,1,3,15.6
3121,-2,-5,-4,18,1,3,-5,-5,15.605
3122,-2,-3,-8,-14,-2,1,7,4,15.610000000000001
3123,3,-2,1,-12,-1,-2,-10,-3,15.615
3124,1,1,4,19,-1,1,-5,-6,15.620000000000001
3125,-3,-1,2,-2,0,-2,0,-2,15.625
3126,2,1,0,-6,-4,0,0,2,15.63
3127,0,0,-2,2,-1,-1,1,-2,15.635
3128,-3,-2,-1,-9,-4,-4,-4,-3,15.64
3129,2,-2,1,-1,-3,1,0,-2,15.645
3130,-1,0,2,15,3,3,1,4,15.65
3131,6,6,-1,-21,-3,-2,0,1,15.655000000000001
3132,-4,-5,-4,7,0,-2,0,-1,15.66
3133,0,0,-4,1,-1,-1,1,2,15.665000000000001
3134,-1,-1,-1,1,3,0,1,-2,15.67
3135,-1,-1,-3,1,-3,-1,4,3,15.675
3136,-1,-1,-3,-15,-1,-3,-4,-5,15.68
3137,0,1,4,9,3,0,0,-1,15.685
3138,1,-2,2,-4,-1,0,-1,0,15.69
3139,-4,-4,-6,8,-4,0,5,-1,15.695
3140,-1,-1,-1,0,0,-1,-4,-5,15.700000000000001
3141,-2,-1,-1,0,-2,-2,0,3,15.705
3142,-1,2,1,4,1,2,0,0,15.71
3143,-1,-3,-5,-12,-4,-2,2,0,15.715
3144,0,-2,0,1,0,2,2,1,15.72
3145,4,4,5,5,1,1,0,-4,15.725
3146,3,-4,-5,8,-1,-4,-5,-1,15.73
3147,-2,-3,-2,-17,-3,1,1,2,15.735000000000001
3148,1,2,4,13,0,0,-3,3,15.74
3149,0,-1,-1,-8,-1,-4,-9,-4,15.745000000000001
3150,-2,-1,-3,-8,1,1,9,1,15.75
3151,-2,0,0,5,1,1,9,0,15.755
3152,0,-1,-3,-13,-6,-1,1,-1,15.76
3153,-1,1,7,6,4,-1,-5,-1,15.765
3154,-4,-4,-5,2,-1,-1,-5,-2,15.77
3155,-2,-3,-6,-3,-1,-2,-7,-4,15.775
3156,0,1,-2,-13,-1,1,0,0,15.780000000000001
3157,-1,-1,1,13,4,0,4,0,15.785
3158,-1,0,0,-5,-4,-3,-6,-2,15.790000000000001
3159,2,0,1,3,2,1,1,1,15.795
3160,-2,-3,-4,-2,0,-2,-3,0,15.8
3161,-2,-1,-5,-4,0,-1,1,0,15.805
3162,2,3,3,-2,1,0,1,1,15.81
3163,0,0,0,-1,1,1,-4,-2,15.815
3164,-1,1,2,-4,-2,-2,-1,-1,15.82
3165,0,-1,-7,-11,-3,1,1,0,15.825000000000001
3166,-2,0,2,-7,-2,-2,1,-2,15.83
3167,2,0,4,16,1,-3,-3,-5,15.835
3168,-5,-3,-2,-2,0,0,4,6,15.84
3169,0,-1,-2,-1,-2,-1,1,-2,15.845
3170,-1,0,-2,1,-3,-2,-2,-1,15.85
3171,2,0,0,-9,0,2,-3,0,15.855
3172,-2,-1,1,0,1,0,-2,-5,15.860000000000001
3173,1,-1,-3,-5,-1,0,3,7,15.865
3174,-2,-1,3,5,0,0,-4,-3,15.870000000000001
3175,-2,-2,-1,1,0,-2,4,0,15.875
3176,0,0,1,4,2,0,4,-2,15.88
3177,-2,-3,-2,-3,-3,0,-1,2,15.885
3178,1,-1,-1,-3,-1,-1,0,1,15.89
3179,-3,-1,-2,1,0,0,-1,0,15.895
3180,-2,-1,0,-5,-2,0,1,-1,15.9
3181,2,0,5,2,0,-1,-2,-4,15.905000000000001
3182,-1,-2,-7,0,-1,1,1,4,15.91
3183,-5,-2,-4,-16,-3,-3,-2,-2,15.915000000000001
3184,0,1,1,9,0,1,-1,0,15.92
3185,-1,1,2,2,0,0,-1,-2,15.925
3186,-7,-2,3,1,0,-1,-2,-3,15.93
3187,0,0,-1,-1,-3,-4,-4,-2,15.935
3188,2,2,-2,-12,-1,0,0,3,15.94
3189,-3,-2,-1,13,-1,1,6,4,15.945
3190,3,2,8,2,3,0,-2,-2,15.950000000000001
3191,-3,-2,1,6,-1,-3,-6,-4,15.955
3192,-2,-4,-5,-3,-2,-1,-9,-7,15.96
3193,2,1,0,-2,2,2,18,5,15.965
3194,-1,-1,-2,1,-1,0,3,2,15.97
3195,0,-1,2,8,2,3,-3,-2,15.975
3196,3,1,-2,-12,-1,-2,2,1,15.98
3197,-3,-4,-1,0,-2,-3,-9,-4,15.985000000000001
3198,1,-2,-2,2,2,1,-1,-3,15.99
3199,0,-2,-2,1,0,1,2,5,15.995000000000001
3200,5,1,-1,0,0,-1,-7,-3,16.0
3201,-1,-3,-4,-6,-3,-3,-1,-3,16.005
3202,-3,-3,-2,-5,-2,-1,3,-3,16.01
3203,2,3,-3,-3,0,-2,-2,2,16.015
3204,-1,0,5,0,-1,-1,3,2,16.02
3205,-2,-1,-5,-7,-4,-2,-3,-1,16.025
3206,2,0,-2,-1,0,2,-9,-3,16.03
3207,-1,-2,-3,-1,0,2,12,3,16.035
3208,-1,0,-1,5,-1,-3,-12,-3,16.04
3209,-3,-1,1,-1,-2,-1,1,-1,16.045
3210,-2,-1,4,7,0,-2,-2,-3,16.05
3211,-1,-4,-5,-4,-4,-3,-11,-3,16.055
3212,-1,-1,1,3,-1,2,14,6,16.06
3213,-3,-2,-6,-6,-2,-2,-5,-4,16.065
3214,2,2,-3,-7,-4,-4,-2,-3,16.07
3215,-3,-1,-1,4,0,-1,-3,-2,16.075
3216,-3,-3,-3,-2,0,-1,-3,-4,16.080000000000002
3217,1,0,1,3,0,-3,-5,-2,16.085
3218,4,-2,-2,-4,0,-1,1,-2,16.09
3219,0,0,2,7,0,2,2,-1,16.095
3220,-2,-1,-1,1,-2,-4,-1,-2,16.1
3221,0,2,-1,-1,2,0,0,1,16.105
3222,-1,-1,-4,-3,-1,-1,-4,1,16.11
3223,-1,-1,1,-1,-2,-3,-1,-1,16.115000000000002
3224,0,-1,-2,-5,-2,0,0,-4,16.12
3225,0,0,1,4,0,-3,-5,-1,16.125
3226,-2,-2,-1,-2,-1,-2,-1,1,16.13
3227,-1,-1,0,-6,-1,-1,4,-4,16.135
3228,4,-1,-7,7,2,1,1,6,16.14
3229,-1,-4,0,-3,0,-1,-6,-3,16.145
3230,-4,1,3,2,-1,1,9,1,16.15
3231,4,-2,-4,-5,-1,-3,-3,2,16.155
3232,-7,-3,-2,-3,-1,-2,-6,-5,16.16
3233,1,2,-1,-2,-1,0,-1,-1,16.165
3234,-3,-2,-2,1,0,0,-1,-1,16.17
3235,-2,2,3,1,2,2,-1,0,16.175
3236,1,-3,0,0,-1,-1,1,-2,16.18
3237,-1,-4,-1,-3,-1,0,-2,2,16.185
3238,-10,0,6,6,2,-2,1,-4,16.19
3239,-3,0,-9,-8,-3,-1,6,3,16.195
3240,0,-1,-2,0,-1,0,-2,-1,16.2
3241,-3,-3,3,7,-1,-1,-1,-3,16.205000000000002
3242,5,-2,-4,-13,-2,-2,-5,0,16.21
3243,1,0,3,2,0,0,-4,-1,16.215
3244,-4,-1,-1,0,-1,-1,0,0,16.22
3245,0,2,0,-3,0,-1,-1,-1,16.225
3246,6,1,2,4,0,-1,-3,2,16.23
3247,-2,-2,0,-1,-1,0,-2,-2,16.235
3248,-1,-2,-2,-3,0,-2,-2,-1,16.240000000000002
3249,0,1,-3,-4,-1,0,3,-3,16.245
3250,1,-2,-3,0,-2,0,-2,0,16.25
3251,-2,-2,-1,-1,-2,-3,-4,-3,16.255
3252,1,0,-1,-1,0,2,16,4,16.26
3253,-2,0,4,2,0,-3,-8,-3,16.265
3254,-2,-1,-5,-3,-3,0,9,2,16.27
3255,1,2,2,0,0,0,-6,-1,16.275
3256,-1,-2,-5,-5,-2,0,1,0,16.28
3257,0,-1,0,2,1,0,-3,-2,16.285
3258,1,1,0,-3,-1,-3,-1,1,16.29
3259,-1,-2,-1,5,0,0,-4,-2,16.295
3260,0,0,-1,-9,-1,-2,-5,-1,16.3
3261,0,-1,-3,-2,-1,2,6,4,16.305
3262,-1,-4,-1,0,-2,-2,-3,-3,16.31
3263,4,0,-2,0,-2,-1,1,-1,16.315
3264,-8,-2,1,1,1,-3,-7,0,16.32
3265,-1,-3,-5,-3,0,-2,2,-3,16.325
3266,-2,1,-1,-1,0,1,-1,-1,16.330000000000002
3267,13,1,-1,-3,1,-1,3,0,16.335
3268,-8,-4,2,0,-1,-2,-4,-3,16.34
3269,2,1,-2,-2,1,1,1,-1,16.345
3270,2,-2,-1,0,-1,-2,-2,5,16.35
3271,-1,1,2,1,0,-1,-3,-2,16.355
3272,0,0,-1,5,-1,1,3,-4,16.36
3273,-4,-1,0,-3,1,-1,-2,1,16.365000000000002
3274,-1,2,3,6,0,0,-3,-5,16.37
3275,-7,-2,0,2,-2,-6,-1,3,16.375
3276,1,0,2,-2,-2,0,-4,0,16.38
3277,-1,-3,-7,-3,-3,-1,-4,-2,16.385
3278,-6,-5,-4,1,-1,1,3,0,16.39
3279,-4,-1,2,-2,-1,1,3,-4,16.395
3280,1,-2,-2,2,0,1,0,3,16.4
3281,1,1,5,2,-1,-1,0,0,16.405
3282,-2,-2,-7,-6,-1,-2,-7,-6,16.41
3283,-3,-1,-3,-3,-1,0,3,0,16.415
3284,-1,-3,-6,-3,-1,-2,-3,-2,16.42
3285,-2,-2,-1,-1,-2,1,-3,0,16.425
3286,1,-2,0,6,0,-3,-1,1,16.43
3287,-4,-1,-3,-11,-2,-2,-5,-3,16.435
3288,5,2,1,3,0,0,0,0,16.44
3289,-3,-1,-3,-1,-1,-1,-4,2,16.445
3290,0,-1,-2,-2,-1,-1,-1,-1,16.45
3291,2,-1,2,4,-1,1,7,1,16.455000000000002
3292,4,0,1,2,0,-1,0,-4,16.46
3293,-4,0,3,1,-1,0,0,-1,16.465
3294,0,1,-3,-2,1,2,4,-1,16.47
3295,-3,-2,-2,-1,0,1,0,2,16.475
3296,0,1,-3,-4,-2,-2,-5,0,16.48
3297,0,-1,5,5,0,0,0,0,16.485
3298,-5,-1,-6,-12,-2,-1,-1,-5,16.490000000000002
3299,-3,0,4,0,-2,-2,-5,0,16.495
3300,-4,-3,-4,5,2,2,1,-1,16.5
3301,1,-2,-5,-3,-1,-2,-1,0,16.505
3302,-5,-1,2,5,-1,2,5,0,16.51
3303,-4,0,-2,-4,-1,-1,-5,-6,16.515
3304,4,4,5,3,-2,-1,2,7,16.52
3305,-2,-1,0,-4,-1,-1,-1,-1,16.525
3306,3,-1,-1,-3,-2,-1,1,2,16.53
3307,2,-2,-3,0,1,-1,-1,0,16.535
3308,-9,-5,1,0,1,-1,-2,-5,16.54
3309,0,-1,-4,-8,-1,1,4,0,16.545
3310,0,2,2,2,-1,-1,-5,-2,16.55
3311,2,0,4,-1,-1,-4,-1,3,16.555
3312,-3,-4,-11,-4,2,0,-4,-4,16.56
3313,1,-1,-4,-6,-3,-1,1,0,16.565
3314,-4,-5,-5,1,-2,-3,-6,-3,16.57
3315,-1,-4,0,9,0,1,3,0,16.575
3316,2,2,-1,-12,-3,0,-6,-2,16.580000000000002
3317,0,0,2,3,0,-1,3,-1,16.585
3318,1,0,0,-3,-2,1,1,1,16.59
3319,-2,0,-1,3,0,0,-1,-1,16.595
3320,-1,-1,1,0,0,0,-2,-1,16.6
3321,-6,-1,2,2,-1,-1,-6,-5,16.605
3322,21,4,0,-1,0,-1,2,4,16.61
3323,-7,-4,-3,-2,-1,-1,-1,0,16.615000000000002
3324,0,1,0,6,1,2,6,2,16.62
3325,-3,-2,-5,-3,-4,-2,-5,-3,16.625
3326,-3,-1,-2,-2,0,0,-4,-3,16.63
3327,2,0,-1,-6,-2,-2,0,1,16.635
3328,2,-1,2,0,-1,-1,-1,1,16.64
3329,0,1,-2,1,-1,1,0,-1,16.645
3330,-5,-1,-2,-2,-1,-5,-5,-2,16.65
3331,-1,-3,-3,-1,-1,0,0,1,16.655
3332,-5,-1,0,-2,-2,-2,0,-3,16.66
3333,1,-2,-2,1,0,-1,-4,-4,16.665
3334,-4,0,2,0,1,-2,-1,0,16.67
3335,-2,-2,-1,4,-1,-1,-1,-3,16.675
3336,3,2,1,-7,-1,-5,1,3,16.68
3337,1,0,-1,0,0,-1,-1,1,16.685
3338,-4,-2,-1,0,-2,-2,-2,-1,16.69
3339,1,1,4,-1,3,1,-1,0,16.695
3340,0,-5,-10,-2,-4,-3,-8,-4,16.7
3341,0,-2,-2,-4,-1,3,15,4,16.705000000000002
3342,-3,0,2,1,-1,-1,-2,-4,16.71
3343,1,2,-2,3,1,1,1,2,16.715
3344,2,-1,3,3,-1,1,-2,-1,16.72
3345,-1,1,0,0,-1,-3,-4,-3,16.725
3346,-1,-2,-4,-3,-4,-1,1,1,16.73
3347,-11,-2,-1,-4,-3,0,-2,-3,16.735
3348,-2,-1,-1,-1,-2,-3,-4,-2,16.740000000000002
3349,0,-1,4,5,-2,-1,-5,-1,16.745
3350,-1,-1,-1,4,2,1,2,2,16.75
3351,4,0,-6,-9,-3,-1,-3,-1,16.755
3352,-2,2,-3,-8,1,0,4,0,16.76
3353,-3,-2,-1,-2,-1,0,0,0,16.765
3354,-4,-3,1,2,0,-1,0,0,16.77
3355,-1,-2,-2,0,-2,-3,-4,-3,16.775
3356,2,-2,1,3,-1,3,5,0,16.78
3357,2,0,-3,-2,-1,-3,-2,0,16.785
3358,-1,1,1,1,2,2,3,1,16.79
3359,-1,-1,-2,2,-2,-1,-1,-1,16.795
3360,0,-2,1,0,-1,-2,-10,-3,16.8
3361,-1,-1,-5,-4,-1,-1,2,3,16.805
3362,-4,-3,0,6,0,-2,-2,-1,16.81
3363,-1,-3,-3,-10,-1,-1,-1,-2,16.815
3364,-2,0,0,5,-1,0,-1,-1,16.82
3365,-2,-3,-2,2,0,2,6,1,16.825
3366,5,0,-4,-4,-1,-1,0,-1,16.830000000000002
3367,4,2,-1,3,0,-1,2,1,16.835
3368,-14,-4,4,8,2,-2,-4,0,16.84
3369,-3,-1,-5,-10,-2,0,-5,-4,16.845
3370,1,1,3,-1,-2,-2,-4,0,16.85
3371,4,-1,-3,0,-1,-1,1,0,16.855
3372,-6,-3,-1,-2,-2,-3,0,-4,16.86
3373,-1,-2,1,3,2,2,1,1,16.865000000000002
3374,-3,0,-1,-5,-2,-1,-1,1,16.87
3375,-4,-1,-1,-3,0,0,-2,-2,16.875
3376,5,2,0,-1,0,-1,2,2,16.88
3377,-1,0,1,0,-2,-2,-7,-5,16.885
3378,-2,-4,-2,-2,0,-2,-1,-4,16.89
3379,-2,0,3,4,-1,-1,3,1,16.895
3380,3,0,-2,-4,-3,-1,2,0,16.9
3381,-1,-3,-4,-1,-2,-3,-3,-2,16.905
3382,-2,-3,-4,-1,-1,-2,-3,-6,16.91
3383,0,1,-1,-3,-3,-4,0,0,16.915
3384,-1,0,0,-1,-1,1,0,1,16.92
3385,-2,-1,-3,-3,-2,-3,-1,-2,16.925
3386,0,-1,6,2,1,0,0,-2,16.93
3387,-3,-4,-7,-3,1,1,-2,-1,16.935
3388,1,-1,-1,-1,-1,-1,0,-1,16.94
3389,1,1,4,3,1,0,0,1,16.945
3390,-3,-3,-3,-5,-2,-2,-7,-1,16.95
3391,1,0,0,0,-2,0,4,1,16.955000000000002
3392,0,-2,-1,6,-1,-1,1,1,16.96
3393,-2,-1,-1,-4,-2,0,-1,-2,16.965
3394,0,1,-3,-5,-1,-2,0,-2,16.97
3395,0,0,1,-3,1,5,3,1,16.975
3396,-1,-3,-5,-1,-1,0,-3,-2,16.98
3397,-1,-1,0,3,-1,-1,-1,0,16.985
3398,-1,1,-1,3,-1,-1,1,1,16.990000000000002
3399,0,-1,2,1,-1,-1,-2,-1,16.995
3400,-4,1,-3,-6,-1,1,1,-3,17.0
3401,-1,1,4,3,1,-1,-5,-2,17.005
3402,1,1,-1,-4,0,3,15,6,17.01
3403,1,0,-4,0,-1,-3,-4,-1,17.015
3404,-1,1,1,-3,0,1,1,3,17.02
3405,0,-1,-1,3,-1,-1,-3,-1,17.025
3406,-2,0,1,-1,-1,0,-3,-3,17.03
3407,3,0,-2,-3,-3,-2,-3,-3,17.035
3408,-2,-4,-6,-4,-2,-2,1,-1,17.04
3409,1,-1,-2,3,-3,-3,4,0,17.045
3410,-5,-4,0,1,0,-1,-3,-1,17.05
3411,-3,-3,-2,-6,-2,1,-3,-3,17.055
3412,2,0,4,1,-1,-3,-4,-2,17.06
3413,-1,0,-4,-3,-1,0,-2,-2,17.065
3414,1,0,-2,0,-1,-2,-2,-3,17.07
3415,-1,0,3,3,1,-1,-2,-2,17.075
3416,-1,1,0,-4,0,-1,-2,-4,17.080000000000002
3417,3,-1,1,1,1,3,5,4,17.085
3418,-1,1,0,0,-1,-1,-2,0,17.09
3419,-2,-2,-2,-2,1,-1,-2,1,17.095
3420,2,0,1,0,0,-2,3,-1,17.1
3421,2,-1,-1,-5,-2,-2,-2,-3,17.105
3422,-12,-4,-3,0,-1,-2,-2,-5,17.11
3423,8,-1,0,-1,1,-2,-3,5,17.115000000000002
3424,0,-1,4,3,-1,1,-3,0,17.12
3425,0,-2,-4,-1,0,-1,-2,-2,17.125
3426,4,-1,-1,-3,-2,-1,0,1,17.13
3427,-4,-1,1,4,0,-1,1,-3,17.135
3428,-1,-1,-2,-2,-3,-4,-6,-2,17.14
3429,2,1,-4,-3,-1,2,0,-1,17.145
3430,-1,-1,0,-2,0,1,12,1,17.150000000000002
3431,-3,-2,0,2,-2,1,-3,-2,17.155
3432,0,0,-1,-2,0,0,0,1,17.16
3433,-4,-1,-1,9,1,-1,-3,-1,17.165
3434,2,0,-3,-10,-2,-3,-5,0,17.17
3435,0,-1,0,-2,0,0,-2,-2,17.175
3436,0,-1,0,-4,0,1,4,1,17.18
3437,-2,-2,-2,0,-4,-5,-1,0,17.185
3438,4,-1,5,6,-1,2,-2,0,17.19
3439,-2,0,-3,3,-2,-1,-4,-2,17.195
3440,-1,-2,-5,-2,0,-1,-1,-2,17.2
3441,-3,-3,1,-3,-1,0,1,-2,17.205000000000002
3442,3,-1,-2,-2,-2,0,-2,-1,17.21
3443,6,1,-1,-3,-1,-2,-1,-1,17.215
3444,-5,-3,1,3,-1,0,0,2,17.22
3445,2,1,-1,-3,1,-2,-1,-1,17.225
3446,0,-1,-1,0,0,1,-3,-3,17.23
3447,-3,-5,-3,3,1,-1,-8,-8,17.235
3448,1,0,-2,-2,0,3,10,6,17.240000000000002
3449,-1,0,-5,-9,-3,3,9,8,17.245
3450,-5,-3,1,4,-2,0,-2,0,17.25
3451,-4,-1,-4,-5,-3,-3,-7,-2,17.255
3452,-2,-3,-6,0,-2,0,0,-4,17.26
3453,-4,-1,2,0,-1,-2,-4,-4,17.265
3454,3,0,0,0,-1,-1,1,0,17.27
3455,-4,1,0,-1,-2,-2,0,-2,17.275000000000002
3456,3,2,-1,-3,0,0,0,1,17.28
3457,-1,0,0,-3,-1,1,0,-1,17.285
3458,0,0,-2,5,1,-2,-4,0,17.29
3459,-3,-3,0,-1,0,-1,5,0,17.295
3460,2,0,0,-1,0,0,-3,0,17.3
3461,-1,-2,-1,0,-1,-1,0,0,17.305
3462,-1,0,0,-4,-2,-1,-2,-2,17.31
3463,0,0,1,1,-2,0,4,-1,17.315
3464,11,1,3,0,-3,-2,-1,-2,17.32
3465,-8,-3,0,3,-1,-2,-2,0,17.325
3466,-1,-2,-2,-3,0,1,2,2,17.330000000000002
3467,-1,-1,-3,-2,0,1,3,1,17.335
3468,-2,-1,-3,-3,-1,-1,-3,0,17.34
3469,1,0,0,-1,-2,-6,-8,-2,17.345
3470,2,-1,-1,-3,1,2,8,3,17.35
3471,2,1,7,6,1,3,-2,0,17.355
3472,-5,-1,-6,-8,-1,-1,-3,-3,17.36
3473,2,0,1,4,1,2,-1,-2,17.365000000000002
3474,-1,-1,-5,-6,-2,-3,-6,-4,17.37
3475,-6,-1,0,-1,0,2,3,-1,17.375
3476,-4,-1,3,4,1,-1,-1,0,17.38
3477,1,2,-1,-1,0,-1,2,1,17.385
3478,-1,-4,-3,-1,-3,-3,-4,-3,17.39
