slno,emg1,emg2,emg3,emg4,emg5,emg6,emg7,emg8,Time
0,2,0,2,7,-1,-3,-16,-10,0.0
1,2,1,0,-8,2,5,34,10,0.005
2,-1,-4,-5,-3,-4,-1,0,0,0.01
3,0,3,6,2,0,-1,-3,-3,0.015
4,2,0,3,-3,1,0,-2,3,0.02
5,0,0,0,5,-2,-1,-3,-2,0.025
6,0,1,0,3,0,1,3,-2,0.03
7,0,-1,-1,-3,-2,-2,0,1,0.035
8,-2,0,-1,3,-2,-1,-1,-1,0.04
9,-3,-2,0,0,0,0,-9,-2,0.045
10,0,0,2,-1,2,-1,2,1,0.05
11,-1,-1,0,1,3,3,-6,-3,0.055
12,-2,-1,2,-5,-2,-3,1,2,0.06
13,-1,-2,-3,-1,-2,-4,-10,-5,0.065
14,2,-1,0,0,0,3,6,4,0.07
15,-1,-2,-3,-2,-3,-2,4,1,0.075
16,-1,-1,-6,-1,0,0,-4,-2,0.08
17,-5,-4,-2,-1,-2,0,3,-3,0.085
18,-1,1,6,2,3,-3,-17,-7,0.09
19,-7,-9,-10,-6,0,-2,-5,-6,0.095
20,2,2,-2,-1,1,7,32,15,0.1
21,0,2,0,-1,-1,-5,-9,-1,0.105
22,-3,-2,-5,-10,-1,0,-2,-1,0.11
23,0,-1,2,8,-1,-4,-6,-3,0.115
24,-1,1,0,0,-2,-3,-1,-1,0.12
25,-1,1,1,1,-2,0,4,0,0.125
26,0,0,-2,0,1,0,-3,-2,0.13
27,0,-1,1,3,0,1,0,0,0.135
28,-3,-4,-5,-4,-2,0,-1,-2,0.14
29,1,2,1,-1,-1,-2,-4,-2,0.145
30,-3,-2,-2,-3,-2,-4,-2,-1,0.15
31,1,-1,0,-3,-1,-1,-5,-3,0.155
32,-2,0,0,3,0,-1,-6,-1,0.16
33,0,-1,-1,-2,-2,-1,7,3,0.165
34,-3,-1,-6,-1,-2,-4,-7,-4,0.17
35,-2,-2,-6,-6,-3,-2,0,1,0.17500000000000002
36,1,1,3,3,0,3,7,6,0.18
37,-1,-2,-2,0,1,-1,-8,-5,0.185
38,8,3,3,-1,-1,4,5,3,0.19
39,-1,-2,-5,-2,-1,-1,-1,-3,0.195
40,-1,-2,-1,-1,-1,-1,-5,-6,0.2
41,0,-1,0,-1,-1,-1,4,0,0.20500000000000002
42,-1,-2,2,2,0,2,3,3,0.21
43,1,0,-2,0,0,-2,0,1,0.215
44,0,-2,1,-3,1,0,5,0,0.22
45,-3,-1,-1,5,1,-2,-16,-9,0.225
46,-1,0,2,-4,-2,-3,0,0,0.23
47,-2,-3,-6,-2,-1,-1,-4,-1,0.23500000000000001
48,-1,-3,-2,5,0,-4,-14,-5,0.24
49,-2,0,-2,-15,-5,-3,9,1,0.245
50,-1,-1,1,1,2,2,4,3,0.25
51,-3,0,0,0,-2,-1,-4,-3,0.255
52,0,-1,-1,6,-1,-3,-3,2,0.26
53,-2,-4,-9,-18,-2,3,7,2,0.265
54,-1,0,3,3,1,-1,-2,1,0.27
55,2,0,2,0,-1,1,4,1,0.275
56,-1,0,-3,0,-1,-1,-5,-5,0.28
57,-1,-1,0,5,-1,-1,-2,-2,0.28500000000000003
58,-3,-3,-3,-1,0,-1,5,0,0.29
59,-1,0,1,2,1,-1,-1,-3,0.295
60,2,1,1,-4,-1,0,-3,-1,0.3
61,0,1,2,5,-1,1,-1,0,0.305
62,-1,-2,-2,-1,-1,-1,0,-1,0.31
63,-2,0,2,3,0,-3,-5,-2,0.315
64,-3,-2,-5,-7,-3,-1,3,1,0.32
65,3,0,3,3,2,1,3,-2,0.325
66,-1,-1,-2,-1,-3,-3,-9,-3,0.33
67,0,1,-1,-1,0,0,3,1,0.335
68,0,1,1,-2,-2,2,7,3,0.34
69,-8,-4,0,5,0,-3,-14,-4,0.34500000000000003
70,-2,0,-3,-6,-4,2,8,1,0.35000000000000003
71,-1,-3,-5,0,-1,-4,-1,-1,0.355
72,-1,1,0,1,1,0,2,1,0.36
73,1,-1,0,0,-2,-2,-4,-1,0.365
74,2,-2,2,1,2,-1,-6,-5,0.37
75,1,1,0,-5,-1,1,18,10,0.375
76,0,-2,0,-2,-1,-1,-4,-2,0.38
77,0,-2,-6,8,0,-2,-1,0,0.385
78,0,0,1,-4,-1,-1,-5,-4,0.39
79,-1,-2,-3,-5,-2,1,-1,-2,0.395
80,2,0,-2,-3,-2,-2,0,-3,0.4
81,0,2,2,-1,0,0,3,2,0.405
82,-1,-3,-2,0,-4,0,-1,-4,0.41000000000000003
83,-1,0,3,6,3,1,-2,3,0.41500000000000004
84,0,-1,1,5,0,1,-1,2,0.42
85,1,-2,-2,-8,2,-1,9,5,0.425
86,0,0,-3,7,-1,-1,-6,-3,0.43
87,0,-1,2,-5,-3,-1,-1,-6,0.435
88,-3,-2,-4,2,0,0,2,-2,0.44
89,0,0,0,2,-1,0,2,1,0.445
90,-3,1,1,-1,0,0,5,2,0.45
91,0,-1,0,-4,-2,-3,-5,-6,0.455
92,-1,1,-3,3,-1,-4,-4,-2,0.46
93,-1,-1,0,-3,-2,-2,-2,-1,0.465
94,0,1,-2,-3,-2,-2,-2,3,0.47000000000000003
95,-7,0,0,3,0,0,-4,-1,0.47500000000000003
96,0,-1,-2,-5,-1,1,-4,-2,0.48
97,-2,-2,-1,8,-1,-2,-3,-2,0.485
98,1,-3,-5,-12,-3,0,2,1,0.49
99,3,3,4,8,0,0,-2,3,0.495
100,-2,0,5,1,0,2,3,-5,0.5
101,-1,-4,-12,-3,-1,1,4,5,0.505
102,-2,-1,2,-2,0,-3,-3,-3,0.51
103,-3,-4,-2,-5,-2,-2,-10,-7,0.515
104,3,3,3,-6,0,0,13,5,0.52
105,1,-1,5,4,-1,0,-14,-6,0.525
106,0,-2,-6,2,0,2,17,5,0.53
107,1,-1,-3,-4,-1,0,-1,2,0.535
108,-2,-2,-4,2,-3,-2,-8,-4,0.54
109,-3,0,-2,1,-2,-1,-2,-1,0.545
110,-4,0,-1,-4,1,-1,-3,-2,0.55
111,-1,-1,-2,2,-2,-1,-2,-2,0.555
112,3,0,1,-2,1,-2,-2,2,0.56
113,-13,1,5,6,-1,0,1,-7,0.5650000000000001
114,6,2,-1,0,1,-1,0,2,0.5700000000000001
115,3,3,5,5,1,1,6,6,0.5750000000000001
116,-1,-3,-6,-2,-1,-1,3,1,0.58
117,2,-2,-4,-6,-1,2,2,-1,0.585
118,-4,-1,1,4,-1,-3,-13,-9,0.59
119,-2,-2,-1,-3,0,3,10,1,0.595
120,0,0,-2,-3,-2,-1,3,-1,0.6
121,5,2,4,-2,0,2,12,2,0.605
122,-2,0,0,3,3,3,4,0,0.61
123,1,-2,-4,1,-1,-3,-2,0,0.615
124,-1,1,3,-2,-2,-1,-7,-1,0.62
125,-1,-5,-3,-2,-1,-3,-7,-2,0.625
126,1,-2,-1,-1,-2,0,4,2,0.63
127,-5,-3,-3,-2,-2,-2,-4,-4,0.635
128,-1,0,-1,-1,1,0,-1,-1,0.64
129,1,0,-1,-4,-1,-4,-7,-1,0.645
130,-1,2,-3,-11,-3,-5,3,1,0.65
131,-2,-1,-4,3,0,-1,-13,-5,0.655
132,-3,-3,-3,0,-1,0,13,5,0.66
133,2,-1,0,1,-1,-3,-4,-2,0.665
134,-5,-4,-1,8,2,-1,-4,-2,0.67
135,-1,0,-1,-11,-3,-1,-2,-3,0.675
136,5,3,4,4,1,0,4,3,0.68
137,-3,-2,0,-7,-2,-2,-10,-3,0.685
138,-2,-1,0,-4,-3,-2,2,-1,0.6900000000000001
139,-1,-3,0,9,3,0,-3,-4,0.6950000000000001
140,4,-2,-2,-8,-2,2,11,4,0.7000000000000001
141,-9,-2,-2,1,2,2,3,0,0.705
142,-4,-1,1,-4,-1,-2,-5,-3,0.71
143,2,-1,2,6,0,1,1,1,0.715
144,-4,-2,-1,-1,-2,-1,-6,-7,0.72
145,4,2,-1,-2,-2,-5,-4,2,0.725
146,-1,-2,0,4,-2,2,1,-2,0.73
147,-5,-3,-3,-5,0,-4,-8,-2,0.735
148,-2,-3,2,1,-2,-2,-6,-2,0.74
149,1,-1,-4,-2,-1,1,11,6,0.745
150,-5,-3,-3,4,-1,-2,-10,-6,0.75
151,2,4,5,-3,-2,-3,0,1,0.755
152,1,3,1,-1,2,-1,-7,-1,0.76
153,1,-1,-1,1,0,0,-1,-5,0.765
154,1,0,-1,0,0,-1,4,1,0.77
155,-4,-2,-2,0,-1,0,1,0,0.775
156,-4,-1,0,2,-2,-2,-3,-2,0.78
157,-2,0,0,-1,-1,-1,-2,-1,0.785
158,1,0,2,0,-4,-6,-4,0,0.79
159,1,-1,-3,-4,-2,0,1,2,0.795
160,-2,-1,0,0,0,-3,-8,-5,0.8
161,-1,0,-1,-1,0,2,18,3,0.805
162,-2,-1,-2,-1,-2,-2,-9,-8,0.81
163,3,3,4,6,-1,-2,5,3,0.8150000000000001
164,-2,-2,-6,-7,-1,-2,-9,-2,0.8200000000000001
165,0,-2,1,5,-1,-1,-7,0,0.8250000000000001
166,1,-1,-6,-13,0,4,11,5,0.8300000000000001
167,-1,0,-2,-2,-1,-1,2,-5,0.835
168,-3,-1,1,3,0,-3,-10,-5,0.84
169,2,0,1,-2,0,1,9,2,0.845
170,1,0,4,2,3,6,12,5,0.85
171,0,-1,0,0,0,0,4,4,0.855
172,-2,-2,-7,-7,-4,-1,-4,0,0.86
173,-1,0,-1,-3,-2,-5,-7,-3,0.865
174,-1,-2,-1,0,-3,-1,-5,-1,0.87
175,3,0,-1,-3,1,2,17,4,0.875
176,-11,-3,1,5,1,1,3,-1,0.88
177,0,-1,-4,-2,0,1,-3,-2,0.885
178,-2,-5,-4,-1,-2,-2,-7,-4,0.89
179,4,-1,-3,-5,-4,-6,-11,-1,0.895
180,1,-2,0,8,1,-1,5,1,0.9
181,-1,0,0,-13,-2,0,-3,-1,0.905
182,1,2,-3,5,1,-2,-5,-3,0.91
183,-3,-2,1,0,1,1,-3,-2,0.915
184,2,-2,-4,-1,-3,-3,-3,-1,0.92
185,-3,-3,-2,-2,0,0,-2,-2,0.925
186,1,1,4,2,-1,-2,-2,0,0.93
187,-2,0,-1,-3,-1,-2,-1,-5,0.935
188,-2,-2,-3,-3,-1,-3,-3,-1,0.9400000000000001
189,1,0,2,5,2,5,5,3,0.9450000000000001
190,0,-1,0,1,1,-1,-8,-1,0.9500000000000001
191,0,0,-1,-1,-1,0,9,1,0.9550000000000001
192,1,1,2,-1,1,1,0,0,0.96
193,1,2,-1,-2,0,-3,3,0,0.965
194,-3,-5,-6,0,1,-1,0,-3,0.97
195,-2,0,-1,-1,0,-2,-8,-1,0.975
196,1,0,0,-2,2,2,4,0,0.98
197,-2,0,0,2,0,-3,-5,-3,0.985
198,-2,0,-1,-2,-2,0,-3,-2,0.99
199,0,-1,0,1,-1,-2,-2,0,0.995
200,-1,-1,0,2,2,2,1,1,1.0
201,0,0,1,0,-1,-2,-1,0,1.0050000000000001
202,-2,-2,-3,0,-1,-5,-10,-5,1.01
203,-3,-1,-5,-5,-2,0,-3,-2,1.0150000000000001
204,3,1,1,0,0,2,13,3,1.02
205,-7,-2,0,0,-2,-3,-6,-8,1.025
206,2,1,1,1,2,1,7,4,1.03
207,-2,-5,-2,-2,-2,-4,-13,-7,1.035
208,-1,0,-2,-1,0,0,4,2,1.04
209,0,-2,-6,-3,-2,-4,-8,-3,1.045
210,0,-1,-1,1,-1,0,6,0,1.05
211,-2,2,0,-1,0,-1,0,0,1.055
212,-2,-2,-1,1,-1,-1,-4,-3,1.06
213,0,-1,-1,0,-1,-1,-6,-1,1.065
214,1,4,3,3,1,2,11,7,1.07
215,-1,1,3,1,-1,-2,-2,-1,1.075
216,-1,-2,-3,1,2,1,1,-2,1.08
217,9,1,-1,0,-1,-1,-5,-5,1.085
218,-6,-1,2,-3,0,0,2,0,1.09
219,1,-1,-2,-1,1,3,15,6,1.095
220,-1,0,1,-4,-3,-3,-5,-1,1.1
221,2,-1,-1,1,-1,-2,-2,1,1.105
222,-1,0,4,0,-2,0,-4,-2,1.11
223,-2,-4,-2,6,-1,-2,0,0,1.115
224,-1,-1,-6,-10,-4,-2,-6,-4,1.12
225,0,-1,0,1,0,2,7,3,1.125
226,1,0,-2,-2,-2,-3,1,-1,1.1300000000000001
227,-5,-1,0,-2,-1,1,-5,-1,1.135
228,4,0,2,2,-1,-3,-2,-2,1.1400000000000001
229,-4,-2,-1,0,1,2,14,2,1.145
230,0,-2,-2,-2,-2,-1,-5,-2,1.1500000000000001
231,3,0,-2,-1,-1,0,1,-2,1.155
232,2,0,-1,3,-1,-1,-3,-1,1.16
233,-2,0,0,-6,-5,-4,-6,-3,1.165
234,-3,-2,-1,-1,0,1,2,1,1.17
235,-4,-4,-7,-5,-5,-5,-6,-6,1.175
236,-2,-2,-6,-4,-5,-5,-10,-2,1.18
237,-2,0,-1,-1,0,2,3,-2,1.185
238,0,-2,-3,-1,-2,1,5,2,1.19
239,1,0,0,-3,-1,-2,-4,-1,1.195
240,-3,-1,1,-1,-1,1,3,-2,1.2
241,0,0,1,1,-1,-1,-5,1,1.205
242,-1,0,-4,-5,-5,-3,-8,-4,1.21
243,0,0,-1,1,1,-1,0,-2,1.215
244,9,1,3,4,0,1,0,1,1.22
245,-10,-3,0,-1,-1,2,0,0,1.225
246,1,0,0,2,0,0,-2,-2,1.23
247,-2,-1,-1,-2,-1,-2,0,0,1.235
248,-2,-1,0,-2,0,-2,-6,-2,1.24
249,2,-3,-3,-3,-5,-5,-3,-6,1.245
250,0,0,-2,0,2,-1,-5,1,1.25
251,1,1,-1,-3,-2,1,7,2,1.2550000000000001
252,-2,1,0,-3,-2,-1,2,0,1.26
253,0,1,4,2,0,0,-1,0,1.2650000000000001
254,-2,-1,-2,0,1,-2,-6,-5,1.27
255,2,-1,-1,-1,0,2,4,2,1.2750000000000001
256,-3,-1,-1,1,-1,1,7,-1,1.28
257,1,1,2,-2,0,-2,-1,0,1.285
258,-1,-2,-4,2,-2,0,-8,-3,1.29
259,-1,1,2,2,-1,-3,-6,-2,1.295
260,-2,-1,1,-2,-2,2,0,-1,1.3
261,0,-1,-3,3,-2,1,1,3,1.305
262,1,0,-1,-2,1,0,-1,-2,1.31
263,0,-2,1,-2,-2,3,4,-4,1.315
264,-3,0,1,-2,0,0,-2,3,1.32
265,1,1,0,0,-1,-1,-3,-2,1.325
266,0,0,2,-1,2,3,6,1,1.33
267,-5,-6,-9,-4,-4,-2,-12,-3,1.335
268,-1,-1,0,0,-2,-1,0,-4,1.34
269,-2,0,0,0,0,-1,-4,-1,1.345
270,-2,0,2,0,-1,-2,5,2,1.35
271,0,1,-2,-3,-1,-2,-7,-4,1.355
272,-6,-4,-5,-3,-1,-1,-1,-3,1.36
273,0,-1,-6,-3,-1,-2,-3,-1,1.365
274,-4,-2,0,2,-2,-4,-10,-3,1.37
275,3,1,2,1,-1,1,3,3,1.375
276,0,-1,-1,1,3,0,2,0,1.3800000000000001
277,-3,-4,-6,-1,0,1,5,-4,1.385
278,1,1,0,0,-1,-1,-5,-1,1.3900000000000001
279,-1,1,1,1,-2,-1,1,-1,1.395
280,-1,-1,-2,0,-1,3,6,0,1.4000000000000001
281,0,-1,-2,1,1,-1,-5,-3,1.405
282,0,0,-1,-3,-2,1,5,3,1.41
283,-2,-3,0,0,0,-2,-3,-4,1.415
284,-2,-1,0,0,-1,-3,2,0,1.42
285,0,0,-1,-1,-1,0,1,1,1.425
286,0,0,-1,-1,-3,1,1,-2,1.43
287,-1,0,1,2,2,0,-10,-6,1.435
288,1,1,0,0,0,2,14,6,1.44
289,2,0,2,-1,1,-3,-2,3,1.445
290,2,0,-3,-4,-2,-2,3,1,1.45
291,-2,0,-3,-1,0,1,1,-1,1.455
292,0,0,1,0,1,-2,-7,-5,1.46
293,-1,0,0,0,-1,1,4,1,1.465
294,1,1,2,0,-1,1,0,-3,1.47
295,-2,-1,0,0,2,1,0,2,1.475
296,-2,-3,-6,0,-3,-4,-6,0,1.48
297,-1,1,2,-1,0,-2,-4,-4,1.485
298,-1,-3,-1,2,1,-2,2,2,1.49
299,4,1,-5,-3,-1,-3,4,3,1.495
300,-6,-1,2,0,-2,-2,-11,-3,1.5
301,-3,-3,-2,2,1,3,9,3,1.5050000000000001
302,-3,0,-2,-3,-2,-3,7,-1,1.51
303,1,-1,3,-1,-1,0,2,0,1.5150000000000001
304,0,-3,-2,0,0,-1,-6,-1,1.52
305,0,0,0,-3,-3,-2,-2,-1,1.5250000000000001
306,0,-2,-2,-1,1,1,-1,-1,1.53
307,-3,-3,-5,0,-1,-2,3,3,1.5350000000000001
308,1,0,0,-2,-2,-1,-5,-3,1.54
309,-1,-3,-4,-1,-2,-2,-7,-4,1.545
310,0,0,-1,-1,1,0,1,-2,1.55
311,0,-1,-1,-4,-3,-1,-5,-2,1.555
312,-1,0,0,-1,-1,1,-1,-2,1.56
313,-1,0,3,0,-2,-6,-7,-1,1.565
314,0,0,-2,0,0,0,3,1,1.57
315,-2,0,3,3,3,1,-1,-4,1.575
316,0,-1,-8,-3,-3,0,-9,-1,1.58
317,3,1,0,2,0,2,19,8,1.585
318,-2,-2,-2,-5,-1,1,-2,0,1.59
319,-1,1,1,0,0,0,3,1,1.595
320,-2,-2,-4,-2,-2,-1,-4,-3,1.6
321,-2,-1,-2,0,-3,-2,-7,-4,1.605
322,-2,0,-2,2,-2,-2,-9,-3,1.61
323,-1,-5,-5,-2,-3,1,6,2,1.615
324,1,0,3,-2,1,0,8,1,1.62
325,11,1,-2,-1,1,2,4,3,1.625
326,-5,-2,2,-1,-2,1,-1,-1,1.6300000000000001
327,-1,3,6,1,3,0,-2,-1,1.635
328,-1,-4,-8,-3,-1,0,2,-1,1.6400000000000001
329,-1,0,-1,-1,-2,-1,-5,-3,1.645
330,2,0,1,0,-1,-1,-4,-3,1.6500000000000001
331,-1,-1,0,0,-1,-3,-3,-2,1.655
332,-2,1,5,3,0,0,0,1,1.6600000000000001
333,-3,0,4,3,1,-2,-10,-4,1.665
334,-3,-6,-6,-6,-2,-4,-1,2,1.67
335,-3,0,0,0,-2,-2,-7,-3,1.675
336,0,-1,-3,-1,2,2,5,3,1.68
337,-3,-1,-1,-2,-1,3,8,2,1.685
338,1,0,-1,4,1,-1,4,0,1.69
339,-1,0,-2,-3,-3,-5,-9,-4,1.695
340,0,-1,0,1,-4,-3,-10,-4,1.7
341,-2,-3,-4,0,-1,0,0,-3,1.705
342,-1,0,1,-1,-2,-2,-5,-2,1.71
343,0,-1,-1,0,0,0,5,1,1.715
344,1,1,1,-2,0,-2,-3,-2,1.72
345,-3,0,4,1,3,4,2,4,1.725
346,0,-3,-6,-1,-2,-2,-10,-6,1.73
347,-7,-2,-2,-1,-2,2,5,2,1.735
348,-1,1,3,-1,0,-1,3,0,1.74
349,-1,-1,-1,-2,-1,-3,-9,-4,1.745
350,-3,-1,0,1,0,0,6,-1,1.75
351,4,0,0,-1,-2,1,-7,1,1.7550000000000001
352,0,-1,-1,-1,0,-2,3,-2,1.76
353,-1,-2,-2,-2,-1,2,7,3,1.7650000000000001
354,1,1,3,0,-2,-3,-8,-4,1.77
355,0,-1,0,-1,-2,-2,-2,-3,1.7750000000000001
356,-1,0,2,0,1,3,6,4,1.78
357,3,0,0,0,-3,-4,-9,-4,1.7850000000000001
358,-2,1,2,-3,-2,-2,1,0,1.79
359,-1,-4,-7,-3,-1,0,3,1,1.795
360,-2,1,-1,-1,-2,-5,-8,-2,1.8
361,-1,-1,0,-2,-1,-2,2,0,1.805
362,-2,-1,2,1,-1,-2,-3,-1,1.81
363,0,0,2,0,-1,-1,-2,-1,1.815
364,0,-2,-2,0,0,-3,-7,-5,1.82
365,-3,-3,-7,-3,-1,-1,-1,-4,1.825
366,1,1,0,0,1,0,0,3,1.83
367,-1,0,-1,-2,-1,0,-5,1,1.835
368,-1,-1,-1,0,-1,0,-1,-1,1.84
369,-1,-1,-3,-2,-3,-2,-6,-2,1.845
370,-2,-2,-3,-2,0,2,3,1,1.85
371,1,0,0,1,1,0,1,-2,1.855
372,-1,1,1,1,-1,1,4,-1,1.86
373,8,0,0,0,1,-1,-1,1,1.865
374,-7,-3,0,-1,-2,-4,-3,-2,1.87
375,3,-1,-3,1,1,2,4,2,1.875
376,-2,0,-2,-4,-2,0,7,1,1.8800000000000001
377,-3,1,0,2,-1,-3,-15,-4,1.885
378,4,1,-3,-1,0,5,26,9,1.8900000000000001
379,-2,-3,-4,-4,-2,-1,-4,0,1.895
380,-2,-3,-4,-1,0,-4,-10,-5,1.9000000000000001
381,-2,0,2,-6,-2,0,4,1,1.905
382,0,-1,0,-1,-1,-2,-10,-5,1.9100000000000001
383,-4,1,0,-1,-1,-3,3,0,1.915
384,2,1,0,0,-2,2,1,0,1.92
385,0,-1,-3,-1,0,-2,6,-4,1.925
386,0,1,-2,-3,1,0,-6,-2,1.93
387,4,1,1,1,1,0,-3,-3,1.935
388,-1,-3,-2,0,-2,0,1,4,1.94
389,-3,0,0,-1,-3,-1,-5,-3,1.945
390,2,-1,-3,-3,0,1,-1,1,1.95
391,-2,1,4,2,2,0,1,-1,1.955
392,0,1,0,-1,0,-2,-2,0,1.96
393,-5,-3,0,-1,-1,-1,-1,0,1.965
394,-6,-1,0,1,-2,0,-3,-4,1.97
395,-3,-1,0,-1,0,1,10,1,1.975
396,0,0,-1,-1,-3,-1,-2,0,1.98
397,-4,-3,-2,1,1,0,3,0,1.985
398,4,3,7,2,-1,-5,-10,-1,1.99
399,1,-3,-2,1,0,0,9,-1,1.995
400,-4,-2,-1,-3,-1,-2,-7,-6,2.0
401,3,1,-2,2,2,3,6,4,2.005
402,-1,-2,-4,-5,-1,-1,0,-3,2.0100000000000002
403,-4,-2,0,1,-1,-1,-6,2,2.015
404,2,-1,-3,-1,1,1,8,-1,2.02
405,0,2,3,1,1,2,-3,3,2.025
406,-2,-4,-6,4,0,-1,0,-3,2.0300000000000002
407,-3,-1,-2,-3,-1,-2,-2,-1,2.035
408,-1,-2,0,-2,-2,-2,-10,-6,2.04
409,-1,1,2,-1,0,0,15,4,2.045
410,1,-1,0,0,-1,1,4,4,2.05
411,1,-1,-2,0,-1,-3,-7,-5,2.055
412,0,0,0,0,-3,-3,-3,1,2.06
413,-1,0,0,2,0,2,1,0,2.065
414,-1,0,2,-1,0,-7,-7,-1,2.07
415,1,-2,-4,-5,-2,0,-8,-2,2.075
416,4,1,0,-1,2,2,3,0,2.08
417,-4,-1,-1,-1,-1,-2,-3,0,2.085
418,1,-2,-3,0,2,0,1,-1,2.09
419,-2,-1,0,2,-1,-1,-6,-1,2.095
420,-1,-3,-6,-2,0,0,-4,-2,2.1
421,-3,-2,-3,-4,-1,-1,-1,2,2.105
422,-2,0,1,0,1,-1,-2,-2,2.11
423,0,-2,-1,-3,-1,-1,-3,-3,2.115
424,0,2,2,2,-2,3,11,6,2.12
425,-7,-2,-2,1,-1,-1,-1,-5,2.125
426,-3,1,0,-2,0,0,1,1,2.13
427,2,1,3,-2,-2,0,1,2,2.1350000000000002
428,-4,-1,-2,0,-2,-3,-5,-4,2.14
429,-1,-3,-2,-1,-1,-3,-6,-2,2.145
430,-1,0,-3,-1,-1,-2,0,-2,2.15
431,1,0,1,0,0,4,14,-2,2.1550000000000002
432,6,0,3,0,1,0,4,10,2.16
433,2,0,3,2,1,-4,-2,-3,2.165
434,3,-1,-2,-2,0,2,1,1,2.17
435,-3,-1,0,0,-3,-5,-5,-2,2.1750000000000003
436,-5,-4,-4,-1,1,0,1,0,2.18
437,-2,-3,-6,-4,-1,-2,-8,-5,2.185
438,0,1,0,-1,-2,-1,-7,-5,2.19
439,1,0,-3,1,0,3,16,5,2.195
440,3,5,5,-1,-3,-1,-4,-2,2.2
441,5,-2,-5,0,2,2,1,-1,2.205
442,-1,-1,0,0,-3,-3,-6,-2,2.21
443,-1,-3,-3,-1,-2,-4,-6,-2,2.215
444,-1,-2,-1,1,0,-1,-3,-3,2.22
445,2,0,0,0,-2,1,4,5,2.225
446,-1,-2,1,-2,-2,1,2,-2,2.23
447,-3,-2,-3,-2,1,-2,-14,-4,2.235
448,-1,2,0,-2,-1,-3,8,2,2.24
449,-2,0,2,-1,-2,-2,-11,-5,2.245
450,-4,-4,-7,0,0,2,6,0,2.25
451,3,-1,0,3,0,0,0,0,2.255
452,8,1,-1,-4,-1,-4,-10,-3,2.2600000000000002
453,-10,-6,-4,-3,-4,1,10,1,2.265
454,0,-1,2,-1,-1,-2,-1,0,2.27
455,1,-1,0,-2,1,2,5,4,2.275
456,-1,-2,0,1,1,-2,-5,-2,2.2800000000000002
457,0,-1,-1,0,1,0,3,-2,2.285
458,1,0,4,1,-1,-1,0,1,2.29
459,-9,-3,-1,-2,1,-1,-5,-3,2.295
460,-3,-4,-3,-2,-4,0,1,-2,2.3000000000000003
461,-1,-1,0,-2,-2,-3,-4,-4,2.305
462,-1,0,0,-1,0,0,-1,0,2.31
463,1,1,-4,-2,-2,-2,-4,-1,2.315
464,-5,0,0,-1,0,3,5,0,2.32
465,-1,-1,0,1,-2,-4,-10,-5,2.325
466,1,1,-1,-3,-2,1,5,1,2.33
467,7,3,4,3,1,1,0,-1,2.335
468,-15,-7,-6,-1,-2,-2,-10,-2,2.34
469,4,1,0,0,0,3,15,5,2.345
470,3,-1,0,0,-1,-2,-6,-3,2.35
471,-3,-2,-3,-4,-2,-2,0,-1,2.355
472,-5,-2,1,1,0,-3,-4,-1,2.36
473,2,0,1,2,0,1,-4,-2,2.365
474,-7,-2,-3,-1,-2,-1,0,-1,2.37
475,0,1,-1,-2,-1,-1,-1,-2,2.375
476,3,1,-1,1,-1,0,3,-1,2.38
477,-1,-1,-3,-4,-3,-2,-1,0,2.3850000000000002
478,0,-1,-4,-1,0,-2,-3,1,2.39
479,0,-1,0,1,-1,-2,2,1,2.395
480,2,0,3,1,1,2,6,2,2.4
481,0,2,-1,-2,-1,-2,-8,-3,2.4050000000000002
482,1,-4,-2,0,-1,-2,-4,-2,2.41
483,-5,-2,2,-3,-1,1,13,5,2.415
484,-2,0,-3,-2,0,1,-2,0,2.42
485,1,0,2,-2,-2,-2,-3,-3,2.4250000000000003
486,6,0,-1,-1,-1,-2,-2,-4,2.43
487,2,-1,-2,0,-1,1,3,6,2.435
488,5,0,1,0,-1,-2,1,-3,2.44
489,0,-1,-3,-3,0,0,-7,-4,2.445
490,2,1,-1,-2,0,-1,0,-1,2.45
491,-1,-3,-1,2,0,2,-1,-3,2.455
492,0,-1,-1,0,-1,-2,-4,-3,2.46
493,1,-2,-4,-1,-1,-3,-6,0,2.465
494,-6,-2,-4,-1,0,1,1,-1,2.47
495,2,-1,-6,-3,-2,-4,-4,-2,2.475
496,-1,1,3,1,0,-1,-1,0,2.48
497,-2,-3,-1,0,0,0,-2,-1,2.485
498,-3,0,0,1,0,2,3,2,2.49
499,0,-2,3,1,-3,-5,-11,-5,2.495
500,-3,-2,-5,-4,-3,2,13,2,2.5
501,1,0,0,-1,0,-2,2,3,2.505
502,1,-1,-1,-1,1,0,-3,-3,2.5100000000000002
503,13,4,-1,-1,1,1,-9,-2,2.515
504,-8,-3,2,3,-3,-9,-8,-6,2.52
505,2,0,2,-4,0,3,3,3,2.525
506,-6,-3,-1,-2,-1,-1,-1,-5,2.5300000000000002
507,8,1,0,-3,-3,0,-2,4,2.535
508,2,0,-5,-1,-3,0,-9,-1,2.54
509,-3,0,-2,-1,1,-1,-1,-3,2.545
510,2,-1,2,1,-1,0,3,2,2.5500000000000003
511,-5,2,4,2,3,1,-2,-6,2.555
512,0,1,1,1,0,-1,-2,1,2.56
513,-1,0,0,-1,-1,0,5,2,2.565
514,-2,-1,-6,-6,-2,1,3,3,2.57
515,-4,-2,1,1,0,-1,5,1,2.575
516,-1,-2,0,3,2,0,2,-1,2.58
517,2,2,-1,-3,-1,-1,1,-3,2.585
518,-3,-2,-1,3,-2,-3,-3,-5,2.59
519,-2,-2,-2,-5,-2,-3,-8,-4,2.595
520,-1,0,-2,-2,-3,-1,4,5,2.6
521,12,0,-2,4,0,-1,-1,0,2.605
522,-7,-4,-3,-2,-3,0,6,7,2.61
523,-2,-1,-4,4,-3,-3,-7,-6,2.615
524,0,-2,0,-4,0,2,2,-3,2.62
525,0,-2,-1,-3,-3,-3,-3,-2,2.625
526,1,0,-2,-1,2,4,2,2,2.63
527,-4,-1,-2,0,0,1,4,1,2.6350000000000002
528,2,0,0,-1,-2,-2,-11,-3,2.64
529,-5,-1,1,1,-1,1,4,0,2.645
530,2,-1,0,1,2,-1,-7,0,2.65
531,-6,-2,-3,-2,0,2,10,2,2.6550000000000002
532,-2,2,3,0,-1,-2,0,-1,2.66
533,-8,-1,-3,1,1,-1,5,-3,2.665
534,9,2,-2,1,-3,0,2,4,2.67
535,-1,0,-1,-2,2,1,-3,-1,2.6750000000000003
536,0,-1,-1,-4,-1,-1,-4,-3,2.68
537,14,1,-3,-2,-4,-2,-6,0,2.685
538,-15,-5,3,-3,-2,-1,-5,-4,2.69
539,-1,-3,-5,0,-3,-1,3,-2,2.695
540,2,1,1,2,-1,1,0,1,2.7
541,-2,-2,0,-8,-1,0,-2,-1,2.705
542,3,0,-1,2,3,0,1,2,2.71
543,-1,0,2,1,-2,-2,-8,-4,2.715
544,-1,0,-3,-1,1,4,8,3,2.72
545,0,0,3,8,0,-2,-4,-1,2.725
546,1,3,3,-8,-3,-2,-3,-2,2.73
547,-8,-6,-6,-6,0,0,-2,-3,2.735
548,-4,-2,-2,-1,1,1,9,-1,2.74
549,2,2,0,1,0,2,2,7,2.745
550,8,2,2,0,0,1,0,-2,2.75
551,4,0,1,-1,-1,-3,-1,5,2.755
552,-18,-6,-2,-4,-1,-3,-6,-7,2.7600000000000002
553,-7,-5,-3,-1,-1,-1,-4,-5,2.765
554,1,0,0,0,-1,-2,-4,-4,2.77
555,2,1,-1,-4,-4,-2,-3,-2,2.775
556,5,0,-2,-3,-1,0,-1,-1,2.7800000000000002
557,-7,-2,-1,4,2,1,1,0,2.785
558,-2,1,-1,-10,1,0,-4,-2,2.79
559,-2,-1,0,-2,-1,0,3,1,2.795
560,0,-3,-5,-4,-2,-6,-7,-1,2.8000000000000003
561,-3,0,-1,-2,-4,0,-2,1,2.805
562,-1,-3,2,22,2,2,11,0,2.81
563,-1,-1,-1,-15,0,-1,4,1,2.815
564,1,0,-1,0,-4,0,-5,-2,2.82
565,0,2,0,-2,0,-1,7,0,2.825
566,-1,-1,-3,-2,-2,-2,-4,-1,2.83
567,13,3,2,7,1,-3,-3,-1,2.835
568,0,-2,0,3,1,3,2,5,2.84
569,-4,-3,-2,-6,-2,-5,-6,-3,2.845
570,-4,1,-1,0,-2,-2,2,-4,2.85
571,0,-1,-4,2,0,1,2,1,2.855
572,5,0,0,-4,-1,-2,-8,-6,2.86
573,-1,-2,2,6,1,0,-1,-3,2.865
574,0,-2,0,-5,-1,-1,2,0,2.87
575,-4,0,-2,-2,-3,-4,-10,-3,2.875
576,0,-1,-2,0,2,2,1,1,2.88
577,-4,-4,-3,-2,1,1,-5,0,2.8850000000000002
578,-1,1,2,2,-2,0,-1,0,2.89
579,-5,-1,0,-1,1,2,2,-1,2.895
580,0,1,-1,0,-3,-3,-4,-2,2.9
581,2,2,0,-2,0,-1,-3,-2,2.9050000000000002
582,-7,-1,-1,4,0,0,9,4,2.91
583,-4,-2,-4,-11,-4,0,-4,1,2.915
584,0,0,0,1,-1,1,7,0,2.92
585,-1,0,-1,-4,-1,-2,-1,0,2.9250000000000003
586,1,-2,-2,-2,-1,-2,-9,-5,2.93
587,-2,0,2,7,2,0,2,-3,2.935
588,8,1,-1,0,0,0,4,9,2.94
589,-2,0,1,2,-1,0,0,-1,2.945
590,-4,-3,-3,-3,1,-1,-4,-1,2.95
591,3,1,5,2,1,1,7,-4,2.955
592,-1,-1,1,-3,-1,-4,-12,-4,2.96
593,-3,-3,-4,4,-1,0,1,-5,2.965
594,3,-3,-4,-3,0,1,4,6,2.97
595,-6,-3,-1,0,-1,-1,-2,-4,2.975
596,-1,1,2,-1,-1,-2,4,0,2.98
597,-3,-3,-2,-1,-2,-6,-9,-4,2.985
598,4,1,1,4,0,-1,-4,-2,2.99
599,-5,-2,-2,-9,-2,-1,-1,0,2.995
600,-1,-2,-1,0,0,0,0,1,3.0
601,-6,0,-1,0,0,2,11,3,3.005
602,1,-1,-6,-14,-2,-1,-1,0,3.0100000000000002
603,1,2,-2,2,-5,-4,0,1,3.015
604,-8,-7,-6,-1,0,-3,-3,-4,3.02
605,0,-3,-4,0,0,0,-2,-2,3.025
606,-5,-4,-1,-1,-3,-2,-1,-4,3.0300000000000002
607,8,0,2,1,1,-2,-2,8,3.035
608,-1,-1,-2,-1,0,-1,3,-1,3.04
609,1,-3,-1,4,-1,-1,-3,-1,3.045
610,-2,-1,-5,-8,-1,-5,-8,-5,3.0500000000000003
611,-2,1,2,2,2,2,2,2,3.055
612,0,1,-1,-2,-2,0,-3,-4,3.06
613,3,2,3,1,1,1,8,6,3.065
614,-2,-2,-3,-3,-3,-5,-6,-2,3.0700000000000003
615,10,0,0,4,0,-2,1,-2,3.075
616,-7,-1,0,0,1,0,-1,1,3.08
617,-1,-1,0,4,0,-2,-3,-6,3.085
618,-1,-1,-1,-9,0,1,-3,-2,3.09
619,-2,-1,-3,-1,0,0,1,0,3.095
620,0,-1,0,-2,-1,0,9,1,3.1
621,5,-2,-2,-2,-2,-5,-8,-4,3.105
622,-3,-3,-1,4,-1,-1,5,4,3.11
623,-5,0,-2,0,-1,-2,-4,-3,3.115
624,2,3,4,-1,-1,-1,-1,-3,3.12
625,-2,0,2,-4,1,1,0,0,3.125
626,1,-1,1,5,1,0,-4,-1,3.13
627,-7,-4,-2,-1,-2,-1,4,-2,3.1350000000000002
628,0,0,-3,-3,-2,-1,0,-2,3.14
629,2,1,2,0,1,1,5,2,3.145
630,0,2,1,1,-3,0,-2,-3,3.15
631,-12,-5,-3,-1,-3,-1,-2,-3,3.1550000000000002
632,-2,-3,-1,2,1,0,-3,-3,3.16
633,-1,1,-1,-6,-2,-2,-3,-3,3.165
634,0,0,4,7,0,-1,-1,-1,3.17
635,1,-3,-4,-11,-2,-1,-3,-2,3.1750000000000003
636,6,0,1,9,0,-2,-1,-1,3.18
637,-5,-3,-2,-11,-1,1,0,2,3.185
638,-2,1,3,0,1,0,0,-2,3.19
639,1,-1,0,2,0,-1,-1,0,3.1950000000000003
640,-1,-1,-1,-1,-1,-2,-8,-1,3.2
641,-1,0,-3,0,-1,0,3,1,3.205
642,1,-1,-2,2,-1,1,0,-1,3.21
643,-1,-1,0,-1,0,1,-4,-3,3.215
644,-1,-3,-2,-2,0,0,0,3,3.22
645,-4,-3,-4,1,-1,-4,-5,-1,3.225
646,6,1,1,-5,-1,0,7,4,3.23
647,-7,-4,-4,2,-1,-3,-5,-2,3.235
648,0,-1,-1,-1,-2,-2,5,0,3.24
649,-4,-2,0,-2,0,-2,-12,-7,3.245
650,8,2,1,2,-2,-1,7,3,3.25
651,0,5,4,0,-3,-3,0,-1,3.255
652,-3,-1,-3,0,3,1,1,-2,3.2600000000000002
653,3,0,1,-1,0,1,-2,1,3.265
654,-7,-3,-7,-7,-2,-2,-4,-3,3.27
655,4,2,8,11,3,3,3,2,3.275
656,-1,-1,-2,0,-2,-2,-1,0,3.2800000000000002
657,-3,-2,-3,-2,-2,1,0,-1,3.285
658,0,-1,-3,-9,1,-1,-7,0,3.29
659,11,1,-4,-1,0,1,6,3,3.295
660,-5,-1,2,2,1,1,0,-2,3.3000000000000003
661,2,-2,-1,2,-1,0,1,1,3.305
662,-4,1,2,2,-3,1,-2,-2,3.31
663,0,-4,-4,-3,-3,-3,-9,-4,3.315
664,0,-2,-1,-3,-1,-1,-1,-4,3.3200000000000003
665,0,-1,0,0,0,2,2,-1,3.325
666,-2,0,3,2,1,-4,3,2,3.33
667,-3,0,-1,-2,-1,-1,-10,-4,3.335
668,3,1,1,-3,-1,2,6,3,3.34
669,-2,1,4,6,1,-1,-2,-2,3.345
670,-1,-1,-3,-8,-1,2,3,-2,3.35
671,-7,-2,-2,0,-1,-1,-1,-2,3.355
672,4,-1,-4,-3,-1,-2,-2,2,3.36
673,-4,-1,1,7,0,-1,-8,-6,3.365
674,1,-2,-2,-4,-1,1,6,5,3.37
675,-12,-2,0,-3,-1,0,-3,-5,3.375
676,0,1,0,-3,-1,1,7,-1,3.38
677,3,-2,0,1,-1,-2,-3,0,3.3850000000000002
678,-3,-2,0,4,1,-1,-10,-6,3.39
679,2,-2,0,-2,-3,-1,2,0,3.395
680,-3,-2,0,-2,-2,-2,1,0,3.4
681,-2,-3,-1,-1,-1,0,-1,-1,3.4050000000000002
682,-3,-3,-6,-14,0,-4,-6,-1,3.41
683,5,1,1,13,0,1,-3,-1,3.415
684,-1,-1,-1,-11,-2,-3,-6,-2,3.42
685,1,1,0,0,-2,0,3,1,3.4250000000000003
686,0,-3,-2,0,-2,-1,-9,-3,3.43
687,-2,-3,1,8,-1,0,7,3,3.435
688,-2,0,-1,-7,0,1,-1,0,3.44
689,4,-2,0,-3,-2,-2,4,6,3.4450000000000003
690,8,1,3,7,0,1,2,-2,3.45
691,-6,-3,-5,-4,-1,-4,-7,-4,3.455
692,2,-1,1,5,-3,-2,-4,-1,3.46
693,2,1,-1,-5,1,2,14,5,3.465
694,0,1,3,4,-1,0,-4,-2,3.47
695,2,-1,0,-5,-2,1,6,2,3.475
696,-5,-3,-2,2,2,-2,-4,0,3.48
697,0,-1,-2,0,-2,0,2,-2,3.485
698,-4,-2,-1,-6,0,4,7,-1,3.49
699,3,1,3,-3,-2,-7,-12,-2,3.495
700,-3,-5,-5,2,0,2,1,-4,3.5
701,-1,0,2,0,-2,-3,-6,-2,3.505
702,-2,-2,-1,4,0,0,8,-1,3.5100000000000002
703,0,-1,-3,-4,-1,2,4,2,3.515
704,1,1,1,-4,-4,-3,-3,-3,3.52
705,-4,-3,-4,-2,0,1,-2,-3,3.525
706,-13,-3,-4,1,-2,-2,-8,-3,3.5300000000000002
707,-1,-2,-2,-3,0,1,16,2,3.535
708,3,0,0,4,-1,2,5,4,3.54
709,-6,-1,-4,-6,-2,-1,-4,-1,3.545
710,2,0,2,-1,-2,-2,-6,-1,3.5500000000000003
711,-4,-4,-4,1,-1,-2,-8,-6,3.555
712,-2,-1,-2,-2,-1,0,0,-1,3.56
713,2,-3,-2,-3,-2,-4,-8,-5,3.565
714,-2,-3,-5,0,-2,-3,2,-2,3.5700000000000003
715,1,1,0,-1,1,2,4,2,3.575
716,1,1,4,5,-2,-4,-6,-3,3.58
717,-4,-2,-3,-5,-2,1,1,2,3.585
718,0,1,2,5,1,0,-3,0,3.59
719,1,-1,-1,-2,1,0,-1,-1,3.595
720,10,-1,-3,-1,-2,-2,-1,-1,3.6
721,-7,-3,0,3,-1,-3,-9,-2,3.605
722,-2,-2,-4,1,-1,0,17,-1,3.61
723,6,2,-1,-3,1,0,-5,4,3.615
724,-1,0,1,-4,-1,-1,-4,-2,3.62
725,-1,-3,-6,-3,-2,0,1,1,3.625
726,-7,-3,0,-5,1,-1,-1,0,3.63
727,4,1,-1,0,-3,-5,-9,-4,3.6350000000000002
728,-5,-2,-1,-1,1,0,0,-1,3.64
729,0,0,-1,-5,-2,-3,-9,-4,3.645
730,2,1,5,7,0,-1,-6,-1,3.65
731,0,-3,-4,-2,-1,0,5,0,3.6550000000000002
732,-5,-1,-1,1,1,1,-4,-1,3.66
733,3,2,0,0,0,2,6,2,3.665
734,1,-1,-1,-3,-2,-2,-2,0,3.67
735,9,3,2,1,0,-1,-3,-1,3.6750000000000003
736,-6,-3,-3,-3,-1,-1,3,0,3.68
737,1,-1,-1,1,1,1,2,-2,3.685
738,6,3,2,4,0,0,0,3,3.69
739,-9,-4,-2,-12,-4,0,-8,-4,3.6950000000000003
740,2,-2,-6,4,-4,-6,5,1,3.7
741,-3,-2,-2,0,-1,-1,-7,-2,3.705
742,4,1,1,2,0,0,2,2,3.71
743,-1,-2,0,-6,-3,0,-2,-1,3.715
744,-3,1,1,-4,-2,-2,-8,-6,3.72
745,2,-1,2,2,0,0,4,3,3.725
746,-3,-1,-5,1,1,-1,1,-1,3.73
747,0,0,-1,0,0,2,7,3,3.735
748,-5,0,0,-4,0,2,-4,-4,3.74
749,6,1,0,-1,-3,-5,-4,-5,3.745
750,-11,-2,-2,-6,-2,0,-2,-1,3.75
751,-1,0,1,1,0,-2,1,-3,3.755
752,-5,-3,0,1,0,1,0,0,3.7600000000000002
753,0,-1,2,3,-1,-1,1,1,3.765
754,3,-2,-3,2,-1,-1,-5,-1,3.77
755,1,1,-2,-10,-3,-1,-2,0,3.775
756,0,1,0,2,0,-3,-4,0,3.7800000000000002
757,-1,-2,0,2,0,-1,0,1,3.785
758,-3,2,3,0,-1,-3,-2,-4,3.79
759,-8,-2,-6,-3,0,1,0,-2,3.795
760,14,3,1,6,-1,2,3,9,3.8000000000000003
761,-3,1,1,-3,-2,-2,-4,-5,3.805
762,2,0,-2,-3,-1,0,0,1,3.81
763,-3,0,3,7,0,-5,-5,-5,3.815
764,-2,0,-2,-9,-1,0,9,1,3.8200000000000003
765,5,1,2,2,1,2,4,3,3.825
766,-9,-4,-3,-3,-2,2,0,0,3.83
767,0,2,2,2,-1,-3,-1,2,3.835
768,-4,-3,-1,-4,-2,-1,-2,-4,3.84
769,4,2,1,3,0,0,-9,-4,3.845
770,2,-1,-4,-7,0,-1,11,2,3.85
771,2,0,-1,-2,-1,1,4,2,3.855
772,-3,-2,-1,1,0,-2,-5,-2,3.86
773,0,1,-2,3,1,0,9,2,3.865
774,3,0,4,-1,-2,-3,-10,-3,3.87
775,-5,-4,-3,5,1,0,-2,-3,3.875
776,-4,-1,0,-2,0,2,10,2,3.88
777,4,-2,-6,-1,-2,-1,6,2,3.8850000000000002
778,9,5,5,0,-1,-3,-6,2,3.89
779,-10,-6,-5,0,-1,-3,-4,-1,3.895
780,0,-1,-1,7,2,1,-6,-2,3.9
781,-2,3,8,-9,-1,1,0,-5,3.9050000000000002
782,-1,-4,-5,1,-1,1,0,-1,3.91
783,5,1,-3,-5,-2,3,9,2,3.915
784,-2,1,2,7,0,-5,-8,-2,3.92
785,-1,-1,-2,-2,-1,-1,-5,-1,3.9250000000000003
786,-2,-3,-2,-5,-2,1,16,2,3.93
787,1,-1,-2,3,-3,0,-2,2,3.935
788,0,-1,-1,0,-2,-2,-4,-4,3.94
789,-5,-3,-3,-1,-1,-2,-5,-4,3.9450000000000003
790,0,1,2,-1,1,0,-6,0,3.95
791,-3,-1,-3,-3,-2,-4,-2,-1,3.955
792,-1,-2,-1,-1,-1,-1,-2,-1,3.96
793,2,-1,-4,-4,-2,0,2,1,3.9650000000000003
794,-6,-5,-5,0,-2,-4,-7,-3,3.97
795,-4,0,2,4,0,0,-2,-3,3.975
796,0,2,0,-4,-2,-2,2,-4,3.98
797,-6,-4,-7,-1,-1,-1,-8,-2,3.985
798,1,0,2,-2,1,2,2,-1,3.99
799,-1,0,0,5,0,-3,0,1,3.995
800,3,-1,-2,-10,-2,-2,12,2,4.0
801,-5,0,3,2,0,1,3,2,4.005
802,-6,-2,-1,2,-1,-2,-1,-2,4.01
803,3,0,0,-2,0,0,-3,0,4.015
804,-2,-2,0,2,0,0,-2,0,4.0200000000000005
805,-1,-2,-2,0,-2,-5,-3,-1,4.025
806,1,0,-5,-13,-4,1,-1,1,4.03
807,13,2,2,0,-1,-1,1,-1,4.035
808,4,1,2,4,0,0,-1,3,4.04
809,-18,-8,-9,-4,0,-2,-5,-4,4.045
810,0,-1,-2,2,-3,-2,-1,-4,4.05
811,0,-2,1,1,1,1,0,2,4.055
812,-5,-1,2,1,-1,0,0,-2,4.0600000000000005
813,13,4,3,-2,-1,1,-5,7,4.065
814,-1,-1,1,-1,-1,0,0,-1,4.07
815,-3,-1,0,-1,-1,1,-5,-2,4.075
816,-2,-4,-4,0,-1,3,15,2,4.08
817,0,1,1,-5,0,-2,-5,-5,4.085
818,-2,-2,-3,10,2,-3,-4,-2,4.09
819,-1,2,0,-9,1,0,2,-2,4.095
820,-2,-3,-4,-8,-7,-5,-11,-3,4.1
821,0,-2,1,2,1,7,10,2,4.105
822,11,2,3,1,-1,-3,-4,3,4.11
823,-16,-4,-5,-2,-2,-1,2,-1,4.115
824,-1,1,-2,-2,-1,-5,-11,-2,4.12
825,-2,-4,-6,2,2,0,13,2,4.125
826,0,1,4,7,-2,-2,-5,-3,4.13
827,0,-3,-2,-16,0,-1,7,-1,4.135
828,-3,-2,-1,0,-1,2,-5,0,4.14
829,-1,1,2,-2,-1,-2,-8,-4,4.1450000000000005
830,-4,-2,-1,-1,1,-2,-2,-3,4.15
831,-4,-1,3,9,-1,1,7,-2,4.155
832,11,1,-2,-2,3,1,0,6,4.16
833,-2,0,2,3,0,-1,-5,-3,4.165
834,1,1,-1,2,2,0,-9,0,4.17
835,-5,-2,-2,0,0,-4,-9,-4,4.175
836,-3,1,6,-2,-2,0,4,-1,4.18
837,2,0,-3,1,-1,-2,-1,1,4.1850000000000005
838,4,2,-2,-11,-2,-3,-1,0,4.19
839,-6,-1,3,6,-2,-2,-1,4,4.195
840,-3,-1,-1,1,-1,-1,-3,-2,4.2
841,0,-1,-1,-2,1,1,-3,-2,4.205
842,-1,-1,-1,-1,-4,1,0,-3,4.21
843,5,-2,0,2,-1,-1,-3,3,4.215
844,-4,1,-2,0,-1,-3,-13,-8,4.22
845,-1,0,3,9,-2,-1,16,5,4.225
846,-2,0,-5,-12,0,1,-4,-1,4.23
847,0,1,1,5,0,0,-6,-3,4.235
848,-4,1,-2,-4,0,-2,4,2,4.24
849,-3,-3,-2,-4,-3,-1,-3,-4,4.245
850,-2,-1,2,3,0,-1,3,-1,4.25
851,3,-5,-9,0,-1,-2,-5,-5,4.255
852,0,-1,-4,-9,0,3,6,2,4.26
853,-4,-2,1,1,-2,-2,-1,-2,4.265
854,-3,-3,-7,3,-1,-4,-3,-2,4.2700000000000005
855,2,2,-4,-7,-3,-1,0,-3,4.275
856,3,-3,-1,2,0,-2,1,0,4.28
857,-6,0,1,7,4,0,-2,0,4.285
858,-4,0,-2,-6,-3,-2,-1,-1,4.29
859,2,0,1,10,-2,-1,-1,1,4.295
860,0,-1,-1,-7,0,1,0,-1,4.3
861,3,0,-3,-13,-4,-2,-1,0,4.305
862,1,-2,4,2,-1,-1,1,3,4.3100000000000005
863,-2,-2,-1,1,1,0,-1,-2,4.315
864,0,-2,-2,1,0,-2,0,-3,4.32
865,1,3,4,6,-1,-3,-8,-3,4.325
866,-1,-2,-5,-8,-1,-3,1,-4,4.33
867,-5,1,-6,-17,-4,1,4,-2,4.335
868,8,-2,-2,6,-2,1,-3,6,4.34
869,0,-2,1,-5,-1,-1,1,-1,4.345
870,11,-2,-2,15,3,2,-3,-1,4.3500000000000005
871,-4,-1,5,-5,1,-3,3,4,4.355
872,-3,1,0,-8,-4,-2,-13,-5,4.36
873,-1,0,0,6,0,2,20,3,4.365
874,2,-1,-1,-7,-2,-2,-8,-3,4.37
875,2,-2,0,7,0,-1,9,3,4.375
876,-6,-2,-6,5,1,-1,3,-2,4.38
877,0,-1,0,-11,-3,-3,-9,-2,4.385
878,-8,0,1,-2,-1,1,3,2,4.39
879,1,1,4,-1,0,-2,-8,-4,4.3950000000000005
880,-3,-2,-2,0,1,-1,4,-1,4.4
881,0,-1,-2,0,-3,0,-2,1,4.405
882,0,0,0,-2,-1,0,2,0,4.41
883,-2,-1,-1,3,-1,-1,-8,-2,4.415
884,2,-1,-1,-13,-6,-3,-2,-4,4.42
885,-4,-1,-3,1,1,3,4,6,4.425
886,-4,-1,2,9,1,-5,-15,-6,4.43
887,5,-1,-4,1,2,7,45,12,4.4350000000000005
888,-7,-2,-2,2,-1,-1,-10,-5,4.44
889,-1,-1,-4,-8,-3,-3,3,-4,4.445
890,-2,0,0,3,-2,-1,2,1,4.45
891,-1,-1,1,-6,0,1,-7,-3,4.455
892,0,-1,-2,3,1,-1,2,-2,4.46
893,5,0,-2,3,-2,-2,-6,-3,4.465
894,-8,-2,1,-2,-2,1,3,3,4.47
895,-6,-2,-1,2,-3,-2,-8,-4,4.4750000000000005
896,3,1,1,8,3,4,13,7,4.48
897,-1,-2,-8,-21,-5,-3,-10,-6,4.485
898,-1,-3,-1,0,2,2,4,-3,4.49
899,0,-2,-5,-6,-4,-1,-5,-1,4.495
900,-3,0,2,3,0,-1,-7,-3,4.5
901,-6,-1,2,12,2,-2,-14,-4,4.505
902,-5,-1,-2,-7,-2,2,22,5,4.51
903,-4,1,-1,-2,-1,-1,-8,-1,4.515
904,4,2,6,-1,0,-1,0,6,4.5200000000000005
905,2,-3,-5,3,-1,0,0,-2,4.525
906,-1,-1,-2,0,2,0,1,-1,4.53
907,-1,-3,-4,2,0,-2,-2,-1,4.535
908,-1,-1,-4,-1,-1,-2,-2,-3,4.54
909,1,0,2,5,-1,-4,-2,1,4.545
910,0,-2,-6,-15,-4,-4,-8,-4,4.55
911,3,1,0,1,-1,-1,6,1,4.555
912,-3,-2,-2,-4,-2,-2,0,-1,4.5600000000000005
913,-1,0,2,-3,1,-1,3,-1,4.565
914,-3,-1,1,15,0,-1,-1,3,4.57
915,0,-3,-5,-14,-3,-1,-7,-3,4.575
916,-9,2,-3,-3,-4,-3,-6,-4,4.58
917,-11,-5,-5,-4,-2,-1,0,1,4.585
918,2,1,2,2,-1,-1,-5,-1,4.59
919,2,0,2,-6,-2,1,8,4,4.595
920,-1,-3,-1,3,2,0,-4,-4,4.6000000000000005
921,1,-1,1,-4,-1,0,-2,-1,4.605
922,1,-1,-1,-2,-1,1,-1,2,4.61
923,0,4,10,19,0,1,5,2,4.615
924,0,-2,-10,-29,-2,-1,0,2,4.62
925,0,1,4,11,2,1,9,0,4.625
926,-2,2,1,-6,0,-2,-7,-2,4.63
927,1,-2,-2,3,-1,-2,-11,-6,4.635
928,-3,0,2,5,-1,0,5,0,4.64
929,3,2,1,-2,0,0,-4,1,4.6450000000000005
930,-1,-3,1,-2,-2,0,2,-2,4.65
931,4,1,-2,-7,-2,-6,-12,-5,4.655
932,-8,-4,0,15,0,3,10,1,4.66
933,3,1,1,-4,-2,-1,3,2,4.665
934,-1,-2,-5,-5,-3,-3,-2,-1,4.67
935,0,-2,-1,-4,0,-3,-12,-6,4.675
936,3,1,-1,-4,-3,-3,-2,3,4.68
937,-1,1,8,15,3,-1,3,-3,4.6850000000000005
938,1,-2,-5,-8,1,2,7,1,4.69
939,-2,-1,-3,1,-3,-2,-1,-2,4.695
940,-4,-2,0,-2,-1,1,0,-5,4.7
941,5,-3,-2,1,-2,-2,-4,2,4.705
942,-4,0,-2,-5,-1,-2,-2,-4,4.71
943,-1,0,0,4,0,-2,0,1,4.715
944,1,-2,1,2,0,-2,-5,-3,4.72
945,2,1,-5,-5,-3,-2,0,-1,4.7250000000000005
946,1,-3,-1,-2,0,0,-5,-1,4.73
947,-12,0,1,12,4,4,14,4,4.735
948,-2,-3,-5,-15,-7,-1,1,-4,4.74
949,2,1,3,3,0,1,4,3,4.745
950,6,1,1,1,-2,-4,-3,-1,4.75
951,-4,-5,-1,-2,-1,1,-4,0,4.755
952,-1,0,-3,5,0,-5,-4,0,4.76
953,-5,-3,-7,-14,-2,1,1,1,4.765
954,0,1,1,11,0,0,-2,-3,4.7700000000000005
955,2,-1,-2,-3,0,-1,-4,2,4.775
956,3,3,6,11,3,0,5,0,4.78
957,-8,-5,-9,-22,-10,-2,-7,-8,4.785
958,7,-1,-3,-11,-1,-1,3,3,4.79
959,2,1,-2,-1,-1,0,-1,-1,4.795
960,0,-1,2,4,1,-2,-3,2,4.8
961,-2,0,0,4,-1,-2,2,0,4.805
962,-2,-1,2,4,-2,0,1,-1,4.8100000000000005
963,-12,-1,-3,-3,-2,-5,-13,-6,4.815
964,-3,-1,3,3,0,-1,0,0,4.82
965,-1,-3,-3,-9,-1,0,-2,-2,4.825
966,-6,-3,-3,3,-2,-1,-7,-2,4.83
967,5,0,-1,-1,0,0,2,1,4.835
968,-2,0,-1,2,-1,-1,-4,-1,4.84
969,-1,-1,0,4,0,-4,-5,-3,4.845
970,-3,0,1,3,-1,-1,-1,-5,4.8500000000000005
971,4,-3,-2,-11,0,1,8,3,4.855
972,6,0,3,1,1,1,-6,-2,4.86
973,0,0,-2,3,-3,1,11,6,4.865
974,0,-1,0,0,1,-3,-2,-1,4.87
975,-2,-4,-4,-20,-4,-3,-2,-3,4.875
976,1,2,2,14,-3,2,5,-1,4.88
977,-2,3,6,-6,4,1,-4,3,4.885
978,-11,-2,-4,0,0,-1,-9,-7,4.89
979,9,2,1,7,-1,2,17,13,4.8950000000000005
980,-9,-3,-6,-10,1,-1,-5,-2,4.9
981,-2,-4,-5,-1,0,-2,-6,-7,4.905
982,-3,-3,-6,4,-1,1,2,1,4.91
983,0,0,3,4,0,-1,-8,-7,4.915
984,4,-1,-3,-7,-4,-2,0,0,4.92
985,0,0,1,7,1,-1,0,-2,4.925
986,0,-1,1,-5,-1,-2,-7,-3,4.93
987,1,-2,-2,3,-2,-1,1,-4,4.9350000000000005
988,1,1,-3,-2,1,1,2,5,4.94
989,-1,-2,-2,2,1,-1,-2,-1,4.945
990,1,-2,-1,-9,-2,-1,2,2,4.95
991,-4,-1,0,2,0,0,-3,2,4.955
992,-2,-5,-3,-1,1,-1,-6,-5,4.96
993,0,-1,-1,-4,-2,-4,-6,-2,4.965
994,0,1,5,11,3,4,9,5,4.97
995,-1,2,0,-9,-4,-3,-8,-3,4.9750000000000005
996,3,-1,-2,-6,-1,-2,-3,-4,4.98
997,-16,-2,0,-4,-3,0,-5,-5,4.985
998,14,3,-1,6,1,-3,2,10,4.99
999,-2,-3,0,5,1,1,-2,-3,4.995
1000,1,2,2,2,-2,-3,-1,0,5.0
1001,6,-2,0,-3,0,-1,3,-1,5.005
1002,-4,0,5,1,0,1,5,0,5.01
1003,-2,-1,-5,1,2,0,4,-3,5.015
1004,5,2,1,-4,2,0,-12,-2,5.0200000000000005
1005,-3,-2,1,6,0,0,10,9,5.025
1006,-5,-1,1,0,-2,2,3,-2,5.03
1007,1,-1,1,-1,-1,-3,-12,-5,5.035
1008,-4,-2,-5,-8,-3,1,23,3,5.04
1009,4,3,0,-1,1,4,-2,0,5.045
1010,-1,-2,1,18,-1,-2,-3,-2,5.05
1011,-2,1,1,-6,0,-2,-4,-2,5.055
1012,1,-1,4,2,2,-1,-5,0,5.0600000000000005
1013,11,2,0,-4,-2,1,1,2,5.065
1014,-12,-4,-9,-14,-2,0,2,-2,5.07
1015,-1,-2,1,5,-2,-1,2,-1,5.075
1016,-6,-1,3,9,-2,-3,-5,-3,5.08
1017,5,-1,-3,0,0,3,9,1,5.085
1018,2,-3,-12,-17,-2,-3,-6,-1,5.09
1019,0,-1,4,15,-1,-3,0,1,5.095
1020,-4,-1,-2,-7,-2,-1,0,1,5.1000000000000005
1021,-5,-3,-4,2,0,-2,-3,-4,5.105
1022,-4,-1,-2,-2,-2,0,-10,-9,5.11
1023,9,0,-2,-5,-1,1,15,9,5.115
1024,3,3,4,3,-1,-2,1,0,5.12
1025,-5,-4,1,-1,-3,-3,-14,-6,5.125
1026,0,1,3,4,2,0,11,3,5.13
1027,-2,-1,-6,-19,-2,1,-6,-3,5.135
1028,0,-3,1,11,2,-1,-4,-4,5.14
1029,0,1,-3,-19,0,0,1,1,5.1450000000000005
1030,0,0,2,0,0,-1,-7,-5,5.15
1031,-1,-1,-1,6,0,2,2,2,5.155
1032,-8,-5,-8,-13,-4,2,2,-1,5.16
1033,8,0,-1,2,1,-1,-8,-5,5.165
1034,-9,-4,4,-2,-1,-1,6,4,5.17
1035,-1,0,-1,0,-4,0,1,0,5.175
1036,0,-2,-10,-5,-2,-2,-9,-6,5.18
1037,2,-1,-4,5,0,-2,13,5,5.1850000000000005
1038,4,3,11,18,0,0,-3,-3,5.19
1039,-1,-2,-9,-14,3,1,5,-1,5.195
1040,-3,-1,0,-8,-8,-4,-4,-3,5.2
1041,-2,1,2,0,1,5,14,3,5.205
1042,2,1,2,10,0,-1,-2,-1,5.21
1043,-5,-1,4,11,3,-3,0,0,5.215
1044,2,-1,-2,-3,2,0,-4,-2,5.22
1045,-4,-1,3,4,-1,-1,-1,-1,5.2250000000000005
1046,1,-1,-4,-13,-2,-2,0,-1,5.23
1047,-3,-6,-3,21,-1,-3,-7,-8,5.235
1048,2,0,1,-10,0,1,3,3,5.24
1049,-2,-1,-1,0,-2,-2,-11,-5,5.245
1050,-3,-3,-5,-6,-1,-3,2,-3,5.25
1051,0,0,-5,-11,-5,-1,-6,1,5.255
1052,-7,-1,8,28,4,-1,-4,-5,5.26
1053,1,0,-7,-24,-5,0,3,2,5.265
1054,-6,-4,1,-8,-2,-1,-10,-7,5.2700000000000005
1055,-10,-1,-1,-3,2,1,8,2,5.275
1056,-3,-1,-2,12,0,-2,2,-2,5.28
1057,0,-3,-5,-12,-6,0,-8,-4,5.285
1058,4,1,-1,4,-1,1,7,4,5.29
1059,1,1,4,-5,2,-3,-5,1,5.295
1060,-2,-3,-12,-23,-5,4,12,5,5.3
1061,-3,-1,2,12,2,-3,-7,-5,5.305
1062,3,-2,-11,-18,-3,-1,-2,-1,5.3100000000000005
1063,-1,1,5,10,-1,1,6,0,5.315
1064,2,0,0,5,3,-2,-10,-1,5.32
1065,-2,-1,0,4,0,-1,2,5,5.325
1066,1,2,1,-9,2,0,5,3,5.33
1067,-1,-2,1,8,3,-3,-13,-6,5.335
1068,-4,-3,-2,-4,-7,-3,-4,-4,5.34
1069,-10,-2,2,6,0,0,2,-5,5.345
1070,1,0,-2,9,2,-2,-6,0,5.3500000000000005
1071,-1,-1,-4,-19,-3,-1,5,0,5.355
1072,3,1,1,3,-2,-2,-5,1,5.36
1073,0,-3,-2,0,0,-1,-1,1,5.365
1074,-2,1,5,10,-3,-1,-1,-2,5.37
1075,1,-2,-2,-7,-2,-3,-3,-2,5.375
1076,-1,-2,-1,-2,1,0,3,-1,5.38
1077,-1,0,-3,13,2,-1,3,1,5.385
1078,0,0,-1,-3,-2,0,-4,-1,5.39
1079,1,-1,-1,-3,-4,0,-1,-2,5.3950000000000005
1080,4,0,3,8,2,4,6,0,5.4
1081,-12,-2,-3,-3,-3,-5,-14,-4,5.405
1082,-4,-2,-6,-9,0,0,7,1,5.41
1083,1,-1,2,9,-3,-4,-7,-3,5.415
1084,0,1,-3,-12,0,1,5,-1,5.42
1085,7,2,3,-1,0,-2,-8,-4,5.425
1086,0,0,-3,-6,-3,0,-2,2,5.43
1087,-4,0,0,10,1,-2,-7,-3,5.4350000000000005
1088,2,0,-4,-11,-1,-3,5,2,5.44
1089,2,1,6,0,-5,0,2,2,5.445
1090,-1,-1,-3,4,-2,-3,-6,-1,5.45
1091,1,-2,1,5,1,1,0,-3,5.455
1092,-2,-2,0,-1,2,1,2,3,5.46
1093,0,-1,-1,4,1,-1,-4,-1,5.465
1094,1,-1,-3,-17,-1,-3,4,-2,5.47
1095,-6,-7,-7,4,-3,-2,-4,1,5.4750000000000005
1096,3,2,0,-17,-1,-1,0,-1,5.48
1097,-3,-2,1,7,0,-1,-5,-4,5.485
1098,2,2,2,1,0,2,10,2,5.49
1099,0,-3,-4,-9,-1,1,6,2,5.495
1100,-1,-2,3,11,2,-1,0,1,5.5
1101,0,-1,0,-3,-2,1,-4,0,5.505
1102,-1,-1,0,-1,-1,-1,-6,-6,5.51
1103,1,1,-1,-4,-1,0,4,3,5.515
1104,2,0,-2,3,-4,-1,-8,-4,5.5200000000000005
1105,-1,-2,-7,-6,2,2,11,4,5.525
1106,1,-2,-7,-3,-1,-2,-6,-1,5.53
1107,-5,-1,6,3,0,2,8,2,5.535
1108,-2,0,-1,6,-2,-2,-7,-2,5.54
1109,3,1,-2,-7,-1,2,3,2,5.545
1110,0,-2,1,4,2,0,-2,-3,5.55
1111,4,1,1,1,1,-3,-10,-3,5.555
1112,-5,-2,-4,-8,-2,0,3,0,5.5600000000000005
1113,0,0,0,-2,-2,-1,0,-3,5.565
1114,-3,0,3,4,-2,-2,-1,0,5.57
1115,1,2,-2,-2,0,-1,1,-2,5.575
1116,-3,-3,2,5,-1,-1,-6,-6,5.58
1117,0,1,-1,-2,-1,-4,-4,-3,5.585
1118,0,0,-2,2,1,1,2,2,5.59
1119,-1,-2,-3,-6,-4,-4,-7,-4,5.595
1120,0,-1,-1,6,-1,0,-1,1,5.6000000000000005
1121,2,-1,3,-1,0,6,8,4,5.605
1122,0,1,-2,0,-1,-4,-9,0,5.61
1123,-1,1,1,0,2,2,8,0,5.615
1124,-4,-3,-8,-9,-6,-4,-7,-1,5.62
1125,2,0,2,6,2,-2,5,1,5.625
1126,-2,-2,0,-2,-2,-1,5,1,5.63
1127,-1,-2,-6,-3,0,0,-3,-1,5.635
1128,1,0,3,0,1,1,7,3,5.64
1129,-1,-1,0,-4,-2,-1,-3,-4,5.6450000000000005
1130,1,-2,-1,-2,-3,-3,-2,-4,5.65
1131,-13,-1,-1,0,-2,0,-3,0,5.655
1132,-1,-1,0,-3,1,2,4,-2,5.66
1133,0,0,2,2,-1,-1,-6,-2,5.665
1134,-4,-2,-3,0,0,2,-1,-1,5.67
1135,5,0,2,2,-2,0,0,-2,5.675
1136,1,1,3,3,-1,-2,-5,1,5.68
1137,-2,-1,-2,-4,-3,-3,0,-1,5.6850000000000005
1138,0,0,-1,1,-1,-2,-8,-1,5.69
1139,1,-2,-4,-5,-1,0,-2,1,5.695
1140,-1,-4,-8,-4,-1,1,4,-2,5.7
1141,-2,0,1,0,1,-2,-6,0,5.705
1142,-5,-3,1,3,0,-3,-7,-4,5.71
1143,1,1,1,-3,-3,-1,4,-1,5.715
1144,1,0,1,2,0,-2,-9,-2,5.72
1145,-2,-2,-4,-3,-3,0,2,-2,5.7250000000000005
1146,-1,-1,1,-2,-3,0,1,0,5.73
1147,1,1,0,-3,1,-2,-1,0,5.735
1148,-1,-1,-2,-2,0,-2,3,-1,5.74
1149,-2,-2,-3,3,-2,-2,0,-2,5.745
1150,3,1,1,0,2,3,3,5,5.75
1151,-3,-1,-2,-4,-2,1,6,2,5.755
1152,-1,1,2,0,-2,-2,-4,-1,5.76
1153,0,-2,-4,0,0,-2,-3,1,5.765
1154,-1,-1,1,1,-1,-3,-1,-3,5.7700000000000005
1155,3,2,8,1,-2,-2,-3,-1,5.775
1156,-2,-6,-9,0,1,0,1,2,5.78
1157,9,0,2,-1,0,3,11,5,5.785
1158,-4,-3,-6,-3,-3,0,-3,-4,5.79
1159,1,-2,-3,0,2,-2,-2,-1,5.795
1160,-2,1,0,-3,-3,-5,-2,-1,5.8
1161,1,-1,-1,-1,0,0,1,-2,5.805
1162,2,0,-1,-1,-1,-1,1,-1,5.8100000000000005
1163,-1,-1,-1,1,-1,1,2,-2,5.815
1164,0,1,2,0,1,2,1,-1,5.82
1165,-3,-3,-1,4,-1,-1,-4,0,5.825
1166,0,0,1,-1,-2,-1,6,0,5.83
1167,0,0,2,6,0,0,-5,-5,5.835
1168,1,0,0,-5,0,2,2,1,5.84
1169,-4,-1,-8,-12,-4,-4,-2,-5,5.845
1170,-1,0,1,5,3,-1,-8,-3,5.8500000000000005
1171,3,-1,-2,-5,-1,0,3,2,5.855
1172,0,0,-2,6,1,2,4,1,5.86
1173,-2,2,3,3,0,0,-7,-1,5.865
1174,1,3,3,-5,-1,-4,-7,-2,5.87
1175,-7,-4,-5,-1,0,-1,2,0,5.875
1176,-1,-1,0,-1,-2,-3,-7,-1,5.88
1177,-2,-3,-2,-1,1,-1,-1,0,5.885
1178,-1,-3,-3,-1,-1,0,5,0,5.89
1179,4,2,3,0,-2,-2,-10,-3,5.8950000000000005
1180,-1,1,0,0,-1,1,9,-1,5.9
1181,-2,-2,-2,-2,-3,0,5,1,5.905
1182,0,0,0,-2,-1,0,-3,-3,5.91
1183,0,-2,-6,-4,-3,0,0,1,5.915
1184,2,1,1,-2,-1,1,-1,0,5.92
1185,2,1,4,0,0,1,0,-2,5.925
1186,-3,-1,-4,1,0,-1,2,3,5.93
1187,-1,-3,-11,-11,-3,0,0,-2,5.9350000000000005
1188,-1,-1,2,2,0,-2,3,0,5.94
1189,-1,-5,-5,1,-2,-1,-3,-3,5.945
1190,-1,1,-1,-3,-2,3,3,1,5.95
1191,1,-1,1,0,-1,-4,-10,-3,5.955
1192,3,0,-1,-3,0,1,15,2,5.96
1193,-6,1,2,-2,-2,-2,-1,-1,5.965
1194,0,-3,0,-1,-1,0,1,-2,5.97
1195,-4,-3,-3,-3,-4,-2,-4,0,5.9750000000000005
1196,1,-3,-2,1,-1,0,-6,-2,5.98
1197,-1,-1,-1,2,-3,-3,-5,-3,5.985
1198,-1,0,0,-2,-1,3,4,1,5.99
1199,2,1,4,3,-1,-1,4,0,5.995
1200,-5,-1,1,1,0,-2,-4,-2,6.0
1201,-1,0,0,1,1,-2,-3,-1,6.005
1202,-3,-4,-7,-3,-1,-1,-5,-4,6.01
1203,1,0,-1,1,2,2,19,8,6.015000000000001
1204,-4,-3,1,3,-1,0,-12,-3,6.0200000000000005
1205,-2,-1,-5,-3,1,1,8,2,6.025
1206,1,-1,4,3,0,-2,-5,-3,6.03
1207,-6,-3,3,3,2,2,5,2,6.035
1208,-1,2,-2,-1,-1,-2,-4,0,6.04
1209,1,-1,2,-2,0,1,0,-1,6.045
1210,2,-1,-3,-4,-3,-3,-5,0,6.05
1211,0,0,-1,-2,0,1,-5,-2,6.055
1212,0,0,3,0,-2,-4,-3,-2,6.0600000000000005
1213,-1,-2,2,0,-1,-1,-11,-4,6.065
1214,-4,-1,-4,-4,-3,-1,2,-2,6.07
1215,-1,-4,0,-1,-1,0,-4,-2,6.075
1216,-1,2,0,-1,-2,-2,-2,-2,6.08
1217,-3,-3,-6,-4,0,-1,-8,-3,6.085
1218,1,2,1,2,0,1,9,9,6.09
1219,-2,-2,-3,1,-2,-1,-2,-2,6.095
1220,0,-1,-1,-1,-1,3,-1,1,6.1000000000000005
1221,0,-1,-1,-1,-2,-1,-3,-1,6.105
1222,-3,0,-2,0,-2,-6,-9,-3,6.11
1223,2,2,2,0,0,0,6,0,6.115
1224,-3,-4,-6,-2,-1,-1,1,-2,6.12
1225,0,0,-4,0,-2,-2,-6,-1,6.125
1226,0,0,4,3,-1,3,3,1,6.13
1227,0,0,-5,-6,0,-5,-10,-3,6.135
1228,2,-2,-2,2,0,-1,0,0,6.140000000000001
1229,-9,-2,0,-2,-3,-4,1,0,6.1450000000000005
1230,0,-1,1,-1,1,1,0,-2,6.15
1231,0,0,2,-1,-1,0,-3,-2,6.155
1232,-4,-4,-5,-4,-3,0,-5,-3,6.16
1233,3,-1,-2,-4,-3,-2,2,1,6.165
1234,-7,-2,-1,-1,0,0,-1,-6,6.17
1235,-4,-2,-1,1,0,0,0,1,6.175
1236,-2,-2,-3,-1,0,2,-2,0,6.18
1237,2,1,5,2,-1,2,1,1,6.1850000000000005
1238,0,-3,-4,0,-2,-4,-7,-4,6.19
1239,2,1,0,-3,-2,-1,-6,-1,6.195
1240,0,2,0,2,2,2,16,4,6.2
1241,1,0,4,1,0,-2,-5,1,6.205
1242,3,1,-1,0,0,-1,-3,-1,6.21
1243,-1,-2,-3,-1,-1,-4,-8,-4,6.215
1244,-1,-3,0,-4,-2,-2,-1,-3,6.22
1245,-1,-2,-4,0,-1,1,6,1,6.2250000000000005
1246,2,1,2,1,0,-4,-10,-1,6.23
1247,-4,-2,-6,-4,-1,1,5,-1,6.235
1248,-1,1,2,0,-1,-1,2,2,6.24
1249,0,-2,-6,-1,1,0,2,-4,6.245
1250,-1,1,7,1,1,2,1,2,6.25
1251,0,0,-4,0,0,1,0,0,6.255
1252,2,1,1,0,-1,-2,-3,-1,6.26
1253,-2,0,0,1,1,-2,-1,-4,6.265000000000001
1254,0,-2,-6,-5,-2,0,3,0,6.2700000000000005
1255,1,2,3,2,0,1,8,1,6.275
1256,-4,-3,-3,-2,-1,-2,-9,-4,6.28
1257,1,-1,0,-2,-1,4,27,4,6.285
1258,0,-1,-5,1,-1,2,1,2,6.29
1259,1,0,1,1,1,0,1,0,6.295
1260,4,1,-3,0,-3,-1,-2,1,6.3
1261,-5,0,-1,-3,-2,-1,-1,1,6.305
1262,0,-2,-1,-5,-2,3,2,-2,6.3100000000000005
1263,-4,-4,0,-2,-2,-1,-5,-4,6.315
1264,2,0,1,1,-1,1,-1,-3,6.32
1265,0,0,0,2,0,-3,-10,-5,6.325
1266,-3,-3,-8,-8,-1,-2,-1,-2,6.33
1267,2,3,5,0,-1,0,-2,2,6.335
1268,-4,-7,-9,-4,-2,-1,-1,1,6.34
1269,2,1,1,-2,-1,2,-2,-1,6.345
1270,-3,-3,2,5,0,-2,0,1,6.3500000000000005
1271,-1,-1,0,0,-3,-2,-3,-1,6.355
1272,-1,2,3,-2,0,0,6,2,6.36
1273,-3,-2,-3,0,2,0,-5,0,6.365
1274,0,1,-6,-3,-3,-4,-10,-4,6.37
1275,-1,-1,0,0,-1,-4,-7,-3,6.375
1276,-1,1,4,5,3,4,5,-1,6.38
1277,3,0,-2,-1,2,0,-7,0,6.385
1278,-3,-3,3,0,-1,-1,1,-3,6.390000000000001
1279,-1,-6,-7,-3,-4,-4,1,2,6.3950000000000005
1280,-2,0,0,1,-1,-1,-4,-1,6.4
1281,1,-3,2,11,0,2,1,-1,6.405
1282,2,3,-4,-16,1,2,5,4,6.41
1283,2,4,-2,0,-2,-1,-2,2,6.415
1284,1,-1,3,-2,-2,-3,-2,1,6.42
1285,2,-1,-9,-6,-3,-2,-2,1,6.425
1286,-3,-3,5,8,0,3,8,-4,6.43
1287,-2,-5,-9,-4,-1,0,-1,-3,6.4350000000000005
1288,-6,-3,-1,-3,1,-3,-8,-8,6.44
1289,-12,-7,-2,2,-5,-6,-7,-9,6.445
1290,7,6,6,5,5,8,19,16,6.45
1291,0,3,1,0,-1,-4,-2,3,6.455
1292,1,-3,-5,-1,-3,-5,-4,2,6.46
1293,0,-2,3,-2,4,4,-3,-4,6.465
1294,5,3,0,-2,-3,-5,-5,-4,6.47
1295,1,4,2,4,1,1,-1,-3,6.4750000000000005
1296,-9,-10,-3,-2,-2,0,2,-1,6.48
1297,3,4,-3,-7,-4,-3,-6,-2,6.485
1298,1,6,9,6,2,3,6,6,6.49
1299,-1,-13,-3,-1,0,1,1,1,6.495
1300,3,1,-7,-3,-2,-1,10,3,6.5
1301,-9,-1,3,10,-3,-2,2,3,6.505
1302,9,0,-9,-11,-3,-5,-1,8,6.51
1303,15,22,8,2,1,4,3,12,6.515000000000001
1304,-3,-3,5,6,1,-1,-7,-5,6.5200000000000005
1305,-12,-6,-4,-10,-12,-6,-5,-8,6.525
1306,-9,1,-5,3,2,-6,-6,-4,6.53
1307,2,-2,9,5,1,2,-1,-4,6.535
1308,-11,-19,-13,-5,0,-2,-1,-1,6.54
1309,-3,-1,5,2,4,6,3,-3,6.545
1310,6,4,5,10,0,-2,-8,1,6.55
1311,-17,-9,-10,-12,-8,-9,-5,-15,6.555
1312,13,10,9,1,1,7,1,15,6.5600000000000005
1313,3,-5,4,-1,1,-2,7,5,6.565
1314,3,8,-5,-8,-7,-7,-8,-5,6.57
1315,5,-1,2,2,5,3,-1,1,6.575
1316,-14,-16,0,0,-5,-11,-6,-9,6.58
1317,4,-2,-2,-8,5,12,9,5,6.585
1318,-11,-9,-5,0,3,0,-6,-11,6.59
1319,-5,4,-3,-4,-6,-2,-5,-9,6.595
1320,16,21,11,6,4,9,7,1,6.6000000000000005
1321,-6,0,6,10,-16,-21,-11,-5,6.605
1322,7,-13,-8,4,7,13,12,11,6.61
1323,-17,-11,-16,-7,4,-1,-5,-8,6.615
1324,0,-24,-9,17,-25,-21,-11,-9,6.62
1325,-1,11,-8,-26,19,2,-6,-4,6.625
1326,0,22,9,9,0,8,5,4,6.63
1327,15,-4,4,5,0,-7,1,10,6.635
1328,-10,1,6,4,8,11,3,-3,6.640000000000001
1329,5,4,-4,-12,-21,-10,-2,8,6.6450000000000005
1330,0,22,7,-3,-8,-10,-9,-11,6.65
1331,3,21,3,1,2,3,1,5,6.655
1332,6,14,-14,-4,-6,-3,-3,-2,6.66
1333,-39,-22,-4,10,4,0,-1,-12,6.665
1334,17,3,6,9,6,11,8,8,6.67
1335,10,16,2,-23,3,3,-2,-3,6.675
1336,2,4,-22,-31,-18,-25,-13,-6,6.68
1337,-12,-14,-5,-8,4,4,-2,-8,6.6850000000000005
1338,-9,-45,2,2,0,-1,1,5,6.69
1339,62,87,29,20,-1,4,7,12,6.695
1340,49,-25,-5,0,14,10,6,18,6.7
1341,-59,-52,-27,-14,-6,-7,-19,-52,6.705
1342,10,34,7,5,2,-6,0,2,6.71
1343,30,-7,-7,27,4,7,3,13,6.715
1344,-77,-65,0,0,5,-2,-12,-33,6.72
1345,42,37,4,-10,-3,2,4,16,6.7250000000000005
1346,-15,12,-35,-48,-12,-4,-12,-26,6.73
1347,-2,-39,-17,5,-12,-13,-1,2,6.735
1348,31,36,9,7,10,4,10,31,6.74
1349,8,18,3,5,9,8,10,24,6.745
1350,52,-26,10,27,-2,4,7,14,6.75
1351,-82,-94,-3,-32,-3,0,-9,-39,6.755
1352,-6,13,20,24,1,10,4,-3,6.76
1353,8,-31,6,10,4,-9,-7,0,6.765000000000001
1354,2,-7,-16,-16,-11,-11,-4,2,6.7700000000000005
1355,-5,-15,11,24,2,5,2,4,6.775
1356,-26,-2,18,4,11,5,2,-9,6.78
1357,63,24,5,-34,-3,8,13,43,6.785
1358,-108,-76,-50,-4,-23,-29,-23,-46,6.79
1359,-22,-38,-19,0,-8,-6,-13,-26,6.795
1360,1,8,-24,-42,-8,-16,-17,-10,6.8
1361,32,40,7,5,3,12,8,10,6.805
1362,-7,10,28,32,-5,-15,-9,-4,6.8100000000000005
1363,-4,19,4,-11,8,-5,0,-1,6.815
1364,33,-3,-17,-16,-22,2,9,14,6.82
1365,41,77,30,25,21,6,2,0,6.825
1366,-42,-69,7,15,-24,10,5,-4,6.83
1367,13,12,4,-27,-10,-30,-11,5,6.835
1368,-7,30,8,-7,49,26,10,6,6.84
1369,56,75,10,-6,-13,-7,-2,6,6.845
1370,-16,-9,-34,-4,5,4,-8,-24,6.8500000000000005
1371,-6,24,14,21,-12,0,3,5,6.855
1372,11,-9,10,-9,-17,-4,4,10,6.86
1373,8,-46,-23,6,-2,6,2,-1,6.865
1374,-17,0,15,6,11,0,2,0,6.87
1375,12,44,6,1,-2,-2,-4,6,6.875
1376,-7,-29,-4,14,-3,-10,-2,8,6.88
1377,-28,-90,-28,-26,2,7,-1,-17,6.885
1378,39,70,1,-23,-1,0,-9,-13,6.890000000000001
1379,15,-10,-37,-25,-1,10,12,19,6.8950000000000005
1380,-61,-29,-1,9,-14,-10,-13,-31,6.9
1381,-38,-2,19,35,-15,-12,-5,-6,6.905
1382,9,17,7,-20,-52,-21,0,8,6.91
1383,50,45,-9,-6,56,26,15,26,6.915
1384,3,15,26,19,-6,11,11,5,6.92
1385,-3,-18,6,32,10,10,11,10,6.925
1386,-16,-21,-30,-34,8,-2,-7,-13,6.93
1387,-4,11,27,13,-18,0,9,10,6.9350000000000005
1388,10,18,-10,-5,-2,-5,-2,2,6.94
1389,-3,40,-7,-4,-9,-9,-9,-7,6.945
1390,22,-8,1,3,7,7,4,8,6.95
1391,-27,-19,-2,12,14,5,-3,-8,6.955
1392,10,1,-2,-2,7,-8,-7,-1,6.96
1393,19,42,8,-5,-6,-4,0,3,6.965
1394,15,22,-8,-15,6,6,3,15,6.97
1395,-20,-50,-21,-24,15,0,-8,-15,6.9750000000000005
1396,16,18,6,10,-3,3,1,0,6.98
1397,4,-11,-1,8,1,2,1,4,6.985
1398,-52,-60,-16,-3,-18,-8,-4,-14,6.99
1399,14,-18,13,13,48,16,-1,-3,6.995
1400,14,34,0,-12,-16,-10,2,7,7.0
1401,-15,-27,-22,-1,-3,-7,-8,-10,7.005
1402,33,65,18,3,14,14,14,19,7.01
1403,-6,-4,7,-1,-38,-17,-6,-7,7.015000000000001
1404,9,-1,-5,6,9,7,1,1,7.0200000000000005
1405,-8,-7,7,11,2,-2,0,-1,7.025
1406,4,25,16,9,6,0,2,6,7.03
1407,18,26,-3,-16,-15,-3,-4,1,7.035
1408,-31,-20,-9,-5,3,-1,-3,-15,7.04
1409,13,3,13,4,-3,3,6,8,7.045
1410,-22,-58,-14,17,-7,-4,-6,-6,7.05
1411,-13,-11,-4,0,12,-4,1,-3,7.055
1412,3,0,-10,-6,-15,-3,-6,-5,7.0600000000000005
1413,-20,7,5,9,-8,-11,-9,-13,7.065
1414,20,20,10,-11,38,15,6,12,7.07
1415,-7,-8,0,-4,-20,-2,0,4,7.075
1416,-4,-2,-3,-2,3,1,-3,-10,7.08
1417,-18,10,2,-5,-23,-8,-8,-8,7.085
1418,26,-1,15,8,19,-1,10,13,7.09
1419,19,5,-6,0,1,5,1,14,7.095
1420,-52,-70,-25,-3,-1,0,-7,-23,7.1000000000000005
1421,-8,-6,-12,-26,-6,-5,-6,-8,7.105
1422,-5,-4,12,11,2,5,1,3,7.11
1423,-1,5,1,1,-8,-5,0,-5,7.115
1424,33,44,19,11,7,-2,0,8,7.12
1425,-11,-37,-3,9,-16,-5,1,5,7.125
1426,-1,7,-19,-14,21,6,0,-7,7.13
1427,-3,-1,7,5,4,5,2,-1,7.135
1428,-5,-17,-1,6,-9,-11,-10,-9,7.140000000000001
1429,-23,-16,-8,-7,-31,-9,0,-8,7.1450000000000005
1430,34,25,20,13,31,6,2,12,7.15
1431,-2,3,-16,-14,-11,4,2,3,7.155
1432,15,4,14,-6,18,2,4,7,7.16
1433,-12,20,-32,-23,14,5,-4,-8,7.165
1434,-16,-25,4,13,-35,-13,-9,-13,7.17
1435,-3,-1,-5,10,-7,-9,-5,-8,7.175
1436,-4,-10,-7,-13,0,2,4,6,7.18
1437,-4,-3,14,8,10,3,-2,-4,7.1850000000000005
1438,18,19,3,-5,-3,-6,-28,1,7.19
1439,-6,0,0,-5,-8,-5,8,-13,7.195
1440,8,16,3,2,-6,0,-5,-3,7.2
1441,-1,-11,1,2,16,15,40,34,7.205
1442,-17,-9,-12,-6,-5,1,5,-12,7.21
1443,5,5,6,6,1,-4,-30,-2,7.215
1444,4,-1,-18,-4,-10,-3,15,12,7.22
1445,27,-2,-5,-5,9,-1,-6,1,7.2250000000000005
1446,-14,5,-7,-1,0,-3,2,-2,7.23
1447,-33,-8,-15,9,-8,-5,-18,-12,7.235
1448,10,13,-8,-15,3,5,5,4,7.24
1449,2,-8,-1,-3,8,2,-7,-4,7.245
1450,4,2,2,-26,-9,-2,6,-2,7.25
1451,5,0,22,12,-5,-3,4,2,7.255
1452,-15,0,-1,-12,2,-1,-3,-18,7.26
1453,9,0,1,24,6,-1,-4,10,7.265000000000001
1454,11,2,9,4,-2,-8,-31,-10,7.2700000000000005
1455,-5,2,-5,-7,2,7,59,23,7.275
1456,-1,4,3,3,0,2,12,-2,7.28
1457,-1,-1,10,-5,1,3,19,9,7.285
1458,-5,5,9,7,-3,2,17,2,7.29
1459,-2,-9,-5,8,-2,-2,-9,-1,7.295
1460,-1,3,8,-2,-4,0,-8,-5,7.3
1461,3,-6,-9,-2,5,1,-10,-5,7.305
1462,-1,-4,-3,7,0,0,1,-1,7.3100000000000005
1463,2,-3,-24,-32,-2,-2,-9,-4,7.315
1464,6,5,8,1,-3,-4,-3,4,7.32
1465,-7,-1,-7,-12,-5,-1,-10,-10,7.325
1466,0,4,-7,16,4,0,1,-6,7.33
1467,-9,-1,1,-1,0,-5,-10,-11,7.335
1468,9,9,-2,4,-9,-2,0,4,7.34
1469,-6,2,21,10,6,-3,-6,-10,7.345
1470,4,10,18,-6,-2,-1,-8,6,7.3500000000000005
1471,-27,-12,-27,-16,-12,4,25,-13,7.355
1472,15,10,18,20,9,4,6,28,7.36
1473,-9,-4,0,-7,1,2,0,-10,7.365
1474,9,6,9,3,-2,-1,10,18,7.37
1475,2,2,14,10,2,-5,-13,-8,7.375
1476,-4,-3,-2,-9,-4,0,-8,-5,7.38
1477,-2,0,3,3,-1,-1,1,-1,7.385
1478,2,-7,-10,1,3,1,-2,-2,7.390000000000001
1479,2,-1,3,-7,-4,-1,-11,-3,7.3950000000000005
1480,1,-3,-7,0,2,0,3,-2,7.4
1481,-2,-5,-4,-1,-1,-6,-7,-4,7.405
1482,-2,-10,-10,-1,-3,-2,-4,0,7.41
1483,-1,0,3,-20,-5,0,0,3,7.415
1484,2,3,7,9,3,-1,-4,0,7.42
1485,-9,-9,-11,16,5,-5,-14,-10,7.425
1486,2,0,-11,-12,-1,3,18,6,7.43
1487,-2,-4,12,20,2,0,1,-2,7.4350000000000005
1488,1,-1,-10,-7,1,2,-5,1,7.44
1489,-3,1,1,-9,-3,-2,2,0,7.445
1490,-2,-1,0,1,-2,-4,-3,0,7.45
1491,2,1,2,2,-2,-5,-11,3,7.455
1492,-8,-2,-3,-8,-4,-2,6,-6,7.46
1493,-2,0,3,0,0,-1,-1,4,7.465
1494,-2,-2,-3,-4,-4,-2,-2,-7,7.47
1495,1,4,5,0,-2,-1,-9,-3,7.4750000000000005
1496,1,-2,0,12,-3,-3,-4,-3,7.48
1497,-2,-2,-9,-20,-4,1,-4,-5,7.485
1498,2,-1,-5,-16,-1,3,9,9,7.49
1499,-4,-6,-4,10,-3,-1,-11,-5,7.495
1500,-1,2,2,-3,0,0,5,0,7.5
1501,-2,-5,-9,-4,-1,-4,-9,-3,7.505
1502,0,0,4,-16,0,4,6,2,7.51
1503,0,-1,-2,4,-5,-1,-2,1,7.515000000000001
1504,-3,-6,-6,3,-2,-4,-7,-1,7.5200000000000005
1505,1,0,-1,-13,-3,-3,-4,-2,7.525
1506,-6,-4,6,29,0,-1,5,-1,7.53
1507,-2,1,-3,2,3,2,0,-4,7.535
1508,1,-2,-7,-5,0,1,-5,1,7.54
1509,3,4,0,-4,-3,-3,9,4,7.545
1510,-5,-6,-10,0,-2,-5,-7,-4,7.55
1511,1,2,3,-1,1,1,4,-7,7.555
1512,-6,3,-2,5,-1,-2,-3,5,7.5600000000000005
1513,1,4,-1,-1,1,1,-1,-1,7.565
1514,2,5,3,12,6,4,1,-1,7.57
1515,2,2,1,-6,7,2,4,4,7.575
1516,1,-1,-3,2,-3,1,1,-2,7.58
1517,0,-3,-2,8,-1,0,-2,1,7.585
1518,-1,0,0,-35,-9,-1,0,-2,7.59
1519,2,0,-2,0,0,-3,-7,1,7.595
1520,2,0,1,-4,1,1,0,-1,7.6000000000000005
1521,-3,-2,0,6,3,1,-1,-1,7.605
1522,-4,-3,-8,7,-1,-4,-2,-4,7.61
1523,2,1,8,5,-1,1,2,4,7.615
1524,-1,-3,-4,-17,-3,-6,-2,-5,7.62
1525,0,2,8,8,-1,4,8,1,7.625
1526,-4,-3,-12,-2,1,-5,-10,-5,7.63
1527,-1,-2,-3,-5,-2,1,2,2,7.635
1528,2,1,4,13,2,0,1,-1,7.640000000000001
1529,3,-3,-10,-19,-2,-1,-7,-6,7.6450000000000005
1530,2,0,4,-4,-3,6,29,11,7.65
1531,-2,0,-2,2,-1,-3,-1,-1,7.655
1532,-1,-4,-3,1,-3,-2,-5,-4,7.66
1533,1,0,-2,6,1,-2,4,-1,7.665
1534,3,1,2,5,1,-1,-9,-1,7.67
1535,-3,-4,-8,-8,-1,-2,0,0,7.675
1536,-1,0,-4,-5,-2,-1,2,-1,7.68
1537,0,4,9,14,4,0,-3,0,7.6850000000000005
1538,-1,-3,-6,-29,-6,-2,-2,-2,7.69
1539,-2,-4,4,17,1,-2,-2,-3,7.695
1540,-2,-1,0,-2,-3,-4,-6,-3,7.7
1541,-1,-1,3,5,2,2,-2,0,7.705
1542,1,2,9,17,4,1,1,4,7.71
1543,1,-1,-5,-13,-2,2,11,3,7.715
1544,-4,-2,0,1,-1,1,-1,-10,7.72
1545,3,-2,6,-1,-1,-3,4,11,7.7250000000000005
1546,-2,0,2,5,-1,-3,-10,-7,7.73
1547,-1,1,-1,-7,-2,-1,5,1,7.735
1548,4,1,-2,14,4,5,3,3,7.74
1549,5,-2,-4,-15,-8,-6,-11,-8,7.745
1550,-6,-3,-4,-5,-1,3,13,3,7.75
1551,0,2,2,8,-1,-3,-6,-2,7.755
1552,0,0,-4,13,3,-3,2,4,7.76
1553,-2,0,-10,-43,-3,1,-7,-3,7.765000000000001
1554,1,2,1,1,1,-1,-11,-3,7.7700000000000005
1555,-2,-1,-4,3,-2,0,3,1,7.775
1556,-3,-6,-2,0,-1,0,-5,-2,7.78
1557,-3,0,1,20,-1,-1,9,1,7.785
1558,0,1,2,-7,0,-1,-2,-2,7.79
1559,0,-1,0,-2,-1,-3,-7,-5,7.795
1560,1,1,0,-3,-3,-2,1,1,7.8
1561,-5,-1,1,5,-1,-1,0,-2,7.805000000000001
1562,-1,1,1,6,1,-3,-5,-4,7.8100000000000005
1563,-1,-5,-3,2,-1,1,1,-2,7.815
1564,0,3,9,11,-1,-5,-3,1,7.82
1565,-3,-5,-7,-14,-1,0,-1,-2,7.825
1566,1,-1,-4,0,-1,-3,-7,-2,7.83
1567,-5,-3,3,-4,-1,1,1,-2,7.835
1568,-1,-1,-6,-13,-2,-1,-5,-5,7.84
1569,-4,-4,-4,5,-2,-3,-3,-1,7.845
1570,-3,-1,0,5,1,-1,-7,0,7.8500000000000005
1571,1,1,-2,-2,-3,-3,-2,-1,7.855
1572,0,0,8,-5,-1,0,1,-1,7.86
1573,-2,1,0,-1,-1,-2,-9,-2,7.865
1574,0,-3,-3,4,-2,2,5,-1,7.87
1575,-3,-4,-7,-14,-5,-3,1,-1,7.875
1576,0,-2,-2,-9,-3,-1,-9,-5,7.88
1577,-5,3,5,12,2,2,26,6,7.885
1578,0,3,12,-2,0,1,9,0,7.890000000000001
1579,-3,-3,-6,1,-1,-2,-3,-2,7.8950000000000005
1580,-3,-3,-6,-3,-1,1,1,2,7.9
1581,4,1,2,3,0,-4,-8,-2,7.905
1582,2,2,-4,-2,-2,-1,5,5,7.91
1583,-2,2,9,5,0,-2,-8,-5,7.915
1584,1,-1,-7,-12,-2,4,11,3,7.92
1585,6,-1,-1,7,0,1,3,0,7.925
1586,1,-3,-5,-5,-2,-4,-9,-4,7.930000000000001
1587,0,-3,-4,1,2,2,-7,-4,7.9350000000000005
1588,-1,0,-2,-3,-3,-4,0,-1,7.94
1589,-1,-3,-2,-1,1,0,9,-1,7.945
1590,-2,-1,4,11,0,-1,-11,-4,7.95
1591,3,2,2,-10,1,5,25,7,7.955
1592,0,0,1,-1,1,1,-2,-1,7.96
1593,-4,-1,-9,3,-3,-1,-5,-4,7.965
1594,-3,-3,-2,-4,-2,-3,-7,-3,7.97
1595,-4,0,2,8,-1,-1,-7,-7,7.9750000000000005
1596,4,1,-3,-14,-2,-2,-3,5,7.98
1597,-1,-1,1,5,1,2,-2,-1,7.985
1598,-3,-1,0,1,-1,-1,1,0,7.99
1599,1,-2,-1,4,-1,-6,3,3,7.995
1600,1,-1,-9,-7,0,2,1,-3,8.0
1601,-4,1,0,1,-5,2,7,2,8.005
1602,3,1,-1,-2,-3,-3,-10,-5,8.01
1603,-4,-3,-1,5,0,-3,3,1,8.015
1604,0,-1,1,5,0,-1,-6,-2,8.02
1605,2,-1,-3,-6,-1,1,-2,-1,8.025
1606,-1,-1,-3,-1,-4,-4,-7,-4,8.03
1607,4,2,2,-8,1,4,7,3,8.035
1608,-4,0,0,3,-2,-4,2,-1,8.040000000000001
1609,0,2,4,-1,1,-1,-4,-3,8.045
1610,-1,-1,-2,-2,1,-1,-1,0,8.05
1611,1,2,3,3,-2,-4,-9,-5,8.055
1612,-5,-2,-8,-1,1,1,8,1,8.06
1613,-3,-1,4,-3,-2,-2,-9,-2,8.065
1614,2,1,-1,-1,-2,-2,1,2,8.07
1615,-11,-8,-8,-6,-5,-3,-4,-3,8.075
1616,1,1,7,3,-1,-2,-4,-1,8.08
1617,3,-2,-14,-18,0,5,13,2,8.085
1618,9,1,6,3,1,6,30,8,8.09
1619,-9,2,2,1,-1,-4,-8,-2,8.095
1620,-2,-1,2,6,-3,-5,-13,-4,8.1
1621,-1,-1,2,5,0,-4,-5,-3,8.105
1622,1,0,-1,-3,1,1,0,0,8.11
1623,5,2,1,3,1,2,0,0,8.115
1624,-1,-2,0,5,-2,-3,-1,-3,8.120000000000001
1625,-1,-1,1,-7,0,-1,-1,-1,8.125
1626,-5,-2,-3,-2,3,-1,-3,-1,8.13
1627,4,-1,-8,-1,-2,-2,-4,0,8.135
1628,-2,0,-2,-4,-1,0,2,1,8.14
1629,0,-1,1,1,-2,-2,-4,-1,8.145
1630,-4,0,-2,4,-1,-1,-5,-4,8.15
1631,1,1,1,-3,0,0,-4,-3,8.155
1632,0,-1,0,1,1,2,7,1,8.16
1633,-2,-1,6,11,0,-4,-14,-7,8.165000000000001
1634,-5,-2,-2,-6,-7,-4,-7,-2,8.17
1635,-1,0,-11,2,-1,3,8,6,8.175
1636,2,0,1,-6,-1,1,6,-1,8.18
1637,-3,-3,1,6,0,-4,0,5,8.185
1638,-2,-2,0,2,0,-2,-9,-4,8.19
1639,6,1,5,0,-2,-2,-5,-3,8.195
1640,-12,-3,-1,1,0,0,-3,-6,8.2
1641,2,1,1,-3,-3,1,-1,0,8.205
1642,0,-1,-7,-4,-2,-2,3,0,8.21
1643,3,0,3,6,2,2,11,8,8.215
1644,3,-3,-11,-19,-4,-1,-4,-3,8.22
1645,-1,-1,0,-1,0,-2,-2,-3,8.225
1646,-4,-1,2,3,-1,1,-2,0,8.23
1647,0,1,-1,-1,1,2,-3,-3,8.235
1648,-2,0,2,1,-1,-4,-11,-2,8.24
1649,0,2,-4,1,-1,0,2,0,8.245000000000001
1650,3,-1,-1,-3,2,2,7,2,8.25
1651,-2,-4,1,-3,-2,-6,-16,-6,8.255
1652,4,1,3,5,1,3,17,4,8.26
1653,-7,-2,-1,-3,-2,-3,-4,-3,8.265
1654,11,1,0,4,1,0,-4,2,8.27
1655,-4,-5,-6,-12,-2,-3,0,-7,8.275
1656,-2,1,1,-4,-2,-2,-13,-3,8.28
1657,-1,-4,-13,-7,-3,-4,0,4,8.285
1658,-4,-2,-3,-2,-1,-2,-3,-4,8.290000000000001
1659,3,2,9,5,1,0,-6,1,8.295
1660,-9,-3,-6,-5,0,-3,-2,-2,8.3
1661,-3,0,-1,0,1,1,-3,-5,8.305
1662,-4,-4,-3,0,-4,-2,-2,-5,8.31
1663,-1,0,-3,-2,-1,2,4,2,8.315
1664,6,-1,3,1,-1,-3,-1,0,8.32
1665,1,2,3,3,-1,1,-1,-1,8.325
1666,-11,-4,-3,-6,-1,1,4,2,8.33
1667,0,3,4,0,0,1,-1,-1,8.335
1668,-1,-2,-5,12,2,-1,-2,-1,8.34
1669,-2,0,-4,-18,-3,0,-7,-2,8.345
1670,0,1,0,-1,-1,2,12,1,8.35
1671,-3,-2,-2,-4,-1,-2,-5,1,8.355
1672,2,1,3,2,1,-1,-6,-2,8.36
1673,1,1,2,10,2,2,15,6,8.365
1674,-1,-4,-5,-4,1,-1,-6,0,8.370000000000001
1675,-3,-4,-1,-1,-6,-2,3,-4,8.375
1676,1,-1,-5,-1,0,-2,3,0,8.38
1677,-1,-4,-4,2,-5,-5,-10,-6,8.385
1678,-1,1,-1,-4,-2,1,3,1,8.39
1679,-1,-1,-3,1,-2,-1,-3,-2,8.395
1680,-7,2,5,2,-1,-4,-4,2,8.4
1681,1,-1,-3,-5,-2,1,3,-4,8.405
1682,-1,-1,-2,-2,-1,-1,-10,-5,8.41
1683,-1,-1,-2,-1,-1,0,7,1,8.415000000000001
1684,3,0,-2,-6,-1,1,-1,-2,8.42
1685,1,1,6,3,2,-1,-1,0,8.425
1686,-4,-1,3,1,0,0,-2,-7,8.43
1687,3,0,0,5,-1,-1,-4,4,8.435
1688,3,0,0,-4,-2,1,4,1,8.44
1689,-2,-1,-1,3,-2,0,6,0,8.445
1690,3,-1,-5,-10,-1,-5,-12,-6,8.45
1691,-3,-1,4,0,0,2,1,0,8.455
1692,1,-2,-2,-3,-1,0,4,1,8.46
1693,1,-3,1,1,-1,0,-4,2,8.465
1694,-1,-1,5,11,2,1,-1,-1,8.47
1695,-2,-2,-6,-14,-3,-2,1,-1,8.475
1696,-7,-5,-7,-3,-2,-1,-3,-4,8.48
1697,1,0,2,0,2,2,4,0,8.485
1698,-2,1,-1,3,0,-3,0,0,8.49
1699,-2,0,2,3,2,0,-3,1,8.495000000000001
1700,3,-2,-1,0,0,0,-3,-1,8.5
1701,-2,-2,0,-2,1,1,1,-2,8.505
1702,2,0,-1,-2,-3,0,6,5,8.51
1703,-2,-2,-9,-2,0,-1,-7,-5,8.515
1704,-1,1,4,3,1,0,1,1,8.52
1705,0,0,-5,-4,-4,0,-2,-2,8.525
1706,2,0,3,3,0,-3,-2,0,8.53
1707,-1,-1,-2,0,2,2,7,1,8.535
1708,1,-1,0,-2,0,-1,1,2,8.540000000000001
1709,-3,0,0,-1,0,-1,0,3,8.545
1710,-5,-1,2,5,2,0,-1,-7,8.55
1711,5,-2,-1,8,-2,0,-1,3,8.555
1712,-4,-3,-5,-16,-5,-3,-11,-8,8.56
1713,-1,-1,-10,2,-1,-2,8,2,8.565
1714,-5,-3,-2,-1,-2,0,4,1,8.57
1715,-3,0,0,-1,0,0,5,3,8.575000000000001
1716,1,1,1,4,0,-2,1,0,8.58
1717,-4,-3,2,0,-1,-2,-5,-5,8.585
1718,2,-1,-5,-2,-3,0,-6,-3,8.59
1719,1,-1,-2,-1,-1,-3,0,-1,8.595
1720,-1,-3,0,1,0,-1,-6,-2,8.6
1721,2,4,11,4,3,-1,-1,-4,8.605
1722,-1,-5,-7,-1,-2,-1,5,0,8.61
1723,0,-1,1,-1,0,5,13,2,8.615
1724,2,1,-1,0,0,0,2,2,8.620000000000001
1725,1,-1,1,0,-1,1,-4,1,8.625
1726,1,0,0,-2,-1,1,0,0,8.63
1727,-4,1,-1,-2,-2,-5,-20,-11,8.635
1728,-2,-3,-7,-4,-4,-1,13,1,8.64
1729,-2,-2,-2,-6,-2,-1,-2,2,8.645
1730,0,-1,-1,-1,-1,-2,-3,0,8.65
1731,11,2,0,3,2,-1,-3,-1,8.655
1732,-6,-2,1,0,1,0,-4,-3,8.66
1733,0,-2,1,1,-3,-4,-6,-2,8.665000000000001
1734,-1,0,-4,-2,1,0,4,4,8.67
1735,-1,-1,1,-1,-3,-5,-9,-4,8.675
1736,1,-1,-1,2,1,2,6,1,8.68
1737,-2,-2,-2,0,-1,-1,2,0,8.685
1738,0,2,3,-3,-1,0,-7,-2,8.69
1739,-10,-2,0,4,-1,0,-1,-4,8.695
1740,5,-1,-1,1,0,-2,-2,3,8.700000000000001
1741,-3,-3,-8,-7,-5,-4,-2,-1,8.705
1742,1,0,6,6,1,3,12,2,8.71
1743,2,0,1,1,1,4,23,7,8.715
1744,-3,2,2,8,-1,-1,-5,-4,8.72
1745,0,-1,-1,-5,2,4,6,1,8.725
1746,2,1,2,-3,-1,-4,-4,0,8.73
1747,2,0,1,-5,-3,-1,-4,-3,8.735
1748,-12,-1,4,6,-1,-2,-4,-2,8.74
1749,1,-2,-9,-17,-2,-1,-2,-3,8.745000000000001
1750,-3,-4,-3,0,-1,-3,-4,-5,8.75
1751,-1,1,2,-4,1,1,-1,0,8.755
1752,5,0,0,-1,0,1,-4,1,8.76
1753,0,1,8,8,0,-2,-7,-1,8.765
1754,-3,-2,-7,-8,-2,0,4,1,8.77
1755,-2,0,-5,-5,-1,-1,-9,2,8.775
1756,2,-2,-3,1,2,4,5,-3,8.78
1757,-4,1,3,2,-3,-2,-8,-4,8.785
1758,-2,0,4,3,1,2,11,1,8.790000000000001
1759,3,-1,0,1,0,-2,-1,4,8.795
1760,2,-1,-2,-4,-1,2,1,0,8.8
1761,2,-1,0,3,1,-2,-13,-1,8.805
1762,-4,-3,0,-4,-2,-4,-7,-3,8.81
1763,-2,-1,-1,-2,0,1,4,-3,8.815
1764,-2,1,-3,-7,-1,0,10,4,8.82
1765,-3,-1,3,4,-1,1,1,-3,8.825000000000001
1766,1,-1,-1,0,0,-2,-8,-3,8.83
1767,-5,-2,2,3,2,0,-2,-3,8.835
1768,1,-3,-3,4,-6,-6,-4,1,8.84
1769,0,-2,-3,-5,1,1,4,1,8.845
1770,0,0,4,3,-1,2,1,0,8.85
1771,-5,-2,-4,-7,-1,-3,-8,-4,8.855
1772,1,0,3,3,0,-2,-6,-3,8.86
1773,-1,-1,-2,6,2,0,5,3,8.865
1774,-2,-2,-1,-3,-3,-3,-12,-4,8.870000000000001
1775,3,-1,-2,-5,0,3,19,7,8.875
1776,-2,-1,-5,-3,-4,-1,-5,1,8.88
1777,9,-3,-4,-1,-2,-1,-4,-5,8.885
1778,-2,0,-3,1,1,0,11,6,8.89
1779,-3,-1,2,5,-2,-2,-3,-1,8.895
1780,-1,-1,1,-2,1,1,10,-1,8.9
1781,1,-1,-4,-2,-2,1,-1,0,8.905
1782,3,1,-4,1,-3,-2,-5,-5,8.91
1783,-2,-1,-3,0,1,-1,5,-1,8.915000000000001
1784,2,0,-2,-4,-2,0,-3,1,8.92
1785,-5,0,4,3,-2,-2,0,-3,8.925
1786,-3,-3,-4,1,0,-2,-8,0,8.93
1787,-1,-2,0,-2,-3,-1,-5,-3,8.935
1788,-1,1,4,-3,0,-2,-4,-4,8.94
1789,1,2,1,4,0,1,1,2,8.945
1790,-1,0,-4,-4,0,0,2,1,8.950000000000001
1791,-1,0,1,-3,-2,-3,-9,-4,8.955
1792,-2,0,1,2,2,-3,9,-2,8.96
1793,-4,-2,-4,-1,-3,-1,-3,1,8.965
1794,-7,-1,-4,-6,0,-1,0,0,8.97
1795,-3,0,-1,0,-1,1,0,-3,8.975
1796,0,2,-1,-6,-5,-3,-10,-1,8.98
1797,-7,-1,0,-2,-1,-2,1,-1,8.985
1798,5,0,4,-2,1,1,-2,0,8.99
1799,0,-1,-1,0,-1,-5,-9,-3,8.995000000000001
1800,-1,-2,-2,-3,-4,-2,-1,1,9.0
1801,1,0,-4,-5,0,0,4,1,9.005
1802,0,0,4,10,0,0,-4,-2,9.01
1803,-5,-3,-4,-8,-3,-2,0,-1,9.015
1804,-2,-2,-3,-1,-1,-1,0,-1,9.02
1805,1,0,2,0,-1,-2,-4,-1,9.025
1806,-3,-2,-2,-2,-1,-1,-3,-6,9.03
1807,-1,-1,0,11,-2,-1,-2,-3,9.035
1808,1,-1,-3,0,3,2,0,1,9.040000000000001
1809,-2,-1,3,0,-1,-1,1,-1,9.045
1810,-1,-3,-3,1,-1,-3,-2,2,9.05
1811,2,0,2,1,1,1,1,2,9.055
1812,2,-2,-4,-2,-2,-1,-7,-6,9.06
1813,-5,1,-1,-1,-1,0,10,-1,9.065
1814,3,1,2,-1,0,-2,-3,-1,9.07
1815,1,0,-3,-5,-1,0,8,4,9.075000000000001
1816,0,0,2,-1,0,0,-2,2,9.08
1817,3,0,0,0,-1,-2,-3,0,9.085
1818,-1,-3,-7,-6,-3,-1,0,-2,9.09
1819,0,-1,-3,-4,0,2,1,-3,9.095
1820,-3,-1,-3,-5,-4,-2,-2,-3,9.1
1821,0,-1,0,6,0,-4,-7,1,9.105
1822,-1,1,1,-8,-2,1,3,1,9.11
1823,-1,0,-7,-6,-2,-4,-10,-3,9.115
1824,0,1,2,5,2,2,12,5,9.120000000000001
1825,1,4,2,-4,-1,2,-1,-1,9.125
1826,-3,-4,-9,-2,-3,-1,-5,-2,9.13
1827,0,-2,-4,1,-3,-5,-7,-1,9.135
1828,0,-3,0,-7,-2,-2,-7,-6,9.14
1829,-11,-2,-3,1,-2,-4,1,0,9.145
1830,2,1,3,0,0,-3,-10,-7,9.15
1831,11,2,4,0,1,5,19,9,9.155
1832,-2,-2,0,7,0,-2,-6,-6,9.16
1833,1,-2,-7,-8,-1,-1,4,9,9.165000000000001
1834,1,1,5,6,-1,-2,-6,-4,9.17
1835,-7,-2,-2,-3,-1,-3,2,0,9.175
1836,2,-2,-1,-1,-1,0,3,3,9.18
1837,2,-1,-2,-1,-1,2,-6,-6,9.185
1838,-1,1,-2,-2,0,3,7,1,9.19
1839,1,3,7,2,-2,-4,-16,-4,9.195
1840,-2,0,-3,-1,0,1,4,1,9.200000000000001
1841,-1,-1,8,1,0,1,6,-3,9.205
1842,-3,-3,-8,-9,0,0,0,1,9.21
1843,-2,-2,-3,-3,-1,-1,0,-3,9.215
1844,-10,-1,-1,0,0,-2,-2,-1,9.22
1845,-2,-4,-6,-2,-2,-2,-9,-4,9.225
1846,1,0,3,0,2,0,6,3,9.23
1847,-3,-2,0,3,-1,-2,-9,-2,9.235
1848,1,0,-1,-3,-2,-3,-11,-6,9.24
1849,3,-3,-5,-2,-1,0,9,0,9.245000000000001
1850,-3,0,4,9,0,-1,-4,0,9.25
1851,-3,-2,-7,-8,1,0,-7,-6,9.255
1852,3,1,4,6,1,0,2,7,9.26
1853,-1,-2,1,-4,-2,-4,-6,-3,9.265
1854,0,-2,-7,-6,-1,3,5,3,9.27
1855,-6,-1,-1,1,-1,1,4,-3,9.275
1856,1,2,1,-1,2,2,-2,1,9.28
1857,-1,1,0,3,0,0,-2,-3,9.285
1858,1,1,3,2,0,-3,-1,3,9.290000000000001
1859,-3,-1,1,-1,-1,-2,-5,-3,9.295
1860,-1,-2,-5,-2,-1,-1,0,0,9.3
1861,0,-2,-1,-1,0,-1,-2,1,9.305
1862,1,2,-1,-3,-1,1,0,1,9.31
1863,-2,-2,0,2,0,0,1,2,9.315
1864,0,0,0,-2,-2,-1,2,0,9.32
1865,-1,2,2,4,3,-1,-4,-1,9.325000000000001
1866,1,-1,2,-1,-2,-4,-1,-1,9.33
1867,0,-3,-3,-2,-3,-1,-4,1,9.335
1868,0,2,-2,-2,0,0,-2,-2,9.34
1869,2,0,2,5,-1,-2,-4,-1,9.345
1870,-2,1,4,8,-1,0,0,1,9.35
1871,-1,0,-6,-28,-4,0,3,1,9.355
1872,-3,-2,-2,2,0,0,-1,-3,9.36
1873,-1,1,-7,-7,-4,-4,-5,-1,9.365
1874,1,0,2,5,0,-1,2,-1,9.370000000000001
1875,-3,-1,-2,6,0,2,8,-1,9.375
1876,0,0,2,-3,0,1,-4,3,9.38
1877,-1,-2,1,-2,-2,-1,3,-1,9.385
1878,7,0,0,-2,-1,-2,-1,0,9.39
1879,-11,-2,2,2,1,-1,-6,-3,9.395
1880,0,-2,-1,-5,-3,-5,0,-2,9.4
1881,-2,-5,-7,-2,-2,0,0,-1,9.405
1882,-3,-3,-4,-7,-3,-1,-2,-2,9.41
1883,6,-1,-2,5,0,-1,-4,-3,9.415000000000001
1884,-4,-1,-2,-4,-2,-2,1,-2,9.42
1885,-3,-2,-6,-3,-2,0,-5,-1,9.425
1886,-2,-1,-5,-6,-3,-2,2,1,9.43
1887,4,1,4,2,1,-3,-7,-1,9.435
1888,1,0,-2,1,-1,-2,0,-2,9.44
1889,1,1,1,-2,0,1,7,2,9.445
1890,-7,-1,1,1,0,0,-3,-3,9.450000000000001
1891,2,0,1,1,-2,1,-2,0,9.455
1892,-4,-2,-6,-6,-2,0,1,-1,9.46
1893,2,2,3,2,2,1,1,1,9.465
1894,-4,0,-2,0,-1,-1,-3,-5,9.47
1895,1,0,0,2,1,0,1,2,9.475
1896,9,0,5,2,-1,-3,-7,-6,9.48
1897,-4,0,0,-3,1,6,10,5,9.485
1898,0,-1,0,2,-1,0,0,-1,9.49
1899,-2,-2,-5,-4,-3,-4,-5,-3,9.495000000000001
1900,0,0,3,0,-2,1,-2,0,9.5
1901,-1,0,0,0,0,-4,-5,-3,9.505
1902,-6,0,2,2,-1,-3,-6,1,9.51
1903,-2,0,1,3,0,0,-4,-6,9.515
1904,-3,0,-2,0,0,-2,4,5,9.52
1905,0,-1,-1,-1,-2,-3,-5,-2,9.525
1906,-2,-3,-6,-4,-2,-1,1,-2,9.53
1907,0,0,0,3,-1,-2,-3,-3,9.535
1908,-5,-2,-6,-5,-1,2,1,3,9.540000000000001
1909,-4,0,0,0,0,0,6,-4,9.545
1910,2,-3,-4,-2,-2,-1,-5,-2,9.55
1911,-1,-2,0,0,-1,2,7,2,9.555
1912,0,2,7,6,2,1,-1,4,9.56
1913,6,0,-3,-3,-5,-4,-10,-5,9.565
1914,-4,0,0,-4,0,2,13,5,9.57
1915,1,-1,-3,0,-3,-2,2,-1,9.575000000000001
1916,-3,-2,1,1,0,0,1,0,9.58
1917,-4,-2,-2,-1,0,-2,-4,-4,9.585
1918,0,1,2,-2,-2,-2,-9,-4,9.59
1919,-2,-1,-1,0,-1,1,10,6,9.595
1920,0,-4,-9,-9,-5,-2,-3,-3,9.6
1921,-1,-3,0,-1,-1,0,-4,0,9.605
1922,0,0,0,-1,1,1,-4,-5,9.61
1923,-2,-1,1,-4,1,1,2,1,9.615
1924,-1,2,-1,0,-2,-2,-7,-3,9.620000000000001
1925,-3,-1,-4,0,-1,1,4,-1,9.625
1926,3,1,-1,1,1,-2,-1,5,9.63
1927,1,-2,1,-1,-1,0,-4,-1,9.635
1928,-2,-3,-2,-2,-2,-3,0,-3,9.64
1929,-2,1,2,2,0,3,-4,-1,9.645
1930,0,-1,0,-1,-2,-2,4,1,9.65
1931,11,1,-6,-9,-2,-1,-2,0,9.655
1932,-4,-1,-1,-1,-1,0,0,-3,9.66
1933,-2,0,4,4,-1,-1,-2,-3,9.665000000000001
1934,-2,-2,-1,0,-2,-4,-12,-7,9.67
1935,3,0,-4,1,0,3,22,9,9.675
1936,-1,0,2,0,-1,-3,-5,-3,9.68
1937,4,-1,-3,-2,1,-1,-2,0,9.685
1938,2,1,6,1,0,0,3,0,9.69
1939,-7,-5,-8,0,-2,-6,-11,-8,9.695
1940,0,-1,3,3,1,2,-1,0,9.700000000000001
1941,0,-3,-11,-5,-1,-1,3,1,9.705
1942,0,1,2,-2,0,-1,0,-1,9.71
1943,-2,1,5,-1,0,-3,-12,-4,9.715
1944,-2,-1,2,4,0,4,19,6,9.72
1945,-1,-3,1,-2,-3,-4,-7,-1,9.725
1946,-2,-3,-3,0,-1,0,3,-2,9.73
1947,-7,-2,-5,-1,-2,-4,-3,-1,9.735
1948,4,0,3,0,-1,-2,-5,-2,9.74
1949,-3,1,2,2,1,0,11,3,9.745000000000001
1950,-5,-3,-3,3,-1,-2,-6,-4,9.75
1951,0,0,4,0,2,4,6,3,9.755
1952,-3,0,-3,-4,2,-1,-9,-4,9.76
1953,1,-2,-5,-3,-6,-8,-8,-2,9.765
1954,1,0,-3,-5,2,6,18,7,9.77
1955,-1,1,5,9,0,0,0,-1,9.775
1956,-3,-1,2,1,-2,-2,-7,-3,9.78
1957,-1,-2,-4,-8,0,0,-4,-2,9.785
1958,2,0,-2,0,-3,-2,1,0,9.790000000000001
1959,-2,-1,0,-1,1,-2,-5,-4,9.795
1960,3,1,-1,-1,-1,1,5,1,9.8
1961,0,-1,2,0,0,2,2,0,9.805
1962,-1,-1,0,-2,-1,-2,-4,-1,9.81
1963,1,-2,-1,-4,1,2,-2,-3,9.815
1964,-6,-1,-4,-3,-3,-4,-1,0,9.82
1965,-8,2,1,2,-2,0,-3,0,9.825000000000001
1966,-4,-2,-4,-1,0,-2,-1,-5,9.83
1967,4,2,1,0,0,3,3,6,9.835
1968,-3,-5,-5,-2,2,0,0,0,9.84
1969,-1,1,8,5,2,0,2,0,9.845
1970,1,1,1,-2,-1,-2,-1,1,9.85
1971,-2,0,-5,-4,-3,-5,-17,-6,9.855
1972,2,-1,-1,-2,0,2,6,1,9.86
1973,4,-1,3,-1,1,1,3,2,9.865
1974,-5,-3,-3,2,0,-1,-7,-5,9.870000000000001
1975,1,1,2,1,-1,2,11,6,9.875
1976,-1,-2,0,1,-1,-2,-5,-3,9.88
1977,0,0,-2,-1,-2,-2,-5,-3,9.885
1978,0,0,0,2,0,-1,1,3,9.89
1979,-2,-1,-3,-2,0,-2,-4,-5,9.895
1980,-1,-2,0,-3,-3,-1,0,0,9.9
1981,2,0,-1,-1,-1,-2,0,-2,9.905
1982,0,-1,-3,-3,-3,0,0,0,9.91
1983,-1,-2,0,-2,0,1,2,-3,9.915000000000001
1984,0,-1,-6,3,-2,-2,-4,-3,9.92
1985,0,-1,0,1,-2,-2,-4,-1,9.925
1986,0,0,0,0,2,-2,-4,-1,9.93
1987,-2,-2,-1,-1,0,4,15,1,9.935
1988,-3,1,2,0,-1,-1,-1,1,9.94
1989,2,0,0,-1,1,0,-5,-3,9.945
1990,-1,-2,-5,-1,1,1,10,4,9.950000000000001
1991,2,-2,0,3,-1,-1,-4,-2,9.955
1992,2,2,0,-1,-2,-2,-7,-4,9.96
1993,-2,0,-3,0,-1,0,5,-2,9.965
1994,3,0,4,0,0,1,-3,0,9.97
1995,2,0,-2,1,0,-3,-8,-4,9.975
1996,0,-3,-2,-2,-1,0,6,3,9.98
1997,-1,-3,-1,-2,-1,-2,-9,-5,9.985
1998,0,-3,-3,-1,1,2,-4,-3,9.99
1999,-3,1,-1,-4,-3,-3,-1,0,9.995000000000001
2000,-2,-2,-1,0,-1,-1,-7,-4,10.0
2001,1,2,6,1,1,1,9,4,10.005
2002,0,-2,-8,-4,0,0,-3,0,10.01
2003,-3,-2,0,-2,-3,-4,-5,-4,10.015
2004,0,0,1,0,0,0,2,2,10.02
2005,1,1,0,0,1,1,-1,2,10.025
2006,0,1,-1,-5,-4,1,7,2,10.03
2007,-4,-2,-2,-2,-1,-2,-5,-4,10.035
2008,-5,-5,-5,-2,-1,-2,-2,-5,10.040000000000001
2009,0,1,1,0,-1,-3,-1,0,10.045
2010,-1,1,4,3,0,-2,1,0,10.05
2011,-3,-3,-5,-2,-2,-1,-5,-2,10.055
2012,4,1,4,-1,0,-1,4,2,10.06
2013,0,-2,-3,-2,-1,1,-5,-3,10.065
2014,-5,-4,-8,-7,-3,-2,-5,-6,10.07
2015,-2,2,6,6,2,-1,2,3,10.075000000000001
2016,-1,-1,-4,-2,0,2,1,0,10.08
2017,-4,-6,-5,-5,-4,-4,-10,-6,10.085
2018,-2,1,2,4,2,1,20,2,10.09
2019,1,2,1,-3,1,-1,-6,-2,10.095
2020,-1,-2,-2,1,0,1,5,2,10.1
2021,-9,-8,-7,-2,-2,-4,-5,-6,10.105
2022,-3,1,4,1,-2,-1,-5,-4,10.11
2023,12,5,3,0,0,1,1,7,10.115
2024,-3,-5,-8,-4,-3,-2,-4,-1,10.120000000000001
2025,4,10,5,-1,-1,-1,1,1,10.125
2026,4,1,3,2,1,0,-5,4,10.13
2027,4,7,6,3,2,2,-2,0,10.135
2028,-3,-1,-4,-4,-4,-2,8,5,10.14
2029,-4,-8,-3,8,-2,1,0,0,10.145
2030,-9,0,-5,-19,-1,-3,-9,-10,10.15
2031,-4,-6,-3,1,-2,0,-4,-6,10.155
2032,7,2,7,5,5,3,2,8,10.16
2033,-6,-6,-12,-6,-2,-1,3,-3,10.165000000000001
2034,11,11,6,12,1,1,3,12,10.17
2035,5,-3,8,20,3,0,-1,-2,10.175
2036,-6,7,-16,-39,-6,-5,-7,-2,10.18
2037,3,-1,8,11,0,1,2,3,10.185
2038,-5,-3,-7,-15,-3,-3,-8,-8,10.19
2039,-7,-10,-4,-5,-3,0,2,3,10.195
2040,0,3,3,18,1,-1,-3,-4,10.200000000000001
2041,3,7,7,-3,1,2,-3,-4,10.205
2042,0,-7,-2,7,2,-2,16,10,10.21
2043,6,0,1,-2,-5,-3,-2,1,10.215
2044,8,27,5,3,0,0,0,-3,10.22
2045,0,-22,-8,-6,2,3,14,7,10.225
2046,-14,-25,3,10,-1,-2,-10,-8,10.23
2047,-1,5,-1,-7,-2,0,6,4,10.235
2048,3,3,-2,-1,-3,-3,-5,-6,10.24
2049,7,12,8,7,2,-2,-2,2,10.245000000000001
2050,6,12,3,-8,-8,-4,-5,-1,10.25
2051,-19,-20,-13,0,3,-1,-5,-15,10.255
2052,-10,-15,2,-2,2,2,-1,0,10.26
2053,-5,6,2,-13,3,-2,-1,0,10.265
2054,14,0,4,4,5,3,-2,-2,10.27
2055,4,18,-3,-5,-10,-6,-3,2,10.275
2056,-8,-9,6,1,-4,-3,-2,-5,10.28
2057,-9,-6,-6,-4,17,7,-2,-7,10.285
2058,11,25,8,4,10,4,1,4,10.290000000000001
2059,1,7,-1,-3,2,-2,-2,-4,10.295
2060,-3,-28,-4,6,-5,-3,-3,-2,10.3
2061,21,36,-1,-2,-10,-3,4,8,10.305
2062,-5,-28,-19,-7,-6,-4,-6,-6,10.31
2063,-14,-26,-7,2,-2,-3,-4,4,10.315
2064,-3,-4,3,-7,-3,0,0,2,10.32
2065,9,0,-9,3,-4,-2,-2,2,10.325000000000001
2066,3,13,7,15,7,4,4,2,10.33
2067,7,-1,1,-5,-1,2,9,9,10.335
2068,-19,-22,-19,-11,-1,-1,-6,-16,10.34
2069,-15,-2,7,5,-16,-12,-5,-6,10.345
2070,18,21,-4,-8,23,7,0,3,10.35
2071,-27,-18,3,10,2,-1,0,-6,10.355
2072,35,33,14,14,12,14,9,13,10.36
2073,4,-3,4,1,-5,-2,-4,1,10.365
2074,-38,-31,-4,-2,-27,-12,-10,-12,10.370000000000001
2075,-2,23,-2,-11,-18,-6,1,-11,10.375
2076,7,2,2,11,11,2,0,7,10.38
2077,-28,-50,-14,1,-2,-1,-7,-13,10.385
2078,13,-1,8,23,7,5,6,8,10.39
2079,9,23,2,-17,1,5,0,2,10.395
2080,-13,-25,-17,-19,-17,-6,-5,-3,10.4
2081,-31,-24,-8,-5,0,-2,-8,-18,10.405
2082,20,17,10,-9,-5,-2,7,19,10.41
2083,0,0,1,-9,-3,0,0,-2,10.415000000000001
2084,-2,13,8,18,3,-1,5,8,10.42
2085,-16,-41,0,-12,-21,-13,-8,-8,10.425
2086,-54,-29,-3,8,-5,-6,-9,-21,10.43
2087,-2,10,-2,2,29,7,0,-1,10.435
2088,-9,-14,-5,-20,5,-1,-2,-1,10.44
2089,23,16,-6,0,31,10,6,10,10.445
2090,21,4,3,1,-41,-7,4,7,10.450000000000001
2091,24,14,-7,-9,4,-3,2,10,10.455
2092,-23,-17,8,7,3,-1,-6,-12,10.46
2093,-6,22,0,-1,-19,-12,-8,-7,10.465
2094,45,18,-23,-21,1,-1,-6,13,10.47
2095,20,-9,10,29,8,8,4,1,10.475
2096,-4,-2,-6,3,-5,1,2,-3,10.48
2097,10,18,11,-13,1,-1,0,0,10.485
2098,-17,5,-10,-15,-1,3,-3,-17,10.49
2099,-5,2,-10,-13,-4,0,-1,-3,10.495000000000001
2100,7,34,16,-7,-2,-1,2,1,10.5
2101,20,18,24,22,-9,4,11,16,10.505
2102,-71,-73,-9,-9,9,-3,-12,-23,10.51
2103,-1,8,-5,3,-5,-2,-5,-10,10.515
2104,39,30,0,0,12,5,-3,2,10.52
2105,-29,-14,-10,21,3,-1,-1,-9,10.525
2106,70,10,15,-2,9,6,14,41,10.53
2107,-92,-64,-20,-25,-6,-2,-9,-27,10.535
2108,-16,-36,-24,-13,-16,-6,4,6,10.540000000000001
2109,-47,4,-6,7,9,3,1,-5,10.545
2110,4,-1,-15,-26,-6,-4,2,-12,10.55
2111,40,92,31,22,1,-1,5,22,10.555
2112,31,-31,-8,14,2,8,-3,0,10.56
2113,22,-31,-33,-35,-17,-5,9,22,10.565
2114,-61,-29,4,20,17,2,-11,-31,10.57
2115,27,67,24,5,5,6,6,5,10.575000000000001
2116,13,8,19,27,-12,-5,1,24,10.58
2117,30,27,0,-21,28,17,15,16,10.585
2118,-12,2,-15,-45,12,3,-8,-13,10.59
2119,21,1,3,26,-4,-2,1,7,10.595
2120,-9,6,14,-16,21,7,-11,-25,10.6
2121,31,49,0,-4,-92,-24,-12,0,10.605
2122,-14,-7,-11,11,38,1,8,10,10.61
2123,-36,-87,-3,20,49,21,0,-9,10.615
2124,-2,26,-8,7,-15,-14,2,9,10.620000000000001
2125,-5,4,6,-12,32,17,-2,-35,10.625
2126,16,-6,23,10,-51,-23,-13,6,10.63
2127,41,-4,13,-39,-35,-10,3,28,10.635
2128,16,-8,15,22,6,-3,3,-16,10.64
2129,36,46,24,-1,4,0,7,35,10.645
2130,35,4,26,39,2,8,10,3,10.65
2131,12,-9,-21,12,3,-4,-12,-18,10.655
2132,-22,-34,-18,-51,-25,-11,-12,-7,10.66
2133,31,49,-6,19,57,18,9,6,10.665000000000001
2134,-5,-22,-17,11,-11,7,4,-9,10.67
2135,33,16,-7,10,-5,-5,7,17,10.675
2136,-25,-84,4,14,6,1,-9,-18,10.68
2137,8,-7,-21,-38,20,1,3,6,10.685
2138,28,35,24,41,5,1,1,20,10.69
2139,-48,-3,-31,-49,-26,-5,-3,-7,10.695
2140,25,52,8,9,-15,-12,6,27,10.700000000000001
2141,-9,-17,4,19,-7,-2,-12,-21,10.705
2142,29,54,4,-10,-32,-14,3,19,10.71
2143,-29,-32,4,-4,17,5,2,-6,10.715
2144,-7,74,19,18,0,-3,-13,-50,10.72
2145,-24,-38,-52,-16,-9,0,4,17,10.725
2146,8,24,-14,-36,-12,-10,1,11,10.73
2147,-23,-16,4,24,-10,-5,-12,-14,10.735
2148,9,-26,-11,-42,14,7,13,10,10.74
2149,-50,-50,-17,2,-10,-13,-23,-44,10.745000000000001
2150,-15,-14,-12,6,1,8,1,-2,10.75
2151,-5,-9,-9,9,-33,-9,2,-4,10.755
2152,41,38,6,24,57,7,4,14,10.76
2153,30,25,30,19,11,16,15,7,10.765
2154,44,-15,2,1,3,-8,2,31,10.77
2155,-31,-14,-18,-25,-13,-14,-18,-31,10.775
2156,6,27,4,-9,-20,-3,-3,4,10.78
2157,-16,-20,9,10,-6,-8,-2,2,10.785
2158,-27,19,14,15,25,11,3,-20,10.790000000000001
2159,37,12,5,7,-6,2,9,35,10.795
2160,-28,3,-10,-5,-14,-9,-13,-40,10.8
2161,-5,-9,5,5,10,4,3,19,10.805
2162,-24,-14,-6,-17,-15,-7,-10,-26,10.81
2163,18,28,13,9,6,-12,-13,17,10.815
2164,-8,-16,-9,-2,10,14,24,29,10.82
2165,2,-2,17,13,4,1,-13,-31,10.825000000000001
2166,-3,10,-28,-10,0,7,11,13,10.83
2167,-11,-19,-11,-17,-2,-1,18,-2,10.835
2168,-3,-1,-5,10,-4,1,-3,7,10.84
2169,16,2,15,1,-4,0,0,-4,10.845
2170,-30,-18,-6,-3,5,-1,-15,-24,10.85
2171,11,1,6,7,13,3,-4,-6,10.855
2172,-17,-23,-27,-16,-19,-1,4,-3,10.86
2173,13,18,5,-1,-22,-9,-5,6,10.865
2174,6,-10,2,11,54,17,4,6,10.870000000000001
2175,3,-4,-1,-1,7,5,6,7,10.875
2176,-10,3,-2,-7,-16,-14,-19,-24,10.88
2177,-22,-18,-12,1,-9,-2,7,10,10.885
2178,14,22,1,-2,-16,-5,6,-1,10.89
2179,24,10,9,-8,-1,-5,8,13,10.895
2180,-47,-33,9,18,5,5,-12,-8,10.9
2181,0,-5,-6,-10,-1,-7,-16,-7,10.905
2182,-23,-13,-10,-30,-20,-8,5,-15,10.91
2183,0,-2,11,-4,2,2,-8,-2,10.915000000000001
2184,4,8,10,1,-1,1,0,1,10.92
2185,6,-3,7,6,4,3,23,29,10.925
2186,-9,-1,1,14,-8,-4,-18,-11,10.93
2187,-5,-5,-7,-12,-3,-1,-1,-8,10.935
2188,10,0,-14,-7,-2,-4,0,6,10.94
2189,-8,-11,-5,0,-12,-7,-10,-10,10.945
2190,8,14,3,8,31,5,4,11,10.950000000000001
2191,-4,-4,-2,12,-9,-5,-3,-10,10.955
2192,1,-1,3,-1,5,4,6,7,10.96
2193,-5,-1,1,-2,-2,-2,-2,-13,10.965
2194,-12,8,21,0,-16,-9,-23,-10,10.97
2195,12,4,7,4,6,9,27,-8,10.975
2196,8,12,-3,2,1,-6,-11,24,10.98
2197,-2,7,2,-7,-3,-2,20,13,10.985
2198,12,-6,5,1,-3,2,-10,-10,10.99
2199,-8,-10,-9,0,2,-2,-4,-5,10.995000000000001
2200,7,0,-1,-5,-6,1,3,1,11.0
2201,3,5,1,-1,5,1,-8,-6,11.005
2202,-2,1,-5,1,-5,-4,1,12,11.01
2203,-4,-6,-10,-13,-9,-5,-12,-18,11.015
2204,-5,-2,-6,-3,-4,-2,3,-7,11.02
2205,2,-6,-5,-11,5,-1,-6,5,11.025
2206,-1,1,4,5,9,2,5,-6,11.03
2207,-7,-6,-3,1,-11,-4,-6,0,11.035
2208,-2,1,2,4,9,2,3,1,11.040000000000001
2209,-12,-9,2,2,-7,-3,-1,-1,11.045
2210,5,-4,-2,-5,-7,2,2,-3,11.05
2211,-7,-2,-4,-5,2,1,-2,-4,11.055
2212,18,9,0,6,-7,-7,-5,17,11.06
2213,-19,-16,-12,-5,-1,-1,-8,-19,11.065
2214,-6,4,1,-2,-3,6,2,-32,11.07
2215,11,2,4,6,6,6,53,77,11.075000000000001
2216,0,-6,2,-1,-3,-2,-7,-9,11.08
2217,1,0,-3,-4,1,-3,-8,6,11.085
2218,-7,1,3,-9,-4,-5,-13,-8,11.09
2219,-6,-1,0,-3,-2,-5,-18,-25,11.095
2220,-4,-7,-8,-4,-7,-4,2,-7,11.1
2221,4,2,1,2,-4,-2,2,-2,11.105
2222,-7,-6,-3,-3,9,-3,-4,-1,11.11
2223,2,6,3,3,-1,3,-4,-4,11.115
2224,2,2,-8,-16,-5,-2,3,4,11.120000000000001
2225,1,-6,1,4,-6,-4,-12,-8,11.125
2226,1,5,0,2,-8,-5,3,6,11.13
2227,-16,-12,-17,-16,1,-2,-13,-15,11.135
2228,17,10,-3,2,0,1,6,7,11.14
2229,-15,-15,3,-4,-2,1,5,0,11.145
2230,4,3,4,7,-2,1,2,13,11.15
2231,-9,-2,0,3,2,0,1,-13,11.155
2232,-9,-3,8,8,2,3,-1,-13,11.16
2233,7,4,-4,-8,5,-1,10,14,11.165000000000001
2234,1,-4,-1,-1,-2,-2,3,11,11.17
2235,2,-1,2,2,-1,-4,-11,-7,11.175
2236,-6,-5,1,-3,-1,1,1,-7,11.18
2237,2,2,2,7,1,-2,-8,-6,11.185
2238,-6,-6,-6,-4,-6,-2,-3,-4,11.19
2239,5,3,5,0,-2,-2,-4,-3,11.195
2240,1,-6,-10,-6,3,0,0,0,11.200000000000001
2241,-1,2,0,3,7,1,-1,-2,11.205
2242,-1,-4,-4,-5,-6,-4,-1,1,11.21
2243,2,2,2,0,3,4,7,-1,11.215
2244,-5,-1,5,2,3,-2,-9,-3,11.22
2245,0,-4,-6,2,2,5,16,2,11.225
2246,-12,-3,-9,-1,-4,-4,4,-2,11.23
2247,3,0,-1,4,1,5,5,9,11.235
2248,-3,-4,-2,1,1,3,5,3,11.24
2249,2,5,4,4,-2,-3,-7,-6,11.245000000000001
2250,2,0,-1,-1,1,1,-13,-6,11.25
2251,2,-4,-3,-3,-4,-8,-18,-6,11.255
2252,-4,-4,-1,2,2,9,31,13,11.26
2253,4,0,3,-2,-2,-2,-16,-9,11.265
2254,6,0,-1,-6,-2,-1,5,3,11.27
2255,-1,-3,-2,-8,-2,-4,-20,-16,11.275
2256,6,2,-3,-2,1,-4,-10,2,11.28
2257,-1,-1,-10,2,0,3,24,6,11.285
2258,-1,1,3,1,0,-3,-10,-8,11.290000000000001
2259,4,1,-5,-11,-3,-2,3,8,11.295
2260,-5,-6,-2,1,-1,-3,-2,-5,11.3
2261,1,2,4,0,2,0,-12,2,11.305
2262,-1,4,5,23,2,-1,9,-1,11.31
2263,-2,0,0,-7,2,-2,-8,-4,11.315
2264,-8,-8,-22,-30,-9,0,8,-5,11.32
2265,-9,3,6,-10,-4,-4,-17,-1,11.325000000000001
2266,-4,-6,-4,4,-8,-3,11,4,11.33
2267,-6,0,-2,23,-1,-3,-7,-4,11.335
2268,2,0,6,16,0,4,3,-2,11.34
2269,1,0,4,-4,-2,-2,2,-1,11.345
2270,-1,-1,0,-1,-4,-2,-9,-3,11.35
2271,-5,-2,1,7,4,4,17,12,11.355
2272,-4,-1,-3,-16,-2,-4,-12,-9,11.36
2273,1,0,-3,5,0,-2,-7,-4,11.365
2274,5,2,1,-3,0,1,9,10,11.370000000000001
2275,-3,-1,4,-4,-2,-2,-12,-10,11.375
2276,-2,2,4,-2,-1,-3,-3,-2,11.38
2277,-1,-2,-2,2,-1,0,-2,6,11.385
2278,2,1,-6,-44,0,5,3,-2,11.39
2279,-2,-3,-6,45,7,3,9,1,11.395
2280,-6,2,10,-25,-13,-10,-9,-1,11.4
2281,-4,-6,-5,16,-2,-3,-9,-5,11.405
2282,-1,-1,0,16,5,1,-3,-3,11.41
2283,2,0,-5,2,-2,-1,7,0,11.415000000000001
2284,3,1,-1,-24,1,-1,-3,1,11.42
2285,1,0,5,17,5,3,16,-4,11.425
2286,4,2,7,-2,-2,-1,0,2,11.43
2287,-3,-1,0,-3,2,-1,-11,-9,11.435
2288,0,-1,5,37,1,-2,3,11,11.44
2289,2,2,3,4,8,5,5,1,11.445
2290,0,0,-5,-35,-8,-1,-16,1,11.450000000000001
2291,0,-2,-7,-24,-4,4,48,13,11.455
2292,1,3,3,1,5,2,-10,-3,11.46
2293,-2,-3,-2,15,1,-2,-3,-4,11.465
2294,0,-3,-4,15,5,0,-7,-2,11.47
2295,1,2,8,-8,-5,-4,-12,-7,11.475
2296,-4,-5,-1,17,4,3,0,-4,11.48
2297,7,2,-10,-38,-7,-4,-1,2,11.485
2298,-4,-3,-4,25,2,-1,2,0,11.49
2299,-4,-2,3,-5,-1,-3,-12,-4,11.495000000000001
2300,-3,-2,-4,19,-1,3,11,0,11.5
2301,-2,0,6,12,2,-1,-6,-7,11.505
2302,-2,-5,-7,8,1,-4,-4,4,11.51
2303,1,2,0,-34,-6,0,5,-2,11.515
2304,0,4,8,12,2,1,-7,2,11.52
2305,1,-2,-14,-25,-3,0,3,0,11.525
2306,-6,-2,-3,3,-4,-2,1,-6,11.53
2307,2,0,-1,6,5,3,-6,3,11.535
2308,4,-2,-2,-6,0,1,-3,2,11.540000000000001
2309,1,3,1,-10,-6,0,12,13,11.545
2310,-7,0,9,-8,-2,-4,-1,-5,11.55
2311,0,1,0,-11,-9,-3,-14,-2,11.555
2312,-2,-2,-11,-10,2,-1,-7,-5,11.56
2313,-2,-2,7,13,2,1,-3,-6,11.565
2314,3,2,-3,-4,0,1,3,4,11.57
2315,-1,-3,2,11,2,-2,-3,0,11.575000000000001
2316,-1,-1,3,1,-2,-1,2,0,11.58
2317,-1,-2,-6,-8,-5,-3,-4,-3,11.585
2318,1,-2,5,9,1,1,5,0,11.59
2319,1,0,-3,3,3,2,-1,1,11.595
2320,-5,-5,-10,-17,-8,-5,-5,-5,11.6
2321,2,3,4,-5,2,3,1,2,11.605
2322,-4,-4,-7,-3,0,-1,-2,-1,11.61
2323,-2,0,3,15,1,-6,-12,-4,11.615
2324,0,-1,-6,-17,-2,6,11,6,11.620000000000001
2325,-3,-3,-7,-5,-7,-9,-13,-9,11.625
2326,3,1,6,1,0,6,20,13,11.63
2327,-2,-2,-8,-11,-4,-5,-9,-4,11.635
2328,1,1,-1,4,2,1,2,-2,11.64
2329,3,0,2,2,0,0,0,-4,11.645
2330,-4,-1,0,0,-3,-2,-5,-4,11.65
2331,-1,-2,1,6,0,-1,1,2,11.655
2332,-10,-1,-4,-1,-3,-2,0,-3,11.66
2333,-1,-3,-1,-1,-1,-1,-2,-5,11.665000000000001
2334,4,3,-2,-5,0,1,7,2,11.67
2335,-1,-2,-3,1,-2,1,2,1,11.675
2336,2,-1,11,11,1,-2,-5,-2,11.68
2337,-3,-2,-3,5,0,-4,-15,-6,11.685
2338,-4,-6,-17,-12,-5,-2,18,9,11.69
2339,-1,-1,0,-6,-1,-1,-6,-2,11.695
2340,1,0,4,0,-1,-2,-4,-5,11.700000000000001
2341,0,1,-1,-2,0,0,4,10,11.705
2342,1,0,10,6,2,0,-5,-5,11.71
2343,-2,1,-6,-6,0,2,1,0,11.715
2344,-1,-1,0,5,-1,-2,-6,-3,11.72
2345,-2,-1,-4,-11,-2,1,7,2,11.725
2346,-3,0,7,10,1,0,-8,-6,11.73
2347,1,2,-1,-2,1,0,4,2,11.735
2348,0,0,-6,0,-2,-1,-3,3,11.74
2349,-1,-3,4,11,1,1,5,-3,11.745000000000001
2350,8,4,3,-15,-1,-4,-9,-1,11.75
2351,-5,-7,-14,-14,-7,-4,-3,-6,11.755
2352,0,-1,1,1,0,-2,-3,-1,11.76
2353,-2,-2,-7,-2,-5,-1,1,-4,11.765
2354,1,-1,-4,1,4,3,-1,3,11.77
2355,0,-1,4,2,-2,-4,-11,-3,11.775
2356,2,1,-1,0,2,0,5,2,11.78
2357,0,0,3,1,2,1,2,1,11.785
2358,-1,0,-3,0,-1,0,-5,-6,11.790000000000001
2359,10,1,1,3,0,2,-1,4,11.795
2360,-7,-4,-5,-12,-4,-1,6,1,11.8
2361,0,0,7,11,4,3,-3,-2,11.805
2362,0,1,-3,-13,-2,-3,-3,-2,11.81
2363,-3,-3,-5,10,-3,1,-3,-3,11.815
2364,4,0,-2,-3,0,0,14,1,11.82
2365,0,2,4,4,0,-4,-6,1,11.825000000000001
2366,-2,-4,-12,-7,-1,0,3,-1,11.83
2367,-1,-1,1,1,2,0,2,-1,11.835
2368,-2,0,-2,1,0,-4,-7,-3,11.84
2369,5,0,0,-7,-4,-3,2,2,11.845
2370,0,0,2,4,0,-3,-4,-1,11.85
2371,-4,0,-1,0,3,-3,-6,-3,11.855
2372,0,-1,1,2,-3,2,5,2,11.86
2373,3,-2,-2,3,1,-1,-2,-1,11.865
2374,-2,0,-6,-17,-5,0,-1,-1,11.870000000000001
2375,-1,-1,1,-3,2,1,-1,-3,11.875
2376,0,3,5,4,-1,-3,-1,5,11.88
2377,-4,-1,-7,-2,-3,-1,-4,-1,11.885
2378,-1,-1,1,7,-1,-2,-5,-1,11.89
2379,-1,-1,3,6,1,1,8,5,11.895
2380,1,-1,-4,-6,2,1,-8,-5,11.9
2381,-6,-1,3,9,-1,-1,2,2,11.905
2382,0,-1,2,9,3,1,-6,-4,11.91
2383,0,-2,2,-9,-2,0,5,0,11.915000000000001
2384,-1,-3,-4,2,-1,-2,-5,-3,11.92
2385,-1,2,-2,-13,-1,-2,-3,-3,11.925
2386,-1,1,-1,4,0,0,1,-1,11.93
2387,1,1,7,7,0,0,3,2,11.935
2388,-1,2,-1,2,3,-1,-9,-4,11.94
2389,2,0,0,-1,1,3,15,5,11.945
2390,-2,-1,1,7,-2,-1,1,3,11.950000000000001
2391,-4,4,1,-17,0,1,9,-1,11.955
2392,-5,-3,-1,2,0,3,-5,1,11.96
2393,-1,-1,-3,-4,-3,-8,-16,-8,11.965
2394,-3,-4,-5,1,2,2,20,6,11.97
2395,-1,-2,-3,2,-1,-1,-7,-3,11.975
2396,-2,-3,-4,1,-2,-4,7,-2,11.98
2397,-1,-1,0,-1,1,0,-1,-2,11.985
2398,2,-1,3,-1,-3,-2,-9,-4,11.99
2399,-2,-2,0,14,-1,-3,-1,-4,11.995000000000001
2400,0,1,-2,-20,-2,1,2,0,12.0
2401,-3,-2,-3,-2,-1,1,0,1,12.005
2402,-3,1,-1,-8,-2,-2,-6,-4,12.01
2403,0,0,-1,6,-1,0,0,0,12.015
2404,-1,-1,0,-14,-4,-3,1,-1,12.02
2405,-2,-4,-3,-5,-1,-2,-7,-4,12.025
2406,0,0,-5,-1,-2,1,18,2,12.030000000000001
2407,-3,-1,1,-1,-1,-1,-8,-4,12.035
2408,5,1,-8,-1,-7,-4,-5,2,12.040000000000001
2409,-2,-2,-1,-3,-2,-2,-4,-1,12.045
2410,-1,-2,3,-1,-2,1,0,0,12.05
2411,0,-2,-3,1,-3,-5,2,0,12.055
2412,-4,0,-4,6,-1,1,1,3,12.06
2413,0,0,-2,-2,2,0,0,0,12.065
2414,-1,2,0,0,2,0,-6,-2,12.07
2415,-1,-4,-1,-4,-1,-2,-3,-1,12.075000000000001
2416,2,0,7,14,4,3,3,0,12.08
2417,-12,-1,-3,-10,-1,-2,-1,-1,12.085
2418,-2,-1,2,4,-1,-1,-4,-5,12.09
2419,1,1,2,-2,0,2,-5,3,12.095
2420,-1,0,-2,3,2,-2,-4,-4,12.1
2421,6,2,4,3,-4,2,15,5,12.105
2422,0,-5,-6,-3,0,-2,-10,-6,12.11
2423,-4,-1,-3,-2,-4,0,0,1,12.115
2424,2,-1,5,7,0,-3,-6,-5,12.120000000000001
2425,1,0,4,2,1,-4,-12,-3,12.125
2426,-6,-2,-5,-2,-1,-2,1,2,12.13
2427,2,-1,-1,-1,-1,1,3,-1,12.135
2428,-3,-3,2,-1,-2,-2,-7,-4,12.14
2429,2,-1,-3,-2,2,5,10,3,12.145
2430,3,2,0,-2,-1,3,4,1,12.15
2431,-1,-1,-1,1,-2,-4,-5,-2,12.155000000000001
2432,-3,-1,-2,6,-2,1,4,-1,12.16
2433,-2,-1,-2,-14,-2,-1,-4,-3,12.165000000000001
2434,4,0,-5,-3,-1,0,5,2,12.17
2435,-2,0,-6,-4,-1,-3,-4,-1,12.175
2436,-2,0,10,0,-2,2,7,3,12.18
2437,0,0,-5,6,-1,-2,-2,-1,12.185
2438,-9,-3,-1,-2,-3,-6,-8,-2,12.19
2439,-1,-2,-6,-3,0,2,7,-2,12.195
2440,0,-2,-4,-3,2,-1,0,0,12.200000000000001
2441,-7,-4,-1,3,0,1,2,-2,12.205
2442,3,1,2,-2,-1,-2,-2,-1,12.21
2443,1,2,4,8,4,1,4,0,12.215
2444,-3,-2,-5,-12,-2,-2,-3,-2,12.22
2445,3,1,2,5,-2,1,1,-1,12.225
2446,1,-1,-1,2,2,-1,-9,-3,12.23
2447,-2,-3,-1,-7,-1,0,3,2,12.235
2448,1,-2,-7,0,1,0,0,1,12.24
2449,0,-1,0,2,-1,-3,0,0,12.245000000000001
2450,0,-2,-2,-1,-2,2,1,0,12.25
2451,-1,-1,1,1,-2,-6,-14,-7,12.255
2452,1,-2,2,-2,2,2,15,3,12.26
2453,1,-1,-1,-3,0,-1,-4,2,12.265
2454,-1,0,3,0,-4,-1,2,-2,12.27
2455,4,0,-6,-2,4,6,9,7,12.275
2456,-3,-2,-2,-2,-4,-5,-10,-6,12.280000000000001
2457,6,1,3,5,1,-2,-2,-1,12.285
2458,0,-1,1,4,1,2,13,4,12.290000000000001
2459,-7,-3,-6,-7,-4,-9,-8,-4,12.295
2460,-2,0,2,8,3,2,-5,1,12.3
2461,2,2,3,-3,-1,3,5,-1,12.305
2462,0,-1,4,5,-1,-4,-10,-4,12.31
2463,2,1,6,3,-1,-1,1,1,12.315
2464,0,2,-1,0,-2,-1,-3,-2,12.32
2465,-4,-1,-6,-7,-3,-1,4,0,12.325000000000001
2466,0,0,-1,3,0,-3,-7,-1,12.33
2467,-2,-1,2,-2,-1,-1,3,-1,12.335
2468,1,-1,4,-1,0,0,-5,-2,12.34
2469,1,-3,-5,2,-1,-2,1,2,12.345
2470,-2,-3,-3,-4,-1,-2,-8,-4,12.35
2471,0,-1,-1,-3,-1,4,16,5,12.355
2472,-1,-2,-4,-1,0,-1,-6,-3,12.36
2473,4,0,1,2,-1,-3,-10,-5,12.365
2474,-1,-1,-4,2,3,1,-1,2,12.370000000000001
2475,1,1,4,-4,-1,-3,-4,0,12.375
2476,-2,-5,-12,-2,-3,-3,3,-3,12.38
2477,-2,0,1,0,0,0,7,2,12.385
2478,12,1,1,3,-2,-4,-3,1,12.39
2479,-7,-1,1,-6,-1,0,-6,-4,12.395
2480,0,0,1,-2,-1,-1,0,-2,12.4
2481,0,-1,0,1,1,2,3,4,12.405000000000001
2482,-5,0,5,2,0,-3,-7,-5,12.41
2483,10,1,-8,3,1,3,5,6,12.415000000000001
2484,1,-1,5,4,-4,-3,-8,-1,12.42
2485,-4,-2,-10,0,-2,-2,-3,-2,12.425
2486,-3,-1,1,-5,-2,-4,-5,-1,12.43
2487,0,1,4,5,1,3,7,0,12.435
2488,-3,1,1,0,-1,1,-1,4,12.44
2489,2,-3,-6,-2,-2,-1,3,-3,12.445
2490,-5,-2,1,-6,0,2,1,1,12.450000000000001
2491,-5,-5,-4,-5,-3,-4,-14,-9,12.455
2492,2,-1,-3,-5,-3,0,4,0,12.46
2493,-3,0,1,2,-1,-1,-3,-4,12.465
2494,2,0,-2,-4,-2,0,5,1,12.47
2495,-2,-2,-2,8,-2,-7,-4,-1,12.475
2496,0,0,1,-9,0,1,3,2,12.48
2497,-1,-3,-2,-3,-2,-3,-10,-5,12.485
2498,-13,-4,-5,-2,0,1,6,-1,12.49
2499,-1,-1,-1,-1,0,0,-7,-4,12.495000000000001
2500,2,-1,-2,3,-2,-3,-1,-2,12.5
2501,-2,-1,0,-2,-1,-1,-1,-1,12.505
2502,3,-2,-7,-5,-4,-2,-7,-3,12.51
2503,0,1,4,0,0,0,3,1,12.515
2504,-4,-1,-3,4,0,0,-2,-2,12.52
2505,-3,-1,5,0,0,2,0,-1,12.525
2506,2,2,-4,0,0,0,3,4,12.530000000000001
2507,-1,-2,-6,-7,-5,-2,0,-3,12.535
2508,-4,0,3,0,1,0,-1,-1,12.540000000000001
2509,1,2,1,0,1,2,12,4,12.545
2510,1,0,4,0,-2,-7,-4,-2,12.55
2511,0,0,-2,3,1,2,0,2,12.555
2512,-1,-3,-1,-8,-1,-1,1,3,12.56
2513,-1,-1,-1,1,-1,-2,-7,-3,12.565
2514,-1,0,-1,-1,1,2,7,6,12.57
2515,-2,-4,-2,-5,-4,-4,-4,-4,12.575000000000001
2516,13,2,3,3,3,-1,-5,-2,12.58
2517,-10,-1,1,2,2,0,5,2,12.585
2518,3,-2,-4,-2,-1,0,1,0,12.59
2519,-1,0,-5,-5,-1,-2,-2,-2,12.595
2520,1,-1,1,4,-1,-1,-1,-2,12.6
2521,3,-1,-4,-7,-1,0,-1,0,12.605
2522,-5,-1,4,5,0,-2,0,-8,12.61
2523,2,-1,0,-1,0,0,-1,4,12.615
2524,-4,-1,3,2,-2,-2,-1,-4,12.620000000000001
2525,0,1,-2,-4,0,-5,-5,0,12.625
2526,-2,1,0,-3,-2,4,1,1,12.63
2527,-1,-3,-4,-2,-1,0,-4,-2,12.635
2528,-3,1,0,0,-3,-1,-1,-3,12.64
2529,2,-2,1,1,0,0,-7,-4,12.645
2530,2,-1,2,0,0,0,2,2,12.65
2531,1,-1,2,1,-1,-1,2,0,12.655000000000001
2532,0,-1,-6,-3,-2,-1,-1,1,12.66
2533,-3,-2,-2,0,0,1,-5,-4,12.665000000000001
2534,0,1,3,-2,-2,-1,-4,-3,12.67
2535,4,1,2,2,0,-1,-3,0,12.675
2536,-7,-4,-4,-1,0,1,4,1,12.68
2537,-1,-3,-3,8,0,-1,-4,1,12.685
2538,-2,-1,2,-1,-2,0,-3,-3,12.69
2539,0,-1,-2,-9,0,1,3,-1,12.695
2540,0,2,-1,-1,-2,-2,7,0,12.700000000000001
2541,0,-1,-4,-4,-3,-4,0,0,12.705
2542,-1,-3,-2,4,0,-3,-11,-6,12.71
2543,-3,-2,3,4,2,2,12,3,12.715
2544,1,-1,0,-2,-3,-5,-12,-5,12.72
2545,-4,0,-2,-2,-2,-1,2,0,12.725
2546,-1,-1,-2,-2,-2,0,-2,-2,12.73
2547,0,1,0,-2,0,3,1,3,12.735
2548,-1,0,-3,-2,0,0,0,1,12.74
2549,1,0,-2,-2,-3,-1,1,0,12.745000000000001
2550,-1,-1,-4,-4,-1,1,-3,-1,12.75
2551,6,-1,0,-2,-4,-2,-6,-5,12.755
2552,-5,-3,-1,-1,-1,-2,1,-1,12.76
2553,2,1,2,0,0,2,-2,-1,12.765
2554,0,0,2,5,1,1,2,1,12.77
2555,-1,1,-9,-9,-2,-4,-4,-2,12.775
2556,1,0,1,2,0,-1,-1,0,12.780000000000001
2557,-1,-2,0,-4,-2,1,4,-2,12.785
2558,2,-1,-1,-2,0,0,1,2,12.790000000000001
2559,0,2,7,7,2,-1,-4,2,12.795
2560,-1,-3,-6,-4,-1,-1,-7,-4,12.8
2561,-2,1,1,0,-2,-1,-2,1,12.805
2562,-1,-1,-3,-1,-5,-7,-9,-3,12.81
2563,-3,-2,-2,-4,2,2,5,0,12.815
2564,0,1,0,2,1,1,1,3,12.82
2565,0,-2,2,1,0,0,-4,-4,12.825000000000001
2566,-1,0,-3,-2,-1,-1,2,1,12.83
2567,-5,0,-2,2,-1,-3,-5,-6,12.835
2568,1,-1,-1,0,-1,-1,1,1,12.84
2569,8,1,1,-2,0,0,-1,-3,12.845
2570,-7,-2,-4,-2,0,-1,1,4,12.85
2571,0,-3,0,5,0,1,4,4,12.855
2572,-3,-2,-3,-6,-4,1,0,-2,12.86
2573,-1,-2,-6,0,1,0,-2,1,12.865
2574,1,-2,-6,-5,-5,-1,0,-3,12.870000000000001
2575,-3,-1,2,2,0,-1,-5,-4,12.875
2576,1,0,5,4,0,2,0,0,12.88
2577,-5,0,-3,-6,-4,-4,-8,-1,12.885
2578,0,-1,0,-2,1,3,12,0,12.89
2579,-2,0,-3,-1,-3,-7,-9,-5,12.895
2580,2,0,2,0,2,3,13,7,12.9
2581,-2,-2,2,-1,0,1,4,0,12.905000000000001
2582,-1,1,3,-1,1,-2,-3,1,12.91
2583,1,-3,-5,-3,-1,0,1,-1,12.915000000000001
2584,-5,0,-1,-1,-2,-1,-2,-4,12.92
2585,1,-1,3,5,-1,-2,0,0,12.925
2586,0,-1,-6,-13,-1,0,-1,-3,12.93
2587,7,1,1,1,0,0,1,0,12.935
2588,-9,-2,-3,-3,-1,-2,-4,-2,12.94
2589,-2,1,3,2,-1,0,4,4,12.945
2590,-2,-3,-3,5,1,-2,-2,-3,12.950000000000001
2591,-1,-1,-1,-2,-3,0,1,-2,12.955
2592,-1,-2,-9,-9,-3,-5,-9,4,12.96
2593,-1,-1,4,9,1,3,12,1,12.965
2594,-1,-1,-3,-12,-4,-4,-13,-1,12.97
2595,-4,-2,2,-1,0,-1,10,1,12.975
2596,3,2,4,5,1,1,-9,-2,12.98
2597,-2,-2,-2,-1,2,-1,-1,-1,12.985
2598,-1,0,-5,-6,-3,1,1,2,12.99
2599,-4,-2,-4,2,1,1,-6,-2,12.995000000000001
2600,-6,-6,0,-1,-2,0,-8,-5,13.0
2601,-1,-2,-6,1,1,-4,0,0,13.005
2602,2,0,9,8,2,1,-1,-3,13.01
2603,-5,0,1,-2,-3,-3,-3,0,13.015
2604,5,5,3,1,-1,1,3,3,13.02
2605,-3,-2,-5,-7,-1,-1,-5,-3,13.025
2606,-1,-1,0,3,0,-1,4,-2,13.030000000000001
2607,-9,0,-1,-2,0,-1,-4,-1,13.035
2608,-3,-3,-1,-1,-2,-3,7,-1,13.040000000000001
2609,-1,-3,-7,-7,-5,-1,-5,-2,13.045
2610,-1,0,0,2,0,-1,3,0,13.05
2611,1,-5,-8,0,-1,0,-2,-3,13.055
2612,5,3,4,9,0,-4,-3,0,13.06
2613,-3,0,3,-12,-1,-2,-4,-2,13.065
2614,-1,-1,0,1,1,-2,-6,-3,13.07
2615,1,-1,0,-2,-1,0,2,4,13.075000000000001
2616,1,-1,-6,-1,0,1,1,-1,13.08
2617,-3,-4,-5,1,-1,-2,-7,-2,13.085
2618,-1,-1,1,-2,-2,-3,-3,-1,13.09
2619,1,0,0,-2,-3,-2,-9,-4,13.095
2620,0,-3,-2,-3,2,0,3,0,13.1
2621,-3,0,4,7,0,1,-1,-3,13.105
2622,4,2,2,-4,1,0,-2,3,13.11
2623,-2,-1,-3,-3,-6,-4,-3,-1,13.115
2624,0,-3,-5,-3,-3,-1,-1,-3,13.120000000000001
2625,-1,-2,-3,-4,-3,0,1,1,13.125
2626,-1,0,6,6,-1,2,5,-1,13.13
2627,-4,-10,-13,-5,-3,-3,-10,-5,13.135
2628,-11,-1,2,-3,0,-1,2,-1,13.14
2629,2,1,1,-1,-1,0,2,2,13.145
2630,-2,-1,-3,-1,-2,-2,-8,-2,13.15
2631,2,2,5,1,0,0,6,4,13.155000000000001
2632,2,-2,0,-3,-1,0,-8,-3,13.16
2633,3,0,1,2,0,0,-2,-1,13.165000000000001
2634,-3,-4,-1,-3,0,1,3,0,13.17
2635,-1,1,-1,-1,0,-1,-6,-2,13.175
2636,0,1,5,9,1,0,2,-1,13.18
2637,1,-1,-5,-10,2,1,0,-1,13.185
2638,1,-1,0,5,0,3,5,0,13.19
2639,1,1,-3,-3,1,0,0,0,13.195
2640,0,-1,3,0,0,0,4,2,13.200000000000001
2641,-1,-1,-1,1,-1,-1,0,-1,13.205
2642,0,0,4,4,0,1,-5,-2,13.21
2643,-3,-1,1,3,2,2,13,-3,13.215
2644,2,3,-2,-11,-2,-1,-4,0,13.22
2645,-4,-2,-2,1,-1,-3,-5,-2,13.225
2646,0,-1,-3,-4,-2,-2,3,1,13.23
2647,2,2,4,3,2,4,15,5,13.235
2648,0,-2,-5,-5,-2,-4,-9,-4,13.24
2649,-5,0,0,8,-2,-4,-7,-7,13.245000000000001
2650,4,0,-1,-8,1,4,18,8,13.25
2651,3,0,4,4,1,-2,-4,0,13.255
2652,-4,-5,-2,-1,-2,0,8,-2,13.26
2653,-1,0,-2,-1,0,-2,-1,3,13.265
2654,-1,-1,-1,4,-1,-3,-3,-3,13.27
2655,1,0,-1,-3,-2,-3,-3,-1,13.275
2656,2,-2,-4,0,1,4,1,1,13.280000000000001
2657,0,0,5,0,0,-1,1,1,13.285
2658,-1,-1,-6,-4,-2,-2,-7,-5,13.290000000000001
2659,-4,1,4,0,-1,-1,0,3,13.295
2660,-1,3,3,0,1,-1,-2,0,13.3
2661,0,-2,-1,3,0,0,3,-1,13.305
2662,-4,-4,-6,-2,-2,-1,1,-1,13.31
2663,-2,0,-1,-1,0,0,-9,-3,13.315
2664,0,0,-3,1,0,0,1,0,13.32
2665,1,0,3,-4,-1,0,4,2,13.325000000000001
2666,1,1,-1,0,-1,1,-3,-1,13.33
2667,-1,-2,1,1,0,-4,-8,-4,13.335
2668,-1,-1,1,-1,-3,-3,-7,-4,13.34
2669,0,0,-5,-5,-1,5,26,6,13.345
2670,8,0,-2,0,0,-2,-7,-3,13.35
2671,-7,-3,-2,-1,-2,0,4,-1,13.355
2672,4,2,1,1,-1,-3,-3,-3,13.36
2673,1,0,0,0,0,0,-6,-1,13.365
2674,-1,-1,1,1,-2,-2,-2,-1,13.370000000000001
2675,0,-2,0,-1,-1,0,-1,-2,13.375
2676,1,0,-2,1,-1,0,-1,-2,13.38
2677,0,-1,-3,-2,0,1,-1,-2,13.385
2678,-2,-1,0,0,-1,-3,3,0,13.39
2679,0,-3,-6,-3,-2,-1,-12,-5,13.395
2680,-3,-2,-2,-2,-1,1,3,1,13.4
2681,1,1,9,9,-2,-3,-5,-2,13.405000000000001
2682,-3,-2,-11,-11,-2,-2,1,-1,13.41
2683,-1,-2,-3,0,1,2,6,2,13.415000000000001
2684,-1,-1,5,1,-3,-3,-2,-5,13.42
2685,-2,-1,-10,-4,-1,0,-5,0,13.425
2686,0,-1,3,0,0,0,-5,-3,13.43
2687,1,2,-2,4,2,0,0,4,13.435
2688,-2,-2,-3,-3,0,-2,-2,0,13.44
2689,-4,0,5,3,0,-7,-16,-7,13.445
2690,-3,0,4,2,2,4,11,8,13.450000000000001
2691,2,-1,1,1,0,1,-1,-3,13.455
2692,-5,-2,1,-1,0,0,0,0,13.46
2693,-1,1,1,-4,-1,-2,-7,-3,13.465
2694,0,0,-6,0,-2,-2,-10,-4,13.47
2695,-1,0,1,-3,-2,1,5,0,13.475
2696,2,-1,-1,1,0,0,-4,1,13.48
2697,0,-2,-5,-1,-1,4,9,4,13.485
2698,-4,0,1,-1,-1,-3,-3,-3,13.49
2699,-2,-4,-7,-3,-3,-2,-1,-4,13.495000000000001
2700,-3,-2,-2,-2,-2,-1,-5,-4,13.5
2701,0,0,1,-2,0,-2,-1,0,13.505
2702,-5,-2,-2,3,1,-2,-2,-2,13.51
2703,-1,0,0,4,-1,-1,-3,-2,13.515
2704,3,-1,-4,-7,-3,-2,4,-1,13.52
2705,-3,-2,-2,-9,-2,0,-1,1,13.525
2706,-2,-1,-1,2,-4,-2,-2,-2,13.530000000000001
2707,-1,-1,-1,-2,-2,-4,-5,-2,13.535
2708,1,-1,-1,1,0,3,6,4,13.540000000000001
2709,2,0,-4,6,-1,-2,-4,-3,13.545
2710,9,2,1,-1,-3,-3,1,-1,13.55
2711,-8,-1,6,-2,-1,0,-2,-1,13.555
2712,0,1,-2,6,2,-1,2,4,13.56
2713,-4,-6,-11,-8,-4,-1,-8,-6,13.565
2714,-1,-2,-1,-1,1,3,16,0,13.57
2715,2,0,1,-2,-2,0,6,2,13.575000000000001
2716,-5,-1,5,2,0,2,0,-7,13.58
2717,7,-1,0,0,-1,-3,-4,4,13.585
2718,-1,-3,-3,-3,0,-2,-10,-5,13.59
2719,-1,0,1,-1,-1,-3,0,3,13.595
2720,-3,-2,-5,1,0,2,-5,0,13.6
2721,-4,-1,-3,-3,-1,-1,4,-1,13.605
2722,-4,-1,0,3,-1,-1,-6,-1,13.61
2723,0,-2,-3,-4,1,2,-2,-2,13.615
2724,-1,-2,-2,-2,-3,-2,-4,-4,13.620000000000001
2725,-4,-1,-1,-2,-2,-1,0,-3,13.625
2726,-4,0,1,-2,1,1,1,1,13.63
2727,0,-1,-3,-2,-3,0,-1,-1,13.635
2728,0,-2,-2,-1,-2,-3,3,0,13.64
2729,8,2,6,2,1,0,-9,-2,13.645
2730,-15,-4,-4,-6,-2,0,3,2,13.65
2731,2,0,-3,0,1,1,3,0,13.655000000000001
2732,0,1,-5,-6,0,-1,-1,-1,13.66
2733,-1,-2,-2,2,-1,-2,5,1,13.665000000000001
2734,1,-1,-2,0,0,-1,-6,-2,13.67
2735,1,1,2,-1,-2,-2,-6,-2,13.675
2736,-8,-4,-4,3,-2,3,6,1,13.68
2737,-1,2,-3,-3,0,-3,6,-1,13.685
2738,2,-1,1,1,-2,-1,1,2,13.69
2739,-1,-1,0,-1,0,1,-2,-1,13.695
2740,2,-1,2,-1,-2,-5,-8,-1,13.700000000000001
2741,-2,0,5,5,2,2,-3,0,13.705
2742,-1,-2,-4,-1,-1,-2,-6,-4,13.71
2743,1,0,0,0,-1,-2,0,0,13.715
2744,1,2,1,-1,0,1,-1,-1,13.72
2745,-6,-8,-10,-4,0,-1,-3,-4,13.725
2746,0,-1,3,1,0,-1,-1,-3,13.73
2747,-5,0,1,0,-1,-1,-1,-1,13.735
2748,1,-2,-2,-1,-1,-3,0,2,13.74
2749,0,1,2,-1,-2,1,5,2,13.745000000000001
2750,1,1,2,3,-1,-2,-5,0,13.75
2751,-3,-3,-4,-3,1,2,15,0,13.755
2752,-2,0,3,-2,-2,-3,-5,-3,13.76
2753,5,-1,-3,3,-2,-1,1,4,13.765
2754,-11,-2,0,-1,1,1,10,-3,13.77
2755,3,1,0,1,1,-1,-6,0,13.775
2756,-4,-1,-1,0,1,0,-3,-4,13.780000000000001
2757,-2,1,2,-3,0,0,-1,1,13.785
2758,2,-1,-1,0,-2,-2,-3,1,13.790000000000001
2759,2,-2,-1,5,0,1,-3,2,13.795
2760,-1,1,-3,-11,-1,-2,1,1,13.8
2761,-3,0,2,0,-1,1,1,-2,13.805
2762,2,1,0,-2,0,2,-8,-1,13.81
2763,0,0,0,1,1,-2,-2,-1,13.815
2764,2,-1,1,2,-1,1,2,0,13.82
2765,-2,-2,1,-1,0,-3,-4,-1,13.825000000000001
2766,1,-1,-4,-2,-1,-1,4,1,13.83
2767,-2,-2,0,-3,-3,-3,-6,-4,13.835
2768,0,-2,-5,1,1,-2,-2,-2,13.84
2769,-4,-1,-2,-3,-3,-2,-1,-1,13.845
2770,1,1,7,5,0,0,0,0,13.85
2771,-1,0,-5,-3,-1,-1,-2,-1,13.855
2772,-1,-1,-4,1,0,0,2,0,13.86
2773,-3,-2,1,2,1,-2,0,-1,13.865
2774,0,-1,0,-1,0,0,-1,-2,13.870000000000001
2775,-1,-4,-4,-3,-2,0,3,1,13.875
2776,-3,-2,0,0,0,0,1,0,13.88
2777,-2,-2,-1,-1,-2,-1,-2,-5,13.885
2778,2,0,-6,-3,0,0,3,2,13.89
2779,-4,-4,-1,-3,-1,0,-1,-1,13.895
2780,-1,1,1,1,-1,-2,-3,-3,13.9
2781,2,1,0,1,0,0,-3,-2,13.905000000000001
2782,3,1,-1,-2,-3,-3,-3,0,13.91
2783,3,2,2,1,0,-3,-2,2,13.915000000000001
2784,-2,-5,-4,-3,-1,-1,-5,-3,13.92
2785,-6,-2,1,1,0,-2,3,-2,13.925
2786,1,-2,2,2,0,0,-5,-5,13.93
2787,-2,-2,-2,-4,-2,-2,-7,-9,13.935
2788,2,6,3,-6,0,0,10,6,13.94
2789,-3,0,5,5,-1,-1,-6,-4,13.945
2790,-4,-4,-6,4,3,2,5,1,13.950000000000001
2791,-3,-1,-8,-6,-4,-3,-3,-1,13.955
2792,5,5,1,2,2,1,0,-1,13.96
2793,2,-1,-5,-5,-3,-1,1,4,13.965
2794,-1,-5,-3,-4,-3,-2,0,1,13.97
2795,-2,-4,4,1,0,0,1,-4,13.975
2796,2,1,-3,-2,-1,-2,-2,-1,13.98
2797,8,8,4,0,0,-1,4,7,13.985
2798,-7,-6,0,1,-2,-1,-7,-5,13.99
2799,-1,0,2,0,4,4,3,3,13.995000000000001
2800,-3,-6,-7,-2,-2,0,1,-1,14.0
2801,-4,0,6,2,0,0,1,2,14.005
2802,-8,4,0,-5,0,-1,6,-5,14.01
2803,-3,-1,-5,1,-6,-7,-3,-2,14.015
2804,4,1,0,4,1,2,0,-1,14.02
2805,7,-9,3,1,0,1,2,6,14.025
2806,1,1,-3,1,2,1,-1,1,14.030000000000001
2807,-7,-9,-7,-5,-4,-1,-3,-4,14.035
2808,3,7,2,0,-3,-5,-5,5,14.040000000000001
2809,-2,17,-8,-8,-3,0,1,-2,14.045
2810,1,-16,3,4,1,-1,-1,8,14.05
2811,4,3,-6,-13,-1,1,6,4,14.055
2812,10,6,5,1,1,2,-1,4,14.06
2813,-8,-14,-12,-10,-6,-5,-6,-6,14.065
2814,9,18,3,5,0,0,1,3,14.07
2815,3,5,3,-5,-2,-2,2,6,14.075000000000001
2816,-13,-7,13,9,1,-4,-5,-13,14.08
2817,-3,-1,-1,-2,0,-1,1,2,14.085
2818,8,-6,-1,1,0,3,5,-1,14.09
2819,10,12,-2,3,0,-1,-1,1,14.095
2820,3,-11,2,2,4,5,6,10,14.1
2821,-14,-5,-5,-2,-2,-3,-9,-19,14.105
2822,-3,14,2,-7,-9,-5,-3,-1,14.11
2823,4,-2,5,5,7,-1,-2,-4,14.115
2824,0,-13,-4,0,-2,1,3,12,14.120000000000001
2825,3,16,-2,-6,0,-1,-2,-3,14.125
2826,-3,-29,-10,-2,-8,-6,0,2,14.13
2827,-6,5,-1,-19,-1,1,-3,-3,14.135
2828,-18,-15,3,17,24,10,0,-10,14.14
2829,35,34,5,8,-3,3,7,23,14.145
2830,-41,-47,-14,-24,-10,-3,-6,-15,14.15
2831,8,-3,1,10,-18,-4,1,7,14.155000000000001
2832,9,17,0,-3,20,2,-4,-2,14.16
2833,-20,-16,-1,5,2,2,-1,-10,14.165000000000001
2834,11,27,6,9,1,-1,-4,-3,14.17
2835,18,12,-2,4,1,5,7,14,14.175
2836,-18,-4,-16,-11,-21,-5,-2,-10,14.18
2837,-20,-25,10,16,12,-1,-8,-13,14.185
2838,3,1,-12,-37,-14,-6,-3,-12,14.19
2839,3,-8,-6,7,-3,0,-3,3,14.195
2840,10,15,2,-2,-17,-12,-5,-6,14.200000000000001
2841,0,-5,-11,-10,56,34,17,16,14.205
2842,-3,4,13,11,-5,-5,-3,0,14.21
2843,2,19,12,7,-6,0,3,1,14.215
2844,-3,-39,-13,-23,-7,-7,-12,-22,14.22
2845,-4,13,1,-3,11,6,5,0,14.225
2846,-1,-9,3,10,25,11,8,12,14.23
2847,3,35,6,9,3,3,0,-4,14.235
2848,31,18,6,14,-14,0,8,24,14.24
2849,2,-35,-15,-35,-18,-8,2,11,14.245000000000001
2850,12,24,19,16,10,2,-11,-30,14.25
2851,-3,6,7,-9,-14,-11,-4,8,14.255
2852,-68,-55,-21,-10,-8,-4,-4,-14,14.26
2853,25,61,23,23,-7,-10,-5,-15,14.265
2854,-29,-37,-10,3,-8,-2,2,20,14.27
2855,15,-10,-2,3,-25,-4,12,-4,14.275
2856,-11,-10,-8,-14,15,6,18,30,14.280000000000001
2857,-4,66,3,30,32,17,2,-7,14.285
2858,1,10,-17,-28,17,1,-15,-18,14.290000000000001
2859,-2,3,11,19,-31,-5,2,14,14.295
2860,34,24,-23,-32,4,-10,-5,8,14.3
2861,-48,-65,0,5,8,8,1,-5,14.305
2862,-9,-47,-8,12,4,2,13,31,14.31
2863,-21,67,-10,5,76,26,-2,-27,14.315
2864,86,63,24,14,-25,9,19,32,14.32
2865,-55,-93,-29,-26,-37,-29,-27,-52,14.325000000000001
2866,100,92,31,21,-1,5,7,59,14.33
2867,-107,-99,-25,-40,-28,-18,-15,-16,14.335
2868,13,19,10,23,7,4,-1,-7,14.34
2869,-2,5,16,2,0,-3,1,0,14.345
2870,-3,35,10,6,-9,-2,-2,-29,14.35
2871,95,7,13,-8,-47,-12,5,49,14.355
2872,-34,-4,10,24,30,-8,-11,-29,14.36
2873,26,30,18,-22,1,9,10,16,14.365
2874,-27,-9,-23,-7,18,-4,-18,-42,14.370000000000001
2875,-11,-12,4,12,71,24,-3,1,14.375
2876,-21,-22,5,6,6,3,-8,-24,14.38
2877,50,61,22,23,-27,-10,0,22,14.385
2878,-10,17,6,-17,-14,-10,-7,-24,14.39
2879,24,-37,1,-17,-44,-10,-6,-6,14.395
2880,-73,-53,-5,0,45,8,-3,-21,14.4
2881,16,3,-3,-2,-28,-8,7,-10,14.405000000000001
2882,-27,-44,10,-6,-3,-4,-17,0,14.41
2883,23,17,-5,6,-1,-4,0,28,14.415000000000001
2884,-39,-2,1,-15,-22,-7,-13,-39,14.42
2885,18,-46,-35,-14,-24,-13,-8,11,14.425
2886,-26,-24,-12,16,-4,2,5,4,14.43
2887,8,-15,-7,15,-4,-14,3,10,14.435
2888,20,26,-24,-25,-11,2,7,14,14.44
2889,-45,11,-4,2,-13,-5,-20,-30,14.445
2890,4,6,4,19,15,8,39,79,14.450000000000001
2891,-43,-36,-48,-16,-19,-15,-32,-66,14.455
2892,25,38,25,-4,-2,6,3,0,14.46
2893,-2,-2,15,11,43,15,3,2,14.465
2894,30,5,22,-14,-10,-2,-12,-13,14.47
2895,-23,62,11,-1,32,12,8,-9,14.475
2896,-32,-50,-4,-5,-50,-14,-2,6,14.48
2897,23,-3,-19,-4,-13,-11,-18,-16,14.485
2898,51,32,-1,2,-5,4,10,13,14.49
2899,-16,-27,12,6,8,0,-14,-26,14.495000000000001
2900,-39,-10,-17,-9,7,6,-3,-19,14.5
2901,22,8,0,6,5,0,6,2,14.505
2902,-26,-25,-11,5,1,-3,1,-3,14.51
2903,-16,-18,-12,-12,-5,-1,1,-10,14.515
2904,74,50,6,18,-11,-4,2,35,14.52
2905,-4,-17,-6,-3,16,3,10,10,14.525
2906,-46,-58,-43,-26,-6,-1,-8,-46,14.530000000000001
2907,33,54,15,19,8,3,5,10,14.535
2908,-11,8,-16,-3,13,0,-4,0,14.540000000000001
2909,3,6,-17,-1,-15,-3,-3,7,14.545
2910,6,26,-7,-14,-6,-5,-7,-5,14.55
2911,18,16,15,3,9,2,11,-2,14.555
2912,17,-19,-10,3,-6,-3,11,30,14.56
2913,-15,-9,-4,-3,-9,-4,-8,-9,14.565
2914,7,33,10,10,5,-7,-31,-34,14.57
2915,-1,-18,-10,2,10,15,63,15,14.575000000000001
2916,18,11,5,3,-6,2,4,48,14.58
2917,1,9,2,-1,2,1,8,25,14.585
2918,-20,2,11,4,-1,1,-12,-22,14.59
2919,23,-7,-2,-3,-4,-7,-8,8,14.595
2920,-18,-15,8,-2,2,-5,-9,-16,14.6
2921,5,9,-3,0,-5,1,11,11,14.605
2922,-3,8,6,10,-1,-8,-15,-9,14.61
2923,-10,-6,-7,10,17,8,-8,-18,14.615
2924,10,11,-9,-18,-5,-5,2,-11,14.620000000000001
2925,-4,-2,-13,-17,-12,-7,-17,-1,14.625
2926,-4,-19,-6,6,-1,-1,10,-5,14.63
2927,-3,-6,8,-9,1,1,-2,8,14.635
2928,4,-7,16,7,7,7,2,0,14.64
2929,-15,-13,10,-7,-6,-10,-23,-27,14.645
2930,6,1,3,-5,-7,1,33,21,14.65
2931,-1,-7,9,0,-2,0,-18,11,14.655000000000001
2932,-15,-7,4,5,2,4,29,-10,14.66
2933,-5,-1,11,5,-1,-1,4,-1,14.665000000000001
2934,8,-4,2,-1,-1,2,1,14,14.67
2935,-9,-8,-9,-6,-2,-6,-16,10,14.675
2936,0,2,-2,-1,-6,-5,-16,-18,14.68
2937,-1,-6,1,5,6,1,0,6,14.685
2938,3,3,-2,-3,3,4,8,12,14.69
2939,-12,-1,-3,-7,-4,-5,-8,-18,14.695
2940,6,2,-4,4,3,-2,-12,-6,14.700000000000001
2941,2,4,-6,2,5,2,4,7,14.705
2942,1,2,-11,-3,-2,4,16,6,14.71
2943,-6,-6,0,-5,-3,1,-12,-5,14.715
2944,3,3,0,-5,-1,3,11,3,14.72
2945,-2,-1,4,-3,2,-3,-8,6,14.725
2946,-10,-3,-2,-5,-10,-6,-3,-10,14.73
2947,-9,-4,-8,0,3,4,17,12,14.735
2948,3,-1,1,1,0,-6,-25,-7,14.74
2949,-3,-1,4,-5,-1,2,5,0,14.745000000000001
2950,3,1,5,0,3,3,1,5,14.75
2951,-6,-2,7,-1,-3,-5,-7,-8,14.755
2952,-3,0,8,-5,-2,-2,-12,-3,14.76
2953,0,-2,13,3,0,0,12,-2,14.765
2954,3,1,4,0,-2,-1,0,5,14.77
2955,-2,-1,2,3,-3,0,0,-4,14.775
2956,0,-3,-1,3,-4,-3,-4,-9,14.780000000000001
2957,3,0,-4,1,0,3,9,1,14.785
2958,-2,0,-1,-2,-4,-6,-2,2,14.790000000000001
2959,0,1,5,4,4,2,1,-10,14.795
2960,14,5,4,5,0,1,7,18,14.8
2961,-5,-5,-17,-4,-2,-2,1,-2,14.805
2962,-2,-2,-6,-16,-5,-5,-13,-2,14.81
2963,-3,-3,-5,-2,1,-3,0,-6,14.815
2964,-2,2,-6,-5,-2,-1,-5,-9,14.82
2965,-1,2,7,11,2,3,9,7,14.825000000000001
2966,0,-2,-10,2,-1,0,-1,-2,14.83
2967,2,3,2,-6,-5,-5,4,2,14.835
2968,-4,1,1,4,1,-5,-13,-9,14.84
2969,0,-2,-2,1,0,2,7,4,14.845
2970,1,1,2,-2,1,0,0,-3,14.85
2971,0,2,4,1,2,0,0,-1,14.855
2972,-5,-3,4,15,0,3,2,-2,14.86
2973,4,-1,-2,-17,-2,-2,-8,4,14.865
2974,-5,0,0,0,-1,-3,-4,0,14.870000000000001
2975,2,0,-3,5,-2,1,8,4,14.875
2976,-1,-2,-5,-10,0,-1,2,-3,14.88
2977,0,0,-1,-2,-4,-1,-2,-4,14.885
2978,-1,0,5,6,1,1,-8,-4,14.89
2979,2,-1,-3,-6,-2,1,9,10,14.895
2980,0,1,3,12,4,2,2,2,14.9
2981,2,0,2,2,2,-2,-5,1,14.905000000000001
2982,-1,-4,-6,-10,0,0,6,-6,14.91
2983,1,0,-2,1,-3,2,0,2,14.915000000000001
2984,1,0,0,0,-2,-1,-4,-1,14.92
2985,1,1,3,4,0,0,2,-8,14.925
2986,7,2,-3,-5,0,0,18,22,14.93
2987,-1,1,7,17,6,2,-12,-8,14.935
2988,-5,-3,-9,-29,-3,-4,-2,0,14.94
2989,1,-2,0,7,0,-3,-5,1,14.945
2990,-2,-1,3,6,-4,-3,-15,-7,14.950000000000001
2991,-2,-6,-12,-12,-2,0,7,1,14.955
2992,-3,0,-4,-5,0,4,6,-2,14.96
2993,-1,-2,2,16,2,-3,-4,-3,14.965
2994,3,2,0,-16,-1,-1,2,1,14.97
2995,-4,-1,-7,-2,-1,-1,-5,0,14.975
2996,1,-2,-4,1,-2,-2,-6,-4,14.98
2997,0,-1,-2,-7,1,1,2,-1,14.985
2998,0,0,1,9,2,0,1,3,14.99
2999,-2,1,6,5,1,-2,-8,-4,14.995000000000001
3000,-1,1,3,1,2,-3,-10,-4,15.0
3001,0,-1,-3,-2,0,0,2,6,15.005
3002,-1,0,-5,14,3,5,6,1,15.01
3003,-2,-2,-6,-18,-5,-3,-7,-5,15.015
3004,-4,-5,-7,-4,-5,-2,0,0,15.02
3005,6,-1,3,0,-2,-6,-10,-8,15.025
3006,0,-2,-5,-15,-4,3,7,1,15.030000000000001
3007,-1,0,5,10,0,0,3,4,15.035
3008,1,3,7,16,1,2,3,2,15.040000000000001
3009,-3,-5,-12,-17,-3,-8,-13,-8,15.045
3010,-3,-4,-5,-10,-1,2,2,-9,15.05
3011,3,3,-1,-5,-1,-6,-6,6,15.055
3012,2,0,4,-3,0,0,7,2,15.06
3013,-4,1,0,7,1,3,1,2,15.065
3014,0,-2,-1,-3,-1,-2,-3,-3,15.07
3015,-4,-3,-1,3,-2,-2,-7,-5,15.075000000000001
3016,0,-1,0,4,0,-1,-3,-2,15.08
3017,-1,1,-1,-9,0,3,8,6,15.085
3018,-2,-2,-3,3,-2,-3,-11,-1,15.09
3019,1,-1,-2,-13,-1,2,7,0,15.095
3020,0,-2,1,14,-1,-4,-8,-2,15.1
3021,-4,1,-8,-17,-3,7,7,2,15.105
3022,-1,0,-2,3,0,-3,-3,-4,15.11
3023,-1,-1,2,2,0,-1,-3,2,15.115
3024,0,-1,-5,2,0,0,2,-4,15.120000000000001
3025,-5,-5,1,-6,-3,-2,3,-2,15.125
3026,4,4,1,4,-5,-8,-23,-4,15.13
3027,-2,-3,-2,0,2,8,31,6,15.135
3028,0,0,-4,-14,-4,-3,2,2,15.14
3029,4,2,6,13,2,3,0,-1,15.145
3030,0,0,3,3,2,2,1,0,15.15
3031,-2,-3,-3,-5,-4,-5,-13,-7,15.155000000000001
3032,-1,-1,-1,0,1,2,3,-3,15.16
3033,0,1,1,5,1,-2,-3,2,15.165000000000001
3034,-1,-2,0,0,-2,-2,3,-2,15.17
3035,-2,0,-2,0,-2,-1,-6,-3,15.175
3036,0,0,1,0,2,3,2,2,15.18
3037,-3,-3,-6,-17,-6,-2,-5,-1,15.185
3038,-3,-2,-1,6,3,2,2,0,15.19
3039,-1,-3,0,-1,-1,-2,-4,-5,15.195
3040,0,1,-7,-18,-3,-5,-8,-2,15.200000000000001
3041,-1,0,-1,8,-4,0,0,0,15.205
3042,-1,-1,-1,3,1,0,3,2,15.21
3043,-3,-3,-7,-8,0,2,0,-2,15.215
3044,1,0,-5,2,-3,2,24,11,15.22
3045,-2,-2,-1,-6,-3,-5,-11,-5,15.225
3046,-10,-2,-1,1,-1,-2,8,-3,15.23
3047,2,2,8,11,2,1,-5,1,15.235
3048,1,-2,-3,-8,-1,3,4,1,15.24
3049,-2,-2,-2,-1,-1,0,5,1,15.245000000000001
3050,2,-3,-1,1,-2,-2,-2,0,15.25
3051,-1,-2,-2,-1,-3,-5,-7,-6,15.255
3052,-3,-2,1,2,-1,-2,-6,-3,15.26
3053,1,-2,-3,-7,-3,-2,2,-1,15.265
3054,-1,-1,6,13,0,-1,-5,-2,15.27
3055,-1,2,0,0,-1,0,4,1,15.275
3056,0,-1,0,-1,-1,-3,-6,-1,15.280000000000001
3057,4,5,8,4,3,2,-3,-1,15.285
3058,-1,-1,-6,-9,-2,-3,-4,1,15.290000000000001
3059,-2,0,1,5,-2,-3,-2,-2,15.295
3060,-2,-2,2,-12,-2,1,-6,-1,15.3
3061,0,-2,2,3,2,-3,-4,-4,15.305
3062,0,0,2,-4,0,0,-4,0,15.31
3063,0,0,-1,13,1,2,18,5,15.315
3064,2,-1,2,-2,0,-1,-3,5,15.32
3065,-2,0,1,7,-2,0,2,-1,15.325000000000001
3066,2,-2,-6,-12,-4,-3,-11,-3,15.33
3067,-7,-1,0,-2,1,-3,-3,-2,15.335
3068,-2,0,-3,1,0,0,0,-4,15.34
3069,0,-2,-2,2,0,1,7,2,15.345
3070,2,-1,-1,2,0,-1,1,0,15.35
3071,1,-2,-3,0,-1,-3,-10,-2,15.355
3072,0,-1,0,-8,-3,-2,4,-1,15.36
3073,-3,0,-4,-1,-3,-2,-10,-3,15.365
3074,-2,-2,-2,1,-1,0,4,-2,15.370000000000001
3075,1,0,0,-5,2,3,-4,2,15.375
3076,-5,-2,-3,5,-1,-4,-11,-4,15.38
3077,0,-1,-2,-1,1,1,18,3,15.385
3078,0,1,0,-5,0,4,5,3,15.39
3079,0,-1,-4,-2,-2,-3,1,2,15.395
3080,1,0,0,6,1,-1,-3,-1,15.4
3081,-2,-1,1,1,-1,-5,-8,-5,15.405000000000001
3082,-2,0,3,-16,-2,-5,-19,-8,15.41
3083,-1,1,1,17,1,3,14,11,15.415000000000001
3084,-7,-10,-17,-8,-6,-3,-4,-6,15.42
3085,-1,-1,-8,-9,-6,-4,-6,-2,15.425
3086,9,1,0,7,-1,0,5,1,15.43
3087,-9,-2,-3,-12,-5,-3,-12,-7,15.435
3088,1,2,3,3,1,0,1,-1,15.44
3089,-1,-2,0,5,2,0,0,-1,15.445
3090,0,-2,-3,-3,-2,-3,1,1,15.450000000000001
3091,4,2,-2,-6,0,-1,-6,-3,15.455
3092,-2,1,1,5,-1,0,4,1,15.46
3093,-2,-1,2,-4,1,1,-4,0,15.465
3094,-8,2,1,0,-1,-2,-4,-2,15.47
3095,1,-2,-1,-3,0,1,15,3,15.475
3096,-2,0,3,0,0,-2,-8,-5,15.48
3097,0,-1,-5,-2,0,1,8,6,15.485000000000001
3098,-1,-1,-1,4,0,-2,-2,-1,15.49
3099,-3,-4,-9,-9,-2,-3,-17,-10,15.495000000000001
3100,1,1,2,0,-1,-4,0,2,15.5
3101,0,-1,1,-3,1,5,18,6,15.505
3102,-3,-2,-4,-1,-2,-1,4,0,15.51
3103,1,1,4,-2,-2,-3,-8,-3,15.515
3104,0,0,1,4,-1,1,-5,-6,15.52
3105,0,0,-1,-1,0,-2,-10,-4,15.525
3106,0,-2,0,1,-1,0,9,5,15.530000000000001
3107,2,0,0,-2,-1,-1,-4,-3,15.535
3108,-1,-1,-3,-7,-4,-1,3,-2,15.540000000000001
3109,1,1,3,7,-2,-3,-8,-4,15.545
3110,-3,-4,-11,-17,0,4,17,4,15.55
3111,8,0,-2,5,-1,-3,-4,-1,15.555
3112,-9,-1,8,23,1,1,-3,0,15.56
3113,-4,-1,-9,-12,-3,-2,-4,-5,15.565
3114,0,0,5,-3,1,-1,-8,0,15.57
3115,-1,-2,-10,-11,-2,1,3,1,15.575000000000001
3116,1,-1,3,4,-1,-1,4,1,15.58
3117,1,-1,3,8,0,-3,-7,-4,15.585
3118,1,0,2,5,0,1,6,-3,15.59
3119,-1,-1,1,2,2,2,1,3,15.595
3120,2,1,-1,-5,1,-1,-6,-2,15.6
3121,-2,-1,3,10,2,3,2,2,15.605
3122,0,-1,-3,-2,0,-2,-3,0,15.610000000000001
3123,-1,-2,2,2,0,-1,2,2,15.615
3124,1,-1,-1,-3,-2,-3,-7,-5,15.620000000000001
3125,1,-2,-2,-8,0,-1,-1,0,15.625
3126,-1,1,1,7,0,-1,-4,4,15.63
3127,-1,1,3,-1,-2,-1,1,-2,15.635
3128,0,1,-1,-5,2,1,1,2,15.64
3129,-1,-1,-1,-2,-2,-2,-6,-7,15.645
3130,3,2,4,5,2,-1,-1,0,15.65
3131,-1,0,-3,-3,0,2,11,4,15.655000000000001
3132,1,2,-4,-7,-4,-2,-4,-1,15.66
3133,-1,0,1,0,0,0,-1,-1,15.665000000000001
3134,1,0,1,0,-2,1,-2,-1,15.67
3135,-3,-3,-2,2,-3,-3,-8,-4,15.675
3136,-5,-3,-3,1,-1,1,7,-1,15.68
3137,0,-2,1,1,1,2,7,3,15.685
3138,-3,-2,-8,-6,-4,-2,-10,-5,15.69
3139,0,0,1,-3,-1,-2,-4,0,15.695
3140,0,-3,-2,-1,-2,-1,-1,1,15.700000000000001
3141,-3,-2,-1,-3,-2,-2,-6,-3,15.705
3142,3,-2,0,0,0,4,18,5,15.71
3143,0,0,-2,-4,-1,-3,-10,-4,15.715
3144,-1,0,-2,-6,-1,-1,1,0,15.72
3145,1,-4,-2,0,-1,-1,-6,0,15.725
3146,-2,-2,1,3,1,0,-3,-5,15.73
3147,-2,-2,1,3,0,0,4,1,15.735000000000001
3148,-2,-5,-6,0,3,5,4,0,15.74
3149,3,1,-2,-4,-2,-5,1,-1,15.745000000000001
3150,-4,-1,-3,2,1,2,3,4,15.75
3151,-1,2,4,-2,0,0,7,0,15.755
3152,2,1,-1,-6,-1,0,-3,-1,15.76
3153,-3,-2,1,8,-2,-2,-5,-2,15.765
3154,-1,-1,-1,-5,-2,-3,-5,-2,15.77
3155,-2,0,2,3,1,0,-4,-2,15.775
3156,-1,-1,-1,-1,0,0,-2,0,15.780000000000001
3157,-2,1,-3,0,-2,-3,-1,-1,15.785
3158,-1,-1,-5,-3,-4,0,-1,0,15.790000000000001
3159,-2,0,2,5,-1,-2,-2,0,15.795
3160,0,1,-3,-11,-1,-2,0,-1,15.8
3161,-1,2,-1,-2,-2,2,3,1,15.805
3162,3,-1,1,6,-1,-3,-10,-3,15.81
3163,-10,-3,-2,-7,-4,-1,5,0,15.815
3164,-2,0,3,4,0,0,-4,-1,15.82
3165,-1,0,-1,-4,-1,-4,-4,1,15.825000000000001
3166,-3,-2,0,2,-1,-1,2,-1,15.83
3167,4,-1,-2,3,0,0,-5,-2,15.835
3168,0,-1,0,0,-2,-3,-4,-6,15.84
3169,-6,-4,-4,-4,0,0,2,5,15.845
3170,2,-4,-1,-3,-1,-2,-1,-4,15.85
3171,0,-3,-2,-2,0,-1,-8,-4,15.855
3172,-1,-4,-5,4,-1,-3,3,1,15.860000000000001
3173,2,-2,-6,-9,-1,2,0,0,15.865
3174,-1,-2,-1,3,2,0,-4,2,15.870000000000001
3175,3,0,-1,-2,-1,-2,1,0,15.875
3176,-5,0,3,4,0,-1,-7,0,15.88
3177,-1,-3,-1,2,0,1,-6,-4,15.885
3178,-3,3,-1,0,-2,-3,0,0,15.89
3179,-2,0,-2,-1,1,0,-7,-3,15.895
3180,1,1,0,0,1,1,7,1,15.9
3181,-1,0,-1,-1,-1,-2,0,-1,15.905000000000001
3182,-3,3,2,1,2,-3,-7,-3,15.91
3183,0,-2,-1,-1,-1,-1,-2,0,15.915000000000001
3184,1,0,1,1,1,-2,3,0,15.92
3185,0,0,2,3,1,0,0,-2,15.925
3186,2,-2,1,4,-1,-1,5,1,15.93
3187,0,-1,-2,-1,-2,0,0,-1,15.935
3188,2,-2,-2,-10,-2,-1,4,1,15.94
3189,10,1,1,2,0,1,-3,-2,15.945
3190,-4,-3,-1,-3,-1,-1,-2,-2,15.950000000000001
3191,-1,-4,-2,1,-1,-1,0,0,15.955
3192,-2,-1,-3,-6,-3,-2,-2,0,15.96
3193,0,2,1,-4,-1,-2,-2,-1,15.965
3194,0,-2,-5,-2,-2,-1,-3,-2,15.97
3195,0,0,-4,-3,0,2,8,6,15.975
3196,2,-2,2,0,-2,-4,-6,-1,15.98
3197,-4,-4,-2,-3,-1,-2,1,1,15.985000000000001
3198,-1,0,0,-3,-3,-2,-3,1,15.99
3199,-2,-1,-1,-3,-2,2,-1,0,15.995000000000001
3200,0,0,-4,0,-2,-1,-3,-1,16.0
3201,4,1,2,3,0,1,-1,2,16.005
3202,-3,-1,1,3,-2,-2,-10,-5,16.01
3203,-1,0,-3,-10,-2,0,4,0,16.015
3204,-1,0,2,6,0,-3,-3,2,16.02
3205,-1,1,-1,-2,0,3,10,3,16.025
3206,1,1,1,3,0,1,2,1,16.03
3207,-3,-1,-1,-2,-1,-2,-1,0,16.035
3208,1,2,0,3,0,0,0,1,16.04
3209,-4,0,1,0,-2,-2,0,-1,16.045
3210,0,0,-2,-1,1,0,2,0,16.05
3211,0,0,2,1,0,-3,-5,-5,16.055
3212,-1,-1,0,-3,-1,0,2,-2,16.06
3213,-2,-4,-3,1,-3,-2,-3,-1,16.065
3214,-1,1,5,-1,0,0,1,-3,16.07
3215,10,-4,-9,-12,-7,-8,-5,-1,16.075
3216,-9,-4,-2,6,0,4,1,-2,16.080000000000002
3217,-2,-4,-3,-3,-2,-3,-5,-5,16.085
3218,2,0,-1,0,0,1,8,5,16.09
3219,-1,0,-2,2,-1,-5,-18,-5,16.095
3220,-1,-2,-1,-3,0,1,10,1,16.1
3221,-2,-2,0,1,0,0,-4,0,16.105
3222,-2,-5,-2,-7,-5,-7,-14,-9,16.11
3223,-5,-6,-4,4,0,-1,-2,0,16.115000000000002
3224,8,1,-2,-2,-2,-2,-2,2,16.12
3225,-3,0,1,2,0,-1,-2,-2,16.125
3226,0,-1,-1,2,-2,1,2,0,16.13
3227,-2,1,0,-5,0,0,-6,-4,16.135
3228,1,1,1,5,0,-1,-3,-1,16.14
3229,-1,0,-3,-10,-1,0,3,1,16.145
3230,0,-1,-1,-1,-1,-1,-2,-1,16.15
3231,-1,1,2,4,-1,0,6,2,16.155
3232,-4,0,-2,-2,-1,-2,-2,-1,16.16
3233,0,0,-2,-1,-2,0,0,-1,16.165
3234,-3,0,-2,-2,-2,-2,-2,-2,16.17
3235,-1,-1,4,2,2,0,3,0,16.175
3236,0,1,3,-3,0,-1,0,0,16.18
3237,-2,-2,-5,-1,-3,-4,-3,-2,16.185
3238,0,-1,-3,-3,1,5,7,1,16.19
3239,0,1,2,0,-1,-3,1,1,16.195
3240,0,-1,-2,-4,-3,-1,-3,-3,16.2
3241,1,0,2,2,-1,-1,-2,0,16.205000000000002
3242,0,-2,-2,-1,1,-3,-9,-2,16.21
3243,0,2,3,-1,-1,-3,5,0,16.215
3244,11,-1,-4,3,1,3,5,3,16.22
3245,-8,-1,0,2,0,1,-9,3,16.225
3246,-1,-4,-5,-2,-1,-4,3,2,16.23
3247,-1,-2,-3,2,1,5,2,0,16.235
3248,0,0,1,-1,0,-3,-6,-1,16.240000000000002
3249,1,0,-3,-3,-2,-1,4,0,16.245
3250,-1,0,2,-1,0,-2,-6,-1,16.25
3251,-3,0,2,7,1,0,-2,-2,16.255
3252,-4,-3,-4,-6,-2,-2,3,0,16.26
3253,1,0,-2,-5,-1,-2,-3,-3,16.265
3254,-3,-1,-1,-2,-3,-3,6,-3,16.27
3255,0,-2,-2,-3,-1,3,-4,0,16.275
3256,-4,-1,1,3,0,1,6,2,16.28
3257,0,2,6,4,0,-2,-1,-2,16.285
3258,1,-3,-7,-5,-1,0,2,0,16.29
3259,-1,0,2,3,1,-1,-5,-3,16.295
3260,-5,-2,-1,-3,0,-1,3,-3,16.3
3261,-1,-1,0,-1,0,-1,-2,0,16.305
3262,0,2,1,0,0,2,1,2,16.31
3263,-2,-2,-2,-1,-3,-3,-1,-1,16.315
3264,-4,-1,0,-3,-2,-2,-12,-5,16.32
3265,1,0,1,0,0,-2,-1,-2,16.325
3266,0,1,0,-4,-1,-1,0,-4,16.330000000000002
3267,0,0,-4,0,-1,3,12,3,16.335
3268,8,1,-3,-2,-1,-2,-2,1,16.34
3269,-12,-4,-1,2,-1,1,4,0,16.345
3270,-2,2,2,5,1,-2,-11,-2,16.35
3271,1,-1,-3,-9,-2,-3,-4,-2,16.355
3272,-2,-1,0,1,-2,1,2,0,16.36
3273,4,0,-2,2,1,0,0,0,16.365000000000002
3274,1,2,5,-1,2,-1,-1,1,16.37
3275,-5,-8,-7,5,-2,-3,-2,-2,16.375
3276,-2,-2,-4,-11,-1,1,3,2,16.38
3277,1,-1,1,2,-2,-1,-10,-4,16.385
3278,-1,-1,-2,0,1,1,14,5,16.39
3279,0,1,3,1,2,-1,-6,-2,16.395
3280,-3,0,-2,0,-3,-1,9,-1,16.4
3281,0,-4,-3,-2,-1,-1,-3,-3,16.405
3282,-1,-5,2,9,0,-2,-8,-9,16.41
3283,2,1,-6,-18,-2,1,24,11,16.415
3284,-3,-2,1,5,0,-2,-12,-4,16.42
3285,-1,-1,-3,-5,-1,-2,3,-1,16.425
3286,-1,-1,-2,1,0,1,5,2,16.43
3287,-1,-1,0,0,-2,-3,-8,-5,16.435
3288,-1,1,-1,0,-2,-1,-3,-3,16.44
3289,-1,1,1,0,2,2,3,3,16.445
3290,2,0,-3,-2,-3,-4,-8,-3,16.45
3291,-2,-1,0,-3,-4,-3,-4,-3,16.455000000000002
3292,7,0,-1,-3,-3,-3,1,1,16.46
3293,-9,-2,1,2,-2,1,0,-3,16.465
3294,0,-1,-2,-5,-2,0,4,2,16.47
3295,1,2,2,2,0,1,-4,-2,16.475
3296,0,-1,0,7,-1,1,-2,0,16.48
3297,4,1,-3,-9,-2,-3,0,-1,16.485
3298,-4,0,-1,-4,-1,-1,-2,2,16.490000000000002
3299,-3,-5,-3,2,0,2,2,0,16.495
3300,-6,-2,-4,-3,0,-3,-7,-5,16.5
3301,1,1,1,0,-1,0,4,2,16.505
3302,-3,-2,-1,-2,0,0,0,1,16.51
3303,0,0,2,2,0,-2,-9,-4,16.515
3304,-2,-2,0,-1,0,-1,0,1,16.52
3305,0,-4,-4,-1,-2,-2,-2,-2,16.525
3306,-1,-1,-4,-2,-2,-3,-4,-3,16.53
3307,0,2,8,11,3,3,17,4,16.535
3308,-3,-6,-9,-8,-3,-2,-4,-1,16.54
3309,1,-1,-2,4,2,5,10,3,16.545
3310,-1,-4,0,-2,-2,-2,-6,-2,16.55
3311,0,-3,-3,-2,-1,-2,-9,-2,16.555
3312,-1,0,2,0,-1,-1,-1,-2,16.56
3313,0,-1,-1,-1,-2,-4,-6,-4,16.565
3314,0,-2,-4,-4,-2,2,0,-1,16.57
3315,-4,-1,-3,0,-2,-2,-3,2,16.575
3316,-1,0,2,2,-1,-1,4,4,16.580000000000002
3317,0,-3,-6,-4,-2,-1,-5,-3,16.585
3318,-3,-1,0,0,0,-2,3,3,16.59
3319,1,-1,-3,-3,-1,-2,-9,-7,16.595
3320,-4,1,1,1,0,-1,-5,-1,16.6
3321,1,1,5,2,-1,0,1,2,16.605
3322,0,0,-4,-4,0,-2,0,0,16.61
3323,-1,-1,1,4,-2,0,1,0,16.615000000000002
3324,0,-1,0,-2,1,-1,-5,-4,16.62
3325,-1,1,2,0,-1,0,2,-1,16.625
3326,0,-1,-1,-2,0,0,-1,0,16.63
3327,-2,0,-1,-4,-3,-3,-4,-1,16.635
3328,-2,-1,-2,-2,-1,0,2,1,16.64
3329,1,1,1,-2,0,-1,-4,-1,16.645
3330,-6,-3,-1,0,1,2,2,0,16.65
3331,0,0,1,2,0,-1,-1,-1,16.655
3332,0,-1,0,0,-1,1,10,-1,16.66
3333,-2,-1,-3,-2,0,-1,-6,0,16.665
3334,3,1,4,2,-1,0,-1,-1,16.67
3335,1,0,-1,-1,0,3,2,3,16.675
3336,-2,0,1,-1,-3,-2,-11,-5,16.68
3337,0,-2,-5,-4,-4,-6,-2,-2,16.685
3338,11,-1,-4,3,0,2,4,5,16.69
3339,-6,-5,-3,-1,0,-1,-6,-4,16.695
3340,3,0,-1,-2,-1,3,-1,1,16.7
3341,0,0,4,2,-1,0,7,4,16.705000000000002
3342,1,-3,-1,-1,0,0,-5,-3,16.71
3343,1,0,-2,-2,0,-2,6,0,16.715
3344,-1,-1,0,2,0,-1,-10,-3,16.72
3345,0,-2,-3,-1,0,0,-1,-4,16.725
3346,-1,0,1,-2,-1,1,0,1,16.73
3347,0,0,-1,-2,1,0,-2,-1,16.735
3348,-3,1,3,0,1,0,2,-2,16.740000000000002
3349,-1,0,0,7,1,-1,1,1,16.745
3350,-7,-3,-4,-12,-2,0,2,-2,16.75
3351,1,-1,-3,-3,-4,-3,-6,-2,16.755
3352,-1,-2,1,7,3,0,3,1,16.76
3353,-3,-3,-5,-2,-2,-1,-4,-2,16.765
3354,-3,-1,-4,0,-2,-2,2,-4,16.77
3355,0,0,0,-2,-1,-2,-6,-3,16.775
3356,-1,-1,-1,-5,-4,-4,2,-2,16.78
3357,0,3,3,2,1,0,0,1,16.785
3358,-1,0,4,2,-1,-3,-5,-4,16.79
3359,-1,0,0,-1,-1,-2,2,0,16.795
3360,-1,-2,-4,-4,-3,-1,0,-1,16.8
3361,-1,-4,0,-2,-1,0,-2,-5,16.805
3362,0,-1,-1,0,-2,-3,-4,0,16.81
3363,-2,-1,2,1,0,-1,-2,-1,16.815
3364,8,1,-1,-2,0,3,6,5,16.82
3365,-10,-1,-1,0,-1,0,1,-1,16.825
3366,-4,0,0,5,1,-1,0,-1,16.830000000000002
3367,1,0,-7,-6,-2,-2,-3,2,16.835
3368,-3,-1,-1,-3,1,-2,-1,-1,16.84
3369,5,2,2,0,-1,0,2,3,16.845
3370,4,0,-1,2,1,2,0,2,16.85
3371,-3,0,2,3,1,-2,-11,-5,16.855
3372,-6,-2,-4,-1,-1,3,12,3,16.86
3373,0,0,-2,-2,0,1,-1,-1,16.865000000000002
3374,-4,1,0,-2,-3,-4,-3,-1,16.87
3375,1,-3,-2,1,0,0,-4,-1,16.875
3376,1,-1,-3,-2,-1,1,6,1,16.88
3377,0,-2,-4,-1,0,-2,-2,1,16.885
3378,-1,0,1,-5,-2,-1,0,0,16.89
3379,-1,-2,-4,-2,-3,-3,-4,-5,16.895
3380,-2,0,1,0,-1,-4,-6,-1,16.9
3381,-3,0,-2,-1,-2,-2,0,-2,16.905
3382,1,1,0,1,-1,-1,0,0,16.91
3383,-1,-2,-2,-2,0,-3,1,-2,16.915
3384,-1,0,0,4,-2,0,-5,-1,16.92
3385,1,-1,-2,-7,-2,0,-1,-1,16.925
3386,-3,-2,-2,4,-1,-1,-4,-3,16.93
3387,-1,1,4,2,-1,1,3,-2,16.935
3388,-2,-1,-4,-4,1,-2,-3,-3,16.94
3389,0,0,-1,-2,0,0,-1,-1,16.945
3390,0,-3,-2,-2,0,0,2,-1,16.95
3391,-1,1,0,-2,-1,0,3,2,16.955000000000002
3392,0,0,3,7,0,-3,-9,-5,16.96
3393,3,-1,1,1,2,1,10,-1,16.965
3394,4,0,-1,-1,2,0,0,2,16.97
3395,-6,-1,-2,0,-1,2,3,1,16.975
3396,-3,0,-1,-5,-1,-3,-6,-3,16.98
3397,1,1,2,1,-1,-3,-16,-7,16.985
3398,-2,-1,-4,-2,-1,-1,21,6,16.990000000000002
3399,6,3,5,-1,-1,1,0,2,16.995
3400,-2,-5,-6,-2,-1,-4,-9,-7,17.0
3401,-1,1,0,-2,-1,3,12,8,17.005
3402,-1,-1,0,0,-3,-2,-10,-4,17.01
3403,0,-3,-1,-1,-1,0,0,-2,17.015
3404,-1,1,0,-1,0,0,0,0,17.02
3405,-2,-2,0,0,-1,-4,-6,-6,17.025
3406,-3,-1,-3,-2,-3,0,-3,-1,17.03
3407,-1,-1,-1,0,2,1,4,2,17.035
3408,1,-1,-1,-1,0,-1,-1,0,17.04
3409,-1,0,-1,0,0,0,1,0,17.045
3410,-2,-1,0,-2,-2,0,0,0,17.05
3411,-3,-1,-1,-1,-2,-1,-2,-2,17.055
3412,-1,-3,0,2,1,2,1,0,17.06
3413,-1,0,-3,-4,-3,-2,1,1,17.065
3414,-3,-2,0,-1,-1,-3,-16,-4,17.07
3415,-4,-5,-7,-5,0,2,8,-4,17.075
3416,8,3,2,-2,-2,6,18,11,17.080000000000002
3417,-5,-2,0,-1,-1,0,-2,1,17.085
3418,1,-2,-3,2,-1,-1,-6,-4,17.09
3419,-1,-1,-1,-1,-1,-3,-10,-4,17.095
3420,-1,-1,-1,-1,-1,0,-1,2,17.1
3421,-1,-5,-4,1,1,0,8,-2,17.105
3422,1,3,2,0,-1,-3,-4,-1,17.11
3423,3,1,1,1,0,-1,-2,0,17.115000000000002
3424,-3,-2,-2,-2,-2,-3,-7,-5,17.12
3425,1,2,1,0,1,2,3,0,17.125
3426,-3,-2,-2,-2,1,1,2,-1,17.13
3427,1,-1,-2,-1,-1,0,4,1,17.135
3428,-1,0,-2,3,-2,-3,-5,1,17.14
3429,-3,-3,-2,-2,-2,-3,-7,-4,17.145
3430,1,0,1,0,0,2,6,-1,17.150000000000002
3431,-1,0,-1,-1,-2,-2,-1,2,17.155
3432,0,-2,0,-3,-2,-2,-4,-2,17.16
3433,1,-2,-2,1,0,-3,-3,0,17.165
3434,-2,-3,-1,4,-2,0,3,-5,17.17
3435,0,1,0,-10,-3,1,1,6,17.175
3436,-8,-2,1,-3,0,-1,-3,-5,17.18
3437,2,-1,-2,1,0,3,8,5,17.185
3438,2,-2,-4,-2,1,1,0,4,17.19
3439,-1,-2,0,6,1,-2,2,-2,17.195
3440,-5,2,3,5,0,-3,-6,1,17.2
3441,-2,-1,0,-6,-1,0,-1,-1,17.205000000000002
3442,-1,1,1,3,-1,-2,-1,-3,17.21
3443,1,-1,-2,-2,-1,-1,-3,-1,17.215
3444,2,-1,-3,-3,0,0,3,1,17.22
3445,2,-2,2,3,-1,-3,-5,-4,17.225
3446,-1,1,-1,-2,-4,-2,-3,0,17.23
3447,1,1,1,-3,0,1,1,-1,17.235
3448,-2,-2,-3,-2,-1,-2,-2,-2,17.240000000000002
3449,-3,0,0,-1,-2,-1,-4,0,17.245
3450,-1,-1,-4,-5,-2,-2,-1,-1,17.25
3451,-1,0,0,3,-2,-1,1,-3,17.255
3452,-3,-2,-1,2,-3,0,3,3,17.26
3453,-2,-2,0,2,-1,0,-2,-2,17.265
3454,-2,0,-3,-13,-2,-1,-2,0,17.27
3455,0,2,0,1,-2,0,-4,1,17.275000000000002
3456,3,-1,-3,-3,0,-1,3,2,17.28
3457,-2,-3,-1,1,-3,-4,-10,-7,17.285
3458,2,0,1,4,1,1,7,4,17.29
3459,-3,-6,-3,3,0,-3,-11,-5,17.295
3460,3,-1,0,-3,-1,-2,0,-2,17.3
3461,1,-1,-4,-3,-1,0,-4,0,17.305
3462,0,-2,0,1,1,-1,1,-1,17.31
3463,-4,0,-1,-1,-3,-2,0,-1,17.315
3464,0,0,1,4,-1,-2,-6,-1,17.32
3465,-1,0,0,0,-2,-1,1,2,17.325
3466,-3,0,1,-1,-1,-1,-2,-1,17.330000000000002
3467,0,0,0,0,0,-2,3,1,17.335
3468,-1,0,-3,-2,-1,-1,-1,-4,17.34
3469,2,2,2,1,0,0,0,0,17.345
3470,1,-1,0,6,-1,0,2,0,17.35
3471,-1,1,-4,-6,-1,-4,-4,-1,17.355
3472,-2,1,0,-2,-1,-1,0,-4,17.36
3473,0,2,0,-3,1,-1,-1,-2,17.365000000000002
3474,-2,-2,-5,0,0,-1,4,-1,17.37
3475,0,-2,0,0,0,-1,0,0,17.375
3476,-1,0,1,-1,-2,-1,1,1,17.38
3477,-2,-3,-5,-4,-3,-2,-1,-4,17.385
3478,-2,-2,3,4,1,0,-2,-2,17.39
3479,0,0,-1,-1,-1,-1,-2,-2,17.395
3480,1,-2,-5,-2,1,2,11,3,17.400000000000002
3481,0,0,0,1,-4,-3,4,2,17.405
3482,-1,-2,-4,-3,-1,-1,-5,-3,17.41
3483,-4,-2,0,-1,-2,-1,-3,-2,17.415
3484,-1,0,-1,-2,-2,-4,-11,-5,17.42
3485,-1,-1,-2,1,-1,0,4,0,17.425
3486,0,0,2,-1,-2,-1,-5,-1,17.43
3487,-1,0,-3,1,-1,1,4,-2,17.435
3488,-1,-1,0,0,0,-4,-2,2,17.44
3489,-3,-2,-1,-3,-2,0,-3,-2,17.445
3490,-1,0,1,-2,-1,-3,-11,-4,17.45
3491,1,-1,1,-2,-1,0,15,2,17.455000000000002
3492,-1,-1,-1,1,0,0,-9,-4,17.46
3493,1,0,-2,-1,1,0,-2,0,17.465
3494,-1,1,-2,-2,-2,-2,-1,1,17.47
3495,1,0,2,2,1,-2,-4,-3,17.475
