slno,emg1,emg2,emg3,emg4,emg5,emg6,emg7,emg8,Time
0,0,-2,-3,-3,-3,-1,-1,-2,0.0
1,-6,0,0,-1,1,3,0,-2,0.005
2,0,-1,-1,0,-2,1,-2,-3,0.01
3,-1,-1,-1,-3,-2,-1,2,4,0.015
4,-1,-1,1,1,-1,-1,-2,-2,0.02
5,3,-1,0,-1,-3,-1,-2,-2,0.025
6,5,1,0,-3,-2,0,2,1,0.03
7,-1,1,3,1,0,0,-1,-3,0.035
8,0,-1,-4,-1,-1,0,-5,-2,0.04
9,-2,-2,-4,-2,-3,-2,-1,1,0.045
10,-2,-3,-4,0,0,0,4,1,0.05
11,1,-1,-1,1,-1,-1,1,0,0.055
12,-2,1,2,-1,-1,-1,-1,-3,0.06
13,1,0,1,2,2,-2,-5,-2,0.065
14,-3,1,1,-4,-2,-1,-4,-2,0.07
15,-1,0,-1,-1,0,1,-2,-2,0.075
16,-1,-3,-1,2,-2,-1,-1,1,0.08
17,0,-1,2,-1,0,1,2,0,0.085
18,-1,-3,-1,0,2,1,1,-1,0.09
19,2,0,-4,-2,-2,-4,-2,-1,0.095
20,-3,-1,0,-2,0,1,0,-1,0.1
21,-1,-1,-2,1,-2,-1,2,-1,0.105
22,1,1,2,1,1,-2,-1,0,0.11
23,-8,-4,-4,-3,0,0,-2,-4,0.115
24,-3,-3,-6,0,0,0,1,-1,0.12
25,0,-1,-1,-1,-1,0,2,1,0.125
26,-3,0,0,-1,-1,-1,-2,-1,0.13
27,3,1,3,1,-2,-5,-3,-3,0.135
28,1,1,1,0,2,-1,-1,0,0.14
29,-2,-2,-2,-4,-3,-1,-1,-2,0.145
30,2,-1,-4,0,-1,1,0,1,0.15
31,1,-2,-2,0,-2,-1,-3,-1,0.155
32,-1,0,-2,0,-1,-1,-1,-2,0.16
33,4,0,0,1,1,-2,-4,-2,0.165
34,0,-1,-2,-1,-2,-2,1,-1,0.17
35,1,-1,1,-1,0,1,3,0,0.17500000000000002
36,-2,2,4,-1,-2,-1,0,0,0.18
37,0,2,0,0,0,0,0,0,0.185
38,-1,-1,3,-1,-1,1,-4,-5,0.19
39,-2,-1,-2,2,0,-1,0,0,0.195
40,3,-1,-2,-4,-3,0,0,0,0.2
41,-3,-3,2,-2,-2,-3,-2,-4,0.20500000000000002
42,-1,-2,1,-1,-2,0,2,-2,0.21
43,-1,1,2,3,-2,-4,-4,1,0.215
44,-2,-3,-6,-1,1,3,0,1,0.22
45,0,0,-3,-3,-1,0,1,1,0.225
46,0,0,0,2,0,1,0,1,0.23
47,-8,-2,2,-1,0,1,-2,-3,0.23500000000000001
48,-3,-2,0,0,-2,-3,-2,-4,0.24
49,0,-4,-4,2,0,2,8,2,0.245
50,2,0,-1,-2,0,-1,1,2,0.25
51,4,-2,-3,0,-3,-2,-1,-1,0.255
52,0,-3,-1,-2,-3,-3,-5,-3,0.26
53,-2,-1,1,1,0,0,-2,0,0.265
54,1,-2,-1,1,-1,-1,-2,-1,0.27
55,1,-1,-1,-2,-1,2,0,2,0.275
56,-1,-2,-2,-1,1,0,-2,-1,0.28
57,2,0,0,0,-1,0,-1,1,0.28500000000000003
58,-4,-5,-7,-7,-5,-4,-5,-5,0.29
59,-2,0,-1,-3,-1,-1,1,0,0.295
60,-1,0,2,-1,-3,0,-1,-2,0.3
61,-1,0,1,-1,-2,0,-3,-4,0.305
62,-1,-2,-5,0,1,-2,1,1,0.31
63,-2,0,-1,-2,-1,-1,-2,-3,0.315
64,-1,-4,-6,-3,-1,0,2,2,0.32
65,0,0,-1,-3,-2,0,4,1,0.325
66,0,-1,-1,-4,-1,-1,-1,1,0.33
67,-1,-2,-1,-1,-1,-1,-1,-1,0.335
68,0,0,1,1,0,0,-1,-2,0.34
69,-1,-3,-2,0,1,-2,-2,-3,0.34500000000000003
70,-1,0,3,1,0,-1,0,0,0.35000000000000003
71,2,1,-1,-1,0,0,0,1,0.355
72,-2,0,3,1,0,-1,0,0,0.36
73,4,0,0,1,-1,0,-2,-1,0.365
74,-8,-3,-2,1,-1,-1,-2,-2,0.37
75,3,2,3,1,0,2,1,1,0.375
76,3,0,-1,3,-1,-3,1,1,0.38
77,0,-1,-2,-4,-1,-2,-3,-1,0.385
78,-1,-4,-12,-1,0,-1,0,-3,0.39
79,1,2,1,-2,3,1,2,-1,0.395
80,-1,-2,1,2,3,0,-4,-3,0.4
81,-2,-2,0,-4,-4,-1,-2,-1,0.405
82,0,0,1,0,-3,0,-1,0,0.41000000000000003
83,-1,-2,-1,0,-3,-1,2,1,0.41500000000000004
84,2,1,-3,0,1,0,-1,-1,0.42
85,-2,0,3,3,0,-2,-2,0,0.425
86,0,1,-3,-2,-1,-1,-3,-1,0.43
87,1,-3,-3,-2,0,-1,1,-3,0.435
88,2,1,1,0,-2,0,0,1,0.44
89,-6,0,-2,-2,0,-1,-2,-2,0.445
90,-3,-1,0,-1,-1,-1,2,3,0.45
91,-3,-2,-4,-1,-2,-2,-3,-1,0.455
92,-1,-1,0,0,-1,-1,-3,-1,0.46
93,1,1,0,4,2,2,7,4,0.465
94,2,1,-2,-6,-1,0,-2,-3,0.47000000000000003
95,-1,-2,-2,-1,-4,-3,-1,0,0.47500000000000003
96,-1,-2,0,-2,-2,-1,-2,-4,0.48
97,-2,-3,-4,0,-2,-3,-5,-3,0.485
98,-1,1,3,1,2,0,0,0,0.49
99,1,1,3,0,-1,0,6,3,0.495
100,-4,-1,-3,-2,-3,-1,0,0,0.5
101,-2,0,1,-1,0,-2,-1,-1,0.505
102,3,3,8,2,-1,-1,-3,-3,0.51
103,-8,-6,-8,0,0,-2,-5,-2,0.515
104,0,-1,1,-2,-2,-1,0,0,0.52
105,-3,0,1,-3,-2,0,-2,0,0.525
106,-3,-3,0,1,0,0,0,-1,0.53
107,10,3,5,-1,-2,1,-1,-1,0.535
108,-7,-2,-6,-1,1,0,4,4,0.54
109,-1,-1,-1,0,-1,-3,-7,-3,0.545
110,1,0,1,1,0,0,1,3,0.55
111,-1,2,1,3,1,1,-2,-2,0.555
112,1,-2,-2,0,-1,-2,-1,-3,0.56
113,3,-2,-1,-1,-3,-1,0,-1,0.5650000000000001
114,0,-1,2,-2,0,0,1,0,0.5700000000000001
115,-2,-1,-3,0,-2,-1,-2,-1,0.5750000000000001
116,-2,-2,-1,-2,0,-2,1,0,0.58
117,-3,-2,-5,-1,0,0,-1,-1,0.585
118,-2,-2,-4,-4,-1,-1,2,1,0.59
119,-1,-1,0,-3,-2,-4,-7,-5,0.595
120,3,2,2,1,1,0,2,0,0.6
121,0,-2,2,3,1,-1,-2,1,0.605
122,-1,-2,-3,1,-1,0,-2,0,0.61
123,-2,0,2,-3,-1,1,1,2,0.615
124,-1,-2,-4,0,-4,-2,-1,-1,0.62
125,-1,-3,-2,-3,-2,-3,-4,-3,0.625
126,-1,0,0,-3,-2,-1,-1,-1,0.63
127,-7,-6,-10,-4,-2,-3,-3,-2,0.635
128,2,1,0,0,-4,0,-2,-2,0.64
129,0,1,0,-3,-3,0,0,0,0.645
130,-2,-1,-1,-2,-1,1,0,-4,0.65
131,-1,1,3,1,0,-2,2,3,0.655
132,-2,-1,3,-1,-3,-2,-3,0,0.66
133,-3,-3,-5,-3,-2,-1,0,-2,0.665
134,-1,1,0,0,-1,-2,-4,-2,0.67
135,1,-2,-4,-1,0,-1,2,-1,0.675
136,-2,0,-3,-2,0,2,-2,0,0.68
137,1,-1,4,1,3,0,4,0,0.685
138,0,-1,-5,-1,-2,-3,-1,-1,0.6900000000000001
139,-6,-3,2,0,-1,1,-3,-3,0.6950000000000001
140,1,0,1,-2,1,1,-1,-2,0.7000000000000001
141,-2,-1,-4,-2,-1,0,-2,-7,0.705
142,1,-2,1,1,-2,0,5,6,0.71
143,2,0,-1,0,-1,0,-2,1,0.715
144,-3,-4,-3,-3,-1,-2,-3,-2,0.72
145,-2,-2,-5,0,-1,-3,-3,-3,0.725
146,-1,1,1,0,1,0,-1,-1,0.73
147,-1,2,3,-3,-2,-1,-2,-1,0.735
148,-2,-1,-2,-2,0,1,1,1,0.74
149,0,-1,1,0,-1,-1,0,-1,0.745
150,-8,-3,-2,2,-1,-1,-1,-2,0.75
151,-2,1,2,2,-1,-1,-1,-1,0.755
152,1,1,0,-1,0,0,1,-1,0.76
153,-4,-1,-1,0,-2,-2,-1,4,0.765
154,3,1,2,-1,-1,-2,-6,-4,0.77
155,2,0,-1,0,0,0,9,2,0.775
156,-2,-1,3,2,-1,-2,-3,-3,0.78
157,1,3,4,2,0,1,0,1,0.785
158,0,0,-3,-4,-2,-1,1,3,0.79
159,0,-3,-1,1,-1,-1,-5,-1,0.795
160,0,-1,0,1,-2,-3,0,-1,0.8
161,-1,0,-3,-5,-2,0,0,1,0.805
162,1,-2,2,0,0,-1,-3,-4,0.81
163,-1,-1,3,-1,0,-3,0,-3,0.8150000000000001
164,1,2,-2,-1,-1,1,3,3,0.8200000000000001
165,-3,0,4,3,0,-1,-4,-2,0.8250000000000001
166,2,0,-3,0,1,2,1,1,0.8300000000000001
167,-2,-3,-4,-4,0,0,-2,2,0.835
168,0,0,2,1,0,0,-4,-3,0.84
169,-1,-3,-6,-2,-2,-2,5,-1,0.845
170,0,-2,0,0,-1,-1,0,0,0.85
171,-4,-1,-3,1,-1,1,4,1,0.855
172,-4,-3,0,0,2,1,0,1,0.86
173,0,-3,0,1,-1,0,-3,-2,0.865
174,-5,-4,-5,-5,-5,-3,-1,-2,0.87
175,3,2,-2,-1,-2,-3,-4,-4,0.875
176,-1,1,4,0,0,-2,-1,0,0.88
177,-2,-2,-4,-2,-1,1,1,0,0.885
178,0,0,3,4,4,0,-2,-2,0.89
179,1,2,0,-4,-3,2,-1,1,0.895
180,0,0,-2,-2,-1,-1,1,1,0.9
181,2,2,-1,0,0,1,0,0,0.905
182,-2,-2,-1,1,0,-2,-6,-3,0.91
183,1,-1,-6,0,-2,-3,1,-1,0.915
184,-1,-1,3,0,-1,0,-1,-2,0.92
185,-2,-3,-3,0,-2,-3,-4,0,0.925
186,3,0,-1,-5,-1,2,6,2,0.93
187,-7,-6,-11,-2,-3,-1,-4,-4,0.935
188,10,0,-2,-4,-1,-2,-3,-2,0.9400000000000001
189,-5,-4,-3,0,0,-1,1,0,0.9450000000000001
190,1,2,0,-3,-3,-2,-1,0,0.9500000000000001
191,2,0,3,1,1,1,-1,-2,0.9550000000000001
192,-1,1,-2,0,0,-1,-3,-2,0.96
193,3,1,2,-4,-1,-1,3,1,0.965
194,-3,-2,-2,2,1,-1,-1,-3,0.97
195,-2,-1,-4,-4,-2,0,-2,-1,0.975
196,-4,-3,-3,-4,-3,-1,0,-2,0.98
197,2,1,3,4,1,1,-1,0,0.985
198,-4,-2,-1,-2,-2,-1,5,1,0.99
199,-2,1,5,3,1,-1,-8,-4,0.995
200,0,-2,-2,0,0,0,6,2,1.0
201,-1,0,-3,-3,0,-1,-4,-1,1.0050000000000001
202,-1,0,0,-1,-1,-1,-1,1,1.01
203,0,1,6,1,1,0,-1,-2,1.0150000000000001
204,-4,-1,-2,4,1,0,-3,-1,1.02
205,1,2,0,-2,-1,0,0,0,1.025
206,0,0,1,0,-1,1,0,1,1.03
207,2,-1,0,-3,2,-2,-3,1,1.035
208,-8,-2,-2,-1,0,-2,2,-3,1.04
209,-3,0,0,-1,-1,-1,-2,-3,1.045
210,2,0,-1,-1,0,-3,-3,0,1.05
211,1,0,1,4,-3,1,4,2,1.055
212,1,-3,-4,-2,-1,-3,-4,0,1.06
213,-1,-2,-2,-2,-1,-1,0,-2,1.065
214,-3,0,0,0,-2,0,-2,-3,1.07
215,0,-2,0,-4,-2,-3,-6,-6,1.075
216,0,0,0,1,-1,2,9,5,1.08
217,0,-2,-1,-2,-1,-2,-3,0,1.085
218,-1,-2,-5,-2,-1,-1,-3,-2,1.09
219,0,-1,-1,-1,-3,-1,1,2,1.095
220,0,1,6,-1,-1,-2,-5,-2,1.1
221,0,-2,-2,-1,-1,1,2,2,1.105
222,-4,-3,-1,1,0,1,0,1,1.11
223,0,-2,-5,-5,0,-1,0,-1,1.115
224,-1,-2,-1,-1,-2,-1,-5,-3,1.12
225,2,2,4,2,1,1,1,3,1.125
226,0,0,2,1,-2,-2,-2,-2,1.1300000000000001
227,-2,-3,-1,1,0,-1,-2,-2,1.135
228,0,-1,0,-2,-1,1,3,0,1.1400000000000001
229,-2,0,-2,-3,0,-1,-1,-3,1.145
230,-7,-3,-1,1,0,0,3,2,1.1500000000000001
231,-2,-1,2,-1,-1,-2,-2,0,1.155
232,3,-1,-4,-1,1,-1,-1,-1,1.16
233,0,3,4,3,0,0,-2,-1,1.165
234,0,-1,0,-2,0,-1,-2,-1,1.17
235,0,0,0,0,0,-3,-2,0,1.175
236,1,0,-3,-1,-2,2,9,4,1.18
237,-2,-3,-1,1,-4,-2,-2,-1,1.185
238,0,0,-1,-2,1,0,2,1,1.19
239,1,-1,-2,1,0,-1,2,2,1.195
240,1,3,2,-1,0,-3,-7,-4,1.2
241,0,-2,-2,0,1,1,2,4,1.205
242,0,-4,-1,0,-1,-3,-3,-4,1.21
243,-3,-1,-6,-2,-2,1,-2,-3,1.215
244,-3,0,-2,-3,-3,-1,-3,0,1.22
245,-1,0,0,-1,0,-1,-2,-2,1.225
246,-1,-1,-1,2,-2,-2,-2,-2,1.23
247,0,-2,-1,-1,1,-1,-1,-1,1.235
248,-1,-1,0,0,-2,-1,-5,-4,1.24
249,-5,-5,-3,-4,-1,-2,0,-1,1.245
250,6,2,1,0,0,2,0,2,1.25
251,-6,-3,2,-3,-4,-1,1,-1,1.2550000000000001
252,0,-4,-5,-1,3,1,-1,0,1.26
253,1,-3,-2,-2,0,-1,8,-1,1.2650000000000001
254,1,1,2,-1,-1,1,-3,-2,1.27
255,2,-2,-3,0,-1,-1,1,2,1.2750000000000001
256,-3,-2,2,0,-1,-1,-2,1,1.28
257,-1,0,1,1,1,-1,-1,0,1.285
258,-2,-1,-2,-1,-1,0,-2,0,1.29
259,1,0,2,0,0,2,3,-1,1.295
260,-2,-4,-6,-1,-2,-3,-5,-1,1.3
261,1,-1,2,3,0,-2,-2,-1,1.305
262,-3,-3,-6,-3,-1,-2,-3,-1,1.31
263,-3,1,0,-2,1,0,-2,-3,1.315
264,0,1,1,-3,-2,-2,0,0,1.32
265,-1,-3,-3,-4,-3,-2,-2,-3,1.325
266,-4,-1,1,3,-3,-3,-6,-5,1.33
267,2,3,4,0,1,1,2,3,1.335
268,-2,-2,-3,0,0,0,1,-2,1.34
269,-2,-3,-7,-3,0,-1,-3,0,1.345
270,3,2,-2,-2,-2,-1,-1,0,1.35
271,-3,-3,-1,1,-2,-2,-2,-1,1.355
272,0,-1,1,1,0,-1,-3,-4,1.36
273,-3,2,0,-1,-1,-2,-2,0,1.365
274,0,-1,-7,-7,-2,-2,0,0,1.37
275,1,-1,-3,0,0,-3,-7,-1,1.375
276,-1,-3,-2,0,-1,0,3,3,1.3800000000000001
277,1,-1,0,-2,-2,-2,-8,-6,1.385
278,-4,-2,0,2,3,1,5,0,1.3900000000000001
279,3,1,1,-3,-3,0,4,0,1.395
280,-2,-1,-2,-2,-3,-3,-3,-1,1.4000000000000001
281,0,1,-1,-2,-1,1,-1,-2,1.405
282,0,0,2,0,-2,-1,1,0,1.41
283,-3,-5,-7,-1,0,-1,1,-2,1.415
284,0,0,3,0,0,1,3,2,1.42
285,1,1,3,0,-1,-2,-3,-2,1.425
286,-2,-2,-2,1,1,-3,0,1,1.43
287,0,-2,-6,-2,2,-2,0,-2,1.435
288,9,1,-1,-2,-1,0,1,2,1.44
289,-6,-5,-2,-3,-2,-1,1,-1,1.445
290,0,0,0,-1,0,2,1,0,1.45
291,0,0,1,-2,-3,-1,-1,0,1.455
292,-1,-1,1,1,0,0,-2,-1,1.46
293,-3,-1,-2,1,0,-2,0,-2,1.465
294,1,1,2,-1,-1,-1,-3,-3,1.47
295,1,-1,0,-4,-1,-2,-3,-2,1.475
296,-5,-1,-2,-1,-1,-1,-1,-1,1.48
297,2,-2,-6,-2,-4,-2,-1,1,1.485
298,-2,-1,3,1,1,0,3,0,1.49
299,-1,0,-2,3,1,1,2,3,1.495
300,-2,0,1,2,-1,-3,-6,-3,1.5
301,-3,-5,-7,-1,1,-1,0,-2,1.5050000000000001
302,2,2,1,-1,0,2,1,0,1.51
303,2,1,0,0,0,0,-2,-3,1.5150000000000001
304,-2,1,0,0,0,0,4,2,1.52
305,3,2,0,-1,0,0,1,1,1.5250000000000001
306,3,-2,-2,-2,-2,-2,-3,-2,1.53
307,-6,-3,1,-3,-1,2,0,-1,1.5350000000000001
308,-1,-2,-2,-2,0,-1,-1,-1,1.54
309,1,1,2,0,0,-1,0,2,1.545
310,1,-3,-2,-2,-2,-2,-3,-2,1.55
311,1,2,0,2,-1,-2,3,4,1.555
312,-2,-2,-2,-2,0,-1,-1,-3,1.56
313,0,1,0,5,1,0,-1,-1,1.565
314,-1,1,5,1,-1,-3,-2,0,1.57
315,-2,-1,-4,2,0,1,0,0,1.575
316,-1,0,0,-2,-3,-1,-2,-2,1.58
317,1,0,4,1,-2,-2,0,1,1.585
318,-4,-3,-3,0,2,-2,-4,-4,1.59
319,1,1,3,-2,-2,-1,2,1,1.595
320,-1,-2,-2,-3,-3,-4,-3,-1,1.6
321,-1,-1,0,0,0,1,-2,-4,1.605
322,-2,-1,-3,0,-1,-4,0,0,1.61
323,-1,0,0,-2,-2,-1,1,0,1.615
324,-1,-2,-3,-1,1,0,-2,0,1.62
325,0,0,0,-4,-2,0,1,0,1.625
326,-2,0,0,0,-1,0,-2,-1,1.6300000000000001
327,-3,-2,-6,-3,0,-3,-3,-5,1.635
328,-1,0,1,-1,-1,-2,2,2,1.6400000000000001
329,-2,-1,1,0,0,-2,-1,-2,1.645
330,6,3,1,3,-1,0,0,0,1.6500000000000001
331,-2,-2,0,0,0,0,-3,-2,1.655
332,1,-1,-3,2,-1,-1,1,-2,1.6600000000000001
333,-4,-1,-1,-2,-2,-2,-1,-2,1.665
334,0,-3,-3,-3,-2,0,0,2,1.67
335,2,1,1,2,0,-1,-3,-1,1.675
336,-5,-2,-2,0,-1,0,-1,-4,1.68
337,-3,-1,1,0,-1,-2,1,2,1.685
338,-3,-3,-2,-2,-1,-1,-1,-1,1.69
339,2,0,0,0,-2,-1,0,-1,1.695
340,-2,-1,1,0,-1,-2,-2,-2,1.7
341,2,1,1,-1,-1,-1,0,1,1.705
342,-1,-2,-3,-1,3,2,0,-2,1.71
343,0,-2,-5,-3,-1,-2,-3,-1,1.715
344,-1,-1,-3,-1,-2,-2,-3,-1,1.72
345,1,0,-2,-2,-3,-2,-2,0,1.725
346,-2,1,1,-2,0,0,5,2,1.73
347,5,2,-1,-2,0,-2,-1,2,1.735
348,8,0,3,0,0,0,1,3,1.74
349,-9,-10,-10,0,-1,0,-5,-2,1.745
350,-3,-2,-4,-2,-2,-2,-5,-3,1.75
351,-2,0,0,0,-1,-2,-1,-2,1.7550000000000001
352,-1,0,1,1,-1,1,2,0,1.76
353,1,1,0,0,0,0,0,1,1.7650000000000001
354,1,0,-1,-1,-1,-1,-1,2,1.77
355,-2,-1,1,1,-2,-1,-1,-4,1.7750000000000001
356,-3,0,1,0,-3,-2,-1,2,1.78
357,1,0,-3,-1,-2,1,1,0,1.7850000000000001
358,-2,-2,1,0,-2,0,-1,0,1.79
359,1,-1,1,-2,-1,0,-1,-2,1.795
360,-2,-2,0,1,1,0,0,-2,1.8
361,2,2,3,0,-2,-1,-3,-5,1.805
362,-1,-3,-6,-3,0,1,-2,-1,1.81
363,-3,-2,-2,-1,0,-2,-3,1,1.815
364,-3,-2,-2,-4,-1,2,0,-3,1.82
365,2,0,-1,-2,2,1,12,5,1.825
366,-3,0,2,0,-1,-3,-3,-3,1.83
367,0,0,3,0,0,1,-1,1,1.835
368,5,0,-5,-2,-1,-1,-1,1,1.84
369,-2,-3,0,-3,-4,-1,-1,-1,1.845
370,0,0,0,-3,-3,-2,1,-1,1.85
371,-3,-3,-7,-2,0,2,0,-1,1.855
372,-1,-1,-1,-1,-2,-2,-3,-1,1.86
373,0,0,0,5,1,-1,-1,0,1.865
374,0,-1,-2,-3,-5,-4,-2,-2,1.87
375,-3,-1,4,-1,-2,-2,-2,-1,1.875
376,-3,-2,-3,-3,-2,0,0,-2,1.8800000000000001
377,-2,-2,-1,0,1,-1,0,-3,1.885
378,-1,0,1,0,-1,-1,-4,-1,1.8900000000000001
379,-1,1,-3,0,-1,0,2,-1,1.895
380,-3,0,-1,-1,0,0,3,2,1.9000000000000001
381,-1,3,4,-2,-2,-1,-3,-2,1.905
382,0,-2,-2,-2,-2,-3,-1,-2,1.9100000000000001
383,-3,-2,0,1,1,-2,-2,1,1.915
384,-1,0,-1,-5,0,3,6,1,1.92
385,-6,-2,5,4,3,1,4,0,1.925
386,-1,-2,-2,-1,2,0,0,-1,1.93
387,9,1,-1,0,-1,-2,-2,-1,1.935
388,-5,-5,-2,1,0,-2,-4,-2,1.94
389,1,1,-3,-3,0,0,0,-3,1.945
390,-1,1,2,1,0,0,2,0,1.95
391,-3,-2,-5,0,-1,-3,-3,-1,1.955
392,2,2,1,0,-1,0,0,1,1.96
393,0,-1,-3,-2,-1,0,-7,-4,1.965
394,0,0,0,0,-1,-1,-3,-1,1.97
395,0,0,2,-1,-1,-3,0,-2,1.975
396,-3,-3,-10,-3,-2,-3,-2,-3,1.98
397,1,0,-3,0,0,-1,-7,-2,1.985
398,-4,-1,-1,1,-1,-2,-1,3,1.99
399,0,-1,-2,-6,-2,0,-3,-2,1.995
400,-3,1,3,1,0,0,2,4,2.0
401,2,-1,-2,-4,0,-1,0,0,2.005
402,0,0,1,-2,-3,-3,-4,-4,2.0100000000000002
403,-1,-1,-2,0,1,3,1,0,2.015
404,8,1,4,1,-1,-3,-2,-1,2.02
405,-9,-2,-3,-1,-2,-3,-3,-1,2.025
406,0,0,1,-3,-2,1,2,-1,2.0300000000000002
407,-4,-4,-6,-3,-3,-2,-1,-1,2.035
408,0,0,1,2,-1,0,-5,-3,2.04
409,3,-1,-1,0,-1,0,3,3,2.045
410,-2,-2,-3,-2,1,0,0,-2,2.05
411,-3,0,-1,0,-1,0,4,2,2.055
412,-1,1,3,0,0,-1,-3,-3,2.06
413,-4,-3,-3,-2,-2,-3,-4,-3,2.065
414,0,-1,-1,2,1,0,2,0,2.07
415,-1,-2,-1,-1,0,1,1,-1,2.075
416,-2,0,1,-1,-2,0,0,2,2.08
417,1,0,-2,-2,1,0,0,0,2.085
418,0,-2,-3,1,-3,0,-2,-1,2.09
419,-4,-2,1,-2,-2,-3,-6,-3,2.095
420,-1,0,1,1,0,0,13,4,2.1
421,0,-2,-7,-2,-2,0,-1,-2,2.105
422,1,-1,2,-1,0,-4,-2,3,2.11
423,-7,-1,0,-1,1,0,0,-2,2.115
424,-4,-2,-4,-1,-1,0,-3,-2,2.12
425,5,1,0,0,-1,-2,0,2,2.125
426,-1,1,-2,-4,-2,0,0,1,2.13
427,1,1,1,1,-2,-2,-4,-3,2.1350000000000002
428,-2,-2,-6,-2,0,-3,0,1,2.14
429,-2,0,1,-2,-2,-1,1,-1,2.145
430,0,-4,-7,-4,-2,0,-2,-2,2.15
431,2,1,0,-1,-1,0,-1,-1,2.1550000000000002
432,-1,-1,-1,0,-1,-1,-3,-2,2.16
433,-3,-2,-1,-2,-2,0,-2,-1,2.165
434,-3,-1,-1,3,-1,-2,2,1,2.17
435,0,0,-5,-3,-3,0,1,1,2.1750000000000003
436,-1,2,3,-1,-2,-1,-4,-1,2.18
437,0,-2,-5,1,0,0,-2,-1,2.185
438,-3,-1,-1,0,1,0,-4,-2,2.19
439,1,0,-1,1,1,1,3,2,2.195
440,-4,-4,-2,-1,-2,0,-1,-3,2.2
441,8,0,1,0,0,0,-1,4,2.205
442,-7,-2,3,1,0,1,5,0,2.21
443,2,-2,-2,-1,-1,-3,-8,-2,2.215
444,1,-1,-3,0,0,-3,0,-3,2.22
445,0,-1,-1,1,-1,-1,-3,-3,2.225
446,0,1,-1,-1,-1,-1,-1,0,2.23
447,0,0,2,0,0,-1,0,0,2.235
448,-3,-1,-1,-1,-1,-1,-3,-1,2.24
449,-1,0,2,1,-1,1,4,1,2.245
450,1,0,-1,-2,1,-1,-4,-1,2.25
451,-1,-2,-1,0,-1,0,2,-1,2.255
452,0,1,2,1,1,0,-2,-1,2.2600000000000002
453,-2,-1,-1,0,0,0,0,0,2.265
454,-3,-1,-1,-1,0,1,3,0,2.27
455,-2,-2,-2,1,-2,-4,1,-1,2.275
456,-1,-1,-2,-2,0,2,-2,0,2.2800000000000002
457,-3,-1,-1,-2,-1,-1,-1,-3,2.285
458,1,-2,-1,0,-1,-3,-4,0,2.29
459,-3,1,2,1,0,-2,-4,-4,2.295
460,-4,-4,-4,-2,-1,0,12,4,2.3000000000000003
461,-1,-1,1,0,-1,0,-1,-1,2.305
462,0,0,2,-1,-2,-2,-3,-3,2.31
463,0,-1,-4,-4,-1,-2,2,-1,2.315
464,1,-1,2,1,-1,-1,-7,-2,2.32
465,-3,-1,-1,0,0,-1,-1,-4,2.325
466,5,1,-2,-2,0,0,3,2,2.33
467,-8,-6,-4,-4,-3,-1,-4,-3,2.335
468,0,-1,3,1,-2,-2,-3,0,2.34
469,-2,-4,-4,-1,1,0,1,0,2.345
470,1,0,-4,0,2,3,-1,-1,2.35
471,1,2,2,0,1,1,5,4,2.355
472,-4,-1,0,-4,-3,-2,-6,-5,2.36
473,-1,-2,-4,-1,-1,-1,1,-1,2.365
474,-5,-2,-3,-3,-3,-2,0,0,2.37
475,2,-1,1,3,0,-1,-1,-1,2.375
476,6,0,-3,-3,-2,-2,-3,-1,2.38
477,-5,-1,0,0,-2,0,-3,-1,2.3850000000000002
478,2,-1,-3,-1,0,-2,-2,0,2.39
479,-5,-2,0,0,0,1,2,1,2.395
480,1,1,-1,-1,-1,1,7,1,2.4
481,-1,0,-1,0,-3,0,-2,-1,2.4050000000000002
482,-2,1,-1,-2,-1,-2,-1,1,2.41
483,1,0,1,3,-1,1,-2,-3,2.415
484,-1,-2,-3,-1,0,0,-3,0,2.42
485,-3,0,-1,-3,-1,0,0,-2,2.4250000000000003
486,-1,-3,-2,2,-1,0,0,-1,2.43
487,3,2,1,-1,0,-1,0,0,2.435
488,-3,-1,0,0,1,-3,-5,-4,2.44
489,1,0,-2,0,0,-1,-3,-2,2.445
490,1,-1,1,-2,-1,1,2,0,2.45
491,-1,-3,-3,-1,-1,-2,-2,-4,2.455
492,0,-1,0,-1,-1,-2,-2,0,2.46
493,7,2,3,1,0,-1,0,1,2.465
494,-5,-4,-2,0,-1,-1,-1,-2,2.47
495,1,2,3,0,0,-1,2,2,2.475
496,0,-1,0,0,1,-1,1,0,2.48
497,0,2,0,2,-1,-1,-2,0,2.485
498,1,-1,2,5,-1,-1,-1,-3,2.49
499,-1,-1,-3,-8,-2,1,4,1,2.495
500,-1,-2,-2,-1,-2,0,-5,-2,2.5
501,-1,0,1,0,1,-2,-1,-2,2.505
502,2,2,5,-1,1,1,-1,1,2.5100000000000002
503,0,0,2,-2,-1,0,0,1,2.515
504,-1,-4,-1,8,1,0,2,-1,2.52
505,-2,-1,-3,-2,-1,1,-1,2,2.525
506,-2,1,-1,3,0,-2,-1,-2,2.5300000000000002
507,0,-1,0,2,-1,-2,-3,-3,2.535
508,-2,1,1,-2,0,-1,-1,-1,2.54
509,2,-1,-3,-2,-1,-1,1,-1,2.545
510,-9,-2,-3,-2,1,-2,-1,-2,2.5500000000000003
511,1,-1,-3,-2,0,-1,-1,-2,2.555
512,0,0,-1,-3,-3,0,0,1,2.56
513,-1,-1,-1,0,-2,-3,-1,0,2.565
514,4,0,-1,-4,-1,-1,0,0,2.57
515,1,-2,2,0,0,0,0,-1,2.575
516,-3,-3,-3,-3,-2,0,1,-2,2.58
517,-1,-2,3,-1,0,-2,-1,0,2.585
518,4,-1,2,0,1,1,-2,0,2.59
519,-8,-3,-3,6,-1,0,3,0,2.595
520,0,-2,-1,1,2,0,-3,-4,2.6
521,-1,-1,0,-2,-3,-4,-5,0,2.605
522,-1,-1,-3,-4,-2,1,4,0,2.61
523,1,0,0,1,-1,0,-1,2,2.615
524,0,1,0,-1,-2,0,-4,-2,2.62
525,-4,-2,-2,-1,-1,0,-2,-2,2.625
526,-7,-1,-1,-2,0,0,-2,-4,2.63
527,-3,0,-2,0,0,-2,-2,1,2.6350000000000002
528,3,6,12,2,0,-1,-2,1,2.64
529,-5,-5,-11,-7,-2,-2,-1,-4,2.645
530,4,0,-2,-3,-2,-3,0,-1,2.65
531,1,-1,-2,-3,0,-1,0,-2,2.6550000000000002
532,-1,-1,0,-1,0,0,1,0,2.66
533,-4,-2,-2,-2,0,1,1,-1,2.665
534,0,0,6,4,-3,-3,-1,-1,2.67
535,-2,-3,-7,-7,-2,-4,-3,-1,2.6750000000000003
536,-1,-1,-2,1,0,-1,0,-1,2.68
537,1,0,2,1,1,-1,2,0,2.685
538,-3,-1,-3,-3,-2,0,-1,0,2.69
539,1,0,4,2,0,0,-2,0,2.695
540,1,1,3,1,-2,-1,1,3,2.7
541,0,-1,0,2,1,0,-2,-2,2.705
542,-1,-4,-5,-5,-1,-1,-8,-6,2.71
543,10,1,-2,-1,-1,-1,2,-2,2.715
544,-14,-6,-4,-5,-1,-2,-8,-2,2.72
545,3,1,3,-1,-3,-1,4,2,2.725
546,0,0,1,0,0,-2,-3,3,2.73
547,-1,-1,-1,3,2,0,-2,-3,2.735
548,2,-2,-5,-2,-2,-1,1,-1,2.74
549,0,3,3,1,2,-1,-2,-3,2.745
550,0,-1,-2,0,-1,-1,-1,-4,2.75
551,-1,1,1,-1,0,0,-2,-1,2.755
552,2,2,-1,-4,-2,-2,0,0,2.7600000000000002
553,-1,-1,4,0,-1,1,-1,3,2.765
554,0,-2,-4,0,2,2,2,1,2.77
555,-5,-2,-3,-2,-3,-3,-2,1,2.775
556,0,-1,0,2,1,0,1,-3,2.7800000000000002
557,-1,-2,1,0,-1,-1,0,2,2.785
558,2,0,0,0,-2,1,5,3,2.79
559,-3,-1,0,-3,-3,-1,-2,-1,2.795
560,6,1,-5,-2,-2,-1,-2,-2,2.8000000000000003
561,-2,-3,-4,-2,0,-3,-2,-3,2.805
562,0,-1,-1,0,-1,-2,-2,1,2.81
563,-1,0,0,0,0,0,0,0,2.815
564,1,1,-1,-4,-2,-1,0,0,2.82
565,1,0,1,-1,-1,1,0,0,2.825
566,-1,-3,-6,-3,0,1,5,1,2.83
567,0,-1,0,-2,-1,-1,-3,-1,2.835
568,-3,-3,0,3,1,2,3,2,2.84
569,-1,2,-5,-4,-3,-3,-4,-1,2.845
570,-1,-1,2,-1,-2,-3,-6,-2,2.85
571,-5,-3,-2,-1,-1,-3,2,-4,2.855
572,-3,-4,-5,-3,-3,-1,0,-2,2.86
573,-1,-2,-2,2,0,0,0,-2,2.865
574,-1,1,0,-5,-3,0,0,-3,2.87
575,1,0,0,1,0,-1,-4,1,2.875
576,4,1,-2,-2,0,-1,-3,-2,2.88
577,-6,-1,3,2,-3,0,-1,0,2.8850000000000002
578,1,1,-2,-1,-1,-4,1,1,2.89
579,-1,1,-1,1,2,0,-5,-2,2.895
580,-2,-1,0,-3,-3,-2,0,0,2.9
581,1,-1,-4,-3,-3,-1,1,0,2.9050000000000002
582,-1,-1,2,2,2,0,-2,-2,2.91
583,2,2,1,1,-1,0,1,1,2.915
584,-1,0,3,1,1,0,0,0,2.92
585,2,2,0,-1,1,-1,-3,-2,2.9250000000000003
586,-6,-6,-8,0,-1,-4,-2,-4,2.93
587,1,-2,-4,-4,0,1,3,2,2.935
588,-2,-4,-6,0,-1,-4,-6,-2,2.94
589,1,-1,0,0,1,0,1,0,2.945
590,0,-1,-3,-6,-4,0,0,-1,2.95
591,0,1,0,1,1,0,1,1,2.955
592,2,1,1,4,1,-1,-3,-3,2.96
593,-1,-3,-2,-2,1,0,0,1,2.965
594,0,0,1,1,-1,-2,-5,0,2.97
595,-3,-2,-2,-1,0,0,0,-2,2.975
596,-1,1,1,-2,-2,-2,3,2,2.98
597,3,1,-1,1,0,1,1,0,2.985
598,2,0,1,-1,0,2,2,0,2.99
599,-3,0,0,0,-3,-2,-1,-2,2.995
600,0,0,-2,-1,0,-1,-1,0,3.0
601,-3,-2,-2,1,0,-2,-2,-2,3.005
602,1,2,2,-1,-1,-1,0,1,3.0100000000000002
603,0,0,3,0,-1,-2,-5,-2,3.015
604,-4,-1,-3,-2,-2,0,0,-1,3.02
605,-2,-3,-1,-3,-1,-1,-1,-1,3.025
606,4,1,0,-2,0,0,-1,0,3.0300000000000002
607,-7,-1,0,-1,0,0,4,0,3.035
608,-4,0,-2,0,1,-1,-2,-1,3.04
609,1,-2,-3,-2,1,-1,-1,-1,3.045
610,2,-1,1,-1,1,-3,-3,-4,3.0500000000000003
611,2,1,4,0,-3,-1,3,1,3.055
612,-1,-4,-4,2,3,3,-2,-2,3.06
613,-4,-2,-3,-1,-3,0,2,1,3.065
614,-2,-1,1,0,-1,0,-1,-1,3.0700000000000003
615,1,-1,-2,1,-1,-2,-1,0,3.075
616,-4,-6,-12,-4,-4,-2,-3,-2,3.08
617,1,2,3,0,-1,-1,-3,-2,3.085
618,-4,-1,-1,-2,0,-1,-2,-1,3.09
619,0,-2,-4,-2,-1,-1,-1,-1,3.095
620,1,0,6,0,0,0,5,3,3.1
621,0,1,-3,-3,-1,-1,-1,0,3.105
622,-3,-2,-3,1,0,0,1,-1,3.11
623,0,1,1,-2,0,-2,-4,-3,3.115
624,-1,-2,0,-1,-3,0,1,0,3.12
625,0,-1,-2,-6,-4,-4,-1,-1,3.125
626,-14,-2,4,1,-1,-2,-3,-3,3.13
627,0,-1,-2,0,1,1,-2,-1,3.1350000000000002
628,1,1,-1,-2,-1,-1,-1,-1,3.14
629,-3,-1,-4,0,-4,-3,-1,0,3.145
630,4,-2,-1,3,0,-1,0,1,3.15
631,0,0,-2,-2,-3,-1,0,2,3.1550000000000002
632,-4,-1,1,0,2,-1,-1,-3,3.16
633,2,0,2,-1,0,1,-1,-2,3.165
634,1,-1,-2,1,-1,0,-1,-1,3.17
635,0,0,-2,-3,0,-1,-4,-2,3.1750000000000003
636,2,4,6,1,0,-1,1,0,3.18
637,0,0,0,1,1,0,-1,2,3.185
638,2,-1,-1,-3,-2,-1,-3,-1,3.19
639,-2,-1,-3,-1,-2,-2,1,2,3.1950000000000003
640,1,0,2,-1,0,0,0,-1,3.2
641,-3,-1,1,1,0,0,-1,-3,3.205
642,0,0,0,1,-2,0,-1,-2,3.21
643,1,0,4,0,-3,-1,-1,-1,3.215
644,-1,-1,-4,-3,0,0,-1,-1,3.22
645,-6,1,1,2,0,-2,-1,-3,3.225
646,-3,-3,-8,-2,-1,1,1,2,3.23
647,0,-3,0,0,0,-2,-6,-2,3.235
648,-1,0,1,1,-1,1,10,3,3.24
649,1,-2,-4,-2,-2,0,-1,1,3.245
650,-2,0,3,-2,0,-2,-3,-2,3.25
651,-1,-1,0,3,0,1,1,-1,3.255
652,-1,-3,-5,-4,-1,0,-6,-2,3.2600000000000002
653,1,-2,0,0,1,1,-1,1,3.265
654,-5,-2,0,-1,-1,-1,-2,-2,3.27
655,0,-2,-2,-1,-1,-1,0,-2,3.275
656,-1,-2,-1,-1,-1,-2,-3,-1,3.2800000000000002
657,-1,-1,-3,-1,-1,-2,1,-2,3.285
658,1,-1,-2,-1,-1,0,-1,1,3.29
659,0,-2,-1,0,0,0,0,-1,3.295
660,0,3,7,2,0,-1,-1,1,3.3000000000000003
661,-1,-3,-6,-1,-2,0,-2,-1,3.305
662,7,1,-1,0,0,1,1,-2,3.31
663,-6,-1,4,0,0,-2,1,0,3.315
664,0,-1,-4,2,1,1,-2,-3,3.3200000000000003
665,-2,0,1,-1,-1,-1,1,3,3.325
666,1,-3,-2,0,1,-1,-2,-3,3.33
667,2,-1,-3,-2,0,0,-1,-2,3.335
668,-2,-4,-3,-2,-1,0,-2,2,3.34
669,-1,-1,-2,0,0,-2,-6,-4,3.345
670,-4,-3,-3,-3,-3,-2,2,-2,3.35
671,2,1,-5,-5,-1,0,6,5,3.355
672,-2,-3,-1,-1,-2,-2,-1,-2,3.36
673,1,0,1,-1,0,-1,0,-2,3.365
674,0,1,4,0,-1,-2,-2,-1,3.37
675,-1,-2,-2,-2,-1,0,-3,-3,3.375
676,1,3,4,2,0,-1,-1,1,3.38
677,1,1,0,1,-1,1,-2,0,3.3850000000000002
678,-2,-1,-2,2,-1,-2,-1,1,3.39
679,-1,0,0,2,1,0,-1,-2,3.395
680,8,-1,-2,-3,-2,-2,-2,-1,3.4
681,-6,-3,2,-3,-2,-1,-3,2,3.4050000000000002
682,1,1,1,-1,-1,0,3,0,3.41
683,-1,1,-1,1,-1,1,0,0,3.415
684,0,-1,0,-2,-2,-1,-3,0,3.42
685,1,-1,0,-1,0,2,1,-2,3.4250000000000003
686,1,1,0,1,2,-2,0,3,3.43
687,0,-3,0,-1,-1,-1,-3,-3,3.435
688,-3,3,6,1,0,0,-6,-3,3.44
689,-2,-1,1,-1,-1,-1,2,-1,3.4450000000000003
690,-3,-2,-7,-2,-1,2,1,1,3.45
691,1,-1,-2,0,0,0,-2,-3,3.455
692,-3,0,-2,-2,1,-1,-2,-2,3.46
693,0,0,2,4,0,0,-4,-4,3.465
694,0,-1,-3,0,-1,0,-3,-1,3.47
695,-1,-2,-1,0,-3,-1,0,0,3.475
696,-2,-1,-2,-3,-2,1,0,-1,3.48
697,1,-2,-3,-1,-2,-1,1,-1,3.485
698,-7,-2,1,-2,-1,-2,-4,1,3.49
699,-3,-1,-1,-1,1,-1,1,2,3.495
700,-2,-3,-3,0,-1,0,0,-2,3.5
701,0,-1,1,2,1,-1,0,0,3.505
702,4,4,6,-1,-3,-1,-1,-6,3.5100000000000002
703,0,-1,1,-1,1,0,3,0,3.515
704,-3,-1,-5,-4,-4,-2,-5,-3,3.52
705,2,1,-1,1,0,-2,-2,0,3.525
706,-3,-3,-8,-2,-1,-4,-5,-3,3.5300000000000002
707,-1,0,-1,-1,-2,-1,1,-1,3.535
708,0,-3,-1,0,0,-1,1,-1,3.54
709,1,1,2,1,-1,0,3,0,3.545
710,1,0,-1,3,1,1,-1,0,3.5500000000000003
711,-7,-4,-3,-1,-2,-4,-5,-2,3.555
712,-2,0,-2,-2,-3,0,-1,1,3.56
713,-1,-1,0,0,-1,0,-1,1,3.565
714,-1,-2,1,0,-1,0,2,1,3.5700000000000003
715,13,4,-3,-1,1,1,0,-1,3.575
716,-6,-3,4,3,-1,0,0,0,3.58
717,-2,-2,-6,-4,1,1,0,1,3.585
718,0,-2,-3,-3,-3,-3,-1,-1,3.59
719,2,0,1,0,-1,-1,-1,-2,3.595
720,0,1,0,-1,1,-1,0,-3,3.6
721,-1,-1,3,0,0,-2,-1,-1,3.605
722,1,-1,-1,-3,-1,0,0,1,3.61
723,-3,-1,0,-1,-1,-1,-2,-2,3.615
724,-1,0,0,-2,-2,-1,0,0,3.62
725,0,0,-1,-1,-2,0,5,1,3.625
726,-3,1,0,0,0,-1,-4,-5,3.63
727,-1,0,2,-2,-3,0,3,2,3.6350000000000002
728,0,-2,-1,-1,-2,-3,-4,-1,3.64
729,0,0,-4,-2,-1,-1,-2,-2,3.645
730,1,1,0,-1,2,3,8,4,3.65
731,7,1,-3,-2,-1,-1,-3,-3,3.6550000000000002
732,-6,-4,-2,-1,-1,-2,1,-1,3.66
733,-1,-5,-5,-5,-4,-3,-8,-2,3.665
734,-1,-1,-2,0,0,-1,-1,-1,3.67
735,-3,-2,-4,-1,1,0,0,-2,3.6750000000000003
736,2,1,-3,-2,-3,-4,-4,-2,3.68
737,-3,-4,-3,-2,-2,-2,0,-2,3.685
738,-2,0,0,-2,-1,0,4,0,3.69
739,-3,-4,-6,-2,-2,-3,-2,-1,3.6950000000000003
740,2,2,0,-2,1,-1,1,3,3.7
741,-7,-1,0,2,0,-1,2,-3,3.705
742,1,1,1,2,-1,-1,0,0,3.71
743,-4,-3,0,1,-2,-1,-4,-2,3.715
744,0,0,1,0,-1,-1,-2,-3,3.72
745,1,1,-1,0,1,-1,-2,1,3.725
746,-1,-4,-2,-1,0,0,-4,-1,3.73
747,-3,0,0,0,1,-2,0,-2,3.735
748,2,1,-3,0,1,3,5,2,3.74
749,6,2,1,-3,-1,-3,-3,0,3.745
750,-9,-6,-5,1,-3,-2,1,0,3.75
751,-1,1,4,0,1,-2,-6,-2,3.755
752,-1,-1,0,0,-1,-3,-1,0,3.7600000000000002
753,2,-1,1,-1,-1,1,1,-2,3.765
754,3,0,0,-1,-2,-1,-1,0,3.77
755,0,-1,-3,0,0,1,3,2,3.775
756,-1,-2,0,2,2,1,-1,-1,3.7800000000000002
757,-2,0,-1,-4,0,0,1,-1,3.785
758,-1,2,4,0,-1,-4,-5,-2,3.79
759,-1,-1,0,0,-1,2,0,0,3.795
760,1,-1,-5,-4,-2,-3,0,0,3.8000000000000003
761,-3,-1,-1,-2,-1,-3,-3,-2,3.805
762,2,2,1,-1,0,1,0,0,3.81
763,0,0,1,-1,0,0,2,2,3.815
764,-2,-3,-3,0,2,3,11,3,3.8200000000000003
765,-4,-6,-7,-1,-3,-3,-3,-1,3.825
766,-2,-3,-7,-2,-3,-2,-2,-5,3.83
767,-1,-1,-1,0,0,1,-1,0,3.835
768,9,3,5,1,-1,-3,-4,-6,3.84
769,-9,-4,1,1,1,2,6,4,3.845
770,0,1,0,-2,-1,0,-3,-2,3.85
771,-1,-2,-2,0,-2,-3,-2,-1,3.855
772,-1,1,0,-2,-2,0,1,1,3.86
773,3,3,0,-10,2,0,-4,0,3.865
774,1,0,1,3,-1,0,-1,-4,3.87
775,-2,-2,5,16,1,-1,-2,-2,3.875
776,-2,-2,-2,0,-2,-1,-2,-1,3.88
777,-1,1,-4,-29,-6,-1,-1,0,3.8850000000000002
778,-2,0,4,5,0,1,0,-1,3.89
779,1,1,0,15,3,1,2,2,3.895
780,-4,1,-1,-4,-3,-1,6,1,3.9
781,-1,-2,-3,6,0,-2,-1,-2,3.9050000000000002
782,2,-1,-5,-8,-1,-2,-4,-3,3.91
783,-5,-1,-1,-6,-3,-3,0,-2,3.915
784,-2,-1,7,9,3,1,-5,0,3.92
785,3,-1,-2,-6,-2,-2,-1,-2,3.9250000000000003
786,-6,-1,3,1,1,-1,6,4,3.93
787,-5,-2,-3,-5,-2,-4,-7,-5,3.935
788,-1,0,-3,-11,-3,0,-3,0,3.94
789,-2,-1,-1,11,-2,0,-1,-4,3.9450000000000003
790,2,-2,-4,5,1,-2,-4,-4,3.95
791,1,1,-1,-9,-1,1,7,5,3.955
792,-2,-4,-5,-3,0,1,0,-4,3.96
793,-1,-1,2,8,-1,0,-2,1,3.9650000000000003
794,0,1,-2,0,2,-1,1,2,3.97
795,2,-1,-5,-13,-3,-1,0,-2,3.975
796,0,1,1,5,0,-1,-4,1,3.98
797,0,0,2,10,0,0,0,-1,3.985
798,1,0,3,-11,-1,-2,-4,-2,3.99
799,-3,-4,-3,3,0,0,0,-1,3.995
800,-1,1,1,-3,-2,-2,-6,-1,4.0
801,2,1,0,2,0,-1,0,0,4.005
802,0,-2,-4,-7,-2,1,0,0,4.01
803,-7,0,2,0,0,-1,-5,-2,4.015
804,-6,-5,-6,8,1,1,6,2,4.0200000000000005
805,4,3,6,-5,2,-1,1,4,4.025
806,0,-1,1,11,1,0,-2,0,4.03
807,-5,-3,-2,-14,-2,-2,-4,-4,4.035
808,0,-1,1,0,0,-3,-1,-1,4.04
809,-4,-2,-1,2,-1,0,-1,-4,4.045
810,2,0,-1,1,-2,-2,7,2,4.05
811,4,0,-2,-4,-1,0,-1,0,4.055
812,-1,-3,-1,2,1,-1,-1,-1,4.0600000000000005
813,1,-2,-4,-2,-2,0,-1,-3,4.065
814,-1,-1,1,-3,0,-1,-5,-2,4.07
815,1,2,-2,0,-3,-1,-1,0,4.075
816,0,-1,-2,-4,-1,0,-2,-1,4.08
817,-2,-1,-3,1,0,0,1,-1,4.085
818,-3,-2,1,4,-1,0,1,-1,4.09
819,6,-1,0,4,1,-2,-1,1,4.095
820,-8,-5,0,-2,1,-2,-7,-6,4.1
821,-4,-4,-5,2,-3,-2,4,3,4.105
822,1,1,-4,-19,-4,-2,-1,1,4.11
823,1,-1,1,2,-1,0,-1,-2,4.115
824,3,2,1,0,-2,-1,-2,-2,4.12
825,0,-2,-1,12,1,0,0,-4,4.125
826,-4,-2,1,-11,-2,0,0,1,4.13
827,0,2,2,0,0,-1,3,1,4.135
828,1,-1,-2,-4,-3,-1,-1,1,4.14
829,-2,1,4,1,0,-1,-3,-1,4.1450000000000005
830,1,0,2,5,-2,-1,0,-2,4.15
831,-3,-3,-1,-2,-1,-1,-1,-2,4.155
832,0,1,1,1,-1,1,1,-1,4.16
833,0,-3,-2,-5,-1,-2,-1,-1,4.165
834,1,-3,0,3,1,-3,-4,-2,4.17
835,-7,-2,0,0,2,0,3,2,4.175
836,-1,-1,-8,-5,-4,-1,2,-1,4.18
837,0,0,1,-1,-1,1,1,1,4.1850000000000005
838,-5,-1,-5,-2,-2,-1,-1,-1,4.19
839,-1,-1,1,3,0,-1,-1,2,4.195
840,2,-1,-1,-2,0,-3,-3,0,4.2
841,-4,-2,0,-4,0,-1,0,-1,4.205
842,2,-2,-4,6,-1,2,1,3,4.21
843,2,2,0,-12,-1,-2,0,0,4.215
844,-2,-2,-1,3,-1,0,-4,-2,4.22
845,-1,0,0,-8,-2,-1,0,0,4.225
846,1,0,1,1,1,1,2,0,4.23
847,1,-3,-6,2,-1,1,1,0,4.235
848,0,-2,-2,-3,-1,-1,0,3,4.24
849,1,0,0,2,-1,-2,-4,-2,4.245
850,-5,-4,0,0,-2,-2,-1,-2,4.25
851,0,3,5,0,-2,0,-3,0,4.255
852,-1,-3,-7,-2,0,0,-1,-2,4.26
853,1,-3,-1,5,0,0,4,1,4.265
854,9,2,0,0,-1,-2,-4,-3,4.2700000000000005
855,-4,-5,-3,-2,-2,-1,-2,-4,4.275
856,1,-1,1,-1,2,-1,4,1,4.28
857,2,0,3,-3,-1,-2,-3,1,4.285
858,0,0,-2,-1,-1,-1,0,-1,4.29
859,0,-1,-4,-4,-2,0,5,1,4.295
860,-1,0,2,8,-1,-1,-4,-2,4.3
861,-1,0,-5,-21,-4,-2,-1,1,4.305
862,-2,0,1,8,2,0,0,1,4.3100000000000005
863,1,-2,-3,-1,0,-1,-5,-4,4.315
864,-3,-2,-3,-9,-2,-1,0,0,4.32
865,3,1,1,4,-1,-1,-3,-3,4.325
866,-2,1,0,-5,-4,0,-2,-3,4.33
867,-1,-1,0,4,0,-1,2,3,4.335
868,0,1,-1,1,-2,0,2,0,4.34
869,-1,-3,-3,1,1,1,-3,-4,4.345
870,-1,-1,0,-2,-1,-4,-2,-2,4.3500000000000005
871,-1,-1,2,10,-1,0,-1,-1,4.355
872,3,1,-1,-10,-1,0,-3,0,4.36
873,-11,-3,-5,0,-1,1,0,-3,4.365
874,-3,-3,-4,-5,-1,-3,1,0,4.37
875,2,-1,4,6,-3,-3,-2,-3,4.375
876,1,-1,-2,2,0,1,-1,0,4.38
877,3,1,4,2,-2,-1,1,2,4.385
878,0,-3,-6,-4,1,1,-1,-2,4.39
879,-5,-2,-4,-6,-3,-2,-2,0,4.3950000000000005
880,-1,-2,-3,-1,0,1,11,2,4.4
881,2,0,2,9,1,1,-2,-1,4.405
882,-5,-1,-1,-11,-3,-2,-2,0,4.41
883,1,0,0,-2,0,0,-3,-1,4.415
884,-2,1,-1,-4,-2,-1,1,3,4.42
885,1,0,-5,-2,-1,0,-1,0,4.425
886,-2,-1,2,3,0,0,0,1,4.43
887,-2,-1,-2,-3,-2,-1,-2,-2,4.4350000000000005
888,-2,0,4,3,-1,-2,-4,-2,4.44
889,0,-1,1,-4,0,-2,0,-2,4.445
890,1,-3,-1,5,-2,0,-3,-2,4.45
891,3,1,-3,-3,0,-1,-2,-1,4.455
892,-2,-1,-3,-1,-2,-2,-1,-1,4.46
893,5,0,-3,-2,-2,-4,-3,-3,4.465
894,-5,-3,0,3,1,-1,3,0,4.47
895,0,1,-2,0,-1,0,1,-1,4.4750000000000005
896,-2,-3,1,4,0,1,-2,-2,4.48
897,0,-1,-3,-2,1,2,0,0,4.485
898,1,1,0,0,-1,-3,-4,1,4.49
899,-2,-2,-2,-2,-1,-1,-2,-1,4.495
900,1,1,0,-3,1,0,-3,-4,4.5
901,-1,1,6,0,-2,1,11,7,4.505
902,-2,-2,-6,-6,0,0,-1,-3,4.51
903,1,0,3,6,2,1,0,3,4.515
904,0,1,3,1,-1,-2,-2,0,4.5200000000000005
905,-5,-4,-8,-6,-2,-3,-4,-3,4.525
906,-2,0,1,4,0,0,-1,-3,4.53
907,-1,1,1,-4,1,-1,-1,0,4.535
908,0,-1,-4,-2,-4,-3,-3,-2,4.54
909,-1,-1,1,7,3,1,-1,-1,4.545
910,10,4,2,0,-1,-1,1,0,4.55
911,-11,-5,-7,-8,-3,0,2,2,4.555
912,-1,-3,-3,-1,-1,0,-2,-2,4.5600000000000005
913,-2,-2,-3,-2,-2,-1,-3,0,4.565
914,-1,0,-1,5,0,0,1,-1,4.57
915,3,-1,-1,1,0,-5,-3,-3,4.575
916,-2,-2,2,1,1,1,3,4,4.58
917,4,0,1,-3,-2,0,-6,-4,4.585
918,-1,-3,-4,-2,-1,-1,-3,-1,4.59
919,-2,-2,-3,-2,-1,0,-1,-3,4.595
920,-2,1,0,-6,-3,-2,-3,1,4.6000000000000005
921,1,-2,-1,2,-1,-3,-3,-1,4.605
922,-2,0,0,-6,-2,-1,-1,1,4.61
923,-1,-1,-1,0,-2,-2,0,-2,4.615
924,-1,-3,-2,7,-1,0,-3,-2,4.62
925,-4,1,0,-3,-3,-1,-1,-2,4.625
926,-2,-2,-2,-4,-5,0,3,-2,4.63
927,2,1,2,0,0,0,-1,2,4.635
928,-1,0,-2,-2,1,-1,3,-1,4.64
929,-1,0,1,1,-1,-1,0,3,4.6450000000000005
930,-1,-2,-1,0,-1,0,-2,-5,4.65
931,2,-1,1,-1,1,1,3,1,4.655
932,-5,-2,4,0,1,0,0,0,4.66
933,-6,-1,-2,-2,0,-3,-2,-3,4.665
934,1,0,1,4,1,-2,-2,0,4.67
935,-5,-3,0,4,-2,-1,-4,-3,4.675
936,3,2,-1,-8,-3,-1,9,4,4.68
937,-1,0,-2,5,1,-1,-3,-5,4.6850000000000005
938,-1,-1,1,-3,1,2,8,5,4.69
939,4,1,0,4,1,0,-4,-1,4.695
940,0,-1,-3,-1,-1,1,-2,-4,4.7
941,0,-2,0,-4,-3,0,-1,0,4.705
942,0,-1,0,6,1,-2,-3,-1,4.71
943,0,-1,1,-6,0,-1,-2,-2,4.715
944,3,2,1,2,-1,-1,0,0,4.72
945,-4,-3,-1,1,0,0,1,-2,4.7250000000000005
946,0,2,2,-3,-1,-1,-3,1,4.73
947,1,-1,-2,2,-2,-1,0,0,4.735
948,-2,-2,0,5,0,-1,-2,-3,4.74
949,1,-1,-1,-10,-2,-2,-6,1,4.745
950,0,1,2,2,-2,0,0,-2,4.75
951,-11,-2,-1,-1,-2,-2,1,-1,4.755
952,-3,-4,-4,-2,1,-1,-1,0,4.76
953,1,0,2,5,0,-2,0,-1,4.765
954,-3,-2,-2,-4,-1,1,3,1,4.7700000000000005
955,1,0,-1,-2,-3,-2,-1,0,4.775
956,-1,-2,1,6,0,-1,-3,-2,4.78
957,-2,-2,-3,-10,-1,1,0,0,4.785
958,-1,-2,-4,-3,-4,-4,-4,-2,4.79
959,2,0,-3,-4,-3,1,2,0,4.795
960,0,0,2,1,-2,0,-1,-3,4.8
961,1,0,-2,3,-1,1,1,2,4.805
962,-2,-2,-1,-2,-1,-2,-2,-2,4.8100000000000005
963,-1,-2,-2,2,1,-1,1,-1,4.815
964,-1,-2,-3,-6,0,-1,-3,-3,4.82
965,2,1,-1,-2,-3,-1,2,1,4.825
966,0,-1,0,-2,-2,0,0,-1,4.83
967,-2,-3,-4,1,1,1,0,-1,4.835
968,-2,1,2,0,-1,-3,0,4,4.84
969,-1,0,5,2,1,0,0,0,4.845
970,-1,-2,-6,-3,1,2,9,3,4.8500000000000005
971,-1,-1,-2,-2,-2,-2,-2,-2,4.855
972,1,-1,0,-3,-3,-2,1,-1,4.86
973,-3,-4,-9,-2,-1,-1,-3,-3,4.865
974,-2,0,0,0,1,-1,-5,-3,4.87
975,-2,0,1,-1,-1,-1,-1,0,4.875
976,-1,-5,-3,1,1,1,1,1,4.88
977,-2,0,-1,-2,-2,-1,0,0,4.885
978,2,-1,-2,-3,-1,-2,-3,-4,4.89
979,1,-1,1,2,2,-1,0,0,4.8950000000000005
980,-1,0,2,-2,-3,-3,-5,3,4.9
981,-2,-2,1,4,2,1,1,-1,4.905
982,-1,0,-1,0,-1,-1,-3,0,4.91
983,1,0,-2,-14,-3,0,3,2,4.915
984,-1,0,-1,0,1,-2,-2,-5,4.92
985,1,1,2,-1,-1,0,-1,-1,4.925
986,2,2,5,5,1,1,4,2,4.93
987,-3,-1,1,2,1,-1,-7,-1,4.9350000000000005
988,-1,0,-8,-7,-4,-3,-7,-5,4.94
989,-6,-3,-2,0,-1,1,11,1,4.945
990,-2,-3,-1,1,-1,-2,-6,-3,4.95
991,0,-1,-1,-1,-2,-1,-2,-2,4.955
992,-1,-1,2,-1,0,2,2,0,4.96
993,2,-3,-5,-1,0,-1,-3,-1,4.965
994,-2,-3,0,2,-1,-1,0,-1,4.97
995,2,0,0,-1,-2,1,1,3,4.9750000000000005
996,-3,-2,-4,1,2,-1,-1,-1,4.98
997,0,2,0,-4,-2,-2,-1,-3,4.985
998,0,0,2,-2,0,0,0,2,4.99
999,-4,-2,-5,3,-2,-2,-1,-1,4.995
1000,2,3,5,-4,-1,0,0,0,5.0
1001,-1,-2,0,0,0,-1,-2,-1,5.005
1002,-4,-3,-6,0,-1,-2,-3,-4,5.01
1003,3,0,4,2,3,0,3,1,5.015
1004,-3,-2,0,6,1,-4,-9,-3,5.0200000000000005
1005,0,0,-3,2,0,0,1,1,5.025
1006,7,1,-1,-2,-1,-2,-7,-1,5.03
1007,-7,-4,0,0,-1,0,4,0,5.035
1008,0,-1,-3,-1,-2,0,2,1,5.04
1009,-1,-1,1,0,-1,-3,-6,-2,5.045
1010,-2,-1,-3,0,-2,-1,1,-3,5.05
1011,3,2,2,-4,-2,0,0,-1,5.055
1012,-2,-3,-4,-2,1,0,0,-2,5.0600000000000005
1013,-2,-2,-7,-3,-3,-3,-2,-4,5.065
1014,-6,-4,-5,1,0,0,1,0,5.07
1015,1,0,0,-4,-3,-1,-2,-2,5.075
1016,1,-2,-3,-7,-3,1,6,3,5.08
1017,-2,0,3,2,0,-1,-1,0,5.085
1018,0,-1,1,0,-3,-1,4,-3,5.09
1019,-4,-1,-3,0,-1,-1,-3,0,5.095
1020,2,1,3,3,0,0,-4,-4,5.1000000000000005
1021,-4,-2,0,-2,0,-1,0,1,5.105
1022,-1,0,0,-3,-1,0,1,-1,5.11
1023,3,-1,1,2,0,-1,-2,-3,5.115
1024,-1,1,1,-4,-2,-1,2,2,5.12
1025,0,0,2,1,0,0,-2,-1,5.125
1026,-4,-2,0,-1,1,-1,-1,-2,5.13
1027,3,0,-2,-1,-3,-2,4,1,5.135
1028,-8,-2,-1,0,1,2,1,1,5.14
1029,0,-1,1,-1,-1,-1,-2,-1,5.1450000000000005
1030,0,1,3,-1,0,3,0,1,5.15
1031,-2,-5,-7,7,1,-3,-5,-5,5.155
1032,-1,-2,-1,-10,-1,-2,3,-1,5.16
1033,1,0,0,0,-1,-3,-3,-3,5.165
1034,-3,-4,-9,-4,-2,-1,0,-2,5.17
1035,2,3,3,1,0,0,1,2,5.175
1036,0,0,0,3,-1,0,-4,-4,5.18
1037,0,2,-2,-2,0,-2,-3,-1,5.1850000000000005
1038,-1,-2,-2,-3,-2,-2,1,1,5.19
1039,-3,-1,-3,-5,-1,-3,-5,-2,5.195
1040,1,-1,-2,1,-6,-2,2,0,5.2
1041,0,-1,0,-7,-1,1,2,0,5.205
1042,-2,1,0,2,-1,1,-3,-1,5.21
1043,-1,0,-4,-3,-2,-3,-1,1,5.215
1044,-2,0,1,3,-1,-2,0,-4,5.22
1045,-1,-1,-2,1,0,0,1,0,5.2250000000000005
1046,1,1,3,-1,-1,0,1,0,5.23
1047,2,1,2,0,0,0,-1,0,5.235
1048,-5,-4,-8,-2,-1,-3,-2,-2,5.24
1049,-2,0,-3,0,-3,-1,-2,-2,5.245
1050,1,-1,0,-1,1,-2,0,1,5.25
1051,4,0,3,-9,-2,2,3,0,5.255
1052,-7,-4,-1,2,2,-1,-3,1,5.26
1053,2,0,2,0,-1,-1,0,-2,5.265
1054,-2,-1,-3,6,1,0,-3,-1,5.2700000000000005
1055,3,2,4,2,-2,-2,-2,1,5.275
1056,0,-1,-1,-4,-1,-1,0,-3,5.28
1057,-3,-2,0,0,-2,-1,-2,0,5.285
1058,1,1,1,-3,-4,-1,1,1,5.29
1059,-3,-3,0,4,1,0,-1,-3,5.295
1060,2,-2,-3,-5,-2,1,1,2,5.3
1061,-1,-4,-2,2,1,-2,-2,-2,5.305
1062,-1,2,1,-1,1,0,-2,-2,5.3100000000000005
1063,-4,-1,0,-5,0,0,2,1,5.315
1064,1,0,4,12,1,2,2,-1,5.32
1065,2,-2,0,-5,-3,1,0,0,5.325
1066,-2,-1,-4,-6,-2,-2,0,0,5.33
1067,-2,-2,0,5,0,-1,-2,-1,5.335
1068,3,1,0,-2,-1,-1,-3,-3,5.34
1069,1,1,5,-1,0,2,11,4,5.345
1070,-2,-3,-5,-4,-3,-1,1,0,5.3500000000000005
1071,-4,-1,-4,-2,-2,-1,-9,-8,5.355
1072,4,1,-1,-1,-1,-1,0,-3,5.36
1073,8,2,3,0,1,-1,-3,2,5.365
1074,-7,-5,0,1,-2,-2,0,1,5.37
1075,0,0,-1,7,2,0,-1,-1,5.375
1076,1,0,-1,-8,-2,-1,-5,-2,5.38
1077,-1,0,0,0,0,0,-2,-3,5.385
1078,0,-4,-4,0,0,0,1,1,5.39
1079,-2,0,-1,-4,-2,-2,-2,-2,5.3950000000000005
1080,-4,-3,-3,2,0,0,-2,0,5.4
1081,-2,-2,-4,-1,0,-1,0,-1,5.405
1082,2,3,3,-2,-1,0,0,0,5.41
1083,0,-1,1,-2,-2,0,2,1,5.415
1084,-5,0,5,4,-2,-3,3,-1,5.42
1085,-1,-2,-2,-1,2,3,2,2,5.425
1086,-1,0,-1,0,-3,-1,-1,-4,5.43
1087,0,-2,-6,-4,-2,-2,-3,1,5.4350000000000005
1088,-2,-1,2,-1,-2,1,-1,2,5.44
1089,-3,-1,-3,1,0,-1,-3,-2,5.445
1090,0,0,3,-1,0,-1,1,1,5.45
1091,-4,-5,-4,-2,-2,-1,-3,-5,5.455
1092,-1,-1,0,-5,-1,0,0,0,5.46
1093,-4,-2,-1,5,-2,-2,-1,-2,5.465
1094,4,3,2,-2,0,-2,-2,-2,5.47
1095,-9,-3,0,5,1,-1,1,-3,5.4750000000000005
1096,-1,2,3,-5,0,-1,-3,1,5.48
1097,-2,-2,-5,-6,-2,0,3,2,5.485
1098,1,0,6,3,0,0,-6,-1,5.49
1099,1,-1,-6,-6,-2,-1,6,2,5.495
1100,2,-2,-2,6,-1,0,-4,-1,5.5
1101,0,0,2,1,-1,-1,-2,0,5.505
1102,-6,-1,0,-2,0,-1,0,0,5.51
1103,1,0,1,-1,0,1,3,1,5.515
1104,0,-1,-3,-3,-1,-2,-3,-4,5.5200000000000005
1105,-2,-1,0,-4,-4,-2,1,-1,5.525
1106,0,-1,-4,0,1,1,0,1,5.53
1107,3,-1,0,-4,-3,-1,-2,0,5.535
1108,0,1,2,2,0,0,0,0,5.54
1109,0,1,1,0,-1,-1,-5,-1,5.545
1110,-1,-1,0,-1,-1,-1,1,0,5.55
1111,-1,-3,-4,-2,-1,-1,-2,-1,5.555
1112,1,-1,-1,-1,-1,0,-1,-2,5.5600000000000005
1113,-4,-3,-4,-2,-2,-2,-2,-1,5.565
1114,0,0,0,-1,-2,2,0,-1,5.57
1115,2,1,1,-1,1,2,1,0,5.575
1116,-4,-3,-7,-3,-2,-4,-4,2,5.58
1117,7,2,3,2,1,-1,1,0,5.585
1118,-12,-7,-6,-4,-1,1,-2,-2,5.59
1119,0,1,2,6,2,-1,-2,-1,5.595
1120,1,0,1,-1,2,1,-5,-2,5.6000000000000005
1121,-1,-1,-6,-11,-3,-1,3,-1,5.605
1122,4,0,-2,-1,-3,-1,-5,-1,5.61
1123,-1,0,0,-3,-1,-2,-1,-2,5.615
1124,-2,-2,0,5,1,2,7,4,5.62
1125,-2,-1,-3,2,-1,-1,-4,-4,5.625
1126,1,1,2,1,0,0,1,1,5.63
1127,-2,-1,-4,0,-1,-3,-2,-1,5.635
1128,1,1,0,-5,-3,-2,0,-2,5.64
1129,0,0,2,-1,1,1,-2,0,5.6450000000000005
1130,0,-2,-2,3,2,-1,0,-4,5.65
1131,3,2,2,0,-1,0,1,0,5.655
1132,-2,-1,-4,-2,0,-2,-1,-2,5.66
1133,-1,0,-2,0,-1,0,-2,-1,5.665
1134,-4,-6,-7,-3,-1,-3,-1,-2,5.67
1135,1,0,0,-3,0,0,-2,0,5.675
1136,1,-1,-2,0,0,1,0,0,5.68
1137,2,3,6,4,-1,0,-1,0,5.6850000000000005
1138,1,0,-3,-1,-1,-1,-1,-1,5.69
1139,-8,-2,0,-2,-3,-2,-3,-3,5.695
1140,-4,-3,-5,1,-3,-2,0,-2,5.7
1141,-2,-4,-1,-1,-2,-3,2,2,5.705
1142,1,0,-6,-5,-4,-1,0,-1,5.71
1143,-1,-2,1,-3,-4,-1,0,0,5.715
1144,-1,-1,1,8,1,0,0,-1,5.72
1145,-4,-2,-3,-11,-3,-2,-4,-4,5.7250000000000005
1146,1,1,1,-1,-1,-1,-2,1,5.73
1147,7,3,0,0,1,2,1,1,5.735
1148,-1,-1,0,0,1,1,-2,-1,5.74
1149,1,-1,-3,0,-2,-1,4,1,5.745
1150,-1,-2,-2,4,0,-2,-2,0,5.75
1151,1,1,1,-6,-1,-1,0,1,5.755
1152,-1,1,2,-3,-1,-2,-5,-4,5.76
1153,-3,-6,-12,1,-1,-2,4,-4,5.765
1154,2,0,0,-5,0,0,1,-1,5.7700000000000005
1155,-3,-1,-2,7,1,1,4,1,5.775
1156,0,-2,2,0,-1,0,-1,-2,5.78
1157,-2,-1,4,4,2,-2,-3,1,5.785
1158,0,-2,-2,-1,1,-1,1,-2,5.79
1159,-1,-3,-3,-3,-1,-1,-3,-1,5.795
1160,0,1,2,5,-1,-1,1,-1,5.8
1161,8,2,1,-6,3,1,0,0,5.805
1162,-8,-4,0,2,0,-3,-1,-1,5.8100000000000005
1163,1,1,2,-2,0,-1,-4,0,5.815
1164,-4,-3,-1,1,1,0,1,0,5.82
1165,0,-3,-5,-1,-4,-5,-6,-4,5.825
1166,1,3,2,2,-1,1,-1,1,5.83
1167,-1,-1,0,0,-1,0,1,-1,5.835
1168,0,-1,-4,-4,-1,2,1,2,5.84
1169,-4,-4,-5,4,1,0,-2,-2,5.845
1170,2,2,4,-2,-3,-3,-2,-3,5.8500000000000005
1171,-4,-1,-3,0,-2,-2,-1,-1,5.855
1172,1,1,1,-5,0,-4,-6,-2,5.86
1173,-3,1,0,0,-3,-1,2,0,5.865
1174,0,2,5,5,1,0,-4,0,5.87
1175,0,-4,-3,2,1,1,2,0,5.875
1176,-1,-1,-4,-5,0,0,2,1,5.88
1177,-2,0,2,1,0,-1,-4,-2,5.885
1178,1,-1,0,-3,-2,-2,2,-1,5.89
1179,1,2,1,-1,-2,-2,0,-2,5.8950000000000005
1180,1,-1,-5,-1,-1,-1,-4,-3,5.9
1181,-2,1,2,1,-1,0,1,-1,5.905
1182,5,1,-1,-1,-1,2,4,3,5.91
1183,-8,-4,0,2,2,0,-2,-1,5.915
1184,-1,-1,-4,-4,-1,1,1,-1,5.92
1185,-3,-1,-1,12,-1,-2,-4,-1,5.925
1186,-1,-1,-6,-16,-3,-2,-1,-1,5.93
1187,2,0,-2,-1,-3,-2,-2,0,5.9350000000000005
1188,-2,-2,2,1,1,1,3,2,5.94
1189,-2,-1,2,-1,0,0,-3,-1,5.945
1190,-1,-1,2,2,-1,1,-1,-2,5.95
1191,-1,-1,-2,-3,-4,-2,-6,-2,5.955
1192,-1,-2,-5,2,-1,-2,3,1,5.96
1193,0,0,2,-3,0,-1,-1,0,5.965
1194,-2,0,0,4,0,-1,-2,-1,5.97
1195,3,0,-1,-3,-2,-1,1,-3,5.9750000000000005
1196,-1,-1,1,-3,-1,0,-3,-3,5.98
1197,-1,-1,-4,-3,-2,-2,-2,0,5.985
1198,0,-1,-1,-1,0,0,1,-1,5.99
1199,-1,-1,-2,3,1,0,-1,0,5.995
1200,0,0,2,-3,-2,-4,-3,-2,6.0
1201,-3,-1,-2,0,-1,1,1,-2,6.005
1202,0,-1,1,1,2,0,-1,2,6.01
1203,-2,0,2,2,-2,0,2,-2,6.015000000000001
1204,1,1,1,0,2,2,3,1,6.0200000000000005
1205,-1,0,3,-1,-1,1,0,-1,6.025
1206,-1,-1,-2,0,-1,-1,-2,-1,6.03
1207,2,-3,-2,-1,-2,-1,-1,-1,6.035
1208,-11,-4,-1,-2,-2,-1,-2,-3,6.04
1209,0,-1,-2,2,-1,-1,2,0,6.045
1210,-1,-1,-2,1,-2,-2,-3,-3,6.05
1211,0,-1,-1,-1,-1,-1,-1,-1,6.055
1212,2,0,-3,-3,-3,-2,1,0,6.0600000000000005
1213,-6,-3,-1,-1,1,1,-1,0,6.065
1214,-4,-1,-2,1,-3,0,0,-1,6.07
1215,-2,-2,-3,-1,0,-1,-3,-3,6.075
1216,2,1,2,7,0,-1,-3,-2,6.08
1217,-3,-3,-6,-9,-3,-1,3,1,6.085
1218,1,-1,1,1,1,0,-1,0,6.09
1219,-1,-1,3,1,-1,1,2,1,6.095
1220,-1,-1,-5,-3,-2,-2,0,0,6.1000000000000005
1221,2,1,3,5,0,-2,-1,-1,6.105
1222,-2,-2,-2,-4,1,-2,-2,-1,6.11
1223,-4,-3,-7,-4,0,-1,2,0,6.115
1224,1,0,2,0,-2,0,0,-2,6.12
1225,1,-1,0,-1,-1,0,-2,0,6.125
1226,-1,-1,-1,-1,-1,-2,-2,-1,6.13
1227,1,0,0,-3,1,-1,0,1,6.135
1228,-1,-1,-2,-1,3,1,-2,-2,6.140000000000001
1229,4,1,-2,-3,0,-1,-1,0,6.1450000000000005
1230,-2,-1,0,-2,-3,0,0,-2,6.15
1231,-1,-1,0,0,1,0,-3,1,6.155
1232,0,2,2,-2,-5,-1,-1,0,6.16
1233,1,1,1,-5,-1,-1,-2,0,6.165
1234,0,-3,-7,1,1,0,1,0,6.17
1235,-1,1,-1,-2,-2,-2,-1,-3,6.175
1236,0,0,0,-1,-1,-3,0,0,6.18
1237,-2,0,-3,-1,1,1,0,-2,6.1850000000000005
1238,-8,0,1,-1,-3,-3,-2,-2,6.19
1239,-1,-2,0,0,-1,-3,-5,-4,6.195
1240,1,-2,0,9,3,2,3,1,6.2
1241,-1,-2,-3,-14,-3,-1,1,1,6.205
1242,2,-2,2,9,1,1,1,1,6.21
1243,-1,-1,-7,-16,-4,-2,0,-2,6.215
1244,-3,-1,-2,-1,-2,0,-1,-1,6.22
1245,-1,-1,-1,0,-2,-2,-2,-4,6.2250000000000005
1246,4,3,0,-2,0,0,-1,-2,6.23
1247,0,0,5,6,0,0,-1,0,6.235
1248,-3,-6,-11,-5,-2,-2,-2,-1,6.24
1249,-3,0,4,3,0,0,-2,-2,6.245
1250,1,-1,-2,-1,-1,-2,-1,1,6.25
1251,-1,-1,-7,-2,-2,0,3,1,6.255
1252,2,2,-3,-9,-5,-4,-2,-3,6.26
1253,-1,-1,-1,0,-2,-1,1,4,6.265000000000001
1254,-4,-1,1,-1,-1,-3,1,-3,6.2700000000000005
1255,-2,1,2,0,1,0,-3,0,6.275
1256,0,0,3,1,1,0,-2,-2,6.28
1257,-1,-3,-5,1,1,-1,-3,-2,6.285
1258,1,2,3,-4,-2,-1,-2,-1,6.29
1259,-3,0,-1,2,0,0,2,-1,6.295
1260,0,1,1,3,1,-1,0,0,6.3
1261,0,-2,-1,2,0,-1,0,-1,6.305
1262,-2,0,1,-3,-1,-1,0,1,6.3100000000000005
1263,-1,-2,-3,-1,-2,-1,-1,0,6.315
1264,-3,-2,-3,-3,-1,1,0,0,6.32
1265,0,-1,-1,-1,-2,-1,2,0,6.325
1266,-1,-2,-2,-1,-2,0,-1,0,6.33
1267,0,0,0,1,-1,-2,-3,-1,6.335
1268,3,0,1,0,-2,0,-2,1,6.34
1269,-3,-1,-2,0,0,0,0,-2,6.345
1270,0,-2,-6,-3,-2,0,3,2,6.3500000000000005
1271,-2,-2,-1,1,-1,-1,-1,-2,6.355
1272,-2,0,2,-3,-2,2,2,0,6.36
1273,-5,-4,-2,-4,-3,-2,-3,-3,6.365
1274,1,0,-2,-1,2,1,0,-3,6.37
1275,-1,1,2,2,0,-3,-3,-1,6.375
1276,-2,1,1,1,-3,-2,-1,-1,6.38
1277,2,1,-1,-2,-1,0,1,3,6.385
1278,0,0,-2,-1,1,1,2,1,6.390000000000001
1279,-3,-2,0,1,-1,-1,-1,-2,6.3950000000000005
1280,0,0,-5,-7,2,-1,-3,-5,6.4
1281,-2,4,7,16,2,0,0,-1,6.405
1282,-1,-4,-5,-12,-5,0,2,3,6.41
1283,0,-1,-1,0,0,0,-2,0,6.415
1284,-6,-4,-1,-3,-1,-4,-3,-4,6.42
1285,0,2,-11,-5,-1,-1,-2,-1,6.425
1286,0,-4,1,-4,-4,-2,-4,1,6.43
1287,2,-5,-2,1,-1,0,6,3,6.4350000000000005
1288,1,0,0,-4,-2,0,-2,-1,6.44
1289,-3,0,9,6,2,-4,-5,-13,6.445
1290,-1,2,1,1,-1,-2,2,3,6.45
1291,-7,-4,-4,-5,1,0,-2,-3,6.455
1292,2,-9,-2,2,2,1,3,2,6.46
1293,2,0,-3,-3,-2,1,3,3,6.465
1294,-7,-4,0,3,0,-4,-7,-11,6.47
1295,-1,5,1,-1,-2,-2,-1,-4,6.4750000000000005
1296,-2,-7,-3,0,-2,-1,1,3,6.48
1297,5,9,-6,-2,0,-1,-2,0,6.485
1298,-2,-9,0,0,2,-1,0,-4,6.49
1299,-8,-15,-3,-2,-3,-1,-3,-3,6.495
1300,-5,2,0,1,-3,-1,-2,-5,6.5
1301,0,-8,2,-9,-2,-2,-2,8,6.505
1302,4,4,-2,8,3,4,5,5,6.51
1303,9,14,-3,-7,-1,-1,0,3,6.515000000000001
1304,-9,3,-3,2,-1,1,-1,-7,6.5200000000000005
1305,-6,-4,1,-1,-3,-2,-6,-8,6.525
1306,9,-15,7,1,2,4,6,15,6.53
1307,-1,-3,0,2,1,-1,-2,-3,6.535
1308,-3,5,-3,-8,-3,0,-1,-4,6.54
1309,-4,4,-4,3,1,0,0,-3,6.545
1310,7,24,3,7,0,-2,-2,-5,6.55
1311,-2,-15,-4,-10,-3,-1,-1,-6,6.555
1312,0,-21,8,6,1,0,2,10,6.5600000000000005
1313,8,12,-2,-6,-1,0,3,2,6.565
1314,-4,-1,-3,-2,-4,-3,-4,-8,6.57
1315,-2,0,-3,1,-1,0,-2,-2,6.575
1316,2,-2,0,1,-4,-4,-5,-6,6.58
1317,7,-11,0,-14,2,2,5,6,6.585
1318,-9,12,-7,7,-1,-2,-4,-10,6.59
1319,-8,1,4,1,1,1,-1,-4,6.595
1320,-5,1,-5,0,0,-3,-2,-2,6.6000000000000005
1321,8,10,15,41,6,-1,1,6,6.605
1322,0,7,3,-2,5,0,-2,-4,6.61
1323,-1,-6,-6,15,-1,1,2,2,6.615
1324,-16,-9,-12,-5,-4,-4,-6,-13,6.62
1325,24,33,7,-8,-3,3,6,14,6.625
1326,-32,-30,-22,-32,-11,-7,-9,-15,6.63
1327,-9,-12,-2,-2,-4,-3,-4,-9,6.635
1328,12,11,-4,-6,5,7,11,12,6.640000000000001
1329,19,14,2,-4,-2,0,1,4,6.6450000000000005
1330,26,39,15,12,6,1,6,17,6.65
1331,-34,-82,-11,-8,3,4,0,-5,6.655
1332,-2,-3,-6,-3,-2,-1,1,-1,6.66
1333,-20,-31,1,0,-1,-4,-11,-17,6.665
1334,25,15,7,-1,2,3,14,28,6.67
1335,8,18,2,6,-2,-5,-7,-8,6.675
1336,-15,-29,-5,5,-1,-5,-5,-11,6.68
1337,18,11,12,37,8,6,6,17,6.6850000000000005
1338,-15,-35,-6,-18,-8,-5,-8,-15,6.69
1339,30,59,1,-12,-25,-9,2,13,6.695
1340,-8,-32,0,-37,17,7,3,-1,6.7
1341,-22,-27,-47,-19,-11,-7,-5,-12,6.705
1342,20,36,16,13,-3,1,8,17,6.71
1343,-51,-60,4,13,3,-3,-6,-10,6.715
1344,12,47,1,0,-8,-7,-9,-11,6.72
1345,-36,-38,8,-3,-3,-5,-6,-15,6.7250000000000005
1346,21,7,0,1,3,1,0,3,6.73
1347,57,96,12,-1,-10,-3,8,18,6.735
1348,-56,-79,-7,15,-14,-5,-10,-19,6.74
1349,-27,-43,-11,-35,8,-2,-8,-13,6.745
1350,-13,-14,-12,-2,-36,-11,-7,-8,6.75
1351,24,21,13,-12,-1,2,6,10,6.755
1352,8,50,9,20,-1,-3,-2,-7,6.76
1353,16,27,2,14,-3,5,9,23,6.765000000000001
1354,-11,-31,-27,-48,4,-5,-11,-18,6.7700000000000005
1355,7,-9,-4,-4,-4,2,0,-1,6.775
1356,4,-30,-5,-20,18,11,5,12,6.78
1357,-11,10,3,2,6,-3,-8,-19,6.785
1358,-32,-17,10,32,14,7,-5,-25,6.79
1359,-7,-11,10,11,12,-5,-3,1,6.795
1360,41,103,16,4,-1,3,8,15,6.8
1361,10,-7,-2,1,-7,1,3,4,6.805
1362,-10,50,14,3,3,3,3,5,6.8100000000000005
1363,3,-57,-16,-1,4,-1,-3,1,6.815
1364,13,-23,-19,17,-6,-6,2,14,6.82
1365,13,17,-21,-19,-10,-2,-2,3,6.825
1366,-22,-31,-9,2,2,-1,-4,-12,6.83
1367,6,19,15,10,2,5,5,1,6.835
1368,17,25,25,19,-37,-11,-2,-4,6.84
1369,-16,-7,12,0,0,-6,-6,-11,6.845
1370,13,67,5,-5,80,36,14,24,6.8500000000000005
1371,-6,-10,-25,-51,-27,-7,0,-8,6.855
1372,23,-16,23,35,17,-4,-4,14,6.86
1373,-26,28,-25,-26,17,12,1,-11,6.865
1374,42,2,26,15,-11,-5,6,22,6.87
1375,-12,15,20,19,15,11,4,5,6.875
1376,2,-5,-11,-13,-4,1,0,-2,6.88
1377,3,-11,11,21,-19,-7,-4,-25,6.885
1378,-1,-13,-5,9,-13,-7,5,12,6.890000000000001
1379,-12,6,7,4,10,-1,-12,-17,6.8950000000000005
1380,15,-17,-21,-19,-20,-9,2,17,6.9
1381,-36,-21,16,25,13,3,-8,-36,6.905
1382,39,29,-29,-24,-10,8,11,57,6.91
1383,-2,32,-1,10,-22,-17,-13,-27,6.915
1384,24,73,-25,-53,-15,-13,-4,14,6.92
1385,-31,-66,-12,-16,-4,-7,-1,-6,6.925
1386,-9,-10,20,43,66,25,1,-11,6.93
1387,2,-9,4,-1,-47,-16,-7,6,6.9350000000000005
1388,-5,-23,14,-6,42,13,5,5,6.94
1389,38,68,5,10,6,16,12,29,6.945
1390,-4,-17,12,0,-38,-18,-4,-10,6.95
1391,-12,-8,-45,4,35,13,8,8,6.955
1392,-3,1,15,10,-14,-4,-7,-34,6.96
1393,24,5,33,-2,-10,-5,8,32,6.965
1394,0,-91,-26,-16,-8,0,5,-4,6.97
1395,-59,-4,-18,8,5,-4,-7,-20,6.9750000000000005
1396,-5,29,20,-43,-5,2,5,5,6.98
1397,-13,-53,-24,2,-1,-1,0,-2,6.985
1398,4,21,23,8,-13,-8,-8,-23,6.99
1399,6,-13,23,20,-13,-7,-2,-2,6.995
1400,-43,6,-2,33,51,9,-14,-32,7.0
1401,45,35,-12,-69,-15,3,15,40,7.005
1402,-45,-12,-22,-9,-14,-18,-15,-34,7.01
1403,-32,-44,-25,-11,-1,2,-7,-16,7.015000000000001
1404,32,-17,39,51,13,7,12,15,7.0200000000000005
1405,-7,-10,-7,-10,-1,0,-3,4,7.025
1406,-12,-18,-8,-1,-23,-9,-8,-9,7.03
1407,37,80,1,-11,10,3,9,26,7.035
1408,-53,-83,-46,1,-7,2,13,12,7.04
1409,20,47,-13,-5,-16,-5,-7,-28,7.045
1410,6,75,32,9,-12,-12,-14,-4,7.05
1411,35,-15,9,12,23,10,5,4,7.055
1412,-21,-34,-27,-27,-15,-3,-11,-15,7.0600000000000005
1413,28,11,-10,-46,-26,-7,12,44,7.065
1414,-9,-19,12,8,14,0,7,0,7.07
1415,18,35,2,5,12,2,-9,2,7.075
1416,-9,9,-6,22,64,23,4,5,7.08
1417,-10,-17,5,18,-27,-8,-3,-9,7.085
1418,9,-3,3,-16,-11,-12,-14,-1,7.09
1419,-11,2,-12,-8,44,25,5,-3,7.095
1420,26,45,29,-1,-2,2,2,12,7.1000000000000005
1421,-27,-23,6,6,-5,-6,-14,-15,7.105
1422,-3,-11,-23,-3,-10,-8,-2,-7,7.11
1423,27,2,4,1,-25,-4,31,67,7.115
1424,-25,67,-31,-15,-15,-5,-16,-37,7.12
1425,-33,-40,19,26,6,-8,-32,-67,7.125
1426,32,35,1,13,-22,-9,-15,-28,7.13
1427,-34,-77,-1,-16,10,-1,7,21,7.135
1428,-2,31,-3,-29,-9,9,0,-5,7.140000000000001
1429,27,55,0,8,-16,-16,4,23,7.1450000000000005
1430,-38,-56,-37,-50,55,26,5,-8,7.15
1431,24,7,14,14,-74,-26,-10,-9,7.155
1432,25,25,9,-10,36,5,13,20,7.16
1433,-28,-48,15,31,1,10,3,-3,7.165
1434,14,-65,-29,-7,39,13,16,32,7.17
1435,-10,18,-6,-11,-4,5,-8,-30,7.175
1436,-16,-61,-3,-3,-52,-23,-10,-2,7.18
1437,1,23,-15,-14,10,3,-3,-12,7.1850000000000005
1438,34,14,20,19,-13,-2,12,19,7.19
1439,-23,-23,-10,-16,-18,-9,-11,-23,7.195
1440,-13,-15,8,18,-13,-7,-22,-28,7.2
1441,19,19,24,20,16,-1,-2,-7,7.205
1442,-10,-26,-21,-18,-18,2,16,28,7.21
1443,-26,2,-10,3,-36,-25,-23,-47,7.215
1444,19,28,12,-4,-43,-2,4,18,7.22
1445,-9,-42,-8,-24,83,14,13,2,7.2250000000000005
1446,-14,53,11,29,13,20,1,-8,7.23
1447,23,47,-5,-26,59,18,10,12,7.235
1448,10,-4,13,17,-15,-3,11,12,7.24
1449,-3,12,-2,10,-35,-11,9,16,7.245
1450,24,-9,16,-3,-24,-9,-2,-3,7.25
1451,-35,-62,-4,1,-1,-7,-16,-21,7.255
1452,9,-12,-4,-3,-9,-1,15,33,7.26
1453,21,48,21,14,7,10,-3,-58,7.265000000000001
1454,-29,-36,-4,0,-10,-9,-7,12,7.2700000000000005
1455,37,20,11,2,5,6,-5,22,7.275
1456,-46,-66,-27,18,-1,-11,-9,2,7.28
1457,-19,-14,-12,-15,1,10,12,29,7.285
1458,14,44,-5,-15,-32,-11,-6,-20,7.29
1459,13,6,25,-7,-7,-13,-5,-31,7.295
1460,6,16,2,29,73,20,0,-6,7.3
1461,5,10,6,-13,-4,7,4,8,7.305
1462,-41,-16,-34,-2,35,-2,-8,-34,7.3100000000000005
1463,25,26,21,52,-98,-22,5,45,7.315
1464,4,-15,4,-49,92,40,1,-29,7.32
1465,-8,-9,-15,14,10,10,11,21,7.325
1466,5,-18,-20,-34,-33,-15,-5,-6,7.33
1467,1,19,20,18,19,12,19,20,7.335
1468,-8,-8,-11,-1,-64,-35,-25,-45,7.34
1469,-3,18,7,1,-18,-7,-20,-60,7.345
1470,49,8,-3,-5,-10,-2,24,100,7.3500000000000005
1471,-16,-49,-4,4,23,4,0,-23,7.355
1472,-19,11,-15,-7,-21,-7,4,3,7.36
1473,14,-4,-7,-11,7,-2,-2,29,7.365
1474,-6,16,16,27,0,0,-6,-13,7.37
1475,-9,-2,-14,-20,26,12,2,-8,7.375
1476,18,3,-1,-8,-8,-4,3,3,7.38
1477,-13,-15,-7,15,4,2,4,-1,7.385
1478,-12,17,21,13,-12,-5,-14,-43,7.390000000000001
1479,-1,2,-25,-33,30,9,5,11,7.3950000000000005
1480,3,4,3,3,-17,-2,1,-5,7.4
1481,4,10,-3,9,12,-5,-5,6,7.405
1482,-15,-3,15,7,7,7,4,-9,7.41
1483,6,13,-10,-7,4,1,10,14,7.415
1484,16,17,7,5,-21,-12,-16,-16,7.42
1485,-8,-8,-3,4,7,0,-11,-14,7.425
1486,-15,-5,-1,3,-1,2,-3,-8,7.43
1487,8,3,0,-6,-1,3,7,38,7.4350000000000005
1488,7,16,2,3,-5,-2,8,27,7.44
1489,8,4,-8,-1,-14,-9,0,15,7.445
1490,-3,5,-12,-7,3,4,-5,-12,7.45
1491,-10,7,-3,0,-5,-6,-12,-44,7.455
1492,5,-5,-1,-3,-6,-1,7,17,7.46
1493,2,0,2,-1,-5,-3,1,20,7.465
1494,-4,-1,2,1,-15,-2,-4,-16,7.47
1495,3,1,3,-1,21,5,0,-1,7.4750000000000005
1496,4,-2,5,2,-5,-3,0,-10,7.48
1497,-6,-10,1,1,-13,-7,-5,-7,7.485
1498,-3,-1,2,4,4,-1,-1,0,7.49
1499,2,1,1,5,14,5,-2,-3,7.495
1500,-6,-6,2,-10,-10,-5,-1,1,7.5
1501,-6,-7,-7,-3,-5,-5,-5,-6,7.505
1502,-11,0,4,-8,-8,-5,-4,-17,7.51
1503,1,2,4,6,7,7,3,-12,7.515000000000001
1504,7,4,-6,-2,2,1,3,-4,7.5200000000000005
1505,-4,2,10,0,2,4,-1,-45,7.525
1506,5,4,-2,-3,3,0,2,29,7.53
1507,-5,-4,-1,1,1,-1,5,9,7.535
1508,9,1,-5,-2,-5,5,17,56,7.54
1509,-2,-3,1,3,-4,-2,-6,-19,7.545
1510,-11,-3,-1,-1,4,-2,-2,2,7.55
1511,-3,2,0,0,-1,-2,-8,-15,7.555
1512,-6,-7,2,1,-1,-4,-7,-9,7.5600000000000005
1513,1,-4,-7,-5,0,-1,0,12,7.565
1514,0,1,8,1,1,0,-5,-18,7.57
1515,0,-4,-7,-10,-8,-5,-5,4,7.575
1516,-5,-6,-1,-3,0,-2,-2,-7,7.58
1517,0,-1,-6,-4,-2,-4,-3,6,7.585
1518,5,2,-4,0,2,-1,1,-3,7.59
1519,0,4,6,-2,-3,-2,-2,4,7.595
1520,-11,-10,-12,-6,-2,-3,-4,-15,7.6000000000000005
1521,-5,0,-2,-1,-1,0,2,0,7.605
1522,12,6,0,2,-4,-1,1,16,7.61
1523,-1,2,16,5,-2,-4,-7,-10,7.615
1524,1,-1,-2,3,0,0,2,8,7.62
1525,-1,-2,-7,-6,-2,-1,-1,-9,7.625
1526,-5,-1,0,-2,0,1,2,9,7.63
1527,-13,-5,-5,-4,-4,-2,-2,-10,7.635
1528,-1,-3,2,0,-1,-3,-3,4,7.640000000000001
1529,2,-3,-3,0,0,-1,-2,16,7.6450000000000005
1530,-5,-3,-1,2,1,1,-2,-12,7.65
1531,0,-1,-3,1,-2,-2,-5,0,7.655
1532,-3,-2,0,6,3,2,-1,-2,7.66
1533,1,-1,-4,0,1,1,2,11,7.665
1534,-3,-7,-4,-3,-2,0,1,-12,7.67
1535,3,1,-3,0,-2,0,0,7,7.675
1536,0,3,7,6,2,0,-3,-9,7.68
1537,2,2,-4,-5,-2,-2,2,14,7.6850000000000005
1538,-3,1,4,2,3,-1,-4,-12,7.69
1539,-6,-9,-12,1,0,2,4,4,7.695
1540,6,5,4,-1,0,-2,-3,-4,7.7
1541,3,3,0,2,-2,1,1,6,7.705
1542,-6,-1,1,0,-1,-1,-5,-10,7.71
1543,4,5,0,-2,-4,-5,1,15,7.715
1544,-4,-3,-7,-4,1,3,5,-7,7.72
1545,-1,-1,-1,0,-4,-3,-1,6,7.7250000000000005
1546,8,1,-1,0,-2,0,0,-7,7.73
1547,-5,-1,1,1,-1,-1,-6,-8,7.735
1548,1,-1,3,3,-1,-2,-4,-17,7.74
1549,-2,8,21,9,3,0,3,22,7.745
1550,3,0,2,-2,-3,-1,-1,6,7.75
1551,4,0,-18,-8,-4,0,0,-5,7.755
1552,-6,-5,-16,-7,-2,-1,0,2,7.76
1553,2,1,3,-3,-3,-3,-4,-5,7.765000000000001
1554,-3,-4,-3,2,-1,0,4,-2,7.7700000000000005
1555,2,4,9,-2,-2,-5,-3,-3,7.775
1556,0,3,2,3,3,1,0,1,7.78
1557,1,2,4,1,2,1,-1,-3,7.785
1558,-11,-4,-5,-4,-4,-4,-3,4,7.79
1559,0,-1,1,0,-1,0,-3,-8,7.795
1560,-5,-3,-3,1,-1,1,12,-4,7.8
1561,6,0,0,0,-3,-1,5,10,7.805000000000001
1562,3,3,0,0,2,2,5,-1,7.8100000000000005
1563,-1,-2,-2,-6,-4,-1,-1,0,7.815
1564,-2,-1,2,1,-1,0,-6,-6,7.82
1565,-4,-2,-2,-2,0,-1,-3,-3,7.825
1566,2,1,-1,2,2,3,0,-1,7.83
1567,-3,-1,-5,-1,-1,-1,-1,-1,7.835
1568,4,1,4,1,-1,-1,-4,6,7.84
1569,-1,-3,-4,1,0,0,3,-2,7.845
1570,2,-3,-2,-10,-8,-9,-13,-10,7.8500000000000005
1571,-5,-3,-7,1,2,7,10,10,7.855
1572,9,0,-1,-2,-1,-1,-3,-6,7.86
1573,-10,-5,-6,-2,-3,-3,-4,3,7.865
1574,-5,-4,-1,-3,-3,-7,-24,-5,7.87
1575,3,-1,0,-1,-1,-2,8,-2,7.875
1576,2,4,3,-1,0,-1,-6,9,7.88
1577,-8,-3,-9,-4,-2,-3,-8,-14,7.885
1578,11,5,-1,-4,-1,2,11,17,7.890000000000001
1579,-3,-1,-1,-4,-3,-5,-14,-9,7.8950000000000005
1580,-3,-1,0,4,1,1,3,3,7.9
1581,1,-3,-5,0,1,1,-1,-5,7.905
1582,-4,1,2,1,2,1,-5,-3,7.91
1583,2,1,1,3,2,1,0,-2,7.915
1584,1,2,2,-1,-2,-2,0,-2,7.92
1585,-4,0,16,9,2,2,0,-3,7.925
1586,-3,-1,-11,-7,-2,2,5,-4,7.930000000000001
1587,-4,-1,-3,-5,-3,0,2,3,7.9350000000000005
1588,-1,-5,-8,0,0,-3,-4,-9,7.94
1589,-7,0,2,-2,-3,-1,-3,-9,7.945
1590,17,4,5,9,4,3,7,17,7.95
1591,-3,2,15,4,-1,-1,0,-7,7.955
1592,-2,0,-2,-3,-1,-2,-7,0,7.96
1593,9,0,-11,-8,0,0,2,3,7.965
1594,0,-5,5,17,3,2,1,-9,7.97
1595,-7,0,1,-4,-2,-1,1,8,7.9750000000000005
1596,-29,-8,-14,-23,-4,1,1,-9,7.98
1597,5,0,-2,-5,-2,1,8,14,7.985
1598,-3,-5,-13,-10,-3,0,-1,-8,7.99
1599,10,2,4,4,0,-2,-7,-2,7.995
1600,1,0,-2,5,-3,-4,-7,-2,8.0
1601,-10,1,10,1,0,3,15,-7,8.005
1602,10,5,0,6,3,4,4,13,8.01
1603,1,0,-1,5,-2,-1,-1,-4,8.015
1604,5,3,7,-1,2,2,1,0,8.02
1605,2,1,3,6,4,-1,-6,0,8.025
1606,-10,-3,3,0,2,-4,-1,-3,8.03
1607,-1,-1,-11,-7,3,3,3,-2,8.035
1608,-2,-8,-13,-2,-4,-4,-4,-2,8.040000000000001
1609,3,0,6,5,0,0,-6,1,8.045
1610,-9,-3,-1,-10,-2,-4,-1,-4,8.05
1611,-1,-4,1,1,0,-2,-5,-5,8.055
1612,-1,0,13,25,2,0,0,-2,8.06
1613,1,-2,-21,-59,-12,-2,2,-5,8.065
1614,-5,4,9,14,3,1,3,9,8.07
1615,11,0,-5,-18,-1,-2,-1,3,8.075
1616,4,1,17,21,3,2,2,-2,8.08
1617,3,-4,-8,20,4,-6,-19,-2,8.085
1618,-6,1,-1,-5,-5,1,12,0,8.09
1619,-5,-1,-1,6,1,0,8,3,8.095
1620,5,4,0,-20,0,2,6,6,8.1
1621,-6,-4,-9,11,-2,-2,-4,-4,8.105
1622,-4,-4,-8,-5,-1,-2,-5,-8,8.11
1623,1,1,0,6,0,-1,-3,0,8.115
1624,-1,2,2,-2,-2,-2,1,0,8.120000000000001
1625,1,1,4,-3,-2,-2,-1,-4,8.125
1626,0,-2,-6,-6,-2,-2,-3,-4,8.13
1627,-6,-4,-6,7,-1,0,-2,-5,8.135
1628,1,3,-2,-18,-3,-1,-3,4,8.14
1629,1,0,4,-2,-1,0,0,3,8.145
1630,-1,2,5,-14,-2,-1,-5,-5,8.15
1631,1,-1,1,6,1,-1,0,-4,8.155
1632,2,-3,-3,1,6,3,8,4,8.16
1633,-5,-3,-1,22,0,1,-1,1,8.165000000000001
1634,-13,-7,2,1,-1,-1,-1,-14,8.17
1635,10,5,1,14,1,-3,-1,12,8.175
1636,-1,-2,-2,-22,-9,-4,-8,-4,8.18
1637,4,-3,-7,10,-2,0,12,3,8.185
1638,-2,-12,-20,-31,-5,-3,9,-2,8.19
1639,-4,-1,1,-15,-10,3,10,3,8.195
1640,0,-3,-4,12,4,-2,-7,-3,8.2
1641,1,4,9,6,7,1,-3,2,8.205
1642,-4,0,7,15,4,-3,-11,-12,8.21
1643,11,3,-5,-23,-3,1,0,15,8.215
1644,-2,-2,-5,7,-1,-1,7,3,8.22
1645,-3,-2,-7,-20,-1,-2,-7,-8,8.225
1646,1,2,4,23,-1,-4,-5,-2,8.23
1647,-3,0,18,15,3,-3,-5,-6,8.235
1648,1,1,-3,3,-2,0,-3,-1,8.24
1649,-2,-3,-7,-15,0,0,-2,2,8.245000000000001
1650,0,-4,-7,-7,-5,-2,-2,1,8.25
1651,-7,-2,-8,-8,-2,-2,-2,-9,8.255
1652,6,1,-2,10,0,0,2,8,8.26
1653,1,0,3,4,-2,-2,-1,-2,8.265
1654,2,4,5,0,0,0,1,5,8.27
1655,-6,-2,1,-4,-3,-4,-9,-9,8.275
1656,-4,-5,-12,-3,1,1,6,-3,8.28
1657,-1,-1,3,1,2,1,2,3,8.285
1658,5,2,-3,-10,-6,0,-1,3,8.290000000000001
1659,-5,-5,-10,0,5,0,-1,-4,8.295
1660,2,2,7,-6,-2,-3,-3,-1,8.3
1661,-1,-1,3,11,-2,-2,2,1,8.305
1662,-1,-2,-4,4,1,2,-1,-2,8.31
1663,-2,-1,-1,1,0,-2,-3,-3,8.315
1664,-5,-2,-11,-26,-8,0,0,1,8.32
1665,0,-1,-1,-3,1,0,-2,-4,8.325
1666,-3,3,13,10,4,3,12,6,8.33
1667,-4,-2,-8,-1,-4,-3,2,0,8.335
1668,2,0,0,-3,-2,0,2,-2,8.34
1669,2,2,0,9,1,-1,-5,-2,8.345
1670,-6,-2,-12,-13,-10,-7,-4,2,8.35
1671,10,6,7,-12,2,2,0,5,8.355
1672,-5,-5,-1,16,5,0,-1,-3,8.36
1673,-1,0,2,-17,-15,-3,-1,-5,8.365
1674,4,2,-2,4,3,1,1,5,8.370000000000001
1675,-1,-3,-5,-10,-1,1,-2,-5,8.375
1676,-3,-2,4,2,-5,-4,-4,1,8.38
1677,-2,-2,-5,0,2,0,-1,-2,8.385
1678,3,3,9,9,4,0,-1,1,8.39
1679,-5,-4,-2,8,-5,-1,0,-4,8.395
1680,1,2,7,6,2,0,0,-2,8.4
1681,1,-2,-8,-10,-1,1,2,2,8.405
1682,-8,-3,-3,-12,-4,-2,-4,-4,8.41
1683,-2,-3,-1,14,0,-4,-4,-3,8.415000000000001
1684,-2,-2,-4,-18,-2,-1,-2,-1,8.42
1685,0,1,6,8,7,0,1,1,8.425
1686,3,1,-7,-10,1,0,-2,1,8.43
1687,8,0,0,6,0,0,-2,-1,8.435
1688,-6,-3,3,-7,-3,-3,-1,0,8.44
1689,1,-1,2,12,2,5,6,1,8.445
1690,0,-2,-8,-8,-3,-2,-2,-2,8.45
1691,-7,-1,4,-1,-2,-4,-6,-5,8.455
1692,3,-1,-5,-4,-2,-3,-9,-8,8.46
1693,-5,-4,-8,-2,-2,-2,9,6,8.465
1694,1,-2,7,5,-1,-3,-9,-7,8.47
1695,1,2,-7,-3,-4,-2,0,7,8.475
1696,-4,-5,-3,-5,-10,-8,-10,-7,8.48
1697,-3,0,-1,0,-2,-4,-4,-1,8.485
1698,2,-1,-1,-2,2,3,3,-1,8.49
1699,-4,-4,0,0,-3,-4,-6,-6,8.495000000000001
1700,1,2,8,6,4,3,4,3,8.5
1701,0,-3,-6,-9,-2,-1,-2,1,8.505
1702,-2,-2,-2,1,-3,-1,-2,-2,8.51
1703,-2,-2,1,-1,1,-1,1,-3,8.515
1704,2,1,-2,-5,2,0,2,3,8.52
1705,-3,-3,0,38,3,-2,-3,-5,8.525
1706,1,-1,-2,-20,-3,-1,-3,-3,8.53
1707,-4,-1,-11,-1,-5,-2,2,1,8.535
1708,0,1,-4,-18,-2,0,-1,0,8.540000000000001
1709,0,-1,0,-9,-5,-4,-1,-1,8.545
1710,-9,2,5,11,3,1,2,3,8.55
1711,0,-1,6,5,4,1,2,-2,8.555
1712,-1,0,5,19,2,0,-3,-2,8.56
1713,2,-1,3,-18,-2,0,0,-3,8.565
1714,3,-3,-6,7,1,0,3,6,8.57
1715,-4,-1,1,-9,-2,1,4,-4,8.575000000000001
1716,1,2,0,7,2,0,-5,0,8.58
1717,7,2,2,-9,-4,1,2,7,8.585
1718,1,0,4,5,2,-1,-2,0,8.59
1719,-1,-3,-1,0,1,0,-5,-4,8.595
1720,-2,-4,0,8,3,-2,-3,-4,8.6
1721,1,-2,-10,-10,-1,-1,-4,-3,8.605
1722,-1,0,-3,-3,-2,-2,-2,-3,8.61
1723,4,-3,1,-1,0,0,4,1,8.615
1724,1,2,-2,-1,-2,-3,0,-2,8.620000000000001
1725,-1,1,9,-8,2,-2,1,1,8.625
1726,-9,0,-2,9,1,-1,-5,-1,8.63
1727,-3,0,-12,-5,0,-1,-2,0,8.635
1728,-3,-2,1,-5,-3,0,4,0,8.64
1729,-2,0,3,6,2,1,0,0,8.645
1730,4,3,7,-1,-3,-2,-6,-4,8.65
1731,-2,-1,-2,-2,-4,-4,0,1,8.655
1732,6,1,-4,-2,-2,2,0,-1,8.66
1733,-1,2,3,-2,-2,-1,7,10,8.665000000000001
1734,-22,-6,-1,0,-1,-3,-7,-6,8.67
1735,-7,-1,1,-6,1,2,0,-3,8.675
1736,2,0,1,7,3,1,-2,0,8.68
1737,-7,-1,8,6,-3,-2,-4,-7,8.685
1738,18,0,-10,-19,-2,0,-1,1,8.69
1739,-1,-2,2,15,1,-1,2,0,8.695
1740,-6,-3,-8,-1,-2,2,0,-1,8.700000000000001
1741,5,0,-5,7,1,-2,-4,-2,8.705
1742,-2,0,-2,-4,-3,-1,2,4,8.71
1743,-4,1,4,-2,-1,1,-1,-2,8.715
1744,4,-5,-8,-1,-1,0,2,5,8.72
1745,-5,-6,-7,-4,-2,-1,-3,-4,8.725
1746,4,-1,-1,6,0,0,2,3,8.73
1747,-1,0,1,-5,-1,0,-2,0,8.735
1748,-4,-1,-2,0,-3,-1,1,-1,8.74
1749,-2,1,0,-9,1,1,0,-1,8.745000000000001
1750,7,-2,-2,3,2,-1,2,-5,8.75
1751,1,-1,2,1,1,4,4,4,8.755
1752,-5,-1,4,0,0,-3,0,1,8.76
1753,9,-2,-14,-15,-2,0,-7,-4,8.765
1754,-6,-3,5,14,-1,0,2,0,8.77
1755,1,1,-1,1,1,1,-1,-1,8.775
1756,0,-1,-5,-17,-5,-1,0,-3,8.78
1757,1,2,9,13,4,0,-1,-3,8.785
1758,1,-2,-15,-10,0,-2,-3,-2,8.790000000000001
1759,0,0,3,2,-3,-2,3,-2,8.795
1760,-6,-2,4,1,0,2,-1,-3,8.8
1761,1,-1,-2,-3,-3,-3,0,0,8.805
1762,-2,-1,-2,-2,-3,-2,2,0,8.81
1763,-3,-4,-7,-6,-1,-3,-5,-2,8.815
1764,2,1,-2,8,-5,-2,5,1,8.82
1765,-7,-2,-6,-26,-2,-2,-6,-4,8.825000000000001
1766,-1,2,8,12,2,0,-2,-2,8.83
1767,-4,-3,-9,-6,-4,-4,-4,0,8.835
1768,-4,-3,-1,2,0,-3,-7,-4,8.84
1769,-7,-2,-7,-4,-1,-2,-1,0,8.845
1770,-1,-1,3,4,0,1,3,0,8.85
1771,6,3,0,-14,-1,-1,-3,3,8.855
1772,-6,-3,0,16,5,5,3,2,8.86
1773,-3,1,5,-2,3,0,-2,0,8.865
1774,3,1,-1,-4,0,-2,-4,3,8.870000000000001
1775,2,-1,4,11,1,0,1,0,8.875
1776,-1,-2,-3,-2,1,-2,-5,-1,8.88
1777,-4,-5,-6,1,-6,-2,12,0,8.885
1778,1,0,5,5,-1,1,-3,-1,8.89
1779,7,1,-3,-7,0,-2,-4,-2,8.895
1780,-12,-2,4,-2,2,2,1,0,8.9
1781,-2,0,-1,7,-1,0,-3,-1,8.905
1782,3,1,-4,-8,-4,-3,1,-3,8.91
1783,-4,-4,3,8,1,0,-2,-1,8.915000000000001
1784,5,2,-1,-5,-1,-2,1,0,8.92
1785,-6,-4,0,1,-3,-1,-3,-5,8.925
1786,0,0,2,1,0,-1,2,2,8.93
1787,-2,-2,-2,-4,-2,-2,-4,-3,8.935
1788,2,4,9,2,0,-2,0,-3,8.94
1789,6,5,2,4,1,2,1,4,8.945
1790,1,-2,-4,-1,2,2,1,1,8.950000000000001
1791,-9,-8,-11,-4,-4,-3,-2,-5,8.955
1792,3,2,0,3,-1,-1,-2,-4,8.96
1793,0,-3,-8,10,2,5,10,4,8.965
1794,-1,0,4,-1,1,-2,2,-1,8.97
1795,6,3,4,2,-1,5,2,2,8.975
1796,0,0,0,-8,2,-3,-5,-1,8.98
1797,1,0,1,6,-3,-4,-2,-2,8.985
1798,-3,-3,-5,-4,-3,0,-1,0,8.99
1799,-2,1,12,13,2,1,3,-2,8.995000000000001
1800,0,-1,-15,-13,-4,-2,0,1,9.0
1801,-1,1,2,0,-3,-2,-5,-1,9.005
1802,-2,0,1,0,-1,0,1,-3,9.01
1803,0,2,2,-2,0,-2,-9,-2,9.015
1804,1,-2,-5,0,-3,0,8,4,9.02
1805,10,0,-2,-4,0,-3,-7,-2,9.025
1806,-10,-3,1,-2,-4,-1,-4,-1,9.03
1807,1,-3,-5,-7,-1,-2,-2,-3,9.035
1808,-1,-2,-2,-1,0,0,1,1,9.040000000000001
1809,-2,-3,1,-1,-1,-5,-8,-5,9.045
1810,4,1,-1,-2,-2,-1,2,2,9.05
1811,-7,-2,-4,-4,-1,-2,-4,-5,9.055
1812,-4,-4,-1,-4,-2,0,-2,3,9.06
1813,-5,-6,-5,5,0,-1,-4,-5,9.065
1814,5,4,6,2,-1,-1,-1,-1,9.07
1815,-5,-1,3,3,3,4,7,4,9.075000000000001
1816,15,3,1,3,-1,-4,-6,2,9.08
1817,-4,0,-3,-8,-1,1,5,5,9.085
1818,4,-1,-2,1,-1,-3,-7,-2,9.09
1819,-1,-1,-5,-3,-1,-3,-1,-3,9.095
1820,-4,1,9,4,0,0,0,-3,9.1
1821,0,-1,6,-4,-2,-2,-2,1,9.105
1822,-2,-4,-17,0,-2,0,-1,-2,9.11
1823,-9,-1,-2,-8,0,1,11,5,9.115
1824,-2,0,4,0,-1,-1,-1,-3,9.120000000000001
1825,2,2,4,1,-1,1,2,1,9.125
1826,-1,-2,-2,-3,0,0,-1,-2,9.13
1827,0,-1,2,1,-1,-1,-5,-2,9.135
1828,-3,-1,0,0,-3,0,-3,-3,9.14
1829,-3,-2,0,2,0,-1,-1,-4,9.145
1830,1,0,3,-4,-1,0,4,3,9.15
1831,4,-1,-8,1,-3,-2,-6,-2,9.155
1832,1,5,13,1,-1,-1,-1,1,9.16
1833,1,-3,-8,-2,2,6,9,8,9.165000000000001
1834,-2,-1,0,0,0,-1,-4,-5,9.17
1835,4,0,2,3,0,-2,-3,-1,9.175
1836,-2,-1,-2,-1,-1,-1,-1,0,9.18
1837,1,2,1,-1,-2,-4,-6,-7,9.185
1838,3,-4,-4,9,2,1,2,-4,9.19
1839,-1,1,9,-5,-1,0,0,3,9.195
1840,9,3,-8,18,4,-1,-1,6,9.200000000000001
1841,-3,-2,-4,-25,-5,-3,-1,-2,9.205
1842,-4,0,1,4,1,0,-1,-1,9.21
1843,0,-1,-2,-3,-1,-2,0,-1,9.215
1844,1,0,3,-1,1,3,12,1,9.22
1845,-2,-2,-5,9,0,0,-2,-2,9.225
1846,-2,0,-2,-12,-4,-1,-4,1,9.23
1847,0,1,1,4,2,1,-1,-2,9.235
1848,-3,-3,-3,-8,-3,-1,2,0,9.24
1849,-6,-3,-3,3,-1,-3,-5,-6,9.245000000000001
1850,-3,-2,-5,-5,-4,-4,-3,-5,9.25
1851,3,0,-2,6,0,0,3,7,9.255
1852,-8,-5,-6,-6,-2,-1,-2,-4,9.26
1853,0,0,3,-2,0,2,0,1,9.265
1854,0,-2,-1,10,0,-1,-2,-5,9.27
1855,-5,-5,-4,-8,-3,-1,0,2,9.275
1856,2,-1,0,-3,-1,-2,-4,-4,9.28
1857,11,0,0,4,-3,-3,-2,0,9.285
1858,-8,-4,5,-2,1,-1,-1,0,9.290000000000001
1859,6,2,-4,2,2,-4,-2,-2,9.295
1860,-3,-3,-3,-8,-1,-2,-2,-1,9.3
1861,-2,2,8,18,1,-1,-3,-1,9.305
1862,0,-2,-4,12,5,0,-1,0,9.31
1863,0,3,3,-9,-2,1,-1,0,9.315
1864,-5,-4,-7,-3,-4,-2,-1,-2,9.32
1865,-2,6,6,3,-1,-1,-2,-3,9.325000000000001
1866,2,1,1,-1,1,0,1,4,9.33
1867,-5,-1,3,5,-1,-1,2,-6,9.335
1868,-3,-1,1,-1,-1,-1,-8,-4,9.34
1869,3,3,2,-4,3,4,6,4,9.345
1870,-2,-2,-5,-6,-4,-1,-2,1,9.35
1871,-3,-4,-7,2,-3,-3,-6,-5,9.355
1872,1,1,1,-1,1,2,0,3,9.36
1873,-3,-4,-5,-3,-3,-1,-4,-2,9.365
1874,-10,1,2,-1,-1,1,2,0,9.370000000000001
1875,6,-1,-2,-6,-2,0,2,3,9.375
1876,0,-1,-1,4,-2,-3,-2,-3,9.38
1877,-3,-4,-4,-4,2,-2,-1,-3,9.385
1878,4,-1,-5,-6,-3,-1,0,3,9.39
1879,0,1,-4,-5,-5,-3,-10,-6,9.395
1880,-4,1,1,-2,1,0,21,6,9.4
1881,-1,-1,-4,-1,-2,-3,-3,-2,9.405
1882,0,-1,0,-2,0,-1,-1,0,9.41
1883,-2,-2,-1,2,-2,-1,0,-1,9.415000000000001
1884,0,0,3,-3,-1,-1,-9,-4,9.42
1885,-3,-4,-10,-3,-2,-1,-2,-1,9.425
1886,-1,-3,-4,-4,-2,-1,3,-2,9.43
1887,-2,-1,4,2,1,1,-2,2,9.435
1888,0,-2,-8,-3,-3,-2,-2,-1,9.44
1889,1,-1,-3,-3,-2,0,4,3,9.445
1890,-1,0,2,3,0,0,-1,-1,9.450000000000001
1891,0,2,3,4,2,0,1,1,9.455
1892,0,-4,-5,1,0,-3,-3,-3,9.46
1893,-1,0,1,-2,1,-2,-1,-1,9.465
1894,-2,3,3,-1,0,1,0,0,9.47
1895,-2,-4,-8,-1,2,1,4,-1,9.475
1896,-2,-1,3,6,0,-3,-3,0,9.48
1897,-2,4,8,-8,0,4,6,3,9.485
1898,0,-3,-12,-7,-4,-4,-2,1,9.49
1899,2,0,0,2,0,1,2,0,9.495000000000001
1900,-2,-3,-6,1,-2,0,-4,-2,9.5
1901,0,-2,-3,-6,-2,-3,-3,-4,9.505
1902,2,1,4,6,-1,1,11,2,9.51
1903,-3,-3,-2,-5,-2,-2,-2,-1,9.515
1904,-2,-2,-3,5,-1,-3,-4,-4,9.52
1905,0,0,1,-1,-2,-1,-1,-1,9.525
1906,1,2,-1,-6,0,1,0,2,9.53
1907,-2,-1,-3,1,-4,-2,-3,0,9.535
1908,-1,0,3,-4,3,2,3,0,9.540000000000001
1909,1,-2,-4,3,-2,-4,-10,-3,9.545
1910,0,0,-1,0,-1,0,13,2,9.55
1911,-5,-2,1,1,-3,-1,0,-1,9.555
1912,1,1,2,-7,-3,-2,-2,0,9.56
1913,-4,-3,-3,0,1,0,-1,-2,9.565
1914,-4,-3,0,-1,-3,-3,-9,-8,9.57
1915,4,1,-5,-5,-1,-2,2,2,9.575000000000001
1916,1,0,-2,-3,-2,3,3,6,9.58
1917,-11,-3,2,-1,-4,-4,-11,-6,9.585
1918,1,-1,0,0,0,2,8,1,9.59
1919,0,-3,-1,0,1,1,-4,-5,9.595
1920,2,0,0,6,0,-3,-4,-3,9.6
1921,3,0,-3,-8,-3,-3,-2,3,9.605
1922,-4,-3,-2,-2,-2,-4,-7,-4,9.61
1923,-2,-2,4,0,-4,-2,0,0,9.615
1924,0,1,-4,0,0,1,2,-1,9.620000000000001
1925,-1,-3,-7,-2,-1,0,1,0,9.625
1926,2,-3,-3,0,-1,-1,-7,-4,9.63
1927,1,0,2,-1,0,1,2,1,9.635
1928,1,1,4,6,0,1,2,3,9.64
1929,1,3,2,0,-1,-3,3,0,9.645
1930,-1,2,0,-6,-3,0,-7,-2,9.65
1931,-4,0,4,1,1,0,0,0,9.655
1932,8,-1,0,7,1,1,-2,-1,9.66
1933,2,2,-5,-2,-2,1,12,6,9.665000000000001
1934,2,1,3,-1,-1,-2,-5,-3,9.67
1935,-5,1,-2,1,0,2,-2,-1,9.675
1936,-7,1,0,-8,-1,3,6,0,9.68
1937,2,0,3,3,1,0,-1,-1,9.685
1938,-3,-3,0,-3,0,0,5,0,9.69
1939,4,2,1,1,1,0,-3,1,9.695
1940,-2,-4,-7,-4,0,-1,-3,-2,9.700000000000001
1941,-7,-2,2,2,1,-1,-4,-5,9.705
1942,-1,-3,-4,-3,-2,-1,-2,2,9.71
1943,1,0,-2,0,-2,-1,2,-1,9.715
1944,-3,-1,-1,-3,0,-2,-1,-3,9.72
1945,0,-4,-5,1,1,0,-1,0,9.725
1946,0,0,3,0,-1,-3,-3,-1,9.73
1947,0,-4,-10,-6,-2,-4,-8,-2,9.735
1948,-3,-3,3,-1,0,-1,-3,-3,9.74
1949,1,-2,-4,-1,-2,-1,-5,-5,9.745000000000001
1950,0,1,-5,-3,-2,-1,-1,1,9.75
1951,1,0,1,1,-2,-1,-3,-2,9.755
1952,-1,-2,-2,-5,-4,-3,-5,-4,9.76
1953,2,1,7,5,-1,2,1,0,9.765
1954,2,0,1,1,1,1,9,1,9.77
1955,-1,-3,-4,-1,2,3,1,1,9.775
1956,0,0,-2,-2,-3,-2,-5,-1,9.78
1957,0,-2,-1,-2,-1,1,11,4,9.785
1958,-5,-1,7,6,0,-1,-11,-3,9.790000000000001
1959,2,0,-5,-1,0,1,10,4,9.795
1960,-3,-1,0,-1,0,-1,-2,-4,9.8
1961,3,1,-4,4,1,-1,-5,0,9.805
1962,0,3,4,-2,0,-5,-5,-3,9.81
1963,-4,-3,0,0,-3,-1,-4,-1,9.815
1964,0,-2,0,-2,-2,-2,-2,-2,9.82
1965,-2,-1,-1,-1,-2,-2,-4,-3,9.825000000000001
1966,1,-1,0,3,0,0,-2,1,9.83
1967,0,-1,-3,0,0,-2,-2,-3,9.835
1968,-1,0,-3,0,0,0,6,2,9.84
1969,-3,-4,-7,-3,-3,-3,-4,-5,9.845
1970,-2,-2,-5,-3,2,1,3,0,9.85
1971,-2,-1,2,1,0,-2,-1,0,9.855
1972,0,0,4,-1,1,0,-3,-1,9.86
1973,-6,-6,-9,-7,-4,0,1,0,9.865
1974,3,0,3,4,-3,0,-4,0,9.870000000000001
1975,-1,1,0,0,1,0,-4,-4,9.875
1976,4,2,-3,-4,-2,0,9,4,9.88
1977,-1,2,5,2,0,-2,-2,2,9.885
1978,1,0,-1,-2,-1,0,1,1,9.89
1979,0,-1,1,-1,-2,-4,-7,-7,9.895
1980,1,-2,-2,-1,-1,2,3,7,9.9
1981,4,1,1,2,3,1,1,3,9.905
1982,-2,-2,-3,-2,-1,-1,-2,-2,9.91
1983,2,0,-2,-2,0,-1,3,1,9.915000000000001
1984,-11,1,2,3,-1,1,1,-1,9.92
1985,-6,-6,-8,1,-1,-3,-5,-9,9.925
1986,0,-2,-7,-4,0,2,1,3,9.93
1987,-3,-2,-7,-6,-8,-5,0,2,9.935
1988,0,-3,-5,-4,0,-1,-4,-2,9.94
1989,1,1,3,2,0,1,1,-1,9.945
1990,-1,1,3,3,0,-4,-5,-4,9.950000000000001
1991,-1,-2,-4,-5,-2,-1,2,-3,9.955
1992,1,1,6,3,1,-1,0,-1,9.96
1993,-1,-3,-5,-4,-4,-2,-2,0,9.965
1994,-1,-4,-5,-4,-3,-2,1,-3,9.97
1995,1,0,1,2,3,3,0,3,9.975
1996,0,0,2,3,-1,-2,-6,-5,9.98
1997,-1,3,-1,-5,3,1,2,2,9.985
1998,-2,2,1,-1,-2,0,3,1,9.99
1999,-2,1,7,6,2,-1,1,-2,9.995000000000001
2000,-2,-2,-8,-6,-4,-5,-5,-3,10.0
2001,4,2,4,2,-1,0,2,2,10.005
2002,-5,-3,-3,-1,-1,0,-1,-3,10.01
2003,-3,-2,-2,-2,-2,-1,-2,-2,10.015
2004,1,2,-3,-3,-3,1,0,-2,10.02
2005,2,1,1,2,2,2,1,3,10.025
2006,-1,-3,-2,-3,-2,-4,-3,-5,10.03
2007,-1,-2,3,4,0,1,-4,-1,10.035
2008,-3,-5,-4,-2,-5,-3,-2,0,10.040000000000001
2009,-1,2,2,3,-1,0,3,2,10.045
2010,0,0,3,0,1,-1,-1,0,10.05
2011,2,-2,-1,1,1,-1,0,-4,10.055
2012,1,1,3,3,0,2,-1,-1,10.06
2013,1,1,3,0,1,-1,-2,-1,10.065
2014,5,6,1,-1,1,1,2,4,10.07
2015,-6,-5,-1,-4,-2,1,-4,-2,10.075000000000001
2016,3,-3,-6,-3,-2,-4,2,4,10.08
2017,-2,-6,0,-1,0,0,1,-4,10.085
2018,-3,-2,2,1,-2,0,1,-3,10.09
2019,5,5,-1,0,0,0,-3,-1,10.095
2020,-3,6,3,-4,-3,-3,-4,-2,10.1
2021,-6,-4,0,1,-2,-1,-4,-5,10.105
2022,-2,-10,-5,-6,-4,-2,-1,-2,10.11
2023,7,4,1,0,-2,0,2,5,10.115
2024,-2,-3,8,4,5,4,9,1,10.120000000000001
2025,3,3,-4,-1,1,2,10,7,10.125
2026,-6,2,-4,-3,-4,-5,-7,-5,10.13
2027,-7,-1,-6,-2,-1,-2,0,-1,10.135
2028,1,-25,-8,3,3,-1,-5,-3,10.14
2029,7,4,4,16,1,1,-3,-1,10.145
2030,-11,-11,-1,-18,2,1,1,-3,10.15
2031,-3,3,-8,-4,-3,-2,2,3,10.155
2032,6,5,1,-5,2,0,-2,3,10.16
2033,-6,0,9,15,3,0,-2,-8,10.165000000000001
2034,8,-2,-7,-5,-4,0,3,10,10.17
2035,-2,8,-2,6,-2,-3,-5,-4,10.175
2036,-7,-3,-1,-7,-3,-2,-1,-1,10.18
2037,-9,-2,-17,-3,0,-3,-7,-8,10.185
2038,20,20,19,37,6,3,2,6,10.19
2039,-4,0,-2,-30,-3,-3,1,-3,10.195
2040,-4,-5,-4,-2,-5,-1,-1,-2,10.200000000000001
2041,2,13,8,-11,-4,-5,-7,-4,10.205
2042,3,-6,-7,7,0,-2,-2,1,10.21
2043,-7,-10,1,7,-3,-2,-1,-7,10.215
2044,7,22,1,6,-5,-3,-1,-2,10.22
2045,-10,-39,-9,-2,-1,-1,3,6,10.225
2046,10,35,8,-1,0,1,3,4,10.23
2047,1,-10,5,12,11,4,1,4,10.235
2048,-10,-24,-8,-8,-6,-3,-3,-9,10.24
2049,-6,-11,-1,-5,6,4,-2,-1,10.245000000000001
2050,0,15,-8,-1,-23,-12,-4,-5,10.25
2051,-3,-10,-3,8,13,3,-4,-7,10.255
2052,-6,49,4,-4,21,9,-3,-9,10.26
2053,17,20,15,4,-9,-5,5,11,10.265
2054,-6,-14,-21,-12,-2,1,-3,-11,10.27
2055,-1,8,6,2,11,8,2,-3,10.275
2056,-3,-18,0,-4,-12,-6,-4,-6,10.28
2057,-38,-11,-7,-19,-28,-17,-11,-22,10.285
2058,-9,-16,-11,-19,26,9,7,12,10.290000000000001
2059,20,10,-1,-2,-20,-10,-1,0,10.295
2060,21,0,1,0,20,9,6,15,10.3
2061,13,55,2,5,-3,1,-4,-1,10.305
2062,-15,-6,19,4,-8,-11,-9,-5,10.31
2063,-27,-37,-30,-5,-16,-6,-2,-11,10.315
2064,22,5,2,7,-14,-7,3,12,10.32
2065,-22,-18,0,-3,7,-2,-7,-10,10.325000000000001
2066,0,8,-13,-10,-18,-3,2,2,10.33
2067,0,13,21,23,11,0,-5,-2,10.335
2068,-23,-16,-14,-14,-5,-2,-4,-17,10.34
2069,20,-1,-8,9,-6,3,2,13,10.345
2070,-11,-13,8,-8,-24,-7,-4,-5,10.35
2071,6,31,11,-32,5,-4,3,6,10.355
2072,11,4,-21,4,73,20,1,4,10.36
2073,-6,-25,1,3,14,11,9,6,10.365
2074,3,3,-7,4,5,-3,-5,-8,10.370000000000001
2075,0,11,0,12,-7,6,6,4,10.375
2076,-10,-3,-5,-9,-24,-11,-4,-4,10.38
2077,-20,-22,-2,-4,11,6,3,-9,10.385
2078,9,-17,5,-4,-14,-3,1,7,10.39
2079,2,-4,2,9,-7,-7,-4,2,10.395
2080,11,37,9,8,-4,-8,-2,5,10.4
2081,22,-6,-11,-10,-14,-7,0,10,10.405
2082,5,2,7,19,-3,-1,0,-3,10.41
2083,-8,14,-8,-7,5,-4,-5,-1,10.415000000000001
2084,-33,-58,-26,-32,-14,8,-3,-15,10.42
2085,-1,10,4,16,-12,-11,-6,-14,10.425
2086,7,-8,3,-3,-43,-11,2,13,10.43
2087,15,-13,18,18,68,21,4,11,10.435
2088,8,19,-6,-7,-6,-3,0,0,10.44
2089,7,35,12,-9,13,0,1,-4,10.445
2090,-33,-67,-29,7,-1,-4,-9,-24,10.450000000000001
2091,-21,-33,-9,11,-37,-9,-2,-5,10.455
2092,7,1,25,38,12,-5,1,12,10.46
2093,-34,-46,-42,-35,-2,10,6,7,10.465
2094,13,15,6,-16,4,-6,-7,-15,10.47
2095,10,28,5,-8,-28,-10,0,7,10.475
2096,-1,-6,-2,15,7,5,2,-4,10.48
2097,21,10,22,-1,1,9,4,5,10.485
2098,-24,-20,-29,-9,8,-3,-8,-3,10.49
2099,0,25,-12,-15,-6,2,4,-4,10.495000000000001
2100,1,-32,12,20,0,3,-8,-15,10.5
2101,17,59,19,8,27,2,-4,-2,10.505
2102,1,-22,-4,-36,-12,0,4,17,10.51
2103,-7,-67,-7,-15,18,4,1,0,10.515
2104,-11,29,4,-16,32,5,-1,4,10.52
2105,7,14,-14,26,15,10,8,1,10.525
2106,18,60,27,20,32,12,-1,1,10.53
2107,-35,-47,-20,-16,-57,-21,-9,-18,10.535
2108,47,38,21,2,-16,0,11,32,10.540000000000001
2109,4,-3,17,8,12,8,9,6,10.545
2110,-20,-24,28,32,19,10,-3,-7,10.55
2111,16,36,-8,1,-17,-4,-6,-16,10.555
2112,-17,3,1,-15,-13,-5,-2,-8,10.56
2113,4,-6,-22,-6,-53,-27,-15,-3,10.565
2114,-12,-11,0,22,10,0,0,-15,10.57
2115,29,8,9,-2,33,5,9,26,10.575000000000001
2116,-14,22,-35,-26,32,10,-12,-24,10.58
2117,39,7,58,12,-53,-15,2,15,10.585
2118,-30,-56,-60,-3,-3,-10,-2,-13,10.59
2119,-33,5,8,13,43,12,-4,-15,10.595
2120,-17,-38,10,-22,-35,-11,-2,-18,10.6
2121,2,12,-27,-29,-4,-7,-1,4,10.605
2122,41,56,25,3,-27,-13,1,15,10.61
2123,-15,-7,-8,2,7,8,2,-9,10.615
2124,-7,-8,13,13,-16,-3,-1,3,10.620000000000001
2125,-41,-32,-26,6,-15,-12,-22,-34,10.625
2126,56,32,2,-16,22,12,23,31,10.63
2127,2,64,15,-4,-37,-7,-5,11,10.635
2128,-3,60,-10,8,18,-1,3,-10,10.64
2129,24,14,-2,18,12,15,10,16,10.645
2130,24,-7,-16,-19,-14,2,-1,5,10.65
2131,-44,-25,24,3,22,1,-5,-8,10.655
2132,60,1,-6,8,-59,-21,6,32,10.66
2133,-56,-29,-11,4,40,9,-10,-32,10.665000000000001
2134,-5,36,1,-47,7,6,8,-6,10.67
2135,51,16,12,25,11,4,1,16,10.675
2136,-14,-27,-11,4,-20,-12,-3,12,10.68
2137,-5,-8,-8,-10,13,9,16,25,10.685
2138,-37,-11,16,1,-17,-17,-25,-35,10.69
2139,9,-28,-25,-8,6,7,9,15,10.695
2140,-16,-13,27,44,-12,-5,-7,-11,10.700000000000001
2141,-11,5,-5,-38,47,14,7,-7,10.705
2142,10,12,19,15,-1,-3,-4,32,10.71
2143,10,-25,-35,-19,-13,3,13,-3,10.715
2144,32,89,11,33,-26,-12,-13,-3,10.72
2145,-11,-19,14,1,38,-3,-18,-31,10.725
2146,-13,-34,11,0,6,17,15,17,10.73
2147,-8,-24,-8,9,-36,-22,-4,-12,10.735
2148,13,6,6,-18,51,27,10,18,10.74
2149,16,-25,10,-3,-20,-21,-14,-18,10.745000000000001
2150,-28,46,-2,36,38,12,2,-11,10.75
2151,27,26,9,-12,-13,9,5,30,10.755
2152,-13,-23,6,-11,-18,-8,4,-17,10.76
2153,-8,58,-26,-17,-24,-2,-15,-19,10.765
2154,56,-36,0,27,37,15,23,47,10.77
2155,-44,-45,-29,-3,22,-4,-5,-8,10.775
2156,14,1,24,2,-15,-2,4,1,10.78
2157,-41,-11,-6,-24,-34,-17,-12,-3,10.785
2158,6,58,11,1,48,12,1,-5,10.790000000000001
2159,25,15,5,10,-41,-11,-8,-18,10.795
2160,-12,-53,-5,-33,19,5,8,23,10.8
2161,14,10,12,20,-5,-17,-7,-8,10.805
2162,16,-16,-21,-16,-1,7,5,-7,10.81
2163,-36,-12,-18,-29,19,8,1,-17,10.815
2164,5,-12,-10,35,-73,-26,-20,-34,10.82
2165,-2,-23,4,6,5,3,9,8,10.825000000000001
2166,34,90,49,16,-4,13,18,31,10.83
2167,8,-6,-25,-31,0,-1,-12,-9,10.835
2168,-40,-27,-1,-25,-7,7,7,-13,10.84
2169,50,43,-1,-10,-30,-24,3,37,10.845
2170,-31,26,-18,-4,-13,-4,-23,-50,10.85
2171,-5,26,38,28,2,-9,-8,0,10.855
2172,-22,-10,-21,-21,-18,-7,3,4,10.86
2173,11,12,1,15,71,27,5,7,10.865
2174,-5,-46,-13,-1,-18,-12,-10,-35,10.870000000000001
2175,19,16,18,0,10,17,21,62,10.875
2176,-44,-28,-15,-25,-6,-22,-21,-24,10.88
2177,-1,-4,5,23,16,28,27,27,10.885
2178,1,-20,-11,-5,-3,-15,-17,-1,10.89
2179,41,-14,16,12,27,19,6,12,10.895
2180,-17,3,-11,1,41,17,-4,-12,10.9
2181,-14,-23,2,-9,-18,-5,-2,-11,10.905
2182,-19,-29,-21,-14,-57,-19,-4,-4,10.91
2183,30,31,12,25,-3,-5,6,25,10.915000000000001
2184,32,15,6,-4,40,10,7,26,10.92
2185,-13,-24,-24,-26,-43,-9,-3,-17,10.925
2186,-6,7,21,14,9,0,-6,2,10.93
2187,-14,11,-2,-9,-16,-9,-6,-13,10.935
2188,3,-27,2,27,2,-1,-6,-7,10.94
2189,5,-4,-22,-30,-6,1,8,14,10.945
2190,-10,-18,-1,8,-7,4,19,22,10.950000000000001
2191,11,12,6,0,28,12,-1,-8,10.955
2192,-8,-39,-20,8,-2,1,2,7,10.96
2193,-10,-26,5,7,-11,-6,-15,-19,10.965
2194,-17,-17,7,17,10,-3,-3,2,10.97
2195,-6,7,4,-20,-96,-33,-12,-25,10.975
2196,5,18,-10,-20,108,32,2,1,10.98
2197,24,16,16,33,38,29,14,20,10.985
2198,4,-13,-7,-35,28,5,0,2,10.99
2199,-9,-15,-3,18,-5,-4,-2,-6,10.995000000000001
2200,-9,2,1,-7,-61,-24,-12,-20,11.0
2201,0,1,0,2,-22,-12,-8,-2,11.005
2202,-10,-4,-12,2,3,1,3,-8,11.01
2203,11,7,1,-2,7,-2,-18,-3,11.015
2204,5,9,-3,5,-3,-9,-6,6,11.02
2205,-4,-9,6,3,1,1,-5,-14,11.025
2206,3,22,14,1,-15,0,11,18,11.03
2207,-24,-27,-24,-19,-2,-13,-8,-13,11.035
2208,16,17,4,18,1,6,7,12,11.040000000000001
2209,0,-5,-5,6,-4,-3,-13,-8,11.045
2210,-13,-9,-13,-20,-19,-10,-16,-30,11.05
2211,-7,0,-11,-3,11,5,2,-10,11.055
2212,9,13,15,7,0,1,2,4,11.06
2213,0,7,2,2,-7,-3,-11,-6,11.065
2214,-6,-13,-14,-29,-7,-7,-21,-18,11.07
2215,-2,4,6,9,18,12,22,5,11.075000000000001
2216,-2,0,-4,-5,-16,-8,10,-2,11.08
2217,5,0,4,2,-9,-6,18,28,11.085
2218,-8,-7,-2,7,-4,-1,-12,-10,11.09
2219,2,-3,8,4,6,3,17,16,11.095
2220,-6,-5,-12,-11,-16,-5,-1,-1,11.1
2221,1,-1,-1,-2,-2,-1,-5,7,11.105
2222,-3,-6,-6,-3,-8,-11,-20,-7,11.11
2223,-2,-1,4,-5,9,1,-7,-10,11.115
2224,2,-2,7,-7,-22,5,7,3,11.120000000000001
2225,2,-2,3,5,-6,-14,-4,0,11.125
2226,-2,-6,-10,-6,7,9,9,2,11.13
2227,-4,-6,-9,7,-9,-4,-1,-1,11.135
2228,-2,1,-7,4,4,1,-9,4,11.14
2229,-2,-4,3,27,1,-3,13,0,11.145
2230,-5,-1,-12,-20,-16,-6,-7,-1,11.15
2231,-2,4,-4,-25,5,12,29,8,11.155
2232,-2,5,-3,-4,-5,-2,-3,5,11.16
2233,-2,2,0,8,-3,-1,1,-6,11.165000000000001
2234,5,7,7,-13,5,11,33,17,11.17
2235,-3,3,1,-2,1,-4,-18,-4,11.175
2236,-6,1,1,1,2,-1,-5,-11,11.18
2237,4,6,8,3,4,4,12,6,11.185
2238,-3,-2,3,18,6,-1,-6,-5,11.19
2239,-2,-2,1,-7,-8,-4,-12,-7,11.195
2240,4,6,6,2,3,6,6,3,11.200000000000001
2241,-4,-4,-2,-10,0,-3,-13,-9,11.205
2242,0,0,2,1,-3,0,-2,-2,11.21
2243,-6,-6,-4,0,-6,-8,-9,-10,11.215
2244,1,-2,5,11,7,2,0,1,11.22
2245,0,-2,-7,-15,-5,3,3,-1,11.225
2246,1,0,1,1,-7,-2,1,0,11.23
2247,-5,-4,-4,4,7,-1,-8,-4,11.235
2248,-2,-3,-3,-1,7,2,2,-1,11.24
2249,-1,-3,-7,-13,-10,-1,-4,-3,11.245000000000001
2250,-1,-1,4,10,1,0,16,2,11.25
2251,-3,-2,4,4,-1,-1,-6,-6,11.255
2252,4,2,1,-1,-1,-3,0,-3,11.26
2253,-9,-4,1,-4,2,1,1,3,11.265
2254,-2,-2,3,9,-2,-6,-11,-7,11.27
2255,2,-1,-3,3,5,7,18,7,11.275
2256,-1,-2,-1,0,-4,-1,-13,-9,11.28
2257,3,0,-2,-1,-1,-4,39,17,11.285
2258,1,1,3,8,7,4,-9,-4,11.290000000000001
2259,-2,-1,0,-1,-2,0,-2,-1,11.295
2260,-4,-6,-7,-4,-3,-3,-2,-2,11.3
2261,-4,-2,-7,-7,-4,-8,-27,-14,11.305
2262,0,-3,-3,4,1,-1,5,2,11.31
2263,-1,-3,-5,-4,-5,-6,-11,-7,11.315
2264,-1,2,0,-2,-2,-2,-1,-1,11.32
2265,1,3,4,3,5,4,-8,-2,11.325000000000001
2266,-3,-7,-7,-11,-10,-5,-4,-3,11.33
2267,-1,0,-1,-4,-4,-5,-9,-7,11.335
2268,1,0,0,-1,3,1,9,5,11.34
2269,2,2,2,-4,-3,1,-9,-6,11.345
2270,-4,0,0,12,0,-5,-9,0,11.35
2271,3,2,1,-19,1,8,13,8,11.355
2272,1,1,6,10,-3,-5,4,0,11.36
2273,3,-3,-5,4,1,1,8,7,11.365
2274,-4,0,0,-5,0,3,3,-4,11.370000000000001
2275,1,2,-1,4,-1,-2,-6,-1,11.375
2276,-1,-1,-7,-5,-2,0,1,2,11.38
2277,-1,-1,4,1,1,1,-5,-1,11.385
2278,0,0,2,1,-3,-2,-7,-2,11.39
2279,-4,-3,-3,6,-3,-4,-3,-2,11.395
2280,-1,2,-2,-14,-1,0,2,1,11.4
2281,3,3,0,1,-1,0,-2,0,11.405
2282,2,2,-1,-4,1,1,3,1,11.41
2283,0,1,0,5,2,0,-1,-2,11.415000000000001
2284,-1,-2,-2,8,3,2,0,0,11.42
2285,-1,1,-1,-13,-3,-1,-9,-4,11.425
2286,-2,-2,-3,-2,-1,-2,6,1,11.43
2287,2,4,12,15,5,3,-1,3,11.435
2288,-6,-9,-9,-11,-3,-6,-4,-3,11.44
2289,-2,0,-4,-5,-2,-1,-6,4,11.445
2290,0,-1,-4,-10,-1,2,8,0,11.450000000000001
2291,-2,-1,2,6,0,-3,-2,2,11.455
2292,-1,-3,2,18,3,-1,-6,-2,11.46
2293,-2,-4,-2,-23,-12,0,-2,-6,11.465
2294,0,-4,-6,-5,-4,-6,-9,-5,11.47
2295,-2,-5,-4,1,-1,-1,-3,-2,11.475
2296,2,1,-4,-11,0,3,2,4,11.48
2297,-2,-1,-1,6,0,-5,-3,-3,11.485
2298,1,2,8,13,7,4,-2,0,11.49
2299,-2,-5,-6,-5,-2,-3,-3,-6,11.495000000000001
2300,-3,-1,3,2,-2,-1,0,-4,11.5
2301,0,0,-3,-11,-4,-2,2,5,11.505
2302,4,2,-1,1,-4,-2,-1,3,11.51
2303,-1,-5,-6,-1,1,0,-3,-3,11.515
2304,-1,1,6,8,-2,-1,1,-2,11.52
2305,0,1,4,3,1,-2,7,-1,11.525
2306,3,1,-5,2,3,8,15,5,11.53
2307,-3,0,1,-1,1,1,-1,1,11.535
2308,6,1,-2,4,-4,-4,-3,4,11.540000000000001
2309,1,0,5,5,-1,-5,-12,-8,11.545
2310,-2,0,-10,-20,-3,-2,-4,1,11.55
2311,-5,-3,1,-1,-7,0,6,-4,11.555
2312,-2,0,4,10,6,4,-1,4,11.56
2313,-2,-2,-9,-9,-3,0,0,-7,11.565
2314,-1,-2,3,7,2,-1,-3,1,11.57
2315,0,-1,-8,-17,-3,-2,-4,-3,11.575000000000001
2316,0,-1,3,-2,-1,0,1,-2,11.58
2317,2,0,1,-1,3,4,10,7,11.585
2318,0,1,8,1,0,2,3,-1,11.59
2319,-3,-1,4,31,8,3,-1,2,11.595
2320,-2,-1,-7,-10,1,5,-1,-5,11.6
2321,5,3,6,22,8,3,12,6,11.605
2322,-1,2,-3,-10,-9,-7,-5,0,11.61
2323,4,2,9,11,4,-1,-5,-6,11.615
2324,-1,-1,-5,-17,-1,1,-2,4,11.620000000000001
2325,-2,-2,-4,-21,-2,3,5,1,11.625
2326,0,-2,-2,15,0,-3,0,1,11.63
2327,0,0,-6,-14,-5,-6,-8,-6,11.635
2328,4,2,0,-5,-4,-4,-4,-5,11.64
2329,-6,-7,-4,1,-3,-3,-9,-5,11.645
2330,-5,-3,3,2,0,-1,-2,-5,11.65
2331,9,3,1,2,1,0,0,10,11.655
2332,0,0,0,-6,0,0,-3,-1,11.66
2333,-3,1,-2,2,-1,-3,-2,-1,11.665000000000001
2334,3,2,2,3,0,0,-4,-1,11.67
2335,0,2,4,0,1,-1,1,0,11.675
2336,-2,0,5,3,-6,-3,0,-3,11.68
2337,-3,-1,-2,27,7,2,1,0,11.685
2338,-2,1,3,-15,2,0,-4,-1,11.69
2339,-3,-3,-12,-13,-5,-1,3,0,11.695
2340,0,-1,2,0,-4,-4,2,-1,11.700000000000001
2341,-6,-3,-3,10,1,-4,-14,-5,11.705
2342,4,2,5,4,3,0,4,1,11.71
2343,-2,0,-2,-25,-6,-2,-7,-4,11.715
2344,0,-1,-2,1,-2,-1,8,4,11.72
2345,0,-7,-2,0,1,2,-9,-6,11.725
2346,-3,-3,0,1,-2,-8,7,2,11.73
2347,-1,2,5,3,-3,-2,-2,2,11.735
2348,-2,-5,-10,-5,3,6,11,3,11.74
2349,-5,3,-1,-4,0,-1,-2,2,11.745000000000001
2350,-3,-6,-6,-5,-2,-2,-8,-5,11.75
2351,-2,-2,2,13,1,0,-3,-4,11.755
2352,3,3,-2,-10,0,0,-4,1,11.76
2353,2,2,3,-10,-4,-2,0,-2,11.765
2354,-2,-4,-4,3,2,4,-2,0,11.77
2355,-3,-2,-1,10,1,-1,-1,-1,11.775
2356,-2,-1,-2,2,-1,1,1,-2,11.78
2357,-1,-1,0,-8,-6,-3,-1,0,11.785
2358,-2,-1,-2,-4,-1,-2,-7,-7,11.790000000000001
2359,1,3,2,2,1,-2,-5,7,11.795
2360,-3,0,-7,-1,-3,-1,1,1,11.8
2361,-1,-2,-3,3,-1,-3,-2,-5,11.805
2362,2,3,1,5,2,1,-2,1,11.81
2363,-2,-3,-5,-8,-4,-3,-5,-6,11.815
2364,-1,0,2,-1,-1,-1,-3,-4,11.82
2365,0,0,-3,-16,-2,-1,0,6,11.825000000000001
2366,-5,-4,-8,4,-5,1,4,-2,11.83
2367,2,0,4,-7,0,1,6,1,11.835
2368,-3,-1,-1,6,2,-4,-8,0,11.84
2369,1,0,3,12,2,0,1,-1,11.845
2370,3,0,3,-3,0,2,-1,1,11.85
2371,-3,-3,-7,-5,-2,1,3,0,11.855
2372,-1,-2,2,4,0,0,-1,-2,11.86
2373,-1,-1,3,4,-1,-4,-9,-4,11.865
2374,1,-2,-4,-12,0,-1,-3,-4,11.870000000000001
2375,3,1,0,-2,0,7,21,12,11.875
2376,3,1,5,-2,-2,-2,-7,0,11.88
2377,-1,-1,1,23,5,4,6,1,11.885
2378,1,2,1,8,-2,-4,-11,1,11.89
2379,-1,-3,-4,-8,-1,-4,0,-4,11.895
2380,0,1,-1,-13,-1,2,-1,0,11.9
2381,0,-1,-1,-6,0,-1,-1,2,11.905
2382,-3,-2,-3,-2,-1,0,0,-1,11.91
2383,-2,-2,-3,-1,0,2,-3,-4,11.915000000000001
2384,-2,1,0,0,-1,-2,0,-2,11.92
2385,-3,0,-2,4,-3,1,0,-3,11.925
2386,-2,1,1,4,0,-1,0,0,11.93
2387,-3,-2,-4,-18,-5,-3,-3,-2,11.935
2388,-1,-2,-4,-2,-1,-3,-3,-6,11.94
2389,1,1,1,3,0,2,4,2,11.945
2390,2,2,2,-6,-2,-1,-1,1,11.950000000000001
2391,-2,0,2,8,-1,-3,-5,-5,11.955
2392,-5,-4,-3,4,3,-1,-5,-3,11.96
2393,0,0,-4,-12,-2,1,13,2,11.965
2394,-1,0,0,-5,-2,-2,-1,0,11.97
2395,-2,-3,-1,10,-3,-5,-9,-8,11.975
2396,4,0,4,2,4,3,7,9,11.98
2397,-6,-5,-2,-3,-3,-3,-6,-3,11.985
2398,-1,-3,-5,-11,0,0,10,2,11.99
2399,1,0,3,25,1,2,8,1,11.995000000000001
2400,-1,-3,-7,-21,-7,-1,-5,-4,12.0
2401,0,-1,-1,-2,-3,-2,-2,-2,12.005
2402,0,-2,-1,-2,-2,0,-1,0,12.01
2403,-1,-1,-2,0,-2,-2,-2,-2,12.015
2404,-4,0,3,12,1,1,2,-1,12.02
2405,2,2,-2,-4,-1,0,-1,0,12.025
2406,-1,3,5,2,1,-1,-4,-2,12.030000000000001
2407,-3,-4,-6,-10,-4,-3,-7,-3,12.035
2408,-1,-1,1,8,0,-2,1,-1,12.040000000000001
2409,1,-2,-5,-10,-2,-4,-17,-5,12.045
2410,-3,-3,-8,1,-3,0,12,7,12.05
2411,3,5,5,1,2,1,-3,1,12.055
2412,-1,-2,-2,4,-1,-2,-3,0,12.06
2413,-1,0,-2,-9,-1,1,2,-2,12.065
2414,-3,-2,2,5,1,1,-3,-4,12.07
2415,1,-1,-1,-3,0,1,0,1,12.075000000000001
2416,-6,-4,0,5,0,1,1,-1,12.08
2417,-2,-3,-2,2,0,-2,1,-1,12.085
2418,-1,-2,-2,10,1,-1,-3,-3,12.09
2419,-3,-1,-4,-11,0,2,1,-2,12.095
2420,2,2,1,-3,-2,-2,-6,-4,12.1
2421,2,0,2,-1,-1,3,17,6,12.105
2422,1,3,4,0,-2,-2,-13,-7,12.11
2423,1,3,3,9,2,5,22,10,12.115
2424,-1,-4,-11,-14,-2,-3,-6,-3,12.120000000000001
2425,-1,1,-1,-1,-1,-2,7,0,12.125
2426,0,-1,1,-1,-2,-3,-8,-1,12.13
2427,0,-2,0,-6,-2,-3,-7,-3,12.135
2428,2,0,5,8,1,1,8,1,12.14
2429,-3,1,1,1,-3,-4,-8,-2,12.145
2430,-2,-2,-3,1,1,0,4,-4,12.15
2431,0,-3,-5,-7,0,1,-10,-2,12.155000000000001
2432,3,1,5,8,0,1,7,6,12.16
2433,-3,-6,-7,-4,-2,-5,-8,-3,12.165000000000001
2434,-1,-1,1,-7,0,-2,1,0,12.17
2435,-1,0,-1,4,0,-1,-7,-5,12.175
2436,1,0,0,-5,-2,-1,5,-3,12.18
2437,-5,-1,3,5,-2,-3,-6,0,12.185
2438,-3,-1,-7,-11,-5,-2,0,-1,12.19
2439,-2,-2,-5,-4,-3,-2,4,3,12.195
2440,-2,-2,-5,-4,-2,-1,-9,-5,12.200000000000001
2441,2,1,5,8,1,2,2,-1,12.205
2442,-1,-3,-1,5,-1,-2,1,1,12.21
2443,0,-2,-4,-9,0,2,1,-1,12.215
2444,-3,2,1,0,1,-1,-1,0,12.22
2445,5,4,4,-1,3,3,6,2,12.225
2446,-6,-4,-6,-3,-3,-3,-6,-3,12.23
2447,3,0,3,7,1,-2,-1,-3,12.235
2448,-1,0,-3,-3,-3,0,1,2,12.24
2449,1,-3,-1,-3,0,3,3,1,12.245000000000001
2450,0,-1,-4,5,1,2,3,-2,12.25
2451,-3,-2,-1,0,-3,-3,-1,0,12.255
2452,-5,-2,-2,-4,-3,-4,-9,-3,12.26
2453,-2,-2,-2,-7,-1,-3,-9,-6,12.265
2454,5,1,3,2,2,3,16,8,12.27
2455,-10,-2,4,6,2,-1,-9,-5,12.275
2456,0,0,0,3,-1,0,0,0,12.280000000000001
2457,-3,-1,-6,-4,-5,-4,-7,-5,12.285
2458,0,-1,-3,-2,1,-1,-1,1,12.290000000000001
2459,3,1,-3,-4,-3,-1,4,2,12.295
2460,1,-1,6,3,0,-1,0,1,12.3
2461,-3,-2,-2,5,4,2,2,0,12.305
2462,0,0,-1,2,-2,-1,-12,-4,12.31
2463,-1,0,1,-6,-1,-1,4,-2,12.315
2464,-1,-1,-3,3,0,0,-2,-2,12.32
2465,-1,-2,-2,-20,-7,-4,-1,-3,12.325000000000001
2466,-3,-5,-8,-3,-2,-2,-6,-5,12.33
2467,2,-3,-6,8,3,2,-3,2,12.335
2468,0,0,-3,-7,-2,1,16,3,12.34
2469,-3,-1,0,6,-2,-2,-5,-1,12.345
2470,6,2,2,3,0,0,1,1,12.35
2471,1,1,0,-6,-2,-1,0,2,12.355
2472,-1,-2,-4,-5,-2,1,0,-2,12.36
2473,1,3,3,8,3,2,1,1,12.365
2474,-5,-2,1,-8,-1,-1,-5,-1,12.370000000000001
2475,0,-2,0,16,0,-1,-1,0,12.375
2476,-3,-1,0,-20,-1,-2,-5,-1,12.38
2477,2,1,-2,5,0,3,9,5,12.385
2478,2,0,0,-3,-2,-1,-3,-2,12.39
2479,-5,-4,-5,0,-1,0,0,-2,12.395
2480,-3,-1,3,7,2,-2,-10,-6,12.4
2481,0,-2,-2,-4,1,0,-4,-2,12.405000000000001
2482,0,-1,0,8,3,3,6,3,12.41
2483,0,-1,-1,-6,-3,-2,-4,1,12.415000000000001
2484,3,1,-1,7,0,-4,-8,-2,12.42
2485,-1,-1,-4,-6,-2,-2,-7,-1,12.425
2486,-2,-2,-2,1,-3,-2,5,-2,12.43
2487,0,0,0,-5,0,0,0,-3,12.435
2488,0,0,0,-1,-1,1,4,4,12.44
2489,-1,-3,-1,0,-1,-3,-2,-2,12.445
2490,-2,-1,2,-3,-2,0,-2,-3,12.450000000000001
2491,0,1,-1,-3,0,0,1,-1,12.455
2492,0,-2,0,12,1,0,0,-2,12.46
2493,0,-2,-6,-21,0,2,5,-1,12.465
2494,0,2,2,8,0,3,8,5,12.47
2495,3,2,1,-8,-1,2,2,-1,12.475
2496,-2,-1,-2,2,-2,-1,-4,-2,12.48
2497,0,1,1,5,0,2,2,0,12.485
2498,0,-1,-3,-4,1,-1,-9,-4,12.49
2499,-4,1,0,1,-2,0,0,-2,12.495000000000001
2500,-2,-1,-4,-5,-4,-5,-7,-3,12.5
2501,2,-1,2,-1,-2,1,15,5,12.505
2502,-7,-2,-1,-1,-3,-3,-15,-5,12.51
2503,-3,-3,0,2,-3,-4,-5,-1,12.515
2504,-2,-3,0,-4,0,3,6,1,12.52
2505,-3,-1,2,3,-1,-3,-7,-4,12.525
2506,2,0,-3,0,1,1,7,4,12.530000000000001
2507,0,-2,-2,-15,-3,-5,-5,-4,12.535
2508,1,-1,-3,2,3,3,1,1,12.540000000000001
2509,0,0,-5,-2,-2,-4,-4,-2,12.545
2510,-2,-1,-1,-3,-3,1,6,-3,12.55
2511,1,-3,-4,-1,1,0,-3,-1,12.555
2512,0,0,2,10,0,0,3,1,12.56
2513,-3,-1,-4,-15,-1,-2,-4,-3,12.565
2514,0,-1,0,3,1,0,-3,-2,12.57
2515,-1,0,-1,-3,-2,-2,0,-3,12.575000000000001
2516,0,-1,0,-2,0,-1,-6,-4,12.58
2517,0,0,2,6,0,2,10,5,12.585
2518,0,0,3,-1,0,-1,-1,0,12.59
2519,-1,-1,-3,-1,-2,-2,-4,-2,12.595
2520,1,2,7,11,2,1,3,2,12.6
2521,-8,-1,0,5,0,0,-3,-4,12.605
2522,2,1,1,-4,0,0,4,2,12.61
2523,-2,-1,-1,2,1,0,2,0,12.615
2524,-1,-1,-2,-8,-3,-3,-3,-4,12.620000000000001
2525,1,-2,-1,4,-1,-1,-1,-3,12.625
2526,-5,-1,4,3,-1,-2,-4,0,12.63
2527,1,4,4,3,-1,-1,-10,-2,12.635
2528,-1,-1,-7,-9,-4,0,14,5,12.64
2529,2,1,4,8,0,-1,-7,0,12.645
2530,-2,-2,-6,-13,-1,0,-1,-2,12.65
2531,1,3,9,6,0,2,-2,0,12.655000000000001
2532,-3,-3,-7,-3,-1,-5,-9,-5,12.66
2533,2,-2,-5,-4,-3,-1,4,1,12.665000000000001
2534,1,-2,-2,-2,0,-1,-4,0,12.67
2535,-3,-1,0,3,-1,0,3,0,12.675
2536,0,-1,1,-1,-1,-2,-4,-1,12.68
2537,-1,-2,0,3,-1,-2,-6,-3,12.685
2538,1,-3,-4,-2,1,-2,-2,-1,12.69
2539,-2,0,-3,1,-2,-1,1,-2,12.695
2540,1,0,1,2,1,1,-1,-1,12.700000000000001
2541,2,2,0,-2,0,1,0,3,12.705
2542,2,0,0,-3,2,2,12,3,12.71
2543,-1,-2,-1,3,0,0,3,-1,12.715
2544,-4,-2,2,6,-2,0,3,3,12.72
2545,0,2,6,-8,3,3,-7,-5,12.725
2546,-2,-3,-4,0,-3,-1,-5,-6,12.73
2547,0,-1,0,5,4,1,6,5,12.735
2548,-2,-1,-4,-8,-1,1,3,0,12.74
2549,0,-1,0,3,0,-1,-5,-1,12.745000000000001
2550,1,0,0,-1,-2,-1,-3,1,12.75
2551,-2,-4,-4,-3,-2,1,-3,-1,12.755
2552,0,0,0,1,-2,-2,-5,-4,12.76
2553,-4,-3,-6,-2,-2,-1,2,-1,12.765
2554,2,1,1,1,0,-2,-4,-2,12.77
2555,-1,-1,-3,0,-2,-1,-2,-2,12.775
2556,-1,-1,0,-7,0,0,-1,1,12.780000000000001
2557,0,-1,-3,-2,-4,-3,-4,-2,12.785
2558,-1,-2,0,1,-2,-2,2,-1,12.790000000000001
2559,-2,-2,0,-4,-2,-3,-3,-2,12.795
2560,-3,-4,-6,-3,0,-1,8,-1,12.8
2561,-1,0,-1,-1,-2,-3,3,4,12.805
2562,1,1,4,7,0,0,2,3,12.81
2563,0,0,-2,-10,-2,-3,-5,2,12.815
2564,-1,-2,-1,6,-2,-2,-8,-4,12.82
2565,-3,-4,-4,-4,-2,-1,4,-6,12.825000000000001
2566,3,1,2,6,0,2,4,0,12.83
2567,-3,-3,-5,0,0,2,4,1,12.835
2568,3,-1,1,-4,0,0,8,1,12.84
2569,-1,-2,-1,3,-1,-3,-1,1,12.845
2570,-1,0,3,5,2,-2,-6,-4,12.85
2571,-1,-2,-5,-8,-3,-4,-1,-3,12.855
2572,-4,-7,-11,-3,3,3,-9,-6,12.86
2573,1,-3,-4,-1,1,4,12,3,12.865
2574,-4,-2,-2,-6,-4,-4,1,1,12.870000000000001
2575,-1,0,2,2,-1,-1,-2,-2,12.875
2576,-1,3,4,-2,-1,-1,-1,-1,12.88
2577,-2,-1,2,0,1,0,-3,-2,12.885
2578,-2,-3,-4,-4,-1,-1,-4,-3,12.89
2579,-1,0,1,3,1,0,2,0,12.895
2580,-1,-1,1,-4,0,-2,-1,2,12.9
2581,-1,-1,3,4,1,0,-2,-1,12.905000000000001
2582,-3,0,-4,-10,-4,-4,-6,-3,12.91
2583,2,2,4,5,0,1,2,2,12.915000000000001
2584,0,2,1,0,-2,0,-4,-4,12.92
2585,-2,-1,-2,-2,-1,-2,-1,-3,12.925
2586,-2,-2,-1,4,-2,4,9,5,12.93
2587,-2,0,-2,-6,-3,-3,-4,-3,12.935
2588,-2,-3,-7,-2,-2,-1,-2,-2,12.94
2589,-1,0,-1,7,0,1,2,1,12.945
2590,-1,-1,1,-1,-3,-3,-5,-5,12.950000000000001
2591,0,0,2,-1,-1,1,2,1,12.955
2592,-2,-3,-5,-3,-3,-3,-11,-4,12.96
2593,-1,-1,-1,-1,-1,0,9,1,12.965
2594,-2,-4,-5,-4,0,-1,-4,-3,12.97
2595,1,-1,3,2,0,1,-2,0,12.975
2596,0,2,3,3,1,0,4,2,12.98
2597,0,0,0,-2,0,-1,-8,-3,12.985
2598,-4,-2,0,0,1,0,1,4,12.99
2599,-2,-5,-2,5,-3,-1,-1,-3,12.995000000000001
2600,2,2,0,-11,-3,-1,-4,0,13.0
2601,2,0,1,8,0,0,4,3,13.005
2602,3,4,-1,-14,-1,-2,-4,-2,13.01
2603,-8,-4,-5,3,-1,-1,-1,-3,13.015
2604,0,-1,-1,2,-2,0,-1,-1,13.02
2605,0,0,0,-8,-3,0,-4,0,13.025
2606,-2,-3,-6,2,-1,-1,-4,-2,13.030000000000001
2607,2,0,0,-4,-1,1,21,5,13.035
2608,-2,-5,-7,-4,-1,-5,-4,-4,13.040000000000001
2609,0,-1,-4,-5,-6,-3,0,0,13.045
2610,0,-2,-1,-1,0,0,-3,-1,13.05
2611,0,-2,-2,2,-2,0,-7,-2,13.055
2612,0,0,4,-4,-1,2,6,4,13.06
2613,-2,-3,-2,-1,-2,-3,-8,-4,13.065
2614,-1,0,0,1,-1,-1,1,0,13.07
2615,1,0,-1,-2,0,-1,-6,-3,13.075000000000001
2616,1,0,3,-1,0,2,5,-1,13.08
2617,0,-1,0,5,2,1,2,1,13.085
2618,-1,1,-2,-6,-2,-3,-2,-2,13.09
2619,-2,1,1,-3,-1,-1,-3,0,13.095
2620,-2,0,1,4,0,-2,0,0,13.1
2621,-2,-1,-4,-7,-3,-4,-5,-3,13.105
2622,0,1,4,5,0,2,4,0,13.11
2623,2,-1,-2,-2,-1,-1,-2,0,13.115
2624,-1,-2,-2,2,-1,0,0,1,13.120000000000001
2625,-1,2,5,2,-1,-1,-5,-3,13.125
2626,1,-1,-1,1,1,2,3,-1,13.13
2627,1,1,1,1,-1,1,-2,1,13.135
2628,-1,1,2,4,-1,-2,-6,-4,13.14
2629,2,0,-3,-2,2,1,17,7,13.145
2630,0,0,1,0,-1,-1,-6,-5,13.15
2631,-3,-3,-8,-3,1,-1,-4,-2,13.155000000000001
2632,0,0,2,2,0,0,-1,0,13.16
2633,-2,1,3,-2,0,-2,-10,-7,13.165000000000001
2634,1,1,-3,-1,0,0,2,1,13.17
2635,-1,-2,-2,0,-1,-4,0,-1,13.175
2636,-1,-2,-2,-3,-2,0,-2,-1,13.18
2637,0,0,0,-1,1,-2,-11,-2,13.185
2638,-1,-1,-1,0,-2,1,2,4,13.19
2639,0,0,-1,-1,1,0,2,0,13.195
2640,-1,-1,0,3,-1,-3,-1,-1,13.200000000000001
2641,-1,1,0,-5,-1,1,-1,-2,13.205
2642,-3,-6,-8,-2,-2,-3,-2,-1,13.21
2643,-2,-2,0,-1,-1,-1,-4,-3,13.215
2644,-2,-3,-2,8,0,-2,3,2,13.22
2645,-1,-3,-9,-20,-3,3,8,2,13.225
2646,-2,-2,1,2,-2,-1,-4,-3,13.23
2647,1,2,2,-1,1,0,2,3,13.235
2648,-2,-1,0,1,-3,-2,-5,-3,13.24
2649,0,-3,-3,4,-1,-4,-14,-7,13.245000000000001
2650,-6,-1,0,-5,1,1,13,4,13.25
2651,1,0,2,3,0,0,2,3,13.255
2652,0,1,-2,-4,1,-2,-3,-3,13.26
2653,1,0,-1,1,0,1,4,1,13.265
2654,0,-1,1,-1,0,0,-6,-4,13.27
2655,-1,0,-1,11,1,-3,-4,0,13.275
2656,0,1,2,-13,-2,0,2,3,13.280000000000001
2657,-2,-2,-3,3,0,-5,-7,-2,13.285
2658,2,2,2,-9,-1,4,-1,0,13.290000000000001
2659,-1,-2,-4,2,-1,-2,1,-3,13.295
2660,2,0,-2,-5,0,2,2,0,13.3
2661,-1,0,1,2,-1,0,-3,0,13.305
2662,0,0,1,0,-1,-2,-3,-5,13.31
2663,-1,-4,-4,0,-1,0,2,4,13.315
2664,1,3,2,-2,-3,-2,-4,-2,13.32
2665,0,-3,-5,1,-1,1,2,3,13.325000000000001
2666,-1,1,-1,3,-2,-2,7,1,13.33
2667,-7,-2,-1,-7,-4,-1,-6,-3,13.335
2668,-2,-1,-3,2,-1,-2,0,-2,13.34
2669,-2,1,3,-1,-2,-3,-4,-6,13.345
2670,2,-2,-2,2,-1,-2,-5,-1,13.35
2671,2,0,1,-4,-2,1,8,0,13.355
2672,-1,-3,-7,-4,-6,-1,-4,-1,13.36
2673,-1,-2,0,-1,0,0,-1,-2,13.365
2674,2,3,2,4,2,-3,-4,0,13.370000000000001
2675,-1,-2,0,2,-1,-2,3,-4,13.375
2676,-1,0,0,1,2,0,0,2,13.38
2677,-1,1,2,6,0,0,0,0,13.385
2678,-3,-4,-5,-3,-3,-1,-1,-1,13.39
2679,3,0,2,4,1,1,-2,-1,13.395
2680,-1,0,-3,-13,-4,-3,-3,-5,13.4
2681,-3,-1,-1,4,-2,0,5,6,13.405000000000001
2682,0,1,2,-3,-1,0,0,-1,13.41
2683,-3,-2,-2,3,-3,-4,-7,-6,13.415000000000001
2684,1,-1,0,4,1,0,1,2,13.42
2685,1,-1,-1,-4,-1,1,0,2,13.425
2686,1,-1,-2,3,-2,-2,-5,-2,13.43
2687,1,-2,-5,-10,-2,0,2,-2,13.435
2688,-1,1,6,6,1,1,4,0,13.44
2689,-1,0,1,-2,-1,-3,-11,-4,13.445
2690,-1,-3,-6,-2,-2,-2,2,-3,13.450000000000001
2691,0,0,-3,1,0,-1,-9,-4,13.455
2692,2,2,-1,-2,1,3,4,7,13.46
2693,2,-1,1,1,0,1,5,1,13.465
2694,0,1,5,-2,-2,-2,-9,-4,13.47
2695,2,0,0,-5,-1,-1,-4,0,13.475
2696,0,-2,-1,3,-1,-1,4,-2,13.48
2697,0,-1,-1,-2,-3,-3,-1,-3,13.485
2698,0,-1,1,9,0,0,0,0,13.49
2699,-2,-1,-4,-23,-4,1,4,1,13.495000000000001
2700,-2,2,2,7,0,1,-1,-2,13.5
2701,-3,-3,-2,-4,-1,-1,2,-2,13.505
2702,-1,-1,0,2,1,2,2,-3,13.51
2703,-2,1,0,1,0,-2,-3,-2,13.515
2704,-2,-1,-3,0,0,1,0,-3,13.52
2705,0,1,2,-2,-2,-2,0,-3,13.525
2706,1,0,1,0,1,1,4,2,13.530000000000001
2707,1,-1,-1,1,-2,-1,-7,1,13.535
2708,-3,-2,-7,-4,0,2,8,1,13.540000000000001
2709,-3,-4,-6,2,0,-2,-9,-3,13.545
2710,1,2,2,-2,-1,-2,2,1,13.55
2711,-1,0,4,2,-1,-1,0,-1,13.555
2712,0,0,1,0,1,-1,-4,-1,13.56
2713,1,1,2,-1,-2,0,4,3,13.565
2714,-2,-3,-3,-4,-3,-2,-5,-1,13.57
2715,-2,-3,-2,-1,-2,-2,-2,-2,13.575000000000001
2716,-1,-1,0,0,-3,-2,-4,0,13.58
2717,0,-1,-1,-5,-3,-1,1,-1,13.585
2718,-2,-2,-2,-1,-1,1,-4,0,13.59
2719,1,1,2,1,0,0,1,-2,13.595
2720,0,-1,2,0,1,3,10,4,13.6
2721,0,-2,-3,-2,1,0,1,-1,13.605
2722,-1,-2,0,-1,-2,-1,1,1,13.61
2723,-2,1,2,4,2,0,-2,-1,13.615
2724,-1,-2,-4,-3,-3,-2,-7,-3,13.620000000000001
2725,-1,1,-3,-3,-1,-2,-2,-1,13.625
2726,1,0,1,3,1,0,3,2,13.63
2727,-1,-3,-5,-4,-2,-2,0,-1,13.635
2728,0,-1,1,-3,-2,-1,-3,-3,13.64
2729,0,0,2,0,-1,-1,2,3,13.645
2730,-4,-1,-4,-4,-2,-4,-5,-4,13.65
2731,-1,1,-2,0,0,0,1,-1,13.655000000000001
2732,-3,0,-1,4,-2,-5,-10,-8,13.66
2733,2,1,1,1,0,4,15,7,13.665000000000001
2734,-3,-4,-5,-3,-3,-4,-6,-4,13.67
2735,3,0,0,0,-2,2,7,5,13.675
2736,-5,-3,0,-3,-1,-1,-1,-1,13.68
2737,-3,-3,-2,2,0,-1,-4,-5,13.685
2738,-1,-2,0,-1,-1,-2,0,-3,13.69
2739,0,1,-1,-2,0,0,-1,0,13.695
2740,1,-3,-3,1,-2,-3,-1,-1,13.700000000000001
2741,-1,-2,-2,-3,-2,0,-1,-4,13.705
2742,1,1,1,1,1,1,0,1,13.71
2743,-2,0,-2,6,0,0,-4,-1,13.715
2744,1,0,-3,-12,-1,0,2,2,13.72
2745,-3,-2,-1,2,1,-2,-5,-2,13.725
2746,0,-1,1,-5,-2,0,-4,-4,13.73
2747,-5,-5,-4,0,-2,-4,-1,-5,13.735
2748,1,0,0,4,1,-1,6,7,13.74
2749,-3,-5,-8,-1,-3,-3,-6,-2,13.745000000000001
2750,1,2,6,5,1,3,6,0,13.75
2751,0,0,-1,-6,-2,-3,-6,0,13.755
2752,-4,-4,-4,0,-2,-1,-5,-4,13.76
2753,1,0,1,-7,0,-2,-6,-1,13.765
2754,2,0,0,5,0,0,1,2,13.77
2755,-1,-5,6,6,0,0,-1,-3,13.775
2756,1,0,-3,-3,-2,-3,-3,0,13.780000000000001
2757,0,-1,4,6,4,2,1,-3,13.785
2758,1,3,4,12,4,2,3,4,13.790000000000001
2759,-2,-1,-7,-24,-5,-2,-3,-2,13.795
2760,7,7,5,6,0,3,8,6,13.8
2761,-1,0,1,-3,-3,-2,-2,-4,13.805
2762,-3,-3,-4,-5,-1,1,14,2,13.81
2763,-1,-1,4,7,2,-1,-1,-4,13.815
2764,-3,2,8,3,2,2,2,-2,13.82
2765,-2,-1,-10,0,0,3,1,0,13.825000000000001
2766,0,-3,-2,-6,-2,-2,-6,-1,13.83
2767,-2,-2,2,6,1,1,2,0,13.835
2768,8,4,4,-1,-1,2,1,2,13.84
2769,-1,-1,2,4,-1,-4,-6,5,13.845
2770,11,5,-2,-11,-3,0,11,16,13.85
2771,-4,-12,-1,3,3,5,6,2,13.855
2772,-4,-3,-2,2,-1,-5,-8,-6,13.86
2773,-1,4,-1,-6,-2,1,1,1,13.865
2774,-12,-6,-1,7,-1,-3,-8,-10,13.870000000000001
2775,7,7,4,17,3,-2,1,6,13.875
2776,6,0,-2,4,0,-1,-5,1,13.88
2777,2,0,-3,-24,-8,-5,1,-1,13.885
2778,-11,-26,-10,-2,-2,-1,-4,-7,13.89
2779,-7,4,4,-3,0,-1,-2,-7,13.895
2780,5,-9,-6,6,2,1,0,6,13.9
2781,2,7,6,7,2,0,0,1,13.905000000000001
2782,2,5,3,-1,-2,0,-4,-4,13.91
2783,3,5,-2,0,1,2,-1,2,13.915000000000001
2784,2,0,-3,-3,-3,-2,4,2,13.92
2785,6,1,-2,4,2,2,-1,1,13.925
2786,-15,-9,-1,1,-3,-4,-7,-8,13.93
2787,9,10,7,1,1,1,1,0,13.935
2788,-5,3,-9,-7,-2,-2,-3,-2,13.94
2789,1,-3,7,7,0,1,2,1,13.945
2790,0,8,-1,-9,2,2,0,-1,13.950000000000001
2791,-4,-17,2,0,-4,-1,-1,1,13.955
2792,-12,-2,-5,0,5,-3,-6,-11,13.96
2793,-9,-9,0,6,3,-2,-8,-9,13.965
2794,17,8,6,22,-3,-1,0,9,13.97
2795,-6,-8,-14,-17,-38,-16,-9,-6,13.975
2796,-8,4,-4,-17,5,-3,-1,-5,13.98
2797,15,3,10,11,31,25,10,10,13.985
2798,-19,22,7,6,-12,-10,-2,-3,13.99
2799,-4,-7,-7,-9,-1,0,0,-4,13.995000000000001
2800,7,6,6,7,-11,-5,0,2,14.0
2801,-34,-35,-11,-5,-11,-7,-4,-12,14.005
2802,19,9,1,-7,5,4,5,11,14.01
2803,0,9,2,16,-1,-1,2,1,14.015
2804,-20,-27,3,-5,-26,-12,-5,-11,14.02
2805,26,48,4,0,26,5,3,8,14.025
2806,-24,-24,-3,-5,-1,1,-4,-12,14.030000000000001
2807,-12,-11,-10,-10,-9,-8,-3,-9,14.035
2808,12,29,11,-1,9,4,3,5,14.040000000000001
2809,11,-2,-7,-4,-8,-8,0,3,14.045
2810,-8,-15,13,2,12,7,-1,-6,14.05
2811,4,4,-7,-5,7,1,1,3,14.055
2812,-10,-10,-14,-16,-1,-5,-2,-1,14.06
2813,9,-3,4,20,-6,-1,1,0,14.065
2814,-4,-31,-14,-16,0,-2,-1,3,14.07
2815,-2,18,5,3,7,3,-1,-4,14.075000000000001
2816,-18,-42,-4,7,0,3,1,-5,14.08
2817,-10,-10,-15,-12,-3,-7,-5,-5,14.085
2818,-14,13,2,2,0,-2,-1,-4,14.09
2819,-4,-10,-6,-1,-6,-1,0,-8,14.095
2820,-2,6,4,3,-4,-3,2,4,14.1
2821,3,3,10,1,-5,-3,-4,-1,14.105
2822,23,52,3,9,-12,-6,-2,2,14.11
2823,-2,-9,-2,-1,2,-3,-3,-2,14.115
2824,18,27,-9,-28,-16,-1,0,5,14.120000000000001
2825,-34,-18,0,-10,12,7,1,-8,14.125
2826,15,23,-3,-13,-10,-6,-5,-3,14.13
2827,-7,2,-3,8,7,-2,1,3,14.135
2828,-1,-27,3,35,-17,-9,-5,-2,14.14
2829,-22,-17,4,-19,-9,-5,-2,-1,14.145
2830,27,2,6,15,45,22,10,16,14.15
2831,15,15,-29,-55,-26,-6,-1,4,14.155000000000001
2832,-1,-17,1,8,18,5,-3,-6,14.16
2833,9,33,6,19,-27,-10,-2,-3,14.165000000000001
2834,-19,-10,2,2,-4,-3,-1,-3,14.17
2835,-15,-36,-4,5,8,4,-4,-11,14.175
2836,27,26,-1,-2,5,10,11,22,14.18
2837,-2,20,7,7,-8,-8,-9,-17,14.185
2838,1,-43,4,2,-4,-2,-2,7,14.19
2839,33,37,-1,-18,12,8,12,26,14.195
2840,4,34,4,8,-11,-11,-13,-21,14.200000000000001
2841,-17,-36,-9,-17,-5,4,6,5,14.205
2842,-10,9,-1,-29,2,-6,-7,-12,14.21
2843,5,4,20,29,-53,-20,-6,4,14.215
2844,-26,-40,-11,11,46,11,0,-7,14.22
2845,39,27,0,-8,24,12,9,19,14.225
2846,-5,-29,-6,24,-10,-7,0,-5,14.23
2847,-28,-13,-15,-33,14,5,-5,-16,14.235
2848,14,30,8,7,9,5,-1,3,14.24
2849,6,2,-7,-4,-16,-12,-5,-3,14.245000000000001
2850,-19,6,-10,-2,-8,-1,6,8,14.25
2851,10,-5,17,31,22,10,2,-2,14.255
2852,-8,-11,-8,-7,-25,-8,-1,-2,14.26
2853,-10,-25,-7,-16,8,2,-1,-3,14.265
2854,-3,-17,-21,-18,-10,-11,-7,-3,14.27
2855,-7,28,13,16,7,0,1,-2,14.275
2856,22,-4,10,6,4,13,9,6,14.280000000000001
2857,-4,3,-25,-13,-43,-22,-17,-15,14.285
2858,6,6,15,1,-11,0,-1,-2,14.290000000000001
2859,-2,-7,-2,-12,1,-6,0,4,14.295
2860,-35,-7,9,9,18,11,-6,-21,14.3
2861,31,-1,11,11,10,7,10,18,14.305
2862,-15,5,-19,-21,-13,-10,-7,-14,14.31
2863,-5,-69,0,16,-19,-11,-7,-6,14.315
2864,-34,10,-14,-26,15,1,-1,-2,14.32
2865,-1,11,11,13,-12,-9,-1,-7,14.325000000000001
2866,25,29,-1,16,19,14,5,1,14.33
2867,-29,-36,5,-5,3,-12,-15,-19,14.335
2868,27,-2,-10,-20,-19,-14,-2,11,14.34
2869,15,5,2,12,25,13,9,13,14.345
2870,-17,-23,1,7,-42,-15,-9,-11,14.35
2871,-24,9,-27,-19,42,11,2,-1,14.355
2872,-5,4,-7,-54,-61,-15,-3,0,14.36
2873,-16,-28,2,21,29,2,-1,-1,14.365
2874,19,21,14,-15,42,18,12,18,14.370000000000001
2875,-6,25,25,37,-36,-3,-2,-4,14.375
2876,-9,-15,-37,-12,37,-8,-12,-14,14.38
2877,-2,0,1,-19,-34,-5,-6,-5,14.385
2878,5,-34,2,21,-21,-3,8,17,14.39
2879,-10,28,3,-14,63,20,-4,-16,14.395
2880,1,-52,-21,-2,-37,-15,-2,2,14.4
2881,-4,25,2,2,-12,0,8,9,14.405000000000001
2882,52,11,11,-4,9,-3,-1,15,14.41
2883,-39,-39,-15,-4,-30,-7,4,2,14.415000000000001
2884,4,50,16,24,-11,5,-3,-18,14.42
2885,-40,-84,-21,-27,-4,-8,-11,-21,14.425
2886,20,42,-22,-19,-6,-2,-2,1,14.43
2887,60,-16,20,26,52,28,22,32,14.435
2888,-18,11,-5,2,20,3,-3,-13,14.44
2889,4,25,14,-25,-15,-2,1,8,14.445
2890,-75,-50,5,18,55,15,-6,-35,14.450000000000001
2891,55,30,-6,3,4,8,9,26,14.455
2892,7,13,44,33,33,7,7,13,14.46
2893,9,15,5,10,2,1,-6,-16,14.465
2894,28,-11,-8,-9,-38,-17,2,14,14.47
2895,-29,-17,-20,2,-7,-7,-11,-24,14.475
2896,5,51,12,-9,3,14,3,-8,14.48
2897,48,23,-6,-2,-22,-23,0,37,14.485
2898,12,-37,1,0,10,5,-3,-8,14.49
2899,30,75,27,5,-4,0,0,-1,14.495000000000001
2900,-11,32,-6,7,-40,-20,2,5,14.5
2901,31,46,-9,-12,-38,-7,-5,-2,14.505
2902,3,12,7,26,86,47,13,3,14.51
2903,0,31,-5,8,-61,-26,-12,-10,14.515
2904,19,1,8,-6,25,6,4,13,14.52
2905,-51,-58,-3,-6,14,6,0,-13,14.525
2906,25,40,-17,-9,17,-5,7,23,14.530000000000001
2907,5,25,4,-4,29,14,0,-4,14.535
2908,9,-38,-4,-7,-41,-11,-4,1,14.540000000000001
2909,-22,-34,-16,11,0,0,4,3,14.545
2910,-19,2,2,-14,-44,-15,-6,-11,14.55
2911,24,-22,-16,-12,2,-2,11,37,14.555
2912,-19,-47,-13,-1,-8,-5,-9,-19,14.56
2913,59,59,6,5,-1,2,5,12,14.565
2914,-55,-61,-17,-11,-17,-9,-13,-30,14.57
2915,-48,-47,1,3,-16,-17,-14,-27,14.575000000000001
2916,34,36,14,10,9,17,26,41,14.58
2917,-6,2,-3,-9,16,1,-13,-13,14.585
2918,25,55,6,-9,-65,-11,3,14,14.59
2919,-16,1,-13,-34,61,13,-2,-6,14.595
2920,-15,-42,1,6,-73,-22,-13,-14,14.6
2921,-24,15,-2,6,74,24,-3,-20,14.605
2922,17,1,13,9,-8,4,18,26,14.61
2923,8,19,22,33,33,28,13,16,14.615
2924,9,-4,2,-4,8,10,2,5,14.620000000000001
2925,-7,-1,0,17,-18,-2,3,1,14.625
2926,-19,-24,-14,-22,-42,-23,-18,-23,14.63
2927,13,-1,-7,-10,-45,-11,0,0,14.635
2928,7,0,0,10,44,6,1,3,14.64
2929,8,19,18,17,-16,-3,5,6,14.645
2930,7,2,-15,-11,15,8,-3,-8,14.65
2931,0,-15,-10,-14,-17,-9,-2,3,14.655000000000001
2932,-17,12,3,4,8,-2,-1,1,14.66
2933,-14,-27,-6,-9,-1,0,0,-3,14.665000000000001
2934,-5,20,7,-3,4,-5,-5,-6,14.67
2935,7,2,4,8,-1,-1,3,1,14.675
2936,2,-23,5,-7,-2,-3,-5,-6,14.68
2937,-7,5,-2,-6,-2,4,2,-8,14.685
2938,-13,5,8,21,13,-7,-6,0,14.69
2939,-1,-3,-3,-15,-25,-9,-8,-14,14.695
2940,-4,-2,-16,-10,5,3,0,-2,14.700000000000001
2941,-2,-1,-3,8,5,-1,-4,-1,14.705
2942,0,-2,2,-4,4,-2,-7,-13,14.71
2943,1,-8,-6,-6,-15,-4,7,5,14.715
2944,7,12,9,4,4,7,4,8,14.72
2945,5,-12,6,-4,-3,-7,-18,-3,14.725
2946,-1,0,9,10,0,11,36,5,14.73
2947,1,11,-1,2,-4,1,-10,15,14.735
2948,-3,-8,-13,-5,12,5,7,-7,14.74
2949,4,3,-6,2,-13,1,10,10,14.745000000000001
2950,-14,-12,-4,-6,-7,-8,-18,-4,14.75
2951,5,-7,-5,-8,-15,-8,3,-6,14.755
2952,-5,-6,-6,3,48,12,-9,-9,14.76
2953,-7,-8,5,0,-11,-4,-3,-4,14.765
2954,7,5,-7,-2,-7,-5,-2,1,14.77
2955,-6,-7,-6,-8,-14,-7,-2,-5,14.775
2956,-5,-5,-4,-2,-9,-9,-15,-9,14.780000000000001
2957,-11,-7,-10,-2,2,-1,-4,-13,14.785
2958,2,8,3,4,9,6,14,16,14.790000000000001
2959,-3,-3,3,4,-9,-2,-1,-3,14.795
2960,2,8,5,0,-4,-2,-2,7,14.8
2961,-13,-2,1,2,10,0,-5,-3,14.805
2962,-1,-4,-3,-10,-8,-2,-4,-5,14.81
2963,19,17,7,0,10,1,1,10,14.815
2964,1,-6,-1,-3,-8,-5,0,0,14.82
2965,-4,-8,-6,0,-8,-7,-9,-7,14.825000000000001
2966,-7,-4,-1,-1,5,1,-13,-10,14.83
2967,-4,2,1,-1,8,5,4,0,14.835
2968,3,-4,0,-1,2,-3,2,-2,14.84
2969,-3,-7,-1,3,1,0,2,1,14.845
2970,-1,0,2,7,-13,-2,-1,-2,14.85
2971,-6,-4,-4,-8,18,5,2,-4,14.855
2972,7,7,6,5,0,-4,-7,0,14.86
2973,-7,-9,-7,-2,-3,-6,-19,-11,14.865
2974,5,6,4,-6,-1,2,45,15,14.870000000000001
2975,-9,-13,-12,-7,-24,-17,-25,-11,14.875
2976,-2,5,1,-6,-6,4,0,2,14.88
2977,13,2,5,1,10,9,28,16,14.885
2978,-1,2,-1,4,3,-1,-17,-5,14.89
2979,-10,-1,5,5,-3,-5,6,-4,14.895
2980,10,-1,0,2,-3,-3,-7,2,14.9
2981,-2,-2,-4,1,2,1,7,-2,14.905000000000001
2982,4,2,-3,-2,3,1,-7,-2,14.91
2983,-4,-5,-1,3,1,1,2,-1,14.915000000000001
2984,-3,-4,-4,0,-2,-2,-5,-5,14.92
2985,3,4,1,-2,-1,-1,-1,2,14.925
2986,0,0,-1,-1,3,1,-4,0,14.93
2987,-1,2,2,3,4,2,6,0,14.935
2988,-1,4,2,1,-5,1,3,3,14.94
2989,1,3,2,-1,0,2,4,0,14.945
2990,-5,-1,0,-1,5,-3,-15,-6,14.950000000000001
2991,2,0,1,1,0,-3,-10,-3,14.955
2992,-4,-2,-4,-8,-8,-3,4,-2,14.96
2993,-3,-3,-9,-4,0,-1,12,1,14.965
2994,-4,1,0,3,4,3,-3,2,14.97
2995,4,2,1,3,0,1,2,1,14.975
2996,-3,-2,-1,3,-2,0,8,3,14.98
2997,-1,-1,1,-2,-2,-2,-12,-2,14.985
2998,-2,-3,-7,-4,-4,-3,-7,-6,14.99
2999,-1,-2,0,1,-1,0,6,1,14.995000000000001
3000,-5,-1,1,-2,-1,-3,-2,-2,15.0
3001,0,2,-1,-2,1,-1,0,-1,15.005
3002,2,0,2,-2,2,1,2,1,15.01
3003,-1,-1,2,-4,0,1,-3,0,15.015
3004,-4,-9,-15,-9,-4,-6,-13,-12,15.02
3005,-1,-1,4,11,7,16,45,11,15.025
3006,6,7,5,-1,-1,-4,2,20,15.030000000000001
3007,0,-1,-10,3,0,3,2,2,15.035
3008,6,3,6,5,0,-3,-11,-2,15.040000000000001
3009,0,2,-3,-1,-4,0,23,4,15.045
3010,2,2,8,13,5,12,6,2,15.05
3011,0,-1,-3,-2,-2,-4,-3,-3,15.055
3012,1,0,1,8,-7,-4,2,-2,15.06
3013,0,1,-5,-34,-2,-8,-27,-7,15.065
3014,-6,-5,-8,-4,-8,-4,-3,-9,15.07
3015,0,0,-5,-11,-3,1,0,-1,15.075000000000001
3016,-5,0,3,3,-1,0,1,-2,15.08
3017,-2,-1,1,9,-1,-4,-9,-2,15.085
3018,0,1,6,6,2,-4,-6,-5,15.09
3019,0,2,-3,-17,-2,3,2,0,15.095
3020,-7,1,-2,-2,-1,-3,4,3,15.1
3021,0,-3,-2,-2,-2,-6,-16,-5,15.105
3022,-1,-1,-5,5,0,1,9,2,15.11
3023,-3,-1,4,1,-2,0,-4,-2,15.115
3024,2,2,-5,-7,-2,2,1,2,15.120000000000001
3025,1,2,6,9,-1,-3,3,6,15.125
3026,-20,-11,-7,-10,-2,-6,-14,-16,15.13
3027,7,-1,-1,5,-3,-6,-9,7,15.135
3028,-6,-4,-22,-33,-3,3,13,4,15.14
3029,-1,-3,2,12,1,-1,-11,-7,15.145
3030,3,-1,-2,-5,-8,-5,-3,-5,15.15
3031,-3,-1,5,15,4,0,1,-3,15.155000000000001
3032,-1,-2,-1,-9,-2,-1,-3,-2,15.16
3033,2,0,-2,10,1,0,-1,2,15.165000000000001
3034,0,1,5,16,7,0,-3,-2,15.17
3035,0,-1,8,0,2,-1,-2,-7,15.175
3036,0,-1,4,11,3,-1,-9,-4,15.18
3037,-4,-7,-12,-29,-10,2,26,8,15.185
3038,2,2,0,-8,-2,-1,-8,-1,15.19
3039,-2,2,1,1,0,-1,-1,-1,15.195
3040,-1,0,5,18,6,4,6,2,15.200000000000001
3041,0,2,7,2,2,-3,-9,-1,15.205
3042,-2,-5,-10,-9,-3,-1,-2,-5,15.21
3043,-3,-4,-18,-20,-6,-2,-4,-1,15.215
3044,-8,-2,7,20,0,-1,6,2,15.22
3045,-2,1,3,11,-1,-4,-11,-3,15.225
3046,2,-1,4,5,3,0,-7,-4,15.23
3047,-7,-1,4,-10,-5,-2,7,-2,15.235
3048,2,-2,-10,-10,-8,-7,-11,-2,15.24
3049,5,3,3,-5,1,8,21,9,15.245000000000001
3050,-1,-2,-6,4,3,-2,-1,1,15.25
3051,3,-4,0,24,3,-2,-6,-5,15.255
3052,-1,0,5,-18,-2,0,5,3,15.26
3053,-5,-1,-6,-6,-7,-6,-5,-6,15.265
3054,0,-1,-6,-11,-4,-1,0,3,15.27
3055,-2,0,1,-3,-5,-3,-5,-3,15.275
3056,3,-1,7,16,3,0,-2,-4,15.280000000000001
3057,-2,-2,4,5,4,-2,-4,-2,15.285
3058,-1,1,-1,-10,0,1,4,3,15.290000000000001
3059,-3,-4,-7,1,0,0,2,2,15.295
3060,1,-1,2,4,-2,-2,3,1,15.3
3061,-3,-3,-9,-19,-3,-1,-10,-2,15.305
3062,0,1,3,-1,-4,-2,-5,-4,15.31
3063,-6,0,2,1,-1,-2,4,-1,15.315
3064,0,1,-1,-1,2,1,2,1,15.32
3065,2,0,4,-3,-2,-2,-8,-3,15.325000000000001
3066,-1,-3,-1,1,1,0,4,1,15.33
3067,2,1,-10,-15,-4,-1,-1,1,15.335
3068,2,0,-2,1,0,1,2,-1,15.34
3069,-2,-1,-3,6,1,-2,-7,-3,15.345
3070,2,2,3,-4,-1,-3,-1,-3,15.35
3071,-4,-4,-1,-3,-4,-2,-4,-2,15.355
3072,-2,-1,-1,-2,2,2,8,0,15.36
3073,5,-1,-5,-3,0,0,1,7,15.365
3074,0,0,3,1,-1,1,-6,-1,15.370000000000001
3075,3,0,7,5,1,-2,6,3,15.375
3076,-6,-4,0,11,-1,-5,-5,-6,15.38
3077,-4,-3,-5,-3,-8,-4,-9,-5,15.385
3078,0,1,3,7,-3,-4,-3,-3,15.39
3079,-2,-4,-11,-23,0,1,3,0,15.395
3080,1,-1,1,-1,-2,-2,-4,-1,15.4
3081,-2,1,4,17,3,0,1,-3,15.405000000000001
3082,1,-1,-2,-10,-1,0,-3,-1,15.41
3083,1,0,4,20,2,2,4,2,15.415000000000001
3084,-6,-3,-6,-11,-1,0,-2,0,15.42
3085,2,1,6,2,0,0,-1,1,15.425
3086,-5,-1,-4,4,0,-2,3,2,15.43
3087,-1,2,3,-9,-1,0,-3,-3,15.435
3088,1,0,-8,-9,-1,-1,-5,-1,15.44
3089,-2,-4,-4,-4,-2,-3,-5,-5,15.445
3090,-3,0,4,6,1,0,7,4,15.450000000000001
3091,0,0,-1,5,-1,-1,-7,-1,15.455
3092,0,-1,0,0,-3,-3,-4,-2,15.46
3093,1,1,3,16,4,-3,-12,-4,15.465
3094,0,-4,-6,-18,-2,1,2,-1,15.47
3095,2,1,1,2,-1,1,7,2,15.475
3096,0,0,-1,-5,0,1,1,1,15.48
3097,-3,-2,1,-1,1,-2,-4,-5,15.485000000000001
3098,-2,-2,-12,-14,-3,-4,-4,-4,15.49
3099,1,-1,5,15,1,-1,-2,-2,15.495000000000001
3100,2,3,7,18,3,1,-1,-2,15.5
3101,0,-3,-10,-25,-2,1,11,4,15.505
3102,0,1,4,13,0,-1,-6,-3,15.51
3103,-1,-3,-1,-10,-1,-1,1,-2,15.515
3104,-1,0,-3,2,-1,-1,1,2,15.52
3105,-1,-2,4,-5,-1,0,-3,-3,15.525
3106,-3,-1,-10,-11,-8,-4,-3,-2,15.530000000000001
3107,0,-1,1,5,0,2,13,3,15.535
3108,-1,-1,1,-8,-4,-4,-7,-4,15.540000000000001
3109,-3,0,-3,3,1,3,0,3,15.545
3110,2,-2,-2,-2,-1,1,-1,5,15.55
3111,0,2,4,6,2,0,1,1,15.555
3112,-1,-3,-4,0,-2,0,7,-1,15.56
3113,-4,-3,-7,-11,-5,0,-1,-2,15.565
3114,1,1,7,13,2,-1,-3,-3,15.57
3115,0,-2,-3,-3,1,-3,-8,-2,15.575000000000001
3116,0,-1,1,-3,-1,-2,-1,-1,15.58
3117,1,1,-2,2,2,-1,-3,-1,15.585
3118,2,0,-2,2,-2,-2,2,2,15.59
3119,-3,-5,-3,-2,-1,-1,-3,-2,15.595
3120,-2,3,-1,-5,-1,0,2,2,15.6
3121,-2,-1,-2,-1,-2,-3,-7,-4,15.605
3122,0,0,-2,-8,-1,1,18,7,15.610000000000001
3123,0,1,0,-2,0,1,-7,-3,15.615
3124,-1,1,1,0,-2,-3,-6,-3,15.620000000000001
3125,-1,1,0,0,-1,1,9,4,15.625
3126,-2,-3,1,8,-1,-3,-7,-4,15.63
3127,0,0,1,-3,-5,-2,-4,0,15.635
3128,-3,-3,-2,-7,1,5,7,0,15.64
3129,-3,-6,-10,-1,0,-4,-5,-4,15.645
3130,-3,-3,-3,-3,-1,0,-7,-6,15.65
3131,2,2,-2,3,-1,3,2,3,15.655000000000001
3132,2,2,3,0,-1,-8,-10,1,15.66
3133,0,2,7,5,-1,-2,3,-1,15.665000000000001
3134,-2,1,1,0,0,-1,-5,-2,15.67
3135,-1,-1,1,-5,-3,-2,-4,-5,15.675
3136,0,-3,1,14,-2,-3,-3,-2,15.68
3137,3,0,-4,-21,-4,-1,-2,2,15.685
3138,-5,-3,1,12,-2,-2,-1,-4,15.69
3139,-2,0,1,-1,0,0,1,3,15.695
3140,-1,-3,-6,7,-3,0,1,0,15.700000000000001
3141,0,2,4,6,-1,-2,-4,0,15.705
3142,2,2,0,-4,-1,1,3,1,15.71
3143,0,-1,-3,-4,0,-2,-1,-2,15.715
3144,-2,-1,-2,-6,-1,2,1,1,15.72
3145,-1,0,1,5,0,1,-2,-4,15.725
3146,0,0,-2,-9,1,-1,4,1,15.73
3147,-1,-1,-1,2,0,-4,-5,-3,15.735000000000001
3148,0,0,-1,-7,-1,0,4,1,15.74
3149,1,2,0,4,0,-1,1,0,15.745000000000001
3150,1,0,4,2,2,-2,-3,-1,15.75
3151,1,1,1,-1,0,-2,-5,-4,15.755
3152,-2,-3,-5,-3,0,0,7,-3,15.76
3153,1,2,2,0,0,5,11,8,15.765
3154,-1,-1,-2,0,-2,-2,1,-3,15.77
3155,5,6,6,-1,1,0,-6,3,15.775
3156,-1,-4,-6,-2,0,-3,2,0,15.780000000000001
3157,0,3,5,8,1,0,-5,-3,15.785
3158,-9,-6,-8,-3,0,1,4,-2,15.790000000000001
3159,-1,-1,-3,-7,-3,0,2,2,15.795
3160,1,2,3,-2,-1,-2,-4,-3,15.8
3161,-2,-2,-3,-1,-2,-2,-3,1,15.805
3162,4,2,2,-1,-1,-1,-3,2,15.81
3163,-4,-4,-5,2,0,0,0,-2,15.815
3164,1,-2,-6,-6,-5,0,-1,-1,15.82
3165,-2,-2,0,3,-1,0,2,-4,15.825000000000001
3166,2,1,5,1,2,0,-5,0,15.83
3167,-2,-3,-4,0,0,-2,3,0,15.835
3168,0,1,-2,-9,0,-1,-2,2,15.84
3169,-1,-1,-1,-17,-1,0,-1,0,15.845
3170,-1,1,2,19,-2,0,-2,-2,15.85
3171,-1,-2,-2,3,0,2,7,1,15.855
3172,0,0,0,-3,-3,-4,-8,-2,15.860000000000001
3173,-2,-3,-1,0,-2,-3,-1,-2,15.865
3174,3,-2,-3,-3,0,2,0,2,15.870000000000001
3175,-2,-3,-3,-2,-2,-3,-5,-3,15.875
3176,0,0,1,6,2,1,-4,-2,15.88
3177,-1,-1,3,0,0,-1,3,0,15.885
3178,5,2,-1,-9,-4,-3,-3,-1,15.89
3179,0,0,0,6,1,0,6,2,15.895
3180,-2,2,3,-7,0,-1,-9,-2,15.9
3181,-2,-4,-3,8,-2,4,14,3,15.905000000000001
3182,3,1,-1,-5,-3,-3,-3,1,15.91
3183,-5,-3,0,8,-2,-2,-2,-4,15.915000000000001
3184,0,1,1,-3,-1,0,-3,0,15.92
3185,0,0,-4,-1,-1,-3,-4,-2,15.925
3186,-4,-3,0,0,1,-1,-5,-3,15.93
3187,0,-2,-3,-8,-3,-2,-1,-4,15.935
3188,-3,-1,-2,1,1,1,2,2,15.94
3189,-1,-1,2,3,0,-3,-7,-3,15.945
3190,-1,-2,-4,-5,-1,-2,-1,-1,15.950000000000001
3191,0,-1,-1,-7,-4,-1,-4,-1,15.955
3192,1,3,4,0,-2,2,9,-3,15.96
3193,4,1,-5,-2,2,4,2,4,15.965
3194,-1,2,-1,0,-1,-4,-6,-1,15.97
3195,0,0,2,0,-2,0,-3,0,15.975
3196,-1,-3,-4,1,-1,0,1,-1,15.98
3197,1,-1,2,1,0,0,0,3,15.985000000000001
3198,-2,0,4,6,1,2,0,-2,15.99
3199,0,1,-1,1,-1,-2,2,1,15.995000000000001
3200,0,0,1,-1,-1,-2,-2,0,16.0
3201,-2,-2,-3,-3,-2,-4,-12,-5,16.005
3202,-2,-3,0,-3,0,0,3,0,16.01
3203,-1,-2,4,10,0,-1,6,1,16.015
3204,-3,-1,-5,-4,-2,0,2,0,16.02
3205,0,2,2,2,-2,-2,-2,-2,16.025
3206,-2,-5,-7,-11,-3,-4,2,-4,16.03
3207,1,0,-2,-1,2,2,1,1,16.035
3208,2,-1,0,0,-3,-3,-3,-3,16.04
3209,-2,0,-1,0,0,2,1,3,16.045
3210,2,0,-2,-4,-2,-2,-7,-2,16.05
3211,-6,-3,-1,-5,0,0,-5,-3,16.055
3212,0,-1,3,6,2,0,4,2,16.06
3213,-2,-5,-4,-3,0,2,13,8,16.065
3214,1,-1,-1,2,-1,1,3,2,16.07
3215,0,0,-1,-5,0,-4,-8,-4,16.075
3216,0,0,0,-1,1,-1,-3,-1,16.080000000000002
3217,-2,-4,-2,-1,-1,-5,-4,-6,16.085
3218,-4,-1,-4,-2,-1,-2,-5,-3,16.09
3219,-1,-1,-5,-2,1,0,7,-1,16.095
3220,0,1,2,-1,-1,-2,-3,-2,16.1
3221,-1,-2,-1,1,0,0,-1,-2,16.105
3222,0,-2,-2,-4,0,-1,-7,-1,16.11
3223,-2,1,2,1,1,0,4,2,16.115000000000002
3224,-6,-4,0,10,1,2,3,1,16.12
3225,0,2,2,1,-1,-2,-6,-2,16.125
3226,-4,0,-8,-4,-1,-1,-3,-3,16.13
3227,-1,-1,1,-3,0,1,10,1,16.135
3228,3,-1,-1,4,0,0,-1,1,16.14
3229,-1,0,2,-1,-1,-1,-1,-1,16.145
3230,0,-1,2,0,0,1,0,-3,16.15
3231,2,-1,-5,-5,-4,-5,-5,0,16.155
3232,1,0,0,-3,0,-1,1,-1,16.16
3233,0,-3,-4,0,0,-1,-4,-4,16.165
3234,-1,0,-2,-2,0,4,11,4,16.17
3235,-1,-3,1,5,-2,-4,-8,-3,16.175
3236,-1,-1,-2,-11,-1,1,0,-3,16.18
3237,0,1,-2,-3,-2,-2,-2,-3,16.185
3238,0,1,6,6,-2,-3,1,0,16.19
3239,-2,1,-1,-2,-1,0,-2,1,16.195
3240,-2,-3,-1,2,1,0,5,2,16.2
3241,1,2,2,1,1,-1,-7,-1,16.205000000000002
3242,3,1,3,-2,-1,1,7,1,16.21
3243,-5,-3,-3,2,-2,1,-4,-3,16.215
3244,1,0,-3,-3,-2,-2,-8,-4,16.22
3245,-1,-1,-1,0,1,0,8,0,16.225
3246,1,-3,-5,-1,1,1,0,1,16.23
3247,1,0,-2,-3,-1,-4,-7,-2,16.235
3248,-1,-3,-2,-2,-1,1,1,2,16.240000000000002
3249,-1,-1,0,0,-2,-4,-8,-2,16.245
3250,-4,0,-2,1,-1,0,6,3,16.25
3251,0,-1,-3,-4,-2,-2,-1,-1,16.255
3252,-1,2,1,-1,-1,-1,1,-1,16.26
3253,-3,-1,1,11,-1,-1,-5,-5,16.265
3254,-2,-2,-2,-14,-2,-2,-1,-2,16.27
3255,1,-2,-4,-1,-1,1,-4,-3,16.275
3256,-2,-1,-2,-2,-2,-3,0,-1,16.28
3257,-1,-2,0,2,-1,-1,-1,0,16.285
3258,-1,-1,-3,0,0,-2,-4,-1,16.29
3259,-5,-1,1,-4,-1,0,0,2,16.295
3260,-1,0,-1,-2,-2,-3,-9,-3,16.3
3261,-2,0,3,0,-1,-1,7,0,16.305
3262,-1,-2,1,6,4,1,-4,-3,16.31
3263,4,0,3,2,0,4,18,6,16.315
3264,-1,-4,-9,-5,-1,-1,3,2,16.32
3265,-2,0,0,-1,0,-2,-5,-3,16.325
3266,2,1,1,2,-3,-1,7,5,16.330000000000002
3267,0,3,2,-1,0,-4,-9,-5,16.335
3268,-1,-1,2,4,1,2,1,0,16.34
3269,1,-1,-4,-5,-1,1,0,-2,16.345
3270,0,-1,-3,-3,-1,-1,6,3,16.35
3271,-2,-3,-5,-9,-1,-2,-7,-4,16.355
3272,1,3,3,-1,-1,-7,-6,-3,16.36
3273,-1,-3,-2,0,0,2,-2,-1,16.365000000000002
3274,-5,-3,-3,-3,-3,-1,-5,-2,16.37
3275,4,1,-1,-1,-2,0,1,1,16.375
3276,-6,-1,-2,-2,-2,-1,-2,-3,16.38
3277,-3,-2,0,-1,-1,-1,-3,2,16.385
3278,-1,-1,-1,1,-2,-2,-2,-1,16.39
3279,0,0,0,-1,-1,-2,-3,0,16.395
3280,-1,-1,0,1,0,0,-1,-2,16.4
3281,0,0,-2,4,0,-2,1,-1,16.405
3282,-3,-1,-2,-20,-4,-4,-19,-9,16.41
3283,-2,-2,4,16,3,0,8,2,16.415
3284,1,1,0,5,-1,3,1,1,16.42
3285,-3,-3,-9,-9,-3,0,0,1,16.425
3286,0,0,0,0,1,0,-2,-1,16.43
3287,-2,-2,-1,-5,-2,-1,-6,-3,16.435
3288,0,-1,-3,-3,-2,-2,6,1,16.44
3289,2,1,1,-3,1,-1,1,1,16.445
3290,-2,-1,0,3,0,-2,-4,-4,16.45
3291,-1,-1,-1,-2,-2,1,-2,-1,16.455000000000002
3292,-2,0,1,4,1,0,2,1,16.46
3293,-1,0,-3,-5,0,-1,-5,-2,16.465
3294,-1,-2,2,5,0,-2,-2,-2,16.47
3295,1,0,-3,0,1,4,14,5,16.475
3296,1,0,0,-4,-1,0,-1,1,16.48
3297,0,0,-3,-4,-2,1,11,-2,16.485
3298,1,2,2,5,0,-2,-14,3,16.490000000000002
3299,-6,-4,-3,-2,-3,-1,-1,-4,16.495
3300,-1,0,-1,0,1,0,-3,1,16.5
3301,0,-1,-2,-6,-3,-1,-2,0,16.505
3302,0,0,4,10,2,3,8,0,16.51
3303,-1,-2,-5,-6,-3,-3,-6,-2,16.515
3304,0,0,1,-2,-1,-2,-5,-2,16.52
3305,-3,-4,-6,6,-3,-2,-6,-2,16.525
3306,-1,0,-3,-9,0,0,3,1,16.53
3307,-1,0,-2,0,-2,-2,-5,-2,16.535
3308,-2,-3,-4,-3,-3,1,0,-2,16.54
3309,1,1,1,-1,-1,-1,-2,0,16.545
3310,-2,1,0,0,-2,2,4,-1,16.55
3311,-2,-2,-3,-3,-1,-3,-4,-3,16.555
3312,1,-1,-2,0,-1,-2,0,1,16.56
3313,-1,-1,2,0,1,0,-8,-4,16.565
3314,0,-2,-1,2,0,1,16,1,16.57
3315,-1,-2,-2,-1,-3,-1,-7,-3,16.575
3316,3,0,-2,-2,-1,-2,-1,-2,16.580000000000002
3317,-7,-3,0,-3,-2,-5,2,-2,16.585
3318,-2,-2,-1,2,0,0,-4,-1,16.59
3319,0,-1,-2,-3,-2,-2,-3,-1,16.595
3320,0,-1,0,8,0,0,-1,-5,16.6
3321,0,-1,-3,-12,-2,1,3,5,16.605
3322,-1,1,1,0,-1,-2,3,2,16.61
3323,0,1,-1,-2,0,-2,-5,-5,16.615000000000002
3324,1,-2,1,0,-1,1,-1,5,16.62
3325,0,-2,-2,-1,-4,-5,-4,-2,16.625
3326,-1,-2,-1,-2,-3,-2,-2,0,16.63
3327,1,0,2,4,0,0,-1,-1,16.635
3328,-1,0,0,-9,-5,-3,-8,-6,16.64
3329,1,-1,1,2,1,2,15,3,16.645
3330,0,-3,-3,-4,-1,-3,-6,-2,16.65
3331,-1,-3,-1,0,1,-1,-4,-3,16.655
3332,-1,0,4,7,-3,-4,7,3,16.66
3333,1,0,-8,-17,-1,3,5,2,16.665
3334,-7,-1,3,12,1,-2,-6,-1,16.67
3335,0,0,-2,-3,1,-1,-2,0,16.675
3336,-4,-7,-6,4,-3,-5,-2,-4,16.68
3337,2,0,-1,-1,2,2,-9,-3,16.685
3338,-1,0,1,-4,-3,-2,4,0,16.69
3339,1,-2,-1,1,-1,0,1,1,16.695
3340,-3,-2,-4,-8,-1,1,1,-4,16.7
3341,-1,0,2,4,-3,-3,-10,-2,16.705000000000002
3342,0,-3,-4,-4,-1,1,5,-3,16.71
3343,-1,0,1,-1,-1,-1,-4,2,16.715
3344,-1,0,0,-1,0,0,0,-1,16.72
3345,0,0,0,4,2,0,0,-1,16.725
3346,0,0,1,2,-2,-3,-7,-3,16.73
3347,-2,-1,0,-2,-2,0,3,0,16.735
3348,1,0,0,-1,1,0,5,1,16.740000000000002
3349,-3,-2,0,1,-1,-1,-8,-5,16.745
3350,0,1,1,-4,-1,-3,1,2,16.75
3351,-2,-2,-3,-2,-3,-4,-3,-1,16.755
3352,-2,-1,-4,-4,-2,-1,-6,0,16.76
3353,0,0,1,12,4,1,7,2,16.765
3354,-1,-3,-6,-12,-1,0,-4,-2,16.77
3355,3,2,3,-4,-1,1,1,0,16.775
3356,-10,-4,0,4,0,-3,-6,-4,16.78
3357,0,-1,-1,-1,2,1,3,4,16.785
3358,0,-1,0,2,1,2,3,-2,16.79
3359,-3,0,-2,0,1,-1,1,1,16.795
3360,-1,-3,-4,-6,0,0,-5,-1,16.8
3361,-1,-1,0,-1,0,-2,-6,-3,16.805
3362,-4,-3,-3,1,-2,-2,2,2,16.81
3363,-1,-3,-5,-6,-4,-6,-3,-3,16.815
3364,3,4,3,-1,1,1,-1,1,16.82
3365,-2,-2,0,2,-1,0,10,0,16.825
3366,0,-3,-3,-2,-2,-3,-7,-3,16.830000000000002
3367,0,0,0,1,-1,-1,1,-2,16.835
3368,3,-2,-3,0,0,2,5,4,16.84
3369,0,0,-2,-3,-4,-5,-3,-2,16.845
3370,-1,1,1,3,2,2,-2,-3,16.85
3371,-1,0,-1,1,0,0,0,1,16.855
3372,-2,-2,-2,-3,-2,-1,-1,-1,16.86
3373,-2,-1,-1,-3,-2,-2,-9,-3,16.865000000000002
3374,0,-2,-5,-1,-1,0,1,2,16.87
3375,-1,-1,0,0,0,1,-2,-3,16.875
3376,1,-1,-1,-1,0,-1,-1,1,16.88
3377,0,2,2,-5,-4,0,-1,0,16.885
3378,0,-2,-2,0,0,0,-6,-3,16.89
3379,2,3,4,1,-1,-1,-4,1,16.895
3380,-2,-2,0,0,0,1,7,0,16.9
3381,1,-1,1,2,1,-2,-5,-1,16.905
3382,0,1,3,-1,-1,-1,-1,0,16.91
3383,-1,0,-2,0,-2,0,1,-2,16.915
3384,3,2,1,1,-1,0,-2,0,16.92
3385,-10,-4,0,0,0,1,-1,-1,16.925
3386,-1,-1,-1,-1,-1,1,0,-2,16.93
3387,-2,-1,-2,0,0,-3,-3,1,16.935
3388,-1,0,-1,-1,-3,-4,-4,0,16.94
3389,3,-1,-2,-1,2,6,8,4,16.945
3390,1,0,0,7,-1,-4,0,-1,16.95
3391,-3,-4,-5,-9,-1,1,-3,-2,16.955000000000002
3392,2,3,2,-2,0,-4,-3,-1,16.96
3393,-2,-1,-3,1,0,-2,-2,-4,16.965
3394,-1,-1,-2,-4,-1,-2,0,-1,16.97
3395,2,-2,0,5,2,0,1,1,16.975
3396,-1,-3,0,-1,1,1,-3,-5,16.98
3397,3,0,-5,-5,-3,0,2,4,16.985
3398,-1,1,3,-1,-2,0,-4,-2,16.990000000000002
3399,-1,-2,0,6,0,2,14,1,16.995
3400,-2,-1,-4,-3,-1,2,2,0,17.0
3401,-1,-1,2,-1,-1,-3,-3,-1,17.005
3402,-2,0,-3,-3,1,0,1,0,17.01
3403,-1,1,0,-3,-3,-2,-3,-2,17.015
3404,-2,-3,-2,-2,-3,-3,-7,-1,17.02
3405,1,-2,0,1,-1,0,1,-1,17.025
3406,-2,-3,-2,-2,-2,-2,-2,0,17.03
3407,-1,-1,0,-1,0,-2,-1,-1,17.035
3408,-3,2,-2,-3,-1,-2,-2,-4,17.04
3409,-2,-2,-5,0,0,-3,-5,-5,17.045
3410,1,-1,0,0,0,1,2,4,17.05
3411,-1,1,1,1,0,1,1,0,17.055
3412,1,-2,0,3,-1,3,4,3,17.06
3413,0,0,-1,-2,0,-2,-7,-6,17.065
3414,-2,-3,-1,-3,-1,-3,2,1,17.07
3415,0,1,-2,-4,-2,-1,-7,-3,17.075
3416,-1,-1,-2,-5,-1,-2,-2,1,17.080000000000002
3417,-1,1,2,1,-3,-1,6,1,17.085
3418,-3,-4,-6,-4,-3,0,1,-2,17.09
3419,-1,0,0,3,-1,-3,-1,-2,17.095
3420,-3,-1,1,2,0,-3,-3,-3,17.1
3421,1,0,0,-2,-1,-5,-6,-2,17.105
3422,-1,0,-2,1,3,6,10,1,17.11
3423,0,-3,-3,-2,-2,0,0,2,17.115000000000002
3424,-1,0,-1,0,-1,0,1,-2,17.12
3425,-1,1,3,3,0,-1,1,-2,17.125
3426,1,4,6,2,1,-3,-6,-4,17.13
3427,-2,-4,-2,0,1,1,-3,-2,17.135
3428,2,1,1,-3,-1,0,2,3,17.14
3429,-1,-3,-4,2,-1,1,0,3,17.145
3430,-2,1,0,-1,-2,-1,-8,-4,17.150000000000002
3431,1,-1,0,1,2,1,2,3,17.155
3432,-4,-1,-2,1,-2,-5,-10,-3,17.16
3433,0,1,1,-2,1,4,14,3,17.165
3434,-1,-2,-3,0,-3,-3,-2,-1,17.17
3435,-1,-1,-2,-3,-3,-1,0,-1,17.175
3436,2,0,0,3,-1,2,0,0,17.18
3437,-11,-4,-2,-4,-3,-2,-6,0,17.185
3438,2,-1,1,1,1,6,16,6,17.19
3439,-1,0,3,-2,-1,-3,-10,-5,17.195
3440,0,1,1,-2,-1,1,7,-3,17.2
3441,0,-2,-4,1,2,-3,-13,-6,17.205000000000002
3442,5,4,4,-3,-2,-1,-1,0,17.21
3443,-2,-3,-5,-4,1,0,0,-1,17.215
3444,0,-1,-1,-1,1,-2,-1,3,17.22
3445,1,-2,-3,-4,-4,0,-10,-4,17.225
3446,-2,1,-1,-1,-4,-3,1,-1,17.23
3447,0,2,0,4,0,0,2,0,17.235
3448,-2,-3,-3,-1,-1,-1,-4,-3,17.240000000000002
3449,1,2,6,1,2,1,1,0,17.245
3450,-2,-4,-4,1,0,-2,-3,-1,17.25
3451,1,1,1,0,-2,0,2,0,17.255
3452,-1,0,-1,7,1,2,2,-1,17.26
3453,-1,1,0,-6,-1,-2,-5,-4,17.265
3454,-1,-2,-2,-3,-2,0,0,0,17.27
3455,-5,-2,1,3,-1,-4,-12,-6,17.275000000000002
3456,0,1,2,-2,0,-1,10,3,17.28
3457,-1,-4,-8,0,-4,-1,-1,0,17.285
3458,-2,-3,-4,-3,-2,-3,-8,-2,17.29
3459,-2,-3,-1,-3,-1,1,3,-2,17.295
3460,-2,-3,-3,-1,-2,-1,-2,1,17.3
3461,0,0,2,0,-1,-4,2,0,17.305
3462,-10,-4,-4,-1,0,-1,-2,-4,17.31
3463,0,-2,-5,-5,-2,1,1,4,17.315
3464,-1,-3,-3,-1,-1,-2,-5,-2,17.32
3465,1,1,0,0,-2,1,5,0,17.325
3466,1,0,-1,1,-1,-2,-4,-1,17.330000000000002
3467,-1,0,2,-1,-2,-3,-2,-2,17.335
3468,-1,0,-1,-1,0,2,2,-2,17.34
3469,1,0,2,-2,-3,-2,5,0,17.345
3470,0,-1,1,1,0,-4,-11,-3,17.35
3471,-2,-1,-3,0,1,1,4,-1,17.355
3472,1,-2,-1,-3,-1,2,-2,1,17.36
3473,1,0,-1,0,-2,-5,-8,-3,17.365000000000002
3474,1,2,1,1,-2,0,-2,0,17.37
3475,-3,-4,-6,-7,-1,0,3,0,17.375
3476,1,2,1,1,-1,-4,-10,-1,17.38
3477,-3,-2,-2,-1,1,0,-5,-1,17.385
3478,0,-3,-2,2,0,1,5,-1,17.39
3479,4,3,1,2,1,3,2,-1,17.395
3480,-4,-1,-2,-2,-2,-1,3,0,17.400000000000002
